RamanShift,CorrectedData
30.1047,960.8900487873274
32.3739,892.9873710320552
34.6426,822.0346836678824
36.9109,753.9319681560348
39.1787,684.829197737391
41.4461,618.4763381135098
43.7131,550.0733481376574
45.9796,479.5201804783366
48.2456,410.5667823033167
50.5112,344.8630959851647
52.7764,277.8090597907797
55.0411,210.25460853842998
57.3054,142.8496742682929
59.5692,76.09418691799983
61.8326,9.688074996685344
64.0955,-56.71873374745782
66.3579,-119.17631166311763
68.6199,-182.33416447883204
70.8815,-228.29060735178555
73.1426,-250.34213392085968
75.4032,-184.3829572017687
77.6634,87.69521070769088
79.9231,846.6024996954646
82.1824,2581.2990387725463
84.4412,5811.0449484839055
86.6995,10464.250323561522
88.9574,15167.525200626926
91.2148,18544.929511659142
93.4717,20169.373036961948
95.7282,20609.165371389823
97.9842,20603.61590810352
100.2398,20158.483834172137
102.4949,19630.378130628604
104.7495,19021.107576921037
107.0036,18334.93075619374
109.2573,17646.00606137997
111.5105,16958.891702063665
113.7632,16274.545711368695
116.0154,15681.625952830034
118.2672,15215.540127237187
120.5185,14761.145778563397
122.7693,14344.650298626517
125.0197,14021.860931632935
127.2696,13737.284778342537
129.519,13546.128799296606
131.7679,13348.699817663572
134.0163,13164.104521150584
136.2642,12991.249463977785
138.5117,12809.591068724283
140.7587,12577.93562805669
143.0052,12371.839306545706
145.2512,12202.058142982683
147.4967,11935.448052440574
149.7417,11771.514827971758
151.9863,11606.264143274126
154.2304,11492.751554330433
156.4739,11316.482501060786
158.717,11178.762308457775
160.9596,10988.496188349174
163.2017,10708.339240775134
165.4433,10407.246455890838
167.6844,10091.472716768087
169.925,9804.822802406214
172.1651,9405.901390889821
174.4047,9086.613062255292
176.6439,8825.062302479988
178.8825,8557.703506675152
181.1206,8326.440981701395
183.3582,8131.028948842299
185.5954,7972.921546117036
187.832,7811.1228302344925
190.0681,7734.1867781743385
192.3037,7625.867288805015
194.5388,7528.9181836531
196.7734,7516.793207986494
199.0075,7497.54603178392
201.2411,7520.580249856173
203.4742,7492.749382038586
205.7068,7529.606872960692
207.9389,7526.056092324534
210.1704,7580.900334536089
212.4015,7602.54281874077
214.632,7676.836688274989
216.862,7766.785010449737
219.0915,7849.240775807634
221.3205,7991.2068972234565
223.549,8158.436209079577
225.777,8358.981465846304
228.0044,8682.74534040958
230.2314,9036.030422065545
232.4578,9375.089213282885
234.6837,9607.12412616998
236.909,9761.037479084323
239.1339,9627.081494312173
241.3582,9362.058296529416
243.582,8950.669914141119
245.8053,8584.168281931783
248.0281,8169.155245179193
250.2503,7869.532563319474
252.472,7641.7519140971945
254.6932,7497.064896561592
256.9139,7309.073033344398
259.134,7205.927772106688
261.3536,7059.830487418814
263.5727,6962.932481791856
265.7912,6815.284987138585
268.0092,6702.839165742456
270.2267,6597.946111734075
272.4436,6461.056852215656
274.6601,6372.47234830996
276.8759,6271.34349652918
279.0913,6248.771129660792
281.3061,6202.406017778838
283.5204,6247.798868469649
285.7341,6307.850327295505
287.9473,6384.110977340691
290.16,6567.231338610999
292.3721,6784.661867271114
294.5837,7125.102953813407
296.7947,7384.654920883638
299.0052,7508.568019876529
301.2152,7308.34242834027
303.4246,6945.278248737367
305.6334,6448.075510446902
307.8418,5915.434173395182
310.0495,5562.25413302776
312.2568,5311.38522563585
314.4635,5099.9272318881285
316.6696,5016.229879339421
318.8752,4993.942844545283
321.0802,5009.215753898975
323.2847,5061.048183854328
325.4887,5065.339660773025
327.692,4978.739660406269
329.8949,4840.247607851868
332.0972,4554.612878420242
334.2989,4278.584799019334
336.5001,4041.7626510109676
338.7007,3832.895672971121
340.9008,3699.783063058152
343.1003,3561.173981101464
345.2992,3500.467549932636
347.4976,3425.9628567715063
349.6955,3421.1089538332462
351.8927,3447.1548590733973
354.0895,3380.1995562364154
356.2856,3405.5419945952135
358.4812,3363.3810896207124
360.6763,3348.7657227284135
362.8707,3262.2947417000178
365.0646,3252.966960829569
367.258,3224.6811617881704
369.4508,3178.486093717256
371.643,3194.080473511447
373.8346,3160.262986280509
376.0257,3071.6822851934103
378.2162,2971.8369918164935
380.4062,2842.1756969992866
382.5956,2690.5469618729403
384.7844,2573.0493191468577
386.9726,2492.5312746249792
389.1603,2425.291308380756
391.3474,2355.92787556233
393.5339,2318.0894070649356
395.7199,2251.5243102245286
397.9052,2249.180969196176
400.09,2221.5577456197107
402.2743,2204.0529786431525
404.4579,2223.614985198952
406.641,2340.6920601790307
408.8235,2480.0824762391694
411.0054,2759.9344826282286
413.1868,3124.8963037942485
415.3675,3386.9161365859363
417.5477,3562.3921466030333
419.7273,3549.072465576126
421.9064,3413.4551896118783
424.0848,3255.488379326237
426.2627,3061.470061200599
428.4399,2808.2482291614833
430.6166,2492.9708465207086
432.7928,2183.135848507618
434.9683,1902.4411454218543
437.1432,1734.5346257316996
439.3176,1573.7141588810327
441.4914,1484.9275969683822
443.6645,1452.5227763551502
445.8371,1373.64751855346
448.0091,1312.5496305502083
450.1806,1272.7769055958206
452.3514,1195.0771238152347
454.5216,1158.7980526056208
456.6913,1073.9874474133776
458.8603,1082.9930520969338
461.0288,1128.062599774843
463.1967,1137.443812735737
465.3639,1215.73440198762
467.5306,1323.2320671640682
469.6967,1449.2344957413115
471.8622,1573.7893619632669
474.0271,1703.8943255815066
476.1914,1743.9970306097075
478.3551,1679.34510402261
480.5182,1629.1361553549796
482.6807,1584.3677773481395
484.8426,1641.8375464520577
487.0039,1823.4930232730221
489.1647,2121.4317519989527
491.3248,2452.251258582848
493.4843,2623.9490477633917
495.6432,2599.072599756757
497.8015,2529.3193685396345
499.9592,2555.2367820979944
502.1163,2502.322243124616
504.2728,2360.7731287599145
506.4287,2092.636791121089
508.5839,1734.210558717612
510.7386,1476.6417391325922
512.8927,1273.0276226070382
515.0461,1161.5654846155394
517.199,1059.7525879024197
519.3512,998.6861835963427
521.5029,995.0635122284511
523.6539,988.381804343031
525.8043,999.8382805337369
527.9541,1052.9301515104144
530.1033,1066.2546179845267
532.2519,1129.4588701382381
534.3999,1270.5900874911767
536.5472,1489.8454382683794
538.694,1915.0720779889907
540.8401,2429.967147273699
542.9856,2878.7777675924735
545.1305,3023.351036115624
547.2748,2862.984021225684
549.4185,2501.773761071672
551.5615,2195.467265172776
553.704,2064.8115180304467
555.8458,1952.1034821914636
557.987,1938.8900995544973
560.1276,1821.3182924971843
562.2675,1736.3849640082663
564.4069,1632.4369988633025
566.5456,1493.371264473999
568.6837,1375.2346119277063
570.8212,1231.823877378054
572.958,1068.5858832263366
575.0942,932.1674395556056
577.2299,880.1153457630608
579.3648,893.4763919242268
581.4992,973.0473593134811
583.6329,1154.425020270436
585.766,1359.1061374042401
587.8985,1447.987461779796
590.0304,1428.4657308709466
592.1616,1376.5876676716634
594.2922,1336.6999808912615
596.4222,1235.9993654731852
598.5515,1109.5825029938842
600.6802,986.8460626698152
602.8083,837.8367026216138
604.9358,801.2010711014555
607.0626,717.1358079831562
609.1888,661.0375451285254
611.3144,557.9029072280146
613.4393,439.9785123617039
615.5636,331.7109730306511
617.6873,236.99689733613195
619.8103,192.78289006231353
621.9327,151.26555362340332
624.0544,151.9914885057824
626.1756,175.90729368318352
628.2961,151.5595666094241
630.4159,118.79490297925713
632.5351,116.05989697183941
634.6537,49.20114157838361
636.7716,29.41522862951024
638.8889,49.898749463833155
641.0056,49.99829512582073
643.1216,50.910456160962895
645.237,75.83182261476304
647.3518,83.908984023622
649.4659,108.93852916562355
651.5793,126.31704597976113
653.6922,139.6411213156489
655.8043,108.25734075973287
657.9159,116.61228850205407
660.0268,69.05254765008249
662.137,3.37470014516839
664.2466,-21.474672761862166
666.3556,-59.29902353344278
668.4639,-31.851590100026442
670.5716,41.11498200517417
672.6786,95.49836544632853
674.785,190.09623247646414
676.8907,268.65625439362793
678.9958,323.57610059490435
681.1002,325.75343779081777
683.204,294.58592945613873
685.3072,215.77123580809803
687.4097,184.15701411807277
689.5115,140.9909194997308
691.6127,80.52060522517422
693.7132,44.6937231565953
695.8131,-2.492075649012804
697.9123,-18.03914058159171
700.0109,-52.49979613525102
702.1089,-56.47618659308682
704.2061,-56.319931765239744
706.3028,-10.482087264752408
708.3987,43.23685393145024
710.4941,117.08650356248745
712.5887,279.0664729351165
714.6827,541.1763721852303
716.7761,858.365808658059
718.8688,1167.3343842870754
720.9608,1307.6816924220993
723.0522,1319.4573147396086
725.1429,1136.210819839268
727.233,833.4917631261687
729.3224,567.3496886433004
731.4112,339.5841320987356
733.4993,185.69462352704886
735.5867,95.2806895669828
737.6735,31.441855000331998
739.7596,28.277643656089822
741.845,30.187579048835687
743.9298,29.57118441037801
746.014,23.677982670649726
748.0974,61.45749646387321
750.1802,48.55924818750009
752.2624,60.63275962440548
754.3439,90.32755207187893
756.4247,133.69314622088405
758.5048,213.77906185910888
760.5843,334.1348174373179
762.6631,577.4099292684859
764.7413,896.5539103242481
766.8188,1338.416267802144
768.8956,1699.1964999341772
770.9718,1942.5940915681913
773.0473,1850.1085105600669
775.1221,1595.689205339745
777.1962,1313.9356058360881
779.2697,1157.397126021072
781.3426,1238.6731667273152
783.4147,1494.5131172134716
785.4862,1792.9663543514653
787.557,1796.9322400680994
789.6271,1510.8601183605115
791.6966,1090.5493152565286
793.7654,689.4491416753763
795.8335,481.4088976307876
797.901,359.42787624201264
799.9678,331.3053658142071
802.0339,365.7906510582616
804.0993,405.4830133720088
806.1641,406.4817304953858
808.2282,385.2360761134978
810.2916,312.4953198466419
812.3544,249.60872746275436
814.4164,177.77556160482345
816.4778,175.94508241975564
818.5385,183.11654827669918
820.5986,223.58921578535956
822.658,260.1123397242782
824.7166,288.8851726361099
826.7747,407.3569644623867
828.832,489.77696225578893
830.8886,576.4944089954315
832.9446,702.2585427626664
834.9999,805.8185958739004
837.0545,879.5237936229614
839.1085,943.5233532454913
841.1618,944.9164831819035
843.2143,952.602382437376
845.2662,921.5802405679324
847.3175,881.79923760357
849.368,805.9085443584918
851.4179,735.4573228289119
853.467,627.6947269519615
855.5155,558.6699033102022
857.5633,476.8819922092516
859.6105,390.8801283680277
861.6569,363.9134417366322
863.7027,317.8310583563698
865.7478,321.68210062940943
867.7922,332.3656877796202
869.8359,372.33093581404955
871.8789,501.9269574160926
873.9212,625.852861545839
875.9629,778.0077521441126
878.0039,935.490726893212
880.0441,1003.7508756953639
882.0837,1027.4372790978887
884.1226,913.4490076105985
886.1609,823.1851214689386
888.1984,717.994671773863
890.2352,666.7767013944776
892.2714,627.6802460199442
894.3069,621.954334671661
896.3416,593.6479900942259
898.3757,568.560228812692
900.4091,568.090061415639
902.4418,630.886492806043
904.4739,633.2485222059831
906.5052,604.2751425286751
908.5358,523.165340354858
910.5658,420.76809622251585
912.595,323.5823854379869
914.6236,262.20717909993255
916.6515,257.241445071194
918.6786,248.63414859254317
920.7051,329.634252332341
922.7309,400.09071647261044
924.756,467.55249789903337
926.7804,539.3685494963884
928.8041,539.1878194739284
930.8272,576.8092506472258
932.8495,512.8817804399769
934.8711,480.40434050778913
936.892,359.5258573774545
938.9123,241.1952527717258
940.9318,131.26144481810388
942.9506,45.72334923213748
944.9688,-10.070119583229825
946.9862,-32.52004768229199
949.003,-73.82742051884907
951.019,-55.54289867142779
953.0344,-11.56640518263157
955.0491,33.55269177849459
957.063,99.26513959128351
959.0763,194.52168529954906
961.0888,210.6230749544593
963.1007,304.9700526619654
965.1119,355.86336042178846
967.1223,372.3037371839482
969.1321,403.5919183398328
971.1412,430.67863555779786
973.1495,468.9646164702817
975.1572,489.6505844029416
977.1641,550.8372579917886
979.1704,534.0253509763306
981.1759,526.4655715877097
983.1808,603.5586227168178
985.1849,697.7052019898974
987.1884,836.456000997604
989.1911,997.6617043535462
991.1932,1116.12298830678
993.1945,1163.490519129743
995.1951,1150.0649519336484
997.1951,1143.8969301948073
999.1943,1103.5870858888838
1001.1928,1044.436039552571
1003.1906,1023.1444006866968
1005.1877,1062.962768347731
1007.1841,1051.791731360704
1009.1798,998.2318679210202
1011.1748,841.4337457061711
1013.1691,691.7479224113313
1015.1627,528.4749473173424
1017.1556,407.76536278756885
1019.1477,364.76970590062865
1021.1392,325.038509657491
1023.1299,347.12230341142913
1025.12,383.9216132653355
1027.1093,395.5869618508814
1029.0979,476.5688679605237
1031.0859,528.1678464308561
1033.0731,544.9844073327813
1035.0596,476.46905545552727
1037.0454,384.62229013848173
1039.0304,285.59460595634664
1041.0148,208.33649363760105
1042.9985,166.14844105478005
1044.9814,154.0809339970565
1046.9636,134.53445659211866
1048.9452,118.95949142684913
1050.926,136.95651974278735
1052.9061,128.87602159188282
1054.8855,144.4184756565146
1056.8642,148.73435933030942
1058.8421,205.72414856270825
1060.8194,244.28831781581266
1062.7959,262.5273394944852
1064.7717,274.9416835607044
1066.7469,271.93181735118014
1068.7213,265.54820545320763
1070.695,258.9913097347671
1072.6679,207.6115894083605
1074.6402,191.45950109657588
1076.6117,157.58549934589155
1078.5826,193.44003678818808
1080.5527,283.72356447949824
1082.5221,400.9365315414534
1084.4908,572.1293842584519
1086.4587,757.9025649055329
1088.426,885.75651003644
1090.3925,892.6916486258951
1092.3584,826.7584007910546
1094.3235,710.6571777221598
1096.2879,640.8883823418691
1098.2515,611.5024104662743
1100.2145,639.0996515025809
1102.1767,685.0804887429786
1104.1382,800.7452990886595
1106.099,994.9444525900144
1108.0591,1150.4783112899868
1110.0185,1237.6972272820758
1111.9771,1248.151541154999
1113.9351,1095.8915811205043
1115.8923,841.7176629088299
1117.8488,584.8300912912928
1119.8045,378.72916262203944
1121.7596,289.21516740691914
1123.7139,226.1383923644862
1125.6675,261.64912132115114
1127.6204,332.9476358419379
1129.5726,354.33421487538453
1131.524,383.0091340405579
1133.4748,445.6226654131797
1135.4248,452.87507723888757
1137.3741,491.9166333070907
1139.3226,477.49759287845154
1141.2705,476.4682102944653
1143.2176,422.7787351216566
1145.164,450.92941216187046
1147.1097,486.770481989166
1149.0546,498.6021806683102
1150.9989,411.1747393963715
1152.9424,286.38838438439416
1154.8852,148.19333773168182
1156.8272,59.239818673651826
1158.7686,15.278044963793036
1160.7092,-2.141766236805779
1162.6491,-14.41939791983441
1164.5883,39.84538831926329
1166.5267,130.20297493482212
1168.4644,253.90374398272706
1170.4014,402.2980762168372
1172.3377,570.0363498519737
1174.2732,718.8689390799782
1176.2081,876.1462123923329
1178.1421,998.8185310918279
1180.0755,1111.2362477197958
1182.0082,1118.4997048293853
1183.9401,1065.059233861385
1185.8713,942.26515507159
1187.8017,770.7677780652057
1189.7315,568.3174030247883
1191.6605,387.06432242521805
1193.5888,260.50882305820596
1195.5163,182.45118784482383
1197.4432,125.89169710105489
1199.3693,60.53062931837485
1201.2947,61.06826172934052
1203.2193,47.60487096120414
1205.1432,82.3407330305381
1207.0664,137.27612347786817
1208.9889,213.11131702031616
1210.9106,270.69658700224227
1212.8316,330.7822046368983
1214.7519,411.5684384305723
1216.6715,444.80555358173297
1218.5903,438.74381117316807
1220.5084,407.03346783961115
1222.4257,392.52477582836036
1224.3424,356.7179833163791
1226.2583,424.9133345553878
1228.1735,503.81107022992956
1230.0879,615.4614267754132
1232.0016,717.5646355891367
1233.9146,751.8709219137877
1235.8269,698.280503816407
1237.7384,602.0435918453263
1239.6492,495.36038956607763
1241.5592,418.1310945237565
1243.4686,343.15589930985834
1245.3772,311.98499233456505
1247.285,267.1685585765031
1249.1922,249.80677989445348
1251.0986,247.949835475511
1253.0042,274.7979020087041
1254.9092,325.6511537035649
1256.8134,402.75976202164566
1258.7169,527.82389516799
1260.6196,650.2437173200469
1262.5216,809.3193873770279
1264.4229,903.8510577357092
1266.3234,1012.1388726996774
1268.2232,1028.682967534004
1270.1223,1031.533467382379
1272.0207,1011.4904871016647
1273.9183,1004.0041312333892
1275.8151,935.624494204179
1277.7113,883.9516604006199
1279.6067,771.7357048530544
1281.5014,672.2266937523086
1283.3953,591.3746855718546
1285.2885,533.6797320629012
1287.181,497.2918790629101
1289.0727,484.11116707255087
1290.9637,541.5876316195731
1292.854,612.2713033906202
1294.7435,759.1622076564599
1296.6323,932.3103635651487
1298.5204,1147.4657826731204
1300.4077,1334.3284672137097
1302.2943,1488.7484079455926
1304.1802,1552.7255822841666
1306.0653,1512.7099527573428
1307.9497,1450.001466365777
1309.8333,1399.5000549830283
1311.7162,1405.3556359826393
1313.5984,1490.0681127431599
1315.4798,1597.8373745895801
1317.3605,1747.3632959462116
1319.2405,1878.3457352589912
1321.1197,1925.834533500224
1322.9982,1908.1795128587637
1324.876,1900.7804762651162
1326.753,1895.5872075679954
1328.6293,1912.3994716083093
1330.5048,1935.3670142710976
1332.3796,1938.3895623174058
1334.2537,1903.5168231546131
1336.127,1890.8484848062044
1337.9996,1881.2842162604952
1339.8714,1855.6736675973225
1341.7426,1810.616470083677
1343.6129,1799.5622364298138
1345.4826,1741.5105612398233
1347.3515,1717.6610211221769
1349.2196,1684.513175270241
1351.087,1678.9665657007731
1352.9537,1731.5207175854007
1354.8197,1822.5251393060885
1356.6849,1952.4793219295943
1358.5493,2017.5327382974265
1360.4131,2029.0348417263012
1362.276,1985.435065357607
1364.1383,1882.9328220423872
1365.9998,1709.4275047773376
1367.8606,1493.1184877298233
1369.7206,1337.2551279729378
1371.5799,1251.4867676485915
1373.4384,1174.712735526146
1375.2962,1099.3823478600925
1377.1533,944.5949091577991
1379.0096,754.0997129328134
1380.8652,567.6960432527335
1382.7201,401.58317664416063
1384.5742,286.2603839567373
1386.4275,199.6269320242759
1388.2802,110.18208481798638
1390.132,57.67510431281198
1391.9832,31.755251381877315
1393.8336,2.6217863215570105
1395.6832,-8.92603088932401
1397.5322,-28.23894029815756
1399.3803,-26.96759278128775
1401.2278,-15.412357108044489
1403.0745,6.176667358492978
1404.9204,8.699535224690408
1406.7656,28.556301035149772
1408.6101,31.997019247476146
1410.4538,82.17174403371564
1412.2968,118.63052924594422
1414.139,161.97342791452184
1415.9805,225.40049188350577
1417.8213,324.81177137722034
1419.6613,438.0073143659838
1421.5006,593.2371655720003
1423.3391,789.7513653373999
1425.1769,1100.1999480719437
1427.0139,1477.032940287881
1428.8502,1942.4503574954647
1430.6858,2436.052200434619
1432.5206,2754.8884504207645
1434.3547,2943.4590644088044
1436.188,2982.1639718047536
1438.0206,2931.9530725800446
1439.8524,2849.9262368844643
1441.6835,2800.083305548276
1443.5139,2740.4240909024766
1445.3435,2706.498377277235
1447.1724,2682.0059215984766
1449.0005,2651.946453727149
1450.8279,2562.3196767041386
1452.6545,2550.3752670508725
1454.4804,2570.7628756655813
1456.3056,2575.1321279427425
1458.13,2525.132623569209
1459.9536,2363.063936480513
1461.7766,2091.4756153608605
1463.5987,1781.8671852638222
1465.4202,1486.9881503282127
1467.2409,1243.937996874175
1469.0608,1050.7661963519727
1470.88,871.0222077724898
1472.6984,709.6054796389508
1474.5161,586.4654517443564
1476.3331,491.1515567856559
1478.1493,398.6132215951461
1479.9648,341.8498680936091
1481.7795,273.9109142156949
1483.5935,249.19577447755773
1485.4067,209.95386065624234
1487.2192,172.93458203683895
1489.031,161.43734580489945
1490.842,153.0615574166327
1492.6522,127.80662071387678
1494.4618,117.4219380078548
1496.2705,112.70691033172488
1498.0785,109.31093754442963
1499.8858,101.13341837784446
1501.6924,100.27375047073474
1503.4981,98.43133045053719
1505.3032,98.2555539419509
1507.1075,80.74581558536147
1508.911,79.75150903860094
1510.7138,61.972027152044575
1512.5159,47.45676197855482
1514.3172,37.605104951274825
1516.1178,26.766447028780476
1517.9176,11.59017879359999
1519.7166,0.8256905605962856
1521.515,11.572372528731194
1523.3126,10.479614888712604
1525.1094,-3.8031922844747896
1526.9055,-17.176659020643
1528.7008,-12.941357355710352
1530.4954,-16.19768773077567
1532.2893,-14.845921302777697
1534.0824,-21.986167413755084
1535.8747,-5.268387094995433
1537.6663,-3.942321735974474
1539.4572,-3.9576600949835665
1541.2473,-2.4640515465216595
1543.0367,5.08889407193692
1544.8253,3.0515915387895802
1546.6132,22.574455581547227
1548.4003,16.807900897204036
1550.1867,52.20234195701141
1551.9723,62.90819306414187
1553.7572,89.17586799974606
1555.5414,125.00577991589307
1557.3247,144.6483410728947
1559.1074,193.20396248100542
1560.8893,238.32305370399808
1562.6705,278.6060223736067
1564.4509,353.60327373833525
1566.2305,420.01521026062755
1568.0094,505.59223086689644
1569.7876,566.2347302834028
1571.565,623.643098180487
1573.3417,661.4677185661417
1575.1176,668.7089692119316
1576.8928,675.7672212747452
1578.6672,616.0428392243812
1580.4409,537.28618077297
1582.2138,454.2475974722115
1583.986,378.77743550094783
1585.7575,328.82603649554403
1587.5282,261.5937383045939
1589.2981,226.8308754884315
1591.0673,215.0377799914545
1592.8358,210.8647814897513
1594.6035,217.2622075090344
1596.3704,215.78038346636959
1598.1366,230.16963260620014
1599.9021,253.5302760151685
1601.6668,282.86263247822126
1603.4308,321.0170182450029
1605.194,386.0937467365318
1606.9564,452.74312816365705
1608.7182,539.5154688762912
1610.4791,643.0610706969162
1612.2394,763.6302300528614
1613.9988,901.3732369408451
1615.7576,1085.9403737212856
1617.5156,1257.5819137408705
1619.2728,1435.9481194868847
1621.0293,1586.0892408707946
1622.785,1655.0555134445872
1624.54,1604.1971568993586
1626.2942,1522.5143743756496
1628.0477,1357.257352972031
1629.8005,1173.626264561929
1631.5525,1009.9712674461998
1633.3037,867.4925081894364
1635.0542,764.4901232565217
1636.804,675.1142404374125
1638.553,595.2649798771668
1640.3013,593.6924549697023
1642.0488,565.1967731562879
1643.7955,570.828035941269
1645.5416,594.0363391770245
1647.2868,651.3217730076542
1649.0313,695.0344216368951
1650.7751,809.0743627552674
1652.5181,962.5916671029468
1654.2604,1172.736397329366
1656.0019,1385.5086064580423
1657.7427,1668.3583357851317
1659.4828,1935.5356127517036
1661.222,2114.940448115248
1662.9606,2142.8728332778965
1664.6984,2014.332738492381
1666.4354,1765.7201125827028
1668.1717,1446.6848842295392
1669.9072,1108.3269644563654
1671.642,859.5962498198091
1673.3761,672.8926257932305
1675.1094,523.6659692540259
1676.8419,390.86615035066757
1678.5737,322.49303399496875
1680.3048,254.3464811900824
1682.0351,216.72634971423122
1683.7646,180.03249480217505
1685.4934,150.11476952140947
1687.2215,124.47302513910745
1688.9488,121.20711142129471
1690.6754,113.81687688926695
1692.4012,101.30216885224877
1694.1263,91.36283348129791
1695.8506,73.69871593444987
1697.5742,80.60966045611417
1699.297,61.49551055371376
1701.0191,61.10610892857653
1702.7404,46.69129766707647
1704.461,24.55091824452643
1706.1808,34.28481166932761
1707.8999,40.842818704373485
1709.6182,28.324779769709266
1711.3358,35.780534876952515
1713.0527,30.859923754472902
1714.7688,26.862785772835423
1716.4841,10.3389599940067
1718.1987,27.938285211326956
1719.9126,16.060600114747558
1721.6257,14.705743114838242
1723.338,12.473552461563486
1725.0496,1.4638662578313415
1726.7605,6.076522481813754
1728.4706,-0.8386409029556035
1730.18,-3.8317859937076264
1731.8886,1.3969334903481467
1733.5964,-9.202597890456445
1735.3036,-4.630495589757629
1737.0099,11.913216872760358
1738.7156,5.778562236064317
1740.4204,-5.234436880011344
1742.1246,-1.7757579134176922
1743.8279,0.8546739899193199
1745.5306,9.00695142389418
1747.2325,-0.41883302614292006
1748.9336,3.0274131350879543
1750.634,9.94578658700857
1752.3336,6.5363839787667075
1754.0325,4.199301860052856
1755.7307,-0.015363284806198862
1757.4281,-1.6575150134765408
1759.1247,0.3229431165307233
1760.8206,7.326124106277803
1762.5158,9.052140953598382
1764.2102,-3.098893416934061
1765.9039,20.923133828733853
1767.5968,10.268366482599504
1769.289,10.586948127430105
1770.9804,5.579022243309055
1772.6711,6.494732204450884
1774.361,4.9842213292804445
1776.0502,19.34763287127521
1777.7386,19.58511003407193
1779.4263,11.696795827830101
1781.1132,15.432833066858848
1782.7994,8.59336444849987
1784.4849,11.678532515767074
1786.1696,2.788479725741354
1787.8535,19.77334841871948
1789.5367,15.333280907114158
1791.2192,18.418419305604857
1792.9009,15.12890557553942
1794.5818,22.514881494082147
1796.2621,17.17648868710876
1797.9415,28.613868555346244
1799.6202,24.87716232775756
1801.2982,26.766510947167262
1802.9755,35.982055107629094
1804.6519,35.573935235531735
1806.3277,34.44229139744448
1808.0027,18.487263304198223
1809.6769,17.80899032220077
1811.3504,36.25761163298739
1813.0231,38.183266240004514
1814.6951,37.33609278412314
1816.3664,35.31622952438215
1818.0369,36.77381434646077
1819.7067,30.408984782876132
1821.3757,35.521877998407945
1823.044,30.962630853746077
1824.7115,38.731379854362785
1826.3783,43.37826119610395
1828.0443,34.753410687501855
1829.7096,44.35696370330675
1831.3741,50.339055270736026
1833.0379,53.4498199734378
1834.701,47.83939189166972
1836.3633,43.10790457119265
1838.0248,41.35549107937413
1839.6856,51.23228405250302
1841.3457,52.43841571331404
1843.005,53.224017772219895
1844.6636,54.489221415249176
1846.3214,57.684157296191415
1847.9785,62.458955523944724
1849.6349,54.71374563056588
1851.2904,67.098656523523
1852.9453,62.51381656314675
1854.5994,56.70935343878182
1856.2528,67.48539421463556
1857.9054,72.39206538782196
1859.5572,67.72949278060082
1861.2083,73.19780149131202
1862.8587,72.8971159410014
1864.5084,64.32755981873697
1866.1572,67.83925608461641
1867.8054,58.982327055462065
1869.4528,54.20689436970497
1871.0994,63.263079075952874
1872.7453,59.85100168074541
1874.3905,62.92078205799089
1876.0349,62.87253948308944
1877.6786,67.00639260223352
1879.3215,74.27245943288995
1880.9637,70.02085732246314
1882.6051,60.45170287563269
1884.2458,73.66511199687011
1885.8858,65.1611999861309
1887.525,64.79008140671976
1889.1634,58.35187017033013
1890.8011,65.34667954075462
1892.4381,72.62462219826784
1894.0743,72.03581016967769
1895.7098,70.23035475554775
1897.3446,73.1583665360829
1898.9786,78.86995538918563
1900.6118,69.41523046117527
1902.2443,74.8443001096723
1903.8761,71.50727199814514
1905.5071,72.05425304162031
1907.1374,67.08534944005214
1908.7669,76.55066667285314
1910.3957,71.40030954858366
1912.0237,64.43438211029775
1913.651,63.70298768704629
1915.2776,73.60622896353675
1916.9034,68.6942079874475
1918.5285,70.11702607039433
1920.1528,69.5247838370517
1921.7764,75.91758121092494
1923.3992,67.74551742027143
1925.0213,60.05869093417459
1926.6427,66.40719954426208
1928.2633,57.5911404415765
1929.8832,71.21061015308828
1931.5023,59.81570462985701
1933.1207,59.156519110835916
1934.7383,66.68314823682226
1936.3552,66.99568605704894
1937.9714,67.74422595391798
1939.5868,54.87886063987435
1941.2015,57.39968214992177
1942.8154,51.50678197027548
1944.4286,59.25025101315498
1946.041,53.53017967571145
1947.6528,47.64665776259403
1949.2637,52.84977454315106
1950.8739,49.63961881026489
1952.4834,47.76627882832088
1954.0921,50.72984236530817
1955.7001,54.68039671155418
1957.3074,39.1680286500889
1958.9139,38.5928244171389
1960.5197,38.00486985725058
1962.1247,44.454250429042645
1963.729,48.94105121108646
1965.3325,41.615356837410104
1966.9353,42.52725145263264
1968.5374,41.62681878522051
1970.1387,39.26414213836779
1971.7393,31.68930439900089
1973.3392,34.002388061405895
1974.9383,30.80347530297604
1976.5366,31.142647961081366
1978.1342,43.16998756505791
1979.7311,39.23557533281564
1981.3273,41.98949205056499
1982.9227,40.73181811216091
1984.5173,34.612633491563656
1986.1112,38.78201775541629
1987.7044,28.540050124235677
1989.2968,44.63680943071961
1990.8885,36.32237422216588
1992.4795,44.196822599505026
1994.0697,54.01023230044416
1995.6592,33.86268062072247
1997.2479,34.50424431597742
1998.8359,32.83499980321983
2000.4232,31.705023154419564
2002.0097,42.86439011319692
2003.5955,38.963176106121864
2005.1805,36.40145613112077
2006.7648,42.52930479648819
2008.3484,39.44679634650481
2009.9312,36.05400460015778
2011.5133,33.90100298196728
2013.0946,41.087864555913484
2014.6752,48.064662046967555
2016.2551,48.881467769222354
2017.8342,45.03835355612432
2019.4126,37.43539075230626
2020.9902,35.072650252017866
2022.5672,29.40020257515539
2024.1433,41.518117890888675
2025.7188,37.07646607438585
2027.2935,27.125316585634664
2028.8674,26.764738513858788
2030.4406,28.34480067702907
2032.0131,35.3155716254696
2033.5849,35.677119626056765
2035.1559,32.229512592511924
2036.7261,32.522818081785886
2038.2957,30.557103328534595
2039.8645,27.782435242185784
2041.4325,37.798880426596725
2042.9998,27.35650520780098
2044.5664,34.50537553384311
2046.1323,31.295557079203036
2047.6974,33.92711517330747
2049.2617,39.05011483262808
2050.8254,43.01462073436505
2052.3883,31.52069716521862
2053.9504,31.16840798174246
2055.5118,33.50781672528433
2057.0725,38.73898662550744
2058.6325,33.911980576998076
2060.1917,42.37686108695266
2061.7502,30.13369032344849
2063.3079,41.28253003079476
2064.8649,24.073441651964572
2066.4212,30.956486217105635
2067.9767,27.831724515631663
2069.5315,33.04921702739159
2071.0856,28.059023953917972
2072.6389,35.16120516625131
2074.1915,27.055820254842274
2075.7433,20.842928458529855
2077.2945,31.022588745595158
2078.8448,23.24485987589037
2080.3945,21.609800299042377
2081.9434,22.01746823223027
2083.4916,25.41792167653523
2085.039,20.911218412864514
2086.5857,22.09741596794686
2088.1317,27.32657165939918
2089.677,19.84874258386469
2091.2215,14.413985564721315
2092.7652,24.922357226859845
2094.3083,18.32391405103158
2095.8506,20.66871226876458
2097.3921,25.75680792834828
2098.933,24.688256871384738
2100.4731,17.66311468190861
2102.0124,27.431436697071604
2103.5511,17.99327807739553
2105.089,29.24869370908789
2106.6261,22.947738298423815
2108.1626,18.19046625919202
2109.6983,13.326931775703883
2111.2332,33.407188850367106
2112.7675,27.78129135232018
2114.301,28.999292816630145
2115.8337,28.061246500551988
2117.3657,35.667205371347904
2118.897,29.967222115668164
2120.4276,26.361349063490934
2121.9575,21.8996382451229
2123.4866,30.382141427257693
2125.0149,34.00891015759282
2126.5426,21.829995680004686
2128.0695,25.19544889828171
2129.5956,21.605320497911748
2131.1211,30.859660912428467
2132.6458,25.858520359312024
2134.1698,31.301948747446204
2135.693,27.28999572712985
2137.2155,30.82271063564258
2138.7373,26.500142537364127
2140.2584,25.97234018844722
2141.7787,30.73935208004343
2143.2983,31.251226443582027
2144.8171,20.40801120309834
2146.3353,30.759753970116208
2147.8527,24.306502152079247
2149.3693,23.448302848833805
2150.8853,26.535202917161655
2152.4005,24.26724897936151
2153.9149,25.99448739238096
2155.4287,20.6669642704951
2156.9417,17.08472546803489
2158.454,24.497816632662193
2159.9655,21.7062832411915
2161.4764,30.21017052545949
2162.9865,25.009523500240334
2164.4958,36.554386878206856
2166.0045,22.99480512193668
2167.5124,23.080822328464706
2169.0195,23.26248236487811
2170.526,30.189828867455958
2172.0317,24.26290523985267
2173.5367,18.881754583824772
2175.0409,34.296419758500065
2176.5445,29.456943434188815
2178.0473,27.16336793823723
2179.5494,25.765735303422844
2181.0507,23.364087290889188
2182.5513,25.558465404123353
2184.0512,26.74891091297195
2185.5504,25.98546483169673
2187.0488,22.21816790707078
2188.5465,19.547060626012808
2190.0435,30.82218325326039
2191.5397,19.14357585808068
2193.0353,20.061278201519485
2194.5301,23.625329853187054
2196.0241,23.3857701820815
2197.5175,23.24263832094789
2199.0101,23.695973168673618
2200.502,24.19581339172055
2201.9931,20.29219741959082
2203.4835,23.985163439828966
2204.9733,20.174749437057812
2206.4622,15.76099315604938
2207.9505,20.243932139827848
2209.438,14.573603773808031
2210.9248,12.150045240965937
2212.4109,17.923293578541916
2213.8962,16.793385702276396
2215.3809,27.710358348677232
2216.8648,20.474248086318426
2218.3479,14.335091206670995
2219.8304,13.542923796463583
2221.3121,14.89778179907455
2222.7931,15.049701022453178
2224.2733,13.548717125572011
2225.7529,12.84486561690619
2227.2317,20.738181869443792
2228.7098,23.22870112772455
2230.1872,14.266458428905935
2231.6638,17.50148857785939
2233.1397,9.533826236791697
2234.6149,14.41350589289516
2236.0894,10.390561938024575
2237.5632,5.4150286198992035
2239.0362,9.586940082333172
2240.5085,9.456330414990475
2241.9801,8.873233611665796
2243.4509,13.637683571591197
2244.921,8.14971410526664
2246.3904,14.90935888681554
2247.8591,9.016651508864811
2249.3271,8.121625414947516
2250.7943,8.924313958430503
2252.2608,4.17475041146497
2253.7266,16.27296795695929
2255.1917,10.31899973607483
2256.656,5.962878727243492
2258.1197,3.954637805707648
2259.5826,6.89430978708117
2261.0447,2.081927447431667
2262.5062,6.417523493884346
2263.9669,6.201109835108241
2265.4269,0.982698315597645
2266.8862,7.41230071783616
2268.3448,13.189919007151161
2269.8026,11.015555074746885
2271.2598,13.739210679929101
2272.7162,9.86088747184806
2274.1719,15.6305869622621
2275.6268,9.798310564320786
2277.0811,8.914059534867988
2278.5346,10.877835032764551
2279.9874,15.58963812773095
2281.4395,15.449469780709364
2282.8908,9.507330796746032
2284.3414,12.213221826392783
2285.7914,23.017143425128097
2287.2406,13.319096026298553
2288.689,16.76907983307899
2290.1368,12.917094915453617
2291.5838,14.363141175716237
2293.0302,15.807218386989689
2294.4758,16.649326178765932
2295.9206,11.88946402246495
2297.3648,18.927631223013577
2298.8082,8.663826966444617
2300.251,19.648050249514313
2301.693,15.080299982340648
2303.1343,16.210574878561147
2304.5748,20.88887350101038
2306.0147,15.115194250417403
2307.4538,19.839535318622893
2308.8922,18.861894746315784
2310.3299,15.282270375789608
2311.7669,12.100659860719361
2313.2031,19.867060701957826
2314.6387,12.231470279351583
2316.0735,9.943885774076307
2317.5076,11.85430424499333
2318.941,14.612722651525246
2320.3737,7.569137834552009
2321.8056,15.873546488826491
2323.2369,11.525945233410596
2324.6674,10.176330528631013
2326.0972,7.474698719555192
2327.5263,13.671046049487813
2328.9547,24.46536868698672
2330.3823,23.257662663899566
2331.8092,18.047923767420514
2333.2355,16.836147552167233
2334.661,18.972329392278596
2336.0858,12.856464493531917
2337.5098,14.938547871981712
2338.9332,9.26857441511811
2340.3558,16.24653886104619
2341.7778,19.222435855185665
2343.199,12.54625988049088
2344.6195,19.318005227692367
2346.0393,23.937666062058042
2347.4583,24.00523635567589
2348.8767,17.970709841257417
2350.2943,19.084080011461936
2351.7113,24.745340179241907
2353.1275,27.754483466709246
2354.543,23.061502748522855
2355.9578,27.01639062179703
2357.3718,24.96913945303106
2358.7852,24.069741338560732
2360.1978,24.56818812503036
2361.6098,25.41447141838728
2363.021,26.158582578897324
2364.4315,26.65051271268169
2365.8413,29.090252664276136
2367.2504,27.2277930117113
2368.6587,20.363124042115658
2370.0664,18.19623577033991
2371.4733,20.07711800760336
2372.8795,23.455760383163295
2374.285,28.482152325505524
2375.6899,20.60628302855855
2377.0939,19.37814140142973
2378.4973,26.897716147163408
2379.9,17.71499577502277
2381.3019,23.9299685252941
2382.7032,25.092622461113763
2384.1037,19.75294540631876
2385.5035,22.760924933819922
2386.9027,22.316548418999332
2388.3011,15.569803009629652
2389.6987,24.120675630318146
2391.0957,17.619153049974443
2392.492,18.31522179630116
2393.8876,20.508868220809802
2395.2824,12.400078491859972
2396.6765,23.338838572722693
2398.07,17.725134302668266
2399.4627,16.80895128757868
2400.8547,23.790274956084886
2402.246,21.519090568728302
2403.6366,25.095383148147903
2405.0265,18.419137501792022
2406.4156,24.490338186155327
2407.8041,23.708969573541253
2409.1918,25.525015791349915
2410.5789,22.738460729892154
2411.9652,22.999288024228463
2413.3508,23.05748108203545
2414.7358,28.913023080996425
2416.12,29.965896968220534
2417.5035,28.266085401686894
2418.8863,29.313570739715487
2420.2684,25.25833505796595
2421.6497,29.95036013896214
2423.0304,22.63962751264495
2424.4104,26.676118409451817
2425.7896,21.85981383342437
2427.1682,26.640694521843102
2428.546,29.918740993390713
2429.9232,28.24393350034319
2431.2996,27.866251995789355
2432.6753,22.93567615037898
2434.0503,23.152185356099324
2435.4246,27.165758775580798
2436.7982,29.42637533993235
2438.1711,26.03401370860513
2439.5433,22.13865224678665
2440.9148,24.24026905932442
2442.2856,26.938842029679677
2443.6557,22.734348798911014
2445.025,30.176766738689025
2446.3937,25.616072993340822
2447.7617,22.752244405426268
2449.1289,29.885257561344815
2450.4955,25.315088819973482
2451.8613,30.991714241337036
2453.2265,29.465109632309634
2454.5909,31.435250489848272
2455.9546,30.60211201625924
2457.3177,31.715669099496438
2458.68,36.32589632149302
2460.0416,38.93276794702547
2461.4025,34.38625787761157
2462.7627,31.2363396254417
2464.1222,40.78298635884397
2465.4811,42.676170933783396
2466.8392,37.21586579839527
2468.1966,40.402042974053245
2469.5533,40.93467410997266
2470.9093,40.11373045134843
2472.2645,43.239182834029066
2473.6191,44.91100169272619
2474.973,35.079157029759415
2476.3262,42.34361839833883
2477.6787,43.60435500088272
2479.0305,42.11133561637354
2480.3816,39.31452858775015
2481.7319,40.06390183683828
2483.0816,36.55942289231848
2484.4306,43.50105888223237
2485.7789,42.288776569027675
2487.1264,37.92254228014173
2488.4733,46.352321920124325
2489.8195,38.52808101430003
2491.165,49.399784624470385
2492.5097,40.66739742715646
2493.8538,42.9808836048814
2495.1972,38.54020693349452
2496.5398,39.04533075903646
2497.8818,44.096218042146006
2499.2231,38.44283135300867
2500.5637,48.2851328208485
2501.9035,41.67308419046094
2503.2427,33.656646723790516
2504.5812,40.435781266050924
2505.919,43.61044832588959
2507.256,52.580608007596254
2508.5924,44.196219979356215
2509.9281,42.15724338354886
2511.2631,44.363636920591375
2512.5974,47.31535886932869
2513.9309,43.212367064969385
2515.2638,37.3046188695688
2516.596,52.09207121305866
2517.9275,46.22468065232488
2519.2583,43.25240322333286
2520.5884,40.775194499801216
2521.9178,47.193009622924876
2523.2465,46.15580332614667
2524.5745,42.7135298709797
2525.9018,48.51614305737883
2527.2284,44.21359625816376
2528.5543,52.555842360992926
2529.8796,45.892833811388925
2531.2041,49.92452252931622
2532.5279,46.25085997581107
2533.851,46.971797112664774
2535.1735,48.93728443916007
2536.4952,50.84727198486195
2537.8163,49.75170928996266
2539.1366,49.20054538618183
2540.4562,51.29372880772229
2541.7752,52.531207596781655
2543.0935,54.11292928262043
2544.411,51.93884086918706
2545.7279,51.20888881930091
2547.0441,54.22301907639303
2548.3596,50.081177071805655
2549.6744,54.233307694651046
2550.9885,42.42935533322964
2552.3019,54.06926383350901
2553.6146,53.45297661716347
2554.9266,55.63043656517476
2556.2379,52.25158602399517
2557.5485,50.7163667837728
2558.8585,55.37472011213987
2560.1677,54.176586769565176
2561.4762,50.87190696277037
2562.7841,47.360620356711536
2564.0913,52.74266610762561
2565.3977,53.16798289814352
2566.7035,54.53650888346982
2568.0086,59.54818168712933
2569.313,53.20293838728173
2570.6167,55.3007154666052
2571.9197,56.59144887574831
2573.222,58.025074012352775
2574.5236,61.85152570814574
2575.8246,63.2207382146039
2577.1248,56.48264516468885
2578.4244,61.33717955915483
2579.7232,64.93427383392986
2581.0214,68.57385981157034
2582.3189,71.35586866529002
2583.6157,67.33023088256425
2584.9118,66.69687623730977
2586.2072,62.30573383014115
2587.5019,72.95673209470436
2588.7959,72.59979884158804
2590.0893,70.28486115181357
2591.3819,73.61184538040459
2592.6739,74.38067717953624
2593.9652,81.4912814652653
2595.2557,80.04358240984175
2596.5456,79.38750337060296
2597.8348,88.62296690445064
2599.1234,87.04989477441157
2600.4112,90.468207857283
2601.6983,88.92782615936315
2602.9848,92.02866878226828
2604.2705,88.37065393833649
2605.5556,92.50369891961932
2606.84,90.17772013446168
2608.1237,89.74263306617178
2609.4067,90.84835229628075
2610.689,89.59479150889351
2611.9707,92.03186347963134
2613.2516,89.7594800881676
2614.5319,84.02755229385718
2615.8115,85.48599015846017
2617.0903,94.83470290346145
2618.3685,86.47359889548608
2619.6461,84.35258555281234
2620.9229,83.72156942898263
2622.199,93.83045623401347
2623.4745,90.92915084070603
2624.7493,92.01755718355682
2626.0234,88.69557828777101
2627.2968,94.61311625837857
2628.5695,91.52007231345362
2629.8415,91.61634672493949
2631.1128,93.20183884957865
2632.3835,96.0264471279504
2633.6535,97.29006906861551
2634.9228,91.99260121987044
2636.1914,101.03393915711106
2637.4593,97.46397753580749
2638.7265,95.48261000109048
2639.9931,98.83972922345123
2641.259,95.68522691855509
2642.5242,93.81899381367012
2643.7887,93.69091967921224
2645.0525,89.2508933474077
2646.3156,95.39880271357333
2647.5781,90.08453478051757
2648.8398,93.35797559706057
2650.1009,89.9690103111775
2651.3613,94.61752313726367
2652.6211,90.70339739002432
2653.8801,83.42651543798985
2655.1385,84.33675874265657
2656.3961,83.53400793125599
2657.6531,88.1181427876522
2658.9094,91.53904226036937
2660.1651,87.99658441675027
2661.42,99.69064640874731
2662.6743,96.52110450834712
2663.9279,97.58783399063012
2665.1808,100.49070916546555
2666.433,97.1296033668446
2667.6846,98.40438892385134
2668.9354,103.114937194274
2670.1856,103.56111855185694
2671.4351,105.89280233919538
2672.6839,108.2098568632733
2673.9321,112.21214937214685
2675.1795,108.99954603177355
2676.4263,114.77191188598957
2677.6724,114.92911088863585
2678.9179,116.6210058458343
2680.1626,116.84745841441574
2681.4067,114.15832908500104
2682.6501,112.4534771797365
2683.8928,108.63276087918553
2685.1348,105.89603723937682
2686.3761,112.54316223001152
2687.6168,111.77399076183065
2688.8568,103.98837662014355
2690.0961,103.28617247251998
2691.3348,94.61722994664589
2692.5727,92.98139963734576
2693.81,97.17853119327171
2695.0466,94.50847333326197
2696.2826,96.67107380436988
2697.5178,95.91617940856389
2698.7524,92.99363598110185
2699.9863,103.60328839808014
2701.2195,102.54498060565874
2702.452,104.06855551396487
2703.6839,101.4738550076762
2704.9151,107.56071993078484
2706.1456,110.62899011254444
2707.3755,109.82850430660173
2708.6046,119.95910016031365
2709.8331,128.02061422275196
2711.0609,135.2628818433975
2712.2881,135.38573709152524
2713.5145,145.0890126837812
2714.7403,145.92253998295416
2715.9654,151.2861489009429
2717.1899,162.32966789042098
2718.4136,176.25292389120048
2719.6367,179.405742219797
2720.8591,190.98794643019684
2722.0809,191.44935828232917
2723.3019,196.43979762624363
2724.5223,209.50908239749646
2725.7421,206.85702856724603
2726.9611,211.13345001155992
2728.1795,208.18815853793566
2729.3972,199.72096384253632
2730.6142,200.63167353964366
2731.8306,182.47009324632964
2733.0462,169.0860265733498
2734.2612,154.97927530675878
2735.4756,148.59963954175095
2736.6892,128.24691782372807
2737.9022,125.17090721209547
2739.1145,111.37140348378952
2740.3262,104.04820116403764
2741.5372,90.55109366435329
2742.7475,87.27987335576799
2743.9571,74.33433170380238
2745.1661,65.81425930117845
2746.3744,57.369445997274966
2747.582,49.99968098332829
2748.7889,54.904752876880366
2749.9952,40.08444979547647
2751.2008,36.83855930761433
2752.4057,29.866868580947312
2753.61,31.769164414743216
2754.8136,27.845233309601213
2756.0165,28.844861448429015
2757.2188,29.217834735682118
2758.4204,24.063938787367476
2759.6213,26.532958927313928
2760.8215,20.87468023871088
2762.0211,23.538887539418113
2763.22,5.475365438549034
2764.4182,15.233898309828021
2765.6158,13.014270472225917
2766.8127,8.66626609237494
2768.009,4.889669206764381
2769.2045,0.6342637652213625
2770.3994,-2.2501663313238396
2771.5936,-0.21383718828337805
2772.7872,-3.1069424319077257
2773.9801,-8.22967355221408
2775.1723,-2.6821910008649184
2776.3639,-11.914573015083647
2777.5548,-6.526871037006231
2778.745,-19.76901748218404
2779.9346,-15.740879562727002
2781.1235,-13.142126998260267
2782.3117,-13.072272257022405
2783.4992,-7.030696517403612
2784.6861,-7.266650365794305
2785.8723,-6.729314151926303
2787.0579,-5.867795631694435
2788.2428,3.5188646648544477
2789.427,7.681684826951766
2790.6106,11.221682908640389
2791.7935,23.339876887146772
2792.9757,23.537284627480574
2794.1573,36.664923761252965
2795.3382,47.12381168470239
2796.5184,51.96496542741818
2797.698,62.389401547751845
2798.8769,73.64813608440528
2800.0551,85.99218445218645
2801.2327,95.17256132942231
2802.4096,104.84028053451794
2803.5859,110.49635493415298
2804.7615,135.44179634660424
2805.9364,156.1776154851853
2807.1106,171.4048217087917
2808.2842,194.174422814543
2809.4572,215.53742488551052
2810.6294,249.3948320630218
2811.801,280.0976463330298
2812.972,299.14686718753967
2814.1423,330.2434913175797
2815.3119,363.83851242271
2816.4808,395.5829209000555
2817.6491,439.2777035083564
2818.8167,477.17384305052383
2819.9837,498.7723179366921
2821.15,530.6741018052571
2822.3157,562.3801633068915
2823.4807,592.3414657855276
2824.645,624.6089669612959
2825.8086,647.2336186309125
2826.9716,673.8663663450045
2828.134,693.9081491818624
2829.2957,723.1598994811136
2830.4567,750.4725426433043
2831.617,752.496996837382
2832.7767,762.284172727569
2833.9358,761.0849734531171
2835.0941,740.2002945304375
2836.2519,743.1310238650922
2837.4089,732.4280419606389
2838.5653,710.4922218893266
2839.7211,716.7744293991234
2840.8761,719.6255231330756
2842.0306,735.8963545664853
2843.1843,758.7377679784004
2844.3374,808.0506002889044
2845.4899,842.3856808307036
2846.6417,897.6438308559987
2847.7928,958.9758631931338
2848.9433,1010.8825816940146
2850.0931,1079.114780620789
2851.2422,1133.273244126779
2852.3907,1176.7587455741584
2853.5385,1223.82204699237
2854.6857,1267.7638986432676
2855.8323,1308.4850385504863
2856.9781,1345.4861920600217
2858.1233,1364.218071433019
2859.2679,1406.6313754757625
2860.4118,1439.8767893523554
2861.555,1465.2549841605874
2862.6976,1486.7166165994806
2863.8395,1509.5623287155067
2864.9808,1529.5927476879733
2866.1214,1555.908485600563
2867.2614,1544.2101392410323
2868.4007,1554.8482898380528
2869.5393,1565.4235031781948
2870.6773,1581.286329499546
2871.8146,1570.9873033859592
2872.9513,1578.4769436084248
2874.0874,1580.755753228059
2875.2227,1569.22421952121
2876.3574,1545.3328139566675
2877.4915,1528.7319923109799
2878.6249,1517.2721949073668
2879.7577,1504.6038467817295
2880.8898,1476.227357797246
2882.0212,1480.093122771057
2883.152,1457.15152175803
2884.2821,1465.8029200121
2885.4116,1450.497668215689
2886.5405,1453.0361023931887
2887.6686,1456.1185440640143
2888.7962,1466.3953002172211
2889.923,1464.4666632806789
2891.0493,1477.0329110183034
2892.1748,1486.8943065493452
2893.2997,1495.401098222725
2894.424,1503.3035195184214
2895.5476,1506.0517889624018
2896.6706,1540.8461100475993
2897.7929,1550.8866712064291
2898.9145,1585.9736454628453
2900.0355,1611.2571903319354
2901.1559,1623.4374474690524
2902.2756,1663.164542416976
2903.3946,1670.6385844841116
2904.513,1683.1096663472208
2905.6308,1714.9278639766783
2906.7479,1736.4932365117625
2907.8643,1751.0058259424743
2908.9801,1761.6656568938809
2910.0953,1767.5727364809927
2911.2098,1759.427054202163
2912.3236,1752.9285818800179
2913.4368,1748.5272737429134
2914.5494,1738.4730664899198
2915.6613,1711.1658793348352
2916.7725,1693.4556141067271
2917.8831,1677.892155523005
2918.9931,1651.075371366522
2920.1024,1632.15511264121
2921.211,1631.8812138402482
2922.319,1610.953493135264
2923.4264,1605.421752379073
2924.5331,1594.935777314956
2925.6391,1582.0453376319774
2926.7445,1587.1501870698426
2927.8493,1571.350063547804
2928.9534,1565.0446891136135
2930.0569,1567.1337701015223
2931.1597,1566.3169971953337
2932.2619,1558.2940454075153
2933.3634,1559.764574087364
2934.4643,1541.4282270012372
2935.5645,1519.984632317846
2936.6641,1496.4334027916195
2937.763,1464.3741359771411
2938.8613,1438.60641446466
2939.959,1386.5798062006847
2941.056,1346.3438647456599
2942.1523,1270.2981297942317
2943.248,1213.1421275776086
2944.3431,1136.6253716240176
2945.4375,1069.0473633302654
2946.5313,995.0075927269042
2947.6244,912.7555391540135
2948.7169,852.8406720015969
2949.8087,770.7624515321022
2950.8999,709.2203294795715
2951.9904,660.263749870422
2953.0803,602.7921496388677
2954.1696,560.7549591164857
2955.2582,532.8016026069313
2956.3462,498.0314988063104
2957.4335,460.54406108271365
2958.5202,439.5386978239165
2959.6062,425.66481281225424
2960.6916,406.87180543467537
2961.7764,396.70907082148057
2962.8605,387.2260000342528
2963.9439,382.9719801674846
2965.0267,371.8963944434085
2966.1089,375.3986222545376
2967.1905,379.97803927442146
2968.2714,375.7340174226232
2969.3516,375.56592481892574
2970.4312,376.1231258257719
2971.5102,380.2049810499457
2972.5885,384.7108473369999
2973.6662,393.3400777304378
2974.7432,393.14202142665465
2975.8196,391.8160236886448
2976.8954,384.6614258479826
2977.9705,374.7775653180824
2979.045,372.46377566574427
2980.1188,357.11938670999285
2981.192,350.9937245452154
2982.2645,324.7361116946051
2983.3364,314.19586717141857
2984.4077,299.12230674155074
2985.4783,280.6647430289387
2986.5483,256.1224856662959
2987.6177,230.74484147968872
2988.6864,222.6811147339588
2989.7545,192.33060738649954
2990.8219,170.79261916789352
2991.8887,154.41644788541714
2992.9548,123.55138963842143
2994.0204,117.4967389820925
2995.0852,96.25178923610292
2996.1495,83.06583254515817
2997.2131,67.13816009144585
2998.276,52.46806222649542
2999.3383,40.40482863045503
3000.4,27.797748458792228
3001.4611,18.74611046292631
3002.5215,12.349203116299464
3003.5812,6.65631470489285
3004.6404,1.5667333911957826
3005.6989,1.6297472711344199
3006.7567,-1.205355575032172
3007.8139,-6.089287083342015
3008.8705,-6.772747148331291
3009.9264,-4.906374832558072
3010.9818,-9.040741538836755
3012.0364,-8.22636965529722
3013.0905,-4.813691253061336
3014.1439,-6.2530562218182695
3015.1966,-5.294766362481653
3016.2487,-2.5390610079334124
3017.3002,1.5638734036601818
3018.3511,-0.8361242006475322
3019.4013,6.860785090558011
3020.4509,12.354448541572253
3021.4998,11.194713348082928
3022.5481,16.031426582233337
3023.5958,18.16443520422007
3024.6428,24.29358601392522
3025.6892,28.86872562958706
3026.735,34.38970042650794
3027.7802,40.356356491303075
3028.8247,46.26853956669083
3029.8685,49.72609499182613
3030.9118,56.17886764317856
3031.9544,62.22670189995685
3032.9963,67.26944157958133
3034.0376,76.95692987720531
3035.0783,83.88900931528786
3036.1184,84.8155216467189
3037.1578,99.48630778549838
3038.1966,92.15120779747099
3039.2348,100.16006075361867
3040.2723,97.91270480341112
3041.3092,105.4089770947179
3042.3455,106.84871379628149
3043.3811,105.78175002275475
3044.4161,99.15791982030356
3045.4505,100.7270561772763
3046.4842,103.08899109044208
3047.5173,99.09355554929974
3048.5498,99.39057951245823
3049.5816,101.07989194759102
3050.6128,96.71132082846592
3051.6434,91.78469311805193
3052.6734,94.59983481220505
3053.7027,88.25657098893433
3054.7314,81.00472578025068
3055.7594,79.94412243559944
3056.7868,81.17458339437869
3057.8136,79.4459302965455
3058.8398,81.15798397031111
3059.8653,75.51056444942768
3060.8902,78.45349095606741
3061.9145,72.2365819572972
3062.9381,72.45965513564892
3063.9612,73.22252745128876
3064.9835,72.92501513978652
3066.0053,64.76693370448683
3067.0264,66.84809791948413
3068.0469,57.9683219112037
3069.0668,59.12741913758995
3070.086,52.87520247690412
3071.1046,51.61148421613336
3072.1226,48.08607611351283
3073.1399,41.29878941116294
3074.1567,42.549434870343475
3075.1727,37.33782283932632
3076.1882,31.063763240889273
3077.203,27.377065624431935
3078.2173,21.877539228716387
3079.2308,18.914993018734208
3080.2438,20.58923574070161
3081.2561,14.250075951684948
3082.2678,12.197322002858243
3083.2789,6.680782102894852
3084.2893,8.300264338494927
3085.2991,3.95557672955087
3086.3083,7.946527212952503
3087.3169,5.3229236860339455
3088.3248,2.4845739666640725
3089.3321,-1.6187141805173866
3090.3388,-2.7371330157164238
3091.3449,-2.8208586281844674
3092.3503,-0.9200397632141488
3093.3551,-2.83479698572053
3094.3593,3.184758330578532
3095.3629,-3.8614568684129864
3096.3658,-0.3235256686386663
3097.3681,-4.301492580088038
3098.3698,-3.945398880729229
3099.3708,-0.4552428766195078
3100.3713,-1.73098345928139
3101.3711,-4.622574972361036
3102.3702,-0.27995446697997295
3103.3688,-0.25301281473576864
3104.3667,-0.5916380904808989
3105.364,3.054284158530109
3106.3607,-1.3151257044927718
3107.3568,4.800252653117553
3108.3522,6.450552702133919
3109.347,9.98590786532668
3110.3412,3.956451500960611
3111.3348,5.562316867441467
3112.3277,7.6036371836105445
3113.32,11.530545612685984
3114.3117,11.343175241849607
3115.3028,11.741659042977787
3116.2932,10.526129874515192
3117.2831,14.796720477489949
3118.2723,13.953563487668838
3119.2608,14.096791392851515
3120.2488,16.02653654130198
3121.2361,19.242931140316358
3122.2229,21.296107236925486
3123.209,22.686196685730877
3124.1944,21.463331128373035
3125.1793,24.627641979630525
3126.1635,21.479260439648684
3127.1471,23.41831746229652
3128.1301,22.594943786650447
3129.1125,25.459269917603656
3130.0942,28.311426134099953
3131.0753,28.75154246049047
3132.0558,29.67974863801205
3133.0357,26.796174120386183
3134.015,30.750948064536836
3134.9936,27.344199359426305
3135.9716,31.12605658650738
3136.949,35.896648053790926
3137.9258,29.95610175802726
3138.902,35.00454533700021
3139.8775,38.29210612893262
3140.8524,37.41891112200189
3141.8267,34.48508692146436
3142.8004,38.690759758387266
3143.7735,35.28605551898701
3144.7459,37.97109970257241
3145.7178,39.44601745559172
3146.689,42.16093354478223
3147.6596,40.815972342421055
3148.6295,41.56125779917599
3149.5989,43.0969134575551
3150.5676,43.67306244445387
3151.5357,45.73982745579869
3152.5032,42.54733075078531
3153.4701,46.94569413121119
3154.4364,44.235038973400535
3155.402,44.66548618422056
3156.367,44.587156228188135
3157.3315,49.70016912316526
3158.2952,52.50464444114235
3159.2584,49.20070125710815
3160.221,49.138458121004966
3161.1829,52.71803309076808
3162.1442,55.1895437329482
3163.105,51.80310708691569
3164.065,56.10883964014549
3165.0245,55.65685736208145
3165.9834,54.64727566107905
3166.9416,54.68020938892515
3167.8993,58.05577285093388
3168.8563,56.62407980561725
3169.8127,59.185243430929546
3170.7684,58.73937633858423
3171.7236,58.88659054844235
3172.6782,63.32699749297116
3173.6321,62.210708015771985
3174.5854,65.98783232717619
3175.5381,63.55848001540804
3176.4902,65.27276000881344
3177.4417,65.18078060015353
3178.3926,69.13264942946182
3179.3428,69.528473484964
3180.2924,66.16835906355928
3181.2415,66.75241176686211
3182.1899,71.83073653480332
3183.1377,72.95343763978964
3184.0848,72.8706186359204
3185.0314,73.58238234776053
3185.9773,74.28883087116878
3186.9227,75.49006556618002
3187.8674,73.8361870499408
3188.8115,71.52729518469704
3189.755,74.31348909433271
3190.6979,78.19486718745884
3191.6402,81.77152712955154
3192.5818,78.74356580413823
3193.5229,82.81107927703104
3194.4633,81.32416282660645
3195.4031,78.43291090313011
3196.3423,80.03741714362606
3197.2809,82.83777440078914
3198.2189,82.98407472694007
3199.1563,83.02640934602177
3200.0931,82.61486865213635
3201.0292,86.54954220912191
3201.9648,86.83051875466771
3202.8997,86.05788616096768
3203.834,86.23173143191043
3204.7677,91.55214071080574
3205.7008,88.16919927864603
3206.6333,90.38299150090229
3207.5652,91.99360086135349
3208.4964,89.65110993994864
3209.4271,91.45560039670072
3210.3571,95.75715299511154
3211.2865,91.9558475841269
3212.2154,93.85176305512098
3213.1436,91.6949773799095
3214.0712,96.78556759179048
3214.9982,93.7736098071122
3215.9246,96.25917917436712
3216.8503,98.84234990431167
3217.7755,99.02319524511044
3218.7001,100.85178745650448
3219.624,100.17819780800284
3220.5473,98.90249656059663
3221.4701,102.82475297349501
3222.3922,103.79503531688204
3223.3137,104.36341083269426
3224.2346,105.3799457249178
3225.1549,104.69470515390469
3226.0746,104.75775322620747
3226.9937,107.41915300143155
3227.9121,106.6789664916048
3228.83,107.63725463456348
3229.7473,109.39407730135422
3230.6639,111.69949328665098
3231.5799,112.00356029118693
3232.4954,108.70633489870028
3233.4102,112.7578725728936
3234.3244,113.6082276904061
3235.238,111.85745350029813
3236.151,116.25560211554786
3237.0634,116.20272453055875
3237.9752,116.34887057717827
3238.8864,116.64408892522663
3239.797,119.23842708103521
3240.7069,115.83193138449457
3241.6163,118.87464698311085
3242.5251,118.71661786607089
3243.4332,120.65788683381496
3244.3408,123.74849549961716
3245.2477,123.58848427017273
3246.154,120.67789231469186
3247.0598,119.56675756649989
3247.9649,123.35511675214313
3248.8694,127.79300540250034
3249.7733,123.43045781489897
3250.6766,125.16750700873645
3251.5793,128.0541847691055
3252.4814,128.2905216294238
3253.3829,125.4765468425671
3254.2838,128.8122883785059
3255.1841,129.54777295244514
3256.0838,131.38302599146684
3256.9829,130.91807162717515
3257.8814,129.702932677344
3258.7792,132.2376306505666
3259.6765,132.97218575840674
3260.5731,131.40661689005194
3261.4692,130.64094160496785
3262.3647,137.1751761485538
3263.2595,132.55933545979974
3264.1538,136.7434331059438
3265.0474,131.47748132863072
3265.9404,133.06149100207085
3266.8329,136.4954716856997
3267.7247,131.37943160833774
3268.616,139.2133776338507
3269.5066,137.29731531231
3270.3966,138.08124880165306
3271.286,140.4151808868443
