RamanShift,CorrectedData
30.1047,1604.1307804224843
32.3739,1491.6051775727715
34.6426,1382.279558681751
36.9109,1264.6538927920628
39.1787,1150.6281351235514
41.4461,1041.7022282495216
43.7131,923.4761032369963
45.9796,814.0496807359758
48.2456,697.5728721616994
50.5112,591.9455807889087
52.7764,474.0677029166168
55.0411,367.0891289243805
57.3054,256.7097444510797
59.5692,146.82943146470282
61.8326,41.1980693661408
64.0955,-68.78446391200967
66.3579,-173.46829084913253
68.6199,-272.3528467678173
70.8815,-353.9358340424283
73.1426,-398.06223424239073
75.4032,-315.1234931181478
77.6634,74.79292022157676
79.9231,1187.0526847517551
82.1824,3764.171478699431
84.4412,8651.964968421124
86.6995,15575.048782631633
88.9574,22523.438463526116
91.2148,27450.84939754924
93.4717,29865.696745911282
95.7282,30285.945395314033
97.9842,30161.00993380232
100.2398,29576.204646561506
102.4949,28888.093517166868
104.7495,27976.690233431622
107.0036,27034.808194288067
109.2573,26160.560518901584
111.5105,25263.46005608949
113.7632,24427.16939306349
116.0154,23652.60086440069
118.2672,23081.4665604065
120.5185,22465.12833486034
122.7693,21961.647810726936
125.0197,21562.186386319754
127.2696,21100.90524033578
129.519,20883.115335850132
131.7679,20520.37742492888
134.0163,20292.402050806944
136.2642,19984.599551515457
138.5117,19632.58006216156
140.7587,19253.453518006383
143.0052,18963.929657985256
145.2512,18587.868028498986
147.4967,18255.327986309083
149.7417,18024.318702298377
151.9863,17737.399164796425
154.2304,17564.628181889584
156.4739,17283.91438429024
158.717,17098.616227064485
160.9596,16826.04199243927
163.2017,16452.849791655404
165.4433,16053.247567693248
167.6844,15559.093099004695
169.925,15073.444003509143
172.1651,14576.107743535073
174.4047,14175.89163067652
176.6439,13782.102830766446
178.8825,13425.098367878903
181.1206,13130.485128266908
183.3582,12852.369863932501
185.5954,12613.30919557287
187.832,12382.959615361517
190.0681,12291.87748933884
192.3037,12162.069059715646
194.5388,12002.490445783978
196.7734,11941.947645215174
199.0075,11928.996535655677
201.2411,11957.192875332465
203.4742,11907.842303182537
205.7068,11989.200338570976
207.9389,11940.172381784454
210.1704,12015.913713217622
212.4015,12013.179493863423
214.632,12072.82476455567
216.862,12160.204445996365
219.0915,12214.473338159285
221.3205,12359.336119416159
223.549,12495.597345993994
225.777,12777.611450526434
228.0044,13037.28274069116
230.2314,13466.215396389745
232.4578,13784.263467150931
234.6837,14074.58086784132
236.909,14207.77137548487
239.1339,14057.788626359757
241.3582,13698.836114666428
243.582,13181.567194027464
245.8053,12787.985081077075
248.0281,12362.54286063382
250.2503,12005.193489636396
252.472,11715.439801398088
254.6932,11583.934509180248
256.9139,11398.330209089829
259.134,11293.529381394439
261.3536,11197.084392378396
263.5727,11194.197495390728
265.7912,10991.670831809624
268.0092,10937.056431071293
270.2267,10805.156212695254
272.4436,10686.771986830452
274.6601,10533.305455574291
276.8759,10357.358214156446
279.0913,10234.53175247356
281.3061,10114.47745684868
283.5204,10102.696611259556
285.7341,10084.690398539156
287.9473,10152.259900493496
290.16,10326.056098081679
292.3721,10607.729870740231
294.5837,10961.631994645111
296.7947,11250.913139894994
299.0052,11379.87386697222
301.2152,11120.164623850025
303.4246,10667.535744702895
305.6334,10034.83745250368
307.8418,9348.519863549884
310.0495,8852.232993790625
312.2568,8452.726765689848
314.4635,8126.701013189155
316.6696,7946.655485702893
318.8752,7827.389851378399
321.0802,7810.303698896463
323.2847,7805.296538663975
325.4887,7825.517802984803
327.692,7708.466846109848
329.8949,7539.992944034848
332.0972,7165.645295670873
334.2989,6854.073024529071
336.5001,6469.72518246415
338.7007,6197.300752790086
340.9008,6021.648654123621
343.1003,5839.917743108497
345.2992,5690.856816171967
347.4976,5618.914611342112
349.6955,5561.589809738462
351.8927,5541.681036291393
354.0895,5461.9868603153955
356.2856,5471.455795708152
358.4812,5363.236301747484
360.6763,5348.576782996663
362.8707,5293.325590386603
365.0646,5282.131021362462
367.258,5199.391320436145
369.4508,5153.654679298248
371.643,5187.219237645455
373.8346,5089.883083637915
376.0257,4999.144253563591
378.2162,4835.850732811627
380.4062,4723.150456779724
382.5956,4474.341312507087
384.7844,4338.971139801417
386.9726,4156.937733727011
389.1603,4047.4388459584698
391.3474,3952.2721866010197
393.5339,3892.035425285503
395.7199,3790.5761921200483
397.9052,3772.592078292435
400.09,3728.480637084691
402.2743,3751.1893840529247
404.4579,3746.36579746845
406.641,3894.657318090689
408.8235,4052.661349215412
411.0054,4351.925255191829
413.1868,4784.046359842541
415.3675,5069.121943470909
417.5477,5216.9492385398335
419.7273,5218.4754268209945
421.9064,5052.447637916601
424.0848,4890.162949244099
426.2627,4601.668387696469
428.4399,4271.310931265069
430.6166,3873.8375119245775
432.7928,3417.0450189365747
434.9683,3052.6803028242703
437.1432,2787.6401799404393
439.3176,2594.2214361110455
441.4914,2417.7708292856605
443.6645,2375.5850914716575
445.8371,2250.1609304987014
448.0091,2125.745030440603
450.1806,2052.8840528695764
452.3514,1988.424638100394
454.5216,1933.8134059189942
456.6913,1864.5969562270711
458.8603,1834.0218695881958
461.0288,1863.4347079199742
463.1967,1845.0820147997983
465.3639,1973.7103151707252
467.5306,2015.066115525
469.6967,2186.5459026177596
471.8622,2313.1461430534964
474.0271,2436.963281571241
476.1914,2450.7937397785645
478.3551,2404.2339149134114
480.5182,2402.330179705783
482.6807,2349.528882843355
484.8426,2417.0263489905155
487.0039,2680.268879316358
489.1647,3097.7027508197207
491.3248,3507.624213696774
493.4843,3689.029487166663
495.6432,3664.1647553722923
497.8015,3553.326165566292
499.9592,3528.259828359638
502.1163,3441.011818830071
504.2728,3168.678176772726
506.4287,2822.3049075726267
508.5839,2370.187984928034
510.7386,2025.973354314161
512.8927,1808.9569375043466
515.0461,1694.634636012206
517.199,1599.5023332617857
519.3512,1554.205895730789
521.5029,1593.9411739018997
523.6539,1641.2040027157545
525.8043,1679.9902011735812
527.9541,1674.0455718645808
530.1033,1606.0159005780552
532.2519,1690.246956362862
534.3999,1787.634492207706
536.5472,2067.524244198823
538.694,2567.7119305461165
540.8401,3175.393248784243
542.9856,3654.913870770757
545.1305,3829.969436609281
547.2748,3638.0055498543043
549.4185,3248.8677757606274
551.5615,2857.6016432029955
553.704,2707.1526485674876
555.8458,2598.4162596641727
557.987,2604.687917231584
560.1276,2601.9130360241143
562.2675,2566.1370047492746
564.4069,2588.1551860954496
566.5456,2539.662917089654
568.6837,2429.0555088773654
570.8212,2148.778247207427
572.958,1789.9263935381405
575.0942,1529.595187840021
577.2299,1351.1798521843248
579.3648,1351.3755933463635
581.4992,1382.8776045896539
583.6329,1579.2810656639613
585.766,1855.8811424902888
587.8985,1982.6729851968357
590.0304,1950.1517253529928
592.1616,1875.0624747014244
594.2922,1764.450325483278
596.4222,1592.2103511890982
598.5515,1441.9376076649187
600.6802,1222.5771348346807
602.8083,1036.4239582029531
604.9358,1004.2230910485359
607.0626,934.7695362860013
609.1888,848.4082867876969
611.3144,811.0343260782756
613.4393,731.6426291983189
615.5636,617.1281630780686
617.6873,473.38588733134566
619.8103,415.8607554006994
621.9327,316.3977159948281
624.0544,316.5917136638309
626.1756,295.8376897938433
628.2961,255.08058260508005
630.4159,192.56532735939072
632.5351,154.9368567678266
634.6537,103.09010161578226
636.7716,96.91999113930433
638.8889,81.07145354354543
641.0056,143.4894160644726
643.1216,102.61880512733842
645.237,147.50454572251328
647.3518,145.94156181417748
649.4659,154.02477589146292
651.5793,151.6491089840929
653.6922,133.75948058154427
655.8043,162.9008086568174
657.9159,113.16800984531801
660.0268,30.605999153451194
662.137,17.009690455950476
664.2466,-15.37630812639145
666.3556,-43.307558399601476
668.4639,-65.38946856039365
670.5716,21.772985837023953
672.6786,87.57548247922205
674.785,179.06348154064472
676.8907,232.53244231997996
678.9958,307.72782232529244
681.1002,293.8950767393344
683.204,292.72965766758534
685.3072,253.0770142765832
687.4097,164.73259280556886
689.5115,130.99183696302134
691.6127,61.10018881009637
693.7132,-2.096910901962474
695.8131,-33.05402203290032
697.9123,-49.97568349433277
700.0109,-94.01610398819685
702.1089,-109.57899295935022
704.2061,-54.76712063178638
706.3028,-40.93216253535866
708.3987,10.77475292359668
710.4941,101.80290625105772
712.5887,306.15147031319975
714.6827,588.1696169581846
716.7761,992.1065149726655
718.8688,1370.9613272616098
720.9608,1599.283206808921
723.0522,1662.5212928889014
725.1429,1462.7747087830194
727.233,1179.892561147537
729.3224,902.5739420109694
731.4112,622.0179316029062
733.4993,391.6736011271987
735.5867,206.9900155675241
737.6735,129.4662359908325
739.7596,61.3513213941842
741.845,40.64432947997557
743.9298,32.144317337095345
746.014,-9.549658352003462
748.0974,44.86145877369199
750.1802,20.526820476277862
752.2624,79.2955780692464
754.3439,111.31688266082347
756.4247,205.53988456628576
758.5048,308.8137329877427
760.5843,551.0875750719133
762.6631,894.7605548773918
764.7413,1379.5818109518914
766.8188,2016.550472895533
768.8956,2494.6656565126177
770.9718,2818.176457441956
773.0473,2670.281946375708
775.1221,2327.731165824276
777.1962,1958.423131595253
779.2697,1765.8568362189271
781.3426,1828.1812526413687
783.4147,2119.195336150082
785.4862,2429.9480237507632
787.557,2454.7882312571655
789.6271,2055.514850183574
791.6966,1529.3267474963886
793.7654,952.6227696068763
795.8335,646.4017476330337
797.901,447.6625031666317
799.9678,405.3038513354404
802.0339,413.8246027906007
804.0993,442.37356413022826
806.1641,442.399537814199
808.2282,397.80132187866
810.2916,303.72770993576523
812.3544,237.5774916196733
814.4164,174.39945352726863
816.4778,181.6923798796688
818.5385,166.70505315399532
820.5986,266.1862540104503
822.658,361.9347614421913
824.7166,496.7993517805189
826.7747,753.378797737394
828.832,956.6718670567934
830.8886,1108.5773199489158
832.9446,1250.2939070572465
834.9999,1292.5203679394908
837.0545,1338.055429650427
839.1085,1314.6478063196337
841.1618,1261.7461986961407
843.2143,1247.4992943825
845.2662,1184.8557683638064
847.3175,1110.614283150171
849.368,1000.4734894031517
851.4179,884.0820266781648
853.467,753.0385245258967
855.5155,627.591603656223
857.5633,566.7898772486406
859.6105,484.03195220672933
861.6569,393.1164297661744
863.7027,348.69190632234677
865.7478,370.30697433945534
867.7922,368.6602227947951
869.8359,419.20023696259886
871.8789,552.5255984304968
873.9212,724.3348845941273
875.9629,910.3266673238741
878.0039,1104.049511246787
880.0441,1219.0019718866424
882.0837,1248.5825937267364
884.1226,1138.0899090603416
886.1609,1043.1724376949223
888.1984,943.9786880570427
890.2352,941.6571581415501
892.2714,896.4563365035101
894.3069,890.8247022814212
896.3416,794.4107256492334
898.3757,757.4628678726476
900.4091,759.1295822732573
902.4418,808.959314598038
904.4739,831.6005030026699
906.5052,833.0515775532513
908.5358,781.4109599998774
910.5658,628.2770637621397
912.595,467.49829444552597
914.6236,321.27305137275107
916.6515,281.4997291915588
918.6786,243.72671933696438
920.7051,329.40241042899106
922.7309,485.47518865040183
924.756,567.2934368899441
926.7804,663.055533181614
928.8041,632.5098498864772
930.8272,668.5047527350471
932.8495,615.0386011327446
934.8711,559.3597477999429
936.892,426.8665393066367
938.9123,297.4573166292321
940.9318,181.93041647547034
942.9506,68.53417257852925
944.9688,2.11691685229016
946.9862,-21.473019474700777
949.003,-82.23730519506535
951.019,-73.0773945859637
953.0344,-60.543920373873334
955.0491,-5.386785242109909
957.063,107.79471295977055
959.0763,215.20133019620152
961.0888,240.13382135367465
963.1007,363.39293916666975
965.1119,394.87943396834453
967.1223,459.79405245792077
969.1321,474.88753738583546
971.1412,523.6106269045886
973.1495,553.014054417803
975.1572,594.6485480930005
977.1641,644.614830567567
979.1704,628.6636185324078
981.1759,616.2456222322799
983.1808,698.5615456253108
985.1849,797.9620865071647
987.1884,935.2479356878994
989.1911,1148.0197759979492
991.1932,1303.628280915278
993.1945,1374.2241124376505
995.1951,1372.5579195265545
997.1951,1346.130337401244
999.1943,1255.34198755539
1001.1928,1244.7434780213716
1003.1906,1244.1854042781506
1005.1877,1324.6183493572535
1007.1841,1307.4428838483582
1009.1798,1233.5095650949625
1011.1748,1088.2189373661422
1013.1691,880.4215325958812
1015.1627,661.617871835977
1017.1556,464.3584673340174
1019.1477,374.89382472140824
1021.1392,310.2744449859838
1023.1299,294.00082536664013
1025.12,343.0734599995285
1027.1093,419.74284008079303
1029.0979,529.2594533758474
1031.0859,589.5237834526815
1033.0731,618.6863085867008
1035.0596,541.1475011580787
1037.0454,406.20782736012734
1039.0304,311.01774797468715
1041.0148,210.47771972152077
1042.9985,111.28819621021648
1044.9814,109.2496289455903
1046.9636,21.562468319580148
1048.9452,24.527163631631993
1050.926,27.994163965575353
1052.9061,62.863918159971945
1054.8855,30.13687477343956
1056.8642,118.76348173595215
1058.8421,174.94418667613354
1060.8194,188.5294360349617
1062.7959,260.5696745039877
1064.7717,308.4653448894733
1066.7469,329.41688739198435
1068.7213,342.82473912743444
1070.695,333.2893339175698
1072.6679,270.61110215589906
1074.6402,245.3904709030394
1076.6117,254.8278645135033
1078.5826,252.6237048879084
1080.5527,292.9784113785954
1082.5221,410.1424008116737
1084.4908,597.4660870834741
1086.4587,809.2998799889046
1088.426,977.9441833482233
1090.3925,998.1493928886848
1092.3584,928.4158945581112
1094.3235,779.7940643228376
1096.2879,741.0842688650391
1098.2515,747.6868670689546
1100.2145,809.2022104079897
1102.1767,884.5806428786818
1104.1382,1077.822500385546
1106.099,1325.0781099872947
1108.0591,1545.3477879644197
1110.0185,1713.181837346634
1111.9771,1738.9305457101727
1113.9351,1554.6441834994548
1115.8923,1259.073003769603
1117.8488,949.1172440292921
1119.8045,698.0271291964746
1121.7596,584.7528746979388
1123.7139,507.6446889802064
1125.6675,530.7527746422638
1127.6204,594.4273292066628
1129.5726,613.9685448884311
1131.524,602.4766079583187
1133.4748,632.8516985474034
1135.4248,626.8439907619959
1137.3741,642.5036523798963
1139.3226,573.3808449104681
1141.2705,557.5257234380451
1143.2176,469.0884373131503
1145.164,474.9191303110474
1147.1097,522.0179415161283
1149.0546,502.38500526358075
1150.9989,418.0204506684249
1152.9424,261.9244018218242
1154.8852,109.29697863474121
1156.8272,12.388298398900588
1158.7686,-43.60152268694219
1160.7092,-36.82236854791154
1162.6491,-17.223687529926792
1164.5883,41.64543987654906
1166.5267,150.9861052456863
1168.4644,335.4493997352065
1170.4014,532.2864129929694
1172.3377,796.7482313123428
1174.2732,1036.7859356638373
1176.2081,1296.2505990504815
1178.1421,1554.293284107448
1180.0755,1769.3650405074131
1182.0082,1882.3169023801165
1183.9401,1922.9998861616505
1185.8713,1754.5149894649421
1187.8017,1548.5631906729259
1189.7315,1268.1954506233915
1191.6605,987.1127146685021
1193.5888,820.2659154784697
1195.5163,696.7559758523794
1197.4432,599.0838103866663
1199.3693,587.3503267102069
1201.2947,573.5564264610439
1203.2193,561.5530054037199
1205.1432,576.3409535672208
1207.0664,640.4711553650059
1208.9889,699.0944894471322
1210.9106,746.2618280589404
1212.8316,800.1740364548359
1214.7519,889.7319724266099
1216.6715,931.1864857643113
1218.5903,929.0884173606801
1220.5084,923.9885987965863
1222.4257,944.4378523620235
1224.3424,894.4369911071026
1226.2583,1000.0868186375619
1228.1735,1097.638129614772
1230.0879,1203.7917086992456
1232.0016,1361.5983295751112
1233.9146,1398.408753888577
1235.8269,1325.8237296698799
1237.7384,1224.9439909651664
1239.6492,1038.2202585623454
1241.5592,936.8032409998914
1243.4686,843.5936364340769
1245.3772,840.2421336531479
1247.285,835.7494130094146
1249.1922,822.26614645277
1251.0986,843.0429975756142
1253.0042,854.8306217476884
1254.9092,927.1296659083064
1256.8134,1024.3907684484784
1258.7169,1191.2645584879192
1260.6196,1349.901654902439
1262.5216,1586.85266465521
1264.4229,1750.8681812103887
1266.3234,1917.8987821636129
1268.2232,1993.145027601845
1270.1223,2012.4574584330594
1272.0207,2007.7865956337846
1273.9183,1995.8829400559853
1275.8151,1936.2469724737584
1277.7113,1870.7291537023784
1279.6067,1759.3799251946512
1281.5014,1681.6997096960995
1283.3953,1633.4889123584499
1285.2885,1662.797921516436
1287.181,1693.3271091699062
1289.0727,1768.1768306907352
1290.9637,1867.4974245175317
1292.854,2022.8892114071323
1294.7435,2112.8024934414016
1296.6323,2317.787552473308
1298.5204,2511.8446492278026
1300.4077,2753.124021251966
1302.2943,2901.675880974437
1304.1802,2939.700413292616
1306.0653,2834.9477740871453
1307.9497,2674.968089841669
1309.8333,2541.911458690357
1311.7162,2478.8779520176977
1313.5984,2532.117615789074
1315.4798,2650.2304711810903
1317.3605,2761.2665140491717
1319.2405,2874.1757137464447
1321.1197,2881.5580120133745
1322.9982,2797.8633218486693
1324.876,2773.391527435464
1326.753,2669.942484978257
1328.6293,2701.5160229476433
1330.5048,2712.9619431147885
1332.3796,2679.680020235708
1334.2537,2648.6700019367927
1336.127,2642.231609047647
1337.9996,2635.314535911176
1339.8714,2613.468450447972
1341.7426,2560.4429942254865
1343.6129,2588.187782676492
1345.4826,2552.90240562933
1347.3515,2553.1364270304693
1349.2196,2508.6393852973633
1351.087,2543.7107933160996
1352.9537,2608.3001388863813
1354.8197,2753.1568843708
1356.6849,2941.080466048953
1358.5493,3072.57029266887
1360.4131,3118.2757435677777
1362.276,3099.5461673572026
1364.1383,2996.230881465921
1365.9998,2758.2291723272456
1367.8606,2462.640296412188
1369.7206,2182.5634826094665
1371.5799,1964.547935181402
1373.4384,1832.4928365646783
1375.2962,1705.24734955051
1377.1533,1473.610618605182
1379.0096,1173.1817711425092
1380.8652,902.4099198402055
1382.7201,644.2941656441726
1384.5742,435.7836004762148
1386.4275,304.52730981519653
1388.2802,199.0743747821516
1390.132,116.67387345284351
1391.9832,85.2748819122935
1393.8336,25.176475078787007
1395.6832,-7.272272982132563
1397.5322,0.027711543310942943
1399.3803,-24.374424881097184
1401.2278,-14.079535791848684
1403.0745,10.611768775065684
1404.9204,0.34901943821751047
1406.7656,60.33174671006327
1408.6101,74.6094810995719
1410.4538,128.63175251239772
1412.2968,195.19809010810695
1414.139,278.50802175994886
1415.9805,394.6110733891928
1417.8213,493.80676813203354
1419.6613,657.9946251785577
1421.5006,843.2741587807868
1423.3391,1136.3948766108015
1425.1769,1472.2562779079399
1427.0139,1983.557850547596
1428.8502,2617.4490676826026
1430.6858,3270.6793826302155
1432.5206,3693.9982225332033
1434.3547,3937.65498182754
1436.188,3992.949018009217
1438.0206,3911.9296491976866
1439.8524,3797.9961535829025
1441.6835,3677.1477702355305
1443.5139,3597.9837002462764
1445.3435,3564.803107934371
1447.1724,3508.1051216392143
1449.0005,3480.5388340521713
1450.8279,3404.5033027835634
1452.6545,3389.947550638326
1454.4804,3406.870566376362
1456.3056,3441.671304858104
1458.13,3349.598686875276
1459.9536,3159.401598802897
1461.7766,2831.478893519994
1463.5987,2432.779392311584
1465.4202,2049.5018881478954
1467.2409,1695.2951496713695
1469.0608,1451.8079250294268
1470.88,1169.6389454165428
1472.6984,994.1869275091149
1474.5161,814.8005762871553
1476.3331,655.3785867888055
1478.1493,550.4196459042078
1479.9648,466.62243396971644
1481.7795,386.18562581749484
1483.5935,340.20789161347875
1485.4067,305.9378976617527
1487.2192,264.62430686432344
1489.031,219.1657790638219
1490.842,220.5109714566379
1492.6522,202.20853904750584
1494.4618,168.40713463605607
1496.2705,163.00540899983298
1498.0785,163.0520112323111
1499.8858,144.59558879691485
1501.6924,112.83478752654901
1503.4981,137.6682518081643
1505.3032,121.2446249003633
1507.1075,105.61254868507058
1508.911,95.92066383176552
1510.7138,74.96760995380464
1512.5159,80.5520257053422
1514.3172,39.17254899085583
1516.1178,29.427816909306785
1517.9176,33.61646616793314
1519.7166,-0.8628668203054985
1521.515,-5.26154597860841
1523.3126,-15.530926610140341
1525.1094,-20.472311455223462
1526.9055,-14.336848100220777
1528.7008,-19.625479613111565
1530.4954,-38.13900583676059
1532.2893,-15.978030555495025
1534.0824,-33.99277654497473
1535.8747,-31.53330696033754
1537.6663,-10.849345368885224
1539.4572,-13.49030032018618
1541.2473,3.094528021150836
1543.0367,33.70597425861433
1544.8253,11.04487296474872
1546.6132,50.96205837504476
1548.4003,51.85836461454619
1550.1867,86.98462529867447
1551.9723,149.74167352427048
1553.7572,180.68034151833126
1555.5414,248.30146001043704
1557.3247,314.30585792337024
1559.1074,391.84436169689616
1560.8893,518.1677946277259
1562.6705,590.7269760941253
1564.4509,694.1227202926875
1566.2305,751.4058355127381
1568.0094,848.3771231023738
1569.7876,935.7873768956401
1571.565,961.437382242811
1573.3417,1001.577915136289
1575.1176,1025.5597419541014
1576.8928,993.4836190584988
1578.6672,931.3002925561373
1580.4409,840.5604986188359
1582.2138,747.5649641054142
1583.986,667.0644074690881
1585.7575,644.3595396874275
1587.5282,587.9510650673606
1589.2981,555.4896814722229
1591.0673,546.6260808858387
1592.8358,564.6109497371367
1594.6035,609.2449689887872
1596.3704,630.6788139573528
1598.1366,663.4631538669473
1599.9021,728.3486516349012
1601.6668,777.5859635439128
1603.4308,859.2257385931975
1605.194,989.4186180061129
1606.9564,1126.8152344137588
1608.7182,1273.3162105530564
1610.4791,1450.222157892771
1612.2394,1651.4836751685125
1613.9988,1870.2513466136688
1615.7576,2110.1257399467963
1617.5156,2313.7574041839366
1619.2728,2518.646867239877
1621.0293,2696.9946338918307
1622.785,2730.401183730547
1624.54,2663.1669693768263
1626.2942,2522.3924161474624
1628.0477,2317.277922727578
1629.8005,2087.8238625783724
1631.5525,1884.7805859882724
1633.3037,1730.4484223674663
1635.0542,1581.877682278338
1636.804,1485.668658978786
1638.553,1414.4216299079367
1640.3013,1422.3868576482278
1642.0488,1405.864590637887
1643.7955,1451.1050630912732
1645.5416,1510.0084951641006
1647.2868,1629.975092501033
1649.0313,1736.5550456466558
1650.7751,1891.8485288458
1652.5181,2093.805698977752
1654.2604,2330.876694003315
1656.0019,2638.3616309452364
1657.7427,2947.060603517498
1659.4828,3292.1736790504674
1661.222,3485.0508954039096
1662.9606,3527.192257515853
1664.6984,3303.697735473817
1666.4354,2936.017264093401
1668.1717,2439.4507451532286
1669.9072,1935.4480510717535
1671.642,1533.309029872923
1673.3761,1223.283510226208
1675.1094,958.8713054679888
1676.8419,776.3222167018143
1678.5737,627.9360354425253
1680.3048,527.762545441738
1682.0351,417.60152417171275
1683.7646,364.80274382708467
1685.4934,323.8159724264774
1687.2215,300.19097434048854
1688.9488,257.92751070155646
1690.6754,218.17533964021322
1692.4012,194.7342167077163
1694.1263,201.60389527357256
1695.8506,192.93412675994705
1697.5742,169.02466057296897
1699.297,147.4252441894282
1701.0191,124.28562339586733
1702.7404,122.3055425045809
1704.461,97.33474458500677
1706.1808,84.62297148352854
1707.8999,93.86996407318202
1709.6182,69.52546238077412
1711.3358,77.08920549441245
1713.0527,79.31093180694961
1714.7688,46.94037894034955
1716.4841,53.02728372346746
1718.1987,51.97138251575643
1719.9126,45.07241114639646
1721.6257,46.08010492485755
1723.338,65.49419870988413
1725.0496,30.064426899421505
1726.7605,33.59052323647575
1728.4706,35.47222116340845
1730.18,36.20925378667607
1731.8886,26.301353858016682
1733.5964,18.74825376707622
1735.3036,38.149685640487405
1737.0099,8.005381417401168
1738.7156,22.81507265547316
1740.4204,8.378490832305943
1742.1246,13.04536719735188
1743.8279,6.915432916281134
1745.5306,1.5384190243112243
1747.2325,-2.1359435124927586
1748.9336,-0.7079237434481911
1750.634,-17.227769379800066
1752.3336,-11.645721060636788
1754.0325,-2.3618473196320338
1755.7307,-3.876100349709759
1757.4281,-6.938408748939764
1759.1247,0.5513376068483922
1760.8206,1.3933181565280393
1762.5158,-2.5622876665402146
1764.2102,-0.8653004429229441
1765.9039,3.834484844061535
1767.5968,3.037281855448782
1769.289,-3.3566957860716684
1770.9804,6.202765511818143
1772.6711,12.7659128748287
1774.361,11.782993366642586
1776.0502,27.85425392328625
1777.7386,8.379941362957197
1779.4263,12.860302225313262
1781.1132,14.995582966213078
1782.7994,4.486029912913182
1784.4849,15.331889242715533
1786.1696,15.63340708806254
1787.8535,20.490829428078086
1789.5367,25.454402085553284
1791.2192,37.474370678373816
1792.9009,18.45098056988263
1794.5818,29.484476748679754
1796.2621,35.02510401885684
1797.9415,27.073106889661176
1799.6202,26.228729520090837
1801.2982,33.942215798413145
1802.9755,29.713809350609154
1804.6519,37.54375346323832
1806.3277,42.28229112572308
1808.0027,36.42966495204928
1809.6769,42.68611713338032
1811.3504,48.5518894965835
1813.0231,46.17722344166714
1814.6951,58.562359883122554
1816.3664,71.10753927366932
1818.0369,55.06300148040373
1819.7067,68.6789856593482
1821.3757,63.75573041589814
1823.044,69.74347366865914
1824.7115,54.59245269868143
1826.3783,59.3529040895819
1828.0443,79.62506387905387
1829.7096,68.00916751126306
1831.3741,76.60544963412576
1833.0379,89.26414421546633
1834.701,90.73548445705728
1836.3633,93.61970266802928
1838.0248,80.1170302501605
1839.6856,78.57769766903175
1841.3457,105.90193458905605
1843.005,94.28996988887138
1844.6636,104.59203138809607
1846.3214,95.05834596345085
1847.9785,105.33913944573487
1849.6349,104.48463671516629
1851.2904,109.79506159857056
1852.9453,117.32063687793016
1854.5994,122.81158423727948
1856.2528,118.01812418744566
1857.9054,103.2904760111428
1859.5572,112.42885781090354
1861.2083,113.58348665635731
1862.8587,110.65457849284576
1864.5084,126.14234812987797
1866.1572,119.79700927041722
1867.8054,120.66877435600509
1869.4528,115.65785463021348
1871.0994,114.5144601299271
1872.7453,113.2387997354549
1874.3905,103.58108118196196
1876.0349,115.69151107222706
1877.6786,134.32029497321946
1879.3215,130.61763729499398
1880.9637,137.78374110440427
1882.6051,143.31880816212743
1884.2458,130.12303885100619
1885.8858,136.04663212069454
1887.525,133.33978561961703
1889.1634,120.2526956357342
1890.8011,120.23555712360803
1892.4381,123.63856383527491
1894.0743,124.86190832041575
1895.7098,122.40578189232565
1897.3446,128.27037461568352
1898.9786,131.3558753311113
1900.6118,134.7624715965294
1902.2443,128.79034965629944
1903.8761,137.28969440715764
1905.5071,126.11068945793977
1907.1374,118.7035170445829
1908.7669,121.71835814191945
1910.3957,134.15539253774705
1912.0237,126.61479880268053
1913.651,121.24675416578248
1915.2776,132.9514345899688
1916.9034,118.87901482568759
1918.5285,125.62966829387483
1920.1528,127.50356722667539
1921.7764,128.65088259994013
1923.3992,120.42178411448458
1925.0213,121.86644018461607
1926.6427,116.43501802042601
1928.2633,92.22768361334124
1929.8832,128.04460179043986
1931.5023,101.98593645652204
1933.1207,107.60185023594545
1934.7383,118.4925047332083
1936.3552,117.35806047679307
1937.9714,117.44867681025517
1939.5868,123.66451190357247
1941.2015,111.65572275223576
1942.8154,98.17246511509097
1944.4286,93.86489363442934
1946.041,89.68316197081776
1947.6528,93.17742284617589
1949.2637,94.19782808559171
1950.8739,76.29452858238164
1952.4834,101.06767428788453
1954.0921,83.91741439049565
1955.7001,98.84389706793377
1957.3074,94.59726965874415
1958.9139,90.4276785130346
1960.5197,87.98526903494053
1962.1247,66.62018572432157
1963.729,73.28257220118621
1965.3325,71.12257141934037
1966.9353,77.29032559976599
1968.5374,73.88597625221996
1970.1387,73.00966411355603
1971.7393,60.7615291817699
1973.3392,73.79171072475992
1974.9383,68.70034740281199
1976.5366,68.5375771382935
1978.1342,71.95353716656996
1979.7311,71.94836403763247
1981.3273,73.27219358193634
1982.9227,74.87516091045495
1984.5173,80.00740040144115
1986.1112,63.919045684396906
1987.7044,61.46022958875051
1989.2968,68.38108430474153
1990.8885,82.43174140800784
1992.4795,76.11233179037686
1994.0697,73.22298551936046
1995.6592,55.963831901347476
1997.2479,65.38499951049721
1998.8359,66.23661636133147
2000.4232,50.818809814522865
2002.0097,60.78170656837892
2003.5955,48.62543281301919
2005.1805,65.90011413074762
2006.7648,70.65587561761481
2008.3484,62.49284171067211
2009.9312,76.96113614041269
2011.5133,71.46088201240286
2013.0946,62.59220166259843
2014.6752,78.95521671234701
2016.2551,78.55004815707548
2017.8342,66.72681620265826
2019.4126,66.08564026947033
2020.9902,70.42663911061936
2022.5672,60.09993081835751
2024.1433,66.25563278067102
2025.7188,62.7938617845482
2027.2935,60.0647339544214
2028.8674,64.7183647867837
2030.4406,52.55486917748294
2032.0131,62.97436137518298
2033.5849,56.87695510300068
2035.1559,60.6127634543102
2036.7261,58.6818989537162
2038.2957,51.234473519696394
2039.8645,53.020598483910135
2041.4325,68.19038466567304
2042.9998,59.39394235409645
2044.5664,63.631381156387306
2046.1323,60.90281008581405
2047.6974,54.308337519332326
2049.2617,64.24807122487073
2050.8254,54.82211842727429
2052.3883,72.33058570890807
2053.9504,59.3735791039162
2055.5118,57.70120392313811
2057.0725,59.86356488367778
2058.6325,70.96076612562752
2060.1917,62.1429111904456
2061.7502,72.16010290998179
2063.3079,64.01244349465856
2064.8649,61.55003443329679
2066.4212,57.52297657459371
2067.9767,67.33137015174634
2069.5315,57.27531482272366
2071.0856,59.75490957218108
2072.6389,56.27025281202191
2074.1915,53.371442356601165
2075.7433,56.65857545757194
2077.2945,54.5317488328717
2078.8448,46.391058633854755
2080.3945,47.83660046655723
2081.9434,45.26846947310537
2083.4916,52.63676031726027
2085.039,53.541567210099174
2086.5857,37.88298383633219
2088.1317,42.31110334525533
2089.677,48.07601850733499
2091.2215,42.12782166992747
2092.7652,46.76660469962894
2094.3083,38.79245904175809
2095.8506,37.905475673967885
2097.3921,49.55574518598746
2098.933,45.3933577884909
2100.4731,43.568403196595455
2102.0124,46.78097067148519
2103.5511,47.58114903866067
2105.089,62.469026655814105
2106.6261,58.794691404825016
2108.1626,55.50823054288503
2109.6983,47.209730739238694
2111.2332,56.849278108049475
2112.7675,47.57695829138402
2114.301,49.94285636281643
2115.8337,43.897056920151954
2117.3657,47.43964406176838
2118.897,56.07070144707245
2120.4276,38.240312261075815
2121.9575,53.64855912808366
2123.4866,38.69552428999896
2125.0149,41.431289452239525
2126.5426,46.055935933268756
2128.0695,47.21954463723796
2129.5956,51.62219600774074
2131.1211,49.56397001617552
2132.6458,56.14494611772011
2134.1698,60.715203271913424
2135.693,54.374819876846004
2137.2155,54.673873723457746
2138.7373,51.16244205893986
2140.2584,50.990601583746866
2141.7787,50.65842848670923
2143.2983,39.26599844675184
2144.8171,44.71338663621691
2146.3353,47.700667834787055
2147.8527,35.32791637501191
2149.3693,51.395206112436426
2150.8853,40.40261054932603
2152.4005,50.950202673994454
2153.9149,55.88805507073016
2155.4287,54.76623981432067
2156.9417,49.73482842067369
2158.454,49.29389185803461
2159.9655,53.24350059730159
2161.4764,49.23372461643385
2162.9865,44.91463336095694
2164.4958,58.386295784059485
2166.0045,52.248780389785
2167.5124,64.30215509831305
2169.0195,46.14648730733688
2170.526,46.381843771528565
2172.0317,46.80829078409579
2173.5367,51.72589417442873
2175.0409,46.484719303834254
2176.5445,53.38483101636098
2178.0473,50.12629369121123
2179.5494,42.50917117373956
2181.0507,47.083526808037504
2182.5513,52.199423513106694
2184.0512,51.95692373711381
2185.5504,49.90608940623247
2187.0488,40.74698192706751
2188.5465,49.57966220716298
2190.0435,51.80419074659494
2191.5397,47.97062754964236
2193.0353,47.22903210254367
2194.5301,38.7294634118316
2196.0241,42.471980011749565
2197.5175,35.306640049246425
2199.0101,37.533501246552305
2200.502,37.102620972831346
2201.9931,35.414056221912915
2203.4835,29.96786361660088
2204.9733,26.314099425560016
2206.4622,27.35281961777696
2207.9505,32.13407989909797
2209.438,37.50793570184146
2210.9248,31.074442136985226
2212.4109,36.08365394042812
2213.8962,31.335625537325086
2215.3809,30.28041099199413
2216.8648,34.31806405539896
2218.3479,33.29863817569867
2219.8304,34.772186457872294
2221.3121,34.08876167391327
2222.7931,36.24841624809392
2224.2733,18.901202263799632
2225.7529,27.997171441933006
2227.2317,28.086375314383986
2228.7098,26.81886513307245
2230.1872,21.54469186905453
2231.6638,28.613906225198434
2233.1397,25.626558688926025
2234.6149,21.18269946152077
2236.0894,20.482378488000677
2237.5632,22.275645501556255
2239.0362,21.962550030556486
2240.5085,33.24314138061368
2241.9801,17.96746863771523
2243.4509,17.535580555417255
2244.921,10.897525707602426
2246.3904,11.403352492798376
2247.8591,6.053109200558083
2249.3271,22.84684400640117
2250.7943,13.484605025316796
2252.2608,21.266440143825776
2253.7266,17.542397113603556
2255.1917,13.562523473662395
2256.656,21.076866587590303
2258.1197,6.7854736833514835
2259.5826,5.038391778140976
2261.0447,14.785667821300422
2262.5062,17.077348711787636
2263.9669,11.513481200703836
2265.4269,20.144111868378104
2266.8862,13.169287180005767
2268.3448,18.9890533993414
2269.8026,11.653456658447794
2271.2598,14.862542899497384
2272.7162,17.716357948129144
2274.1719,7.164947481357331
2275.6268,14.60835699903214
2277.0811,11.346631929354999
2278.5346,24.479817554445617
2279.9874,16.107959042956963
2281.4395,20.38110131874464
2282.8908,14.349289144585327
2284.3414,16.112567079445398
2285.7914,17.070979538798838
2287.2406,16.124570776993323
2288.689,14.873384877667377
2290.1368,17.517465763213977
2291.5838,10.40685720729266
2293.0302,23.991602808389644
2294.4758,14.571746060921782
2295.9206,14.697330219391233
2297.3648,15.318398392582026
2298.8082,13.934993542306302
2300.251,22.3971584771906
2301.693,17.104935866512506
2303.1343,23.70836815557766
2304.5748,27.757497618644265
2306.0147,21.35236629288636
2307.4538,27.643015937903442
2308.8922,15.579488099771424
2310.3299,16.361824048137237
2311.7669,16.49006489685405
2313.2031,16.614251596157374
2314.6387,29.934424931381955
2316.0735,17.700625521721122
2317.5076,8.962893687023666
2318.941,11.121269570133677
2320.3737,14.025793224265954
2321.8056,16.276504591422736
2323.2369,16.873443473348175
2324.6674,13.31664950902109
2326.0972,5.1561621686856824
2327.5263,14.642020789419576
2328.9547,14.124213198239545
2330.3823,21.502727075743223
2331.8092,22.027549961286695
2333.2355,11.248669179198146
2334.661,11.316071833530827
2336.0858,19.679744915852325
2337.5098,25.93967530456939
2338.9332,18.14584968129236
2340.3558,22.798254468235882
2341.7778,26.546875906156515
2343.199,16.841700007828763
2344.6195,26.58271252055897
2346.0393,20.91989902323712
2347.4583,34.60324482892588
2348.8767,22.63273504148924
2350.2943,35.20835441875852
2351.7113,33.130087492239
2353.1275,32.147918441352886
2354.543,33.86183111422258
2355.9578,39.02180903749115
2357.3718,40.82783539918398
2358.7852,26.729892997108777
2360.1978,27.677964220795275
2361.6098,28.572031192475038
2363.021,38.562075757600496
2364.4315,27.798079475903478
2365.8413,30.480023521496264
2367.2504,29.157888790510356
2368.6587,31.031655874276908
2370.0664,30.551305072549553
2371.4733,29.96681637476547
2372.8795,31.428169464849134
2374.285,31.585343727057648
2375.6899,21.838318231366202
2377.0939,29.68707173189705
2378.4973,32.03158276438967
2379.9,28.271829567713326
2381.3019,28.55779006042178
2382.7032,25.98944187835116
2384.1037,26.066762371759864
2385.5035,19.539728631012622
2386.9027,21.158317485807174
2388.3011,33.57250557044449
2389.6987,29.832269307642264
2391.0957,24.887584784393994
2392.492,20.888427789369757
2393.8876,29.834773862364955
2395.2824,18.82659833429034
2396.6765,14.063876237709678
2398.07,18.89658241692075
2399.4627,25.324691575583188
2400.8547,25.94817822839093
2402.246,19.567016636791777
2403.6366,21.03118080275226
2405.0265,23.29064453256899
2406.4156,26.99538142222741
2407.8041,21.595364834806787
2409.1918,24.990567863432716
2410.5789,22.780963385277573
2411.9652,25.066524027609034
2413.3508,22.897222189885497
2414.7358,26.823030020900433
2416.12,23.993919440475906
2417.5035,25.65986210020435
2418.8863,15.870829411738896
2420.2684,27.276792530134685
2421.6497,19.477722451738828
2423.0304,18.37358990013115
2424.4104,27.364365404114892
2425.7896,25.05001930875767
2427.1682,28.780521685483563
2428.546,28.155842355217146
2429.9232,26.625950851077846
2431.2996,25.640816424627474
2432.6753,20.05040806116824
2434.0503,31.204694489594885
2435.4246,32.25364423829819
2436.7982,29.297225523622274
2438.1711,25.13540623937513
2439.5433,28.118153986392713
2440.9148,30.895436114157974
2442.2856,21.11721969097198
2443.6557,22.583471476181558
2445.025,25.694158017962195
2446.3937,28.949245638654133
2447.7617,34.99870040365704
2449.1289,31.542488088878144
2450.4955,36.18057412023836
2451.8613,34.6129236082337
2453.2265,27.589501301554833
2454.5909,36.86027160276353
2455.9546,36.47519863852676
2457.3177,29.884246166909406
2458.68,37.487377581224564
2460.0416,41.53455597594325
2461.4025,41.47574407066281
2462.7627,48.91090416963516
2464.1222,44.23999816235494
2465.4811,41.96298744920773
2466.8392,44.529832988179464
2468.1966,43.39049531762703
2469.5533,41.74493453060893
2470.9093,47.693110286278966
2472.2645,47.78498182634246
2473.6191,50.5705079155731
2474.973,44.64964684089557
2476.3262,44.322356383529495
2477.6787,56.688593878198276
2479.0305,49.798316216401645
2480.3816,49.35147972275399
2481.7319,55.148040223886255
2483.0816,53.937953052915645
2484.4306,48.02117299147881
2485.7789,47.14765428183307
2487.1264,46.96735068602493
2488.4733,44.930215494624804
2489.8195,46.786201528529205
2491.165,50.58526115933341
2492.5097,46.87734629077056
2493.8538,48.862408320721784
2495.1972,48.59039817829489
2496.5398,45.76126630397425
2497.8818,44.92496265234047
2499.2231,47.731436720361444
2500.5637,41.930637555756334
2501.9035,49.122513728929675
2503.2427,50.15701339098041
2504.5812,47.884084201781775
2505.919,46.753673319637755
2507.256,46.915727424011834
2508.5924,47.770192726831056
2509.9281,53.06701497086476
2511.2631,45.306139421181456
2512.5974,55.68751081217874
2513.9309,53.16107342519388
2515.2638,55.57677098468912
2516.596,56.234546683516555
2517.9275,49.284343158760635
2519.2583,55.976102485161164
2520.5884,51.55976624461471
2521.9178,53.88527545925706
2523.2465,55.152570635626375
2524.5745,53.11159174140835
2525.9018,47.56227819276319
2527.2284,60.05456887473588
2528.5543,63.38840219674864
2529.8796,60.363715967678445
2531.2041,60.0804473625185
2532.5279,58.68853295262488
2533.851,60.037908708549935
2535.1735,60.5285100139605
2536.4952,58.710271652145025
2537.8163,64.28312780110639
2539.1366,60.99701205174563
2540.4562,60.30185735213274
2541.7752,70.39759604036806
2543.0935,65.48415985153326
2544.411,64.81147981673462
2545.7279,67.52948631223762
2547.0441,66.78810906619299
2548.3596,69.43727713145665
2549.6744,69.32691889300418
2550.9885,70.00696204143833
2552.3019,70.32733357409313
2553.6146,66.38795978823316
2554.9266,63.98876627784978
2556.2379,63.779677973055186
2557.5485,65.31061916407441
2558.8585,72.63151350333612
2560.1677,65.64228399016304
2561.4762,70.5428528975632
2562.7841,70.93314184212124
2564.0913,78.61307173499438
2565.3977,68.63256277800781
2566.7035,69.24153438685664
2568.0086,72.03990529091027
2569.313,76.47759352712319
2570.6167,77.70451641205102
2571.9197,77.92059049747354
2573.222,79.47573155812631
2574.5236,85.16985458953843
2575.8246,78.40287379248241
2577.1248,77.22470251603193
2578.4244,78.78525332523236
2579.7232,80.9844380128821
2581.0214,83.22216758392722
2582.3189,85.19835223346962
2583.6157,89.81290132438949
2584.9118,99.51572336758431
2586.2072,90.5567259758223
2587.5019,91.2358157667149
2588.7959,102.25289845230651
2590.0893,101.95787883228354
2591.3819,110.55066068380359
2592.6739,104.33114676444615
2593.9652,109.44923872628414
2595.2557,105.80483717807942
2596.5456,110.04784163410108
2597.8348,118.87815055057041
2599.1234,114.54566128323017
2600.4112,119.20026999904195
2601.6983,128.99187171951087
2602.9848,122.97036027413975
2604.2705,109.48562820251277
2605.5556,114.2875668145108
2606.84,125.97606632515863
2608.1237,118.25101580660544
2609.4067,117.76230307124064
2610.689,121.0098147489432
2611.9707,117.19343629196959
2613.2516,118.16305194247872
2614.5319,104.06854477069527
2615.8115,111.05979666521336
2617.0903,114.73668847394214
2618.3685,112.69909993419287
2619.6461,114.59690963591032
2620.9229,123.27999504204854
2622.199,122.44823246959265
2623.4745,124.15149700272843
2624.7493,118.9396625011592
2626.0234,118.0626015830739
2627.2968,122.32018567726493
2628.5695,126.0122850318989
2629.8415,123.83876867194073
2631.1128,120.44950436223263
2632.3835,128.64435862922943
2633.6535,121.57319679489035
2634.9228,121.38588289473165
2636.1914,120.13227974853731
2637.4593,126.16224896223304
2638.7265,123.27565094042131
2639.9931,125.67234482608274
2641.259,128.60218852944143
2642.5242,123.81503870399854
2643.7887,115.06075071723336
2645.0525,117.93917869847513
2646.3156,118.25017562644598
2647.5781,120.79359330047606
2648.8398,114.7192823373943
2650.1009,115.07709214609383
2651.3613,123.9168709882751
2652.6211,117.38846597486753
2653.8801,116.14172297763258
2655.1385,119.22648669444663
2656.3961,117.69260066176946
2657.6531,116.68990722379596
2658.9094,118.11824754779559
2660.1651,117.92746163413847
2661.42,128.71738830201286
2662.6743,131.08786519133253
2663.9279,135.0887286548372
2665.1808,125.66981373438881
2666.433,129.1809541209617
2667.6846,129.57198224883211
2668.9354,137.39272926046704
2670.1856,128.09302500261327
2671.4351,133.5726979480914
2672.6839,147.7315752887912
2673.9321,150.91948288087661
2675.1795,150.63624510319517
2676.4263,151.08168482540032
2677.6724,152.10562341078275
2678.9179,162.45788071181664
2680.1626,154.08827505992008
2681.4067,155.3466231619323
2682.6501,155.8327401838102
2683.8928,148.49643973804444
2685.1348,150.2875338787988
2686.3761,147.00583317527264
2687.6168,146.15114669379068
2688.8568,146.62328203061918
2690.0961,140.87204532051356
2691.3348,133.59724123199646
2692.5727,129.89867302487016
2693.81,129.42614262296462
2695.0466,126.47945065112327
2696.2826,124.95839643992826
2697.5178,125.06277805516737
2698.7524,130.89239231304435
2699.9863,121.14703477913548
2701.2195,138.8264997100933
2702.452,131.28058015109974
2703.6839,146.35906775907245
2704.9151,143.6617528781232
2706.1456,141.8884243887731
2707.3755,156.73886973492637
2708.6046,154.81287494160267
2709.8331,171.66022446643382
2711.0609,178.2307012189226
2712.2881,189.57408639197
2713.5145,184.7401593961701
2714.7403,199.07869774637618
2715.9654,215.0894771100397
2717.1899,218.32227116382558
2718.4136,236.77685143350396
2719.6367,243.45298726162258
2720.8591,262.30044562296104
2722.0809,262.2689910577692
2723.3019,279.8583854832925
2724.5223,279.9183881940874
2725.7421,289.4487556861266
2726.9611,290.54924165619866
2728.1795,288.66959690660514
2729.3972,284.10956933415537
2730.6142,277.26890394896293
2731.8306,256.84734292004595
2733.0462,242.44462564373356
2734.2612,216.71048894788146
2735.4756,202.94466723589971
2736.6892,189.69689274409342
2737.9022,170.36689567932132
2739.1145,153.9044043514731
2740.3262,144.95914536676986
2741.5372,128.88084379238853
2742.7475,117.01922324591516
2743.9571,111.17400605612755
2745.1661,96.59491338161143
2746.3744,84.83166526921286
2747.582,78.58398079982857
2748.7889,67.70157820603885
2749.9952,57.98417493458447
2751.2008,50.681487755190574
2752.4057,48.443232857740384
2753.61,47.26912592530272
2754.8136,39.65888215651455
2756.0165,43.212216277321374
2757.2188,33.37884261708035
2758.4204,35.35847507302651
2759.6213,38.200827208606995
2760.8215,32.25561223368436
2762.0211,30.02254297611313
2763.22,24.90133194119187
2764.4182,24.641691333994004
2765.6158,19.99333311057967
2766.8127,17.455968980592445
2768.009,10.429310453742517
2769.2045,4.21306886518073
2770.3994,2.6069554457649247
2771.5936,5.560681384222335
2772.7872,-1.4760421567892763
2773.9801,-12.353504070218548
2775.1723,-11.321978503353648
2776.3639,-10.881616191977173
2777.5548,-17.982454765306613
2778.745,-19.224423145214132
2779.9346,-16.157270608848933
2781.1235,-14.480554381373452
2782.3117,-14.393670276816977
2783.4992,-13.595869448470864
2784.6861,-8.736259256860592
2785.8723,-11.66381123977618
2787.0579,-6.227409659778004
2788.2428,-7.525822257952427
2789.427,9.14224543643627
2790.6106,12.128163077088288
2791.7935,20.43330022628095
2792.9757,21.009026325010666
2794.1573,42.00671060994074
2795.3382,48.02772210764488
2796.5184,62.323429424629694
2797.698,69.09520068712493
2798.8769,90.19440339812627
2800.0551,99.92240436967768
2801.2327,116.23056951187948
2802.4096,130.82026373560825
2803.5859,153.19285078943506
2804.7615,174.3996931137283
2805.9364,196.44215161692796
2807.1106,218.67158546347764
2808.2842,245.2393518533994
2809.4572,263.5968057999995
2810.6294,308.94529986419127
2811.801,345.83618397092005
2812.972,387.2708049556785
2814.1423,422.70050619559765
2815.3119,468.32662719510085
2816.4808,518.2005032316071
2817.6491,560.1734648992687
2818.8167,612.8468376102335
2819.9837,654.471941174915
2821.15,705.1000892752581
2822.3157,746.1825890484893
2823.4807,794.0707405808344
2824.645,849.865836496693
2825.8086,877.3191614797576
2826.9716,933.0819917150627
2828.134,967.0555946144518
2829.2957,998.4412282589476
2830.4567,1025.6401410590183
2831.617,1044.0035714407195
2832.7767,1047.3827475737057
2833.9358,1042.6288871875963
2835.0941,1035.4431975381822
2836.2519,1023.0768754549665
2837.4089,1001.831107413021
2838.5653,996.3070696566481
2839.7211,987.0059284118406
2840.8761,980.9788399415204
2842.0306,1010.4769506385509
2843.1843,1031.901397086006
2844.3374,1081.1533057621923
2845.4899,1144.5837928264018
2846.6417,1208.0439636263936
2847.7928,1278.3349120640885
2848.9433,1349.1577199609696
2850.0931,1439.3634563551705
2851.2422,1507.8031767932478
2852.3907,1563.827922428125
2853.5385,1630.0387193346928
2854.6857,1690.736577949565
2855.8323,1750.972492408966
2856.9781,1785.747439941757
2858.1233,1841.1623802670729
2859.2679,1889.568255246576
2860.4118,1937.6659883303046
2861.555,1972.4564840726139
2862.6976,2007.4406276512013
2863.8395,2034.9192845191983
2864.9808,2074.1433000553316
2866.1214,2077.9634992891342
2867.2614,2094.3306865087093
2868.4007,2098.8956452225225
2869.5393,2118.7091379957346
2870.6773,2128.2719064045486
2871.8146,2128.934670838078
2872.9513,2133.0481304027167
2874.0874,2127.2629629155117
2875.2227,2128.3798248630296
2876.3574,2099.049351459208
2877.4915,2072.0721566341854
2878.6249,2052.848833327608
2879.7577,2020.7299537584006
2880.8898,2011.4660696169994
2882.0212,1985.3577123865425
2883.152,1980.755393435506
2884.2821,1973.6096042787915
2885.4116,1959.5208166237453
2886.5405,1956.6394824416175
2887.6686,1951.516034108452
2888.7962,1958.8508844338965
2889.923,1973.84442671244
2891.0493,1992.8470346500626
2892.1748,1993.6590622143005
2893.2997,2008.8308434442188
2894.424,2028.0626924422947
2895.5476,2046.854903222696
2896.6706,2068.057749518964
2897.7929,2090.4714845960925
2898.9145,2122.746341038496
2900.0355,2148.532530525877
2901.1559,2191.730243510473
2902.2756,2211.7896489591976
2903.3946,2258.21089392166
2904.513,2279.0941033295762
2905.6308,2295.4393795325523
2906.7479,2329.046802089253
2907.8643,2351.9664276039507
2908.9801,2374.9982893904507
2910.0953,2375.3423972428927
2911.2098,2372.248737205434
2912.3236,2366.0172715688104
2913.4368,2356.547938901268
2914.5494,2342.14065411088
2915.6613,2301.1953085402433
2916.7725,2298.511770110546
2917.8831,2269.8898837310244
2918.9931,2248.329471325797
2920.1024,2214.2303321200834
2921.211,2177.742242855809
2922.319,2169.1649581325955
2923.4264,2156.098210772643
2924.5331,2139.9417119065024
2925.6391,2138.0451511037427
2926.7445,2113.0081965345157
2927.8493,2126.130494988522
2928.9534,2136.5616721253814
2930.0569,2100.1513323434074
2931.1597,2119.8490586752987
2932.2619,2116.2544131522404
2933.3634,2098.216936606927
2934.4643,2100.3861487095096
2935.5645,2066.7615481479697
2936.6641,2037.592612606427
2937.763,2012.5287991013877
2938.8613,1950.7695442734307
2939.959,1893.464264637848
2941.056,1838.962357202236
2942.1523,1759.9632000395493
2943.248,1673.4161528331188
2944.3431,1574.3705576666432
2945.4375,1471.3757398896619
2946.5313,1373.7810091080069
2947.6244,1278.4356602137543
2948.7169,1186.7889743611704
2949.8087,1075.8902199201657
2950.8999,996.5886533927597
2951.9904,923.5835205220719
2953.0803,848.5740570853344
2954.1696,779.1094896239454
2955.2582,736.339036193562
2956.3462,688.9119070587477
2957.4335,643.8273051206754
2958.5202,624.2844263914001
2959.6062,600.4324604447028
2960.6916,569.8705906115213
2961.7764,558.2979942184687
2962.8605,538.8138428934523
2963.9439,539.0673026813996
2965.0267,530.5575342391006
2966.1089,533.3336928326717
2967.1905,516.9949284226545
2968.2714,514.3403856362544
2969.3516,517.2192039307276
2970.4312,527.4305176199271
2971.5102,541.7234558455134
2972.5885,541.9471424748431
2973.6662,536.9006959580382
2974.7432,530.4832293257492
2975.8196,538.1438502396206
2976.8954,528.9816610564648
2977.9705,521.5457587516553
2979.045,525.2852350107505
2980.1188,510.1491763038508
2981.192,487.63666384820453
2982.2645,474.14677375956853
2983.3364,453.1285772773339
2984.4077,425.931140899424
2985.4783,405.40352659247685
2986.5483,370.34479206381957
2987.6177,348.303990966744
2988.6864,312.28017325109477
2989.7545,281.0223853836768
2990.8219,245.17967070849386
2991.8887,215.9510697593256
2992.9548,193.7356206181558
2994.0204,162.38235920745757
2995.0852,140.14031951234745
2996.1495,120.30853389411908
2997.2131,105.58603331266278
2998.276,79.57184752478366
2999.3383,70.61500523142678
3000.4,51.36453433781895
3001.4611,37.019462043037095
3002.5215,34.02881503251331
3003.5812,20.291619621485438
3004.6404,10.10690178490347
3005.6989,3.923687294801425
3006.7567,4.39100182214446
3007.8139,-9.142129001338787
3008.8705,-4.426679587829881
3009.9264,-11.063533019641625
3010.9818,-8.903528156558082
3012.0364,-11.297393333668765
3013.0905,-12.745767939816972
3014.1439,-5.699178502887094
3015.1966,-11.958024220541972
3016.2487,-0.022647355651713497
3017.3002,0.45672928957560543
3018.3511,-1.7201170868414124
3019.4013,3.496590708548297
3020.4509,14.106647053165545
3021.4998,10.059846289465213
3022.5481,-4.2440173811638715
3023.5958,24.84485014206882
3024.6428,19.426285357686993
3025.6892,27.100124515766538
3026.735,26.166203672120332
3027.7802,32.8243586115604
3028.8247,45.774424857236795
3029.8685,54.61623760405644
3030.9118,56.94963158918205
3031.9544,64.47444100361457
3032.9963,78.34049946885887
3034.0376,82.14763996167585
3035.0783,97.24569467542159
3036.1184,101.03449498197585
3037.1578,105.81387128076199
3038.1966,111.33365296085833
3039.2348,120.44366835320454
3040.2723,125.19374467540399
3041.3092,120.98370794062345
3042.3455,124.46338291009232
3043.3811,130.03259313520311
3044.4161,128.29116092271454
3045.4505,130.23890727905973
3046.4842,126.7756519277604
3047.5173,124.2012132899493
3048.5498,116.11540851900264
3049.5816,108.26805352628497
3050.6128,112.85896306200647
3051.6434,110.68795079369727
3052.6734,117.15482926029796
3053.7027,110.50940989386959
3054.7314,105.6015029549252
3055.7594,107.03091759888343
3056.7868,100.19746192514839
3057.8136,105.350942962815
3058.8398,103.94116673900368
3059.8653,101.16793822732558
3060.8902,101.03106136198056
3061.9145,101.98033906548915
3062.9381,92.86557325006152
3063.9612,94.33656480810464
3064.9835,90.49311370336989
3066.0053,89.185018956243
3067.0264,88.41207868217893
3068.0469,84.52409010478243
3069.0668,78.07084956353756
3070.086,75.90215255268762
3071.1046,73.26779378576754
3072.1226,64.46756721729062
3073.1399,56.501266069092395
3074.1567,60.66868291833285
3075.1727,46.21960977715935
3076.1882,39.75383805103246
3077.203,40.87115868321695
3078.2173,32.32136221943915
3079.2308,24.554238796713832
3080.2438,25.71957822884238
3081.2561,19.167170084083722
3082.2678,15.196803673501279
3083.2789,15.708268116486863
3084.2893,14.051352380464238
3085.2991,7.675845275774435
3086.3083,8.381535472245304
3087.3169,0.9682115629462373
3088.3248,3.5356620571313613
3089.3321,-3.7163245456272023
3090.3388,-2.5879597811137103
3091.3449,-0.9794180590303085
3092.3503,-6.8408479353609835
3093.3551,1.6276118182966002
3094.3593,-1.7741092295844112
3095.3629,0.3539184731930902
3096.3658,-2.438357797822647
3097.3681,-2.8509943027290205
3098.3698,-4.434022942429067
3099.3708,-2.3874471363927796
3100.3713,-5.561226008201118
3101.3711,0.7947051691618583
3102.3702,-6.6695333206401415
3103.3688,2.0461708669518828
3104.3667,4.191996705134784
3105.364,2.768123146643859
3106.3607,0.32472910229444096
3107.3568,0.811993455220744
3108.3522,8.580091844513134
3109.347,5.2291917974472995
3110.3412,2.6094607554980485
3111.3348,4.421066107848418
3112.3277,10.56417521758685
3113.32,8.388955403591268
3114.3117,16.845573879097827
3115.3028,13.084197773453283
3116.2932,16.704994047548595
3117.2831,15.55812953143284
3118.2723,18.243770888105246
3119.2608,19.5120846249837
3120.2488,17.61323706704846
3121.2361,22.04739434415889
3122.2229,20.86472241004212
3123.209,24.715386997951384
3124.1944,22.89955363249267
3125.1793,27.517387591118165
3126.1635,22.81905392228464
3127.1471,26.354717399275017
3128.1301,27.174542567181646
3129.1125,23.47869370754981
3130.0942,27.467334830179396
3131.0753,29.79062971008331
3132.0558,26.248741847601224
3133.0357,30.441834445166464
3134.015,30.120070442724995
3134.9936,33.2836124758045
3135.9716,33.13262287873201
3136.949,34.9172636529984
3137.9258,35.437696468768365
3138.902,42.09408264703397
3139.8775,64.63658315441036
3140.8524,43.86535853657193
3141.8267,39.43056869282728
3142.8004,42.63237308383146
3143.7735,46.3709307759339
3144.7459,46.74640040916031
3145.7178,44.60894015982718
3146.689,48.708707736786984
3147.6596,45.44586040280282
3148.6295,47.82055493355076
3149.5989,52.282947650248275
3150.5676,50.03319439590729
3151.5357,51.32145049071032
3152.5032,54.397870754507906
3153.4701,51.06260949393614
3154.4364,56.46582047165235
3155.402,55.55765693968786
3156.367,55.33827158541577
3157.3315,59.00781654063262
3158.2952,60.26644338375223
3159.2584,60.51430310311031
3160.221,60.801546084378124
3161.1829,59.92832210808392
3162.1442,64.19478034674047
3163.105,66.15106937357737
3164.065,65.3473371198764
3165.0245,65.13373085540866
3165.9834,68.5103971964719
3166.9416,69.07748210802654
3167.8993,68.78513086992903
3168.8563,67.43348807126107
3169.8127,70.52269761325296
3170.7684,70.5029027228002
3171.7236,74.9242459215713
3172.6782,76.73686902620574
3173.6321,76.79091310410051
3174.5854,83.78651845528395
3175.5381,79.17382461187528
3176.4902,76.80297026812848
3177.4417,81.92409332655932
3178.3926,80.98733092165386
3179.3428,79.84281936865726
3180.2924,83.84069417294131
3181.2415,88.18109004144961
3182.1899,86.36414084271884
3183.1377,85.33997956347476
3184.0848,87.80873832680167
3185.0314,92.62054840238419
3185.9773,90.62554018181942
3186.9227,91.27384313049905
3187.8674,94.56558580755933
3188.8115,94.20089585939806
3189.755,96.07989998675718
3190.6979,95.30272394836965
3191.6402,97.5194925421694
3192.5818,97.98032961306316
3193.5229,100.23535803076268
3194.4633,99.18469968517641
3195.4031,101.4284754638592
3196.3423,102.26680526251889
3197.2809,103.64980796257854
3198.2189,104.2276014227931
3199.1563,103.15030246541944
3200.0931,107.01802687043842
3201.0292,109.93088938632779
3201.9648,106.5890036913851
3202.8997,109.79248236459895
3203.834,112.34143691906792
3204.7677,112.28597776996567
3205.7008,109.8762142090515
3206.6333,113.76225440522492
3207.5652,112.8442054286233
3208.4964,113.82217321176137
3209.4271,120.49626255871189
3210.3571,119.16657713532575
3211.2865,118.68321940249126
3212.2154,122.34629062943088
3213.1436,122.35589089853485
3214.0712,119.51211906873047
3214.9982,122.96507277538606
3215.9246,120.36484845874875
3216.8503,126.46154132941481
3217.7755,122.25524539433209
3218.7001,129.44605339583288
3219.624,129.93405685369706
3220.5473,131.36934599324388
3221.4701,130.15200974045206
3222.3922,134.48213570760672
3223.3137,129.65981020547292
3224.2346,132.08511819999433
3225.1549,134.2581433605165
3226.0746,135.17896803553373
3226.9937,136.9976732309588
3227.9121,137.51433860091487
3228.83,142.37904242954826
3229.7473,137.99186162586187
3230.6639,142.90287167506813
3231.5799,142.56214668246085
3232.4954,140.9697593243051
3233.4102,146.0257808512444
3234.3244,144.68028110422472
3235.238,144.63332846393405
3236.151,146.8349898642577
3237.0634,148.1853307927475
3237.9752,146.73441526860546
3238.8864,150.8823058291803
3239.797,149.9790635444764
3240.7069,151.17474797567505
3241.6163,150.86941718416688
3242.5251,153.36312771959496
3243.4332,155.3059346229081
3244.3408,156.34789140142382
3245.2477,157.18905000940026
3246.154,155.32946083761667
3247.0598,159.06917270496166
3247.9649,156.20823287702927
3248.8694,159.54668702872166
3249.7733,159.33457927285878
3250.6766,159.47195212679355
3251.5793,164.75884651453305
3252.4814,163.84530176536484
3253.3829,164.78135556098772
3254.2838,167.0170439446476
3255.1841,164.1024013117767
3256.0838,169.03746038763666
3256.9829,168.8222522564651
3257.8814,169.2068063121249
3258.7792,168.54115026025647
3259.6765,165.725310114432
3260.5731,169.0593102028123
3261.4692,170.5431731963049
3262.3647,173.9269200752243
3263.2595,173.51057011445317
3264.1538,173.19414084960482
3265.0474,172.42764808118682
3265.9404,176.51110587776526
3266.8329,175.34452658362972
3267.7247,176.4779207779585
3268.616,176.36129728648473
3269.5066,175.0946631701622
3270.3966,176.52802372633172
3271.286,178.11138250138742
