RamanShift,CorrectedData
30.1047,1464.5358657533372
32.3739,1365.3578636466566
34.6426,1256.1798468946172
36.9109,1153.7017871982816
39.1787,1051.2236436969133
41.4461,947.5453639927582
43.7131,846.4668851758247
45.9796,744.3381348606672
48.2456,639.1590321971712
50.5112,536.5794888918404
52.7764,433.4494102595881
55.0411,334.61869624953243
57.3054,232.93724247629746
59.5692,134.00494120832005
61.8326,33.571682384664726
64.0955,-70.21264539565334
66.3579,-162.5481538693359
68.6199,-252.0842533487571
70.8815,-328.7687302902343
73.1426,-365.49685282839397
75.4032,-274.4606046982473
77.6634,128.9516816787543
79.9231,1223.7044157425994
82.1824,3747.762005643761
84.4412,8425.238847295668
86.6995,15035.299299134129
88.9574,21518.157635342566
91.2148,26075.37797975141
93.4717,28126.12424100951
95.7282,28482.160067011948
97.9842,28263.698824392548
100.2398,27497.803594963538
102.4949,26685.737177900173
104.7495,25712.812097399652
107.0036,24816.19061080182
109.2573,23986.78471831839
111.5105,23210.156171999184
113.7632,22485.516484026168
116.0154,21881.47693447975
118.2672,21431.548578585167
120.5185,20958.242252752905
122.7693,20626.018579077954
125.0197,20260.437970072875
127.2696,19956.310631990065
129.519,19704.646568477525
131.7679,19331.705583620154
134.0163,18999.59728445639
136.2642,18612.881084707624
138.5117,18179.56620809925
140.7587,17687.61169222789
143.0052,17290.37639289448
145.2512,16896.81898902385
147.4967,16483.59798663707
149.7417,16152.121722787011
151.9863,15883.29836969059
154.2304,15696.435938043478
156.4739,15395.292279708385
158.717,15230.925089583654
160.9596,14975.991908614713
163.2017,14661.60012543773
165.4433,14289.906978928973
167.6844,13916.769561348694
169.925,13526.044822058086
172.1651,13094.48957125064
174.4047,12733.71048385941
176.6439,12411.914103872547
178.8825,12119.856847941102
181.1206,11906.695008596986
183.3582,11687.784757173547
185.5954,11519.482145937181
187.832,11364.993110276439
190.0681,11214.023470385053
192.3037,11151.328932806824
194.5388,11009.265091945326
196.7734,10966.637430690831
199.0075,10912.051321840972
201.2411,10948.112028527006
203.4742,10907.174704759687
205.7068,10982.144395068644
207.9389,10991.22603491177
210.1704,11024.724449925503
212.4015,11030.244355834036
214.632,11068.090358114314
216.862,11113.016951940841
219.0915,11121.578521807221
221.3205,11088.029341076897
223.549,11076.47357189753
225.777,11033.715265536492
228.0044,11060.758362496425
230.2314,11094.606692942822
232.4578,11085.213976433597
234.6837,11078.633821580599
236.909,11003.319726143542
239.1339,10893.275077095812
241.3582,10762.553151377597
243.582,10591.157116996339
245.8053,10485.540034333953
248.0281,10381.654857860794
250.2503,10286.454437191805
252.472,10268.741518125411
254.6932,10293.268743595465
256.9139,10268.938653848434
259.134,10428.653686198082
261.3536,10557.916175268801
263.5727,10761.728351398444
265.7912,10872.092339345714
268.0092,11106.160156252028
270.2267,11279.183710537889
272.4436,11294.414799562195
274.6601,11268.10510789202
276.8759,11135.80620715029
279.0913,10962.519556278892
281.3061,10809.246502861646
283.5204,10691.88828485719
285.7341,10578.696032131695
287.9473,10556.92076763245
290.16,10503.713408519794
292.3721,10478.974766384861
294.5837,10596.555547781665
296.7947,10670.55635447446
299.0052,10745.427682261954
301.2152,10666.269920237306
303.4246,10490.083350039386
305.6334,10113.868146644383
307.8418,9708.07438012765
310.0495,9258.30201942586
312.2568,8746.000936394961
314.4635,8315.370910307867
316.6696,7929.111632977498
318.8752,7593.222713063062
321.0802,7443.15367993266
323.2847,7418.953987022163
325.4887,7380.573013335919
327.692,7295.0600636887375
329.8949,7237.314369089705
332.0972,7033.385087597315
334.2989,6833.52130489692
336.5001,6512.872036340035
338.7007,6292.6362289429635
340.9008,6066.312764593296
343.1003,5844.050462252275
345.2992,5640.898080218012
347.4976,5518.504318348125
349.6955,5354.9178200912465
351.8927,5280.487173710979
354.0895,5131.560913921749
356.2856,5064.13752263312
358.4812,4928.6154304390475
360.6763,4881.4930172921195
362.8707,4790.218613858779
365.0646,4778.4405019905425
367.258,4774.85691563675
369.4508,4766.866040962335
371.643,4860.966016383662
373.8346,4870.854932648446
376.0257,4933.830831894749
378.2162,4900.541707552087
380.4062,4838.985503711687
382.5956,4686.5101154593485
384.7844,4518.863389491027
386.9726,4357.143125637582
389.1603,4222.897078541253
391.3474,4116.8729592728505
393.5339,4040.418436674221
395.7199,3917.1811384184875
397.9052,3955.058651774594
400.09,3971.3985248396802
402.2743,4106.498266160304
404.4579,4203.755344569041
406.641,4348.517187833495
408.8235,4422.681181683722
411.0054,4566.74466836461
413.1868,4651.654945894248
415.3675,4629.409266623283
417.5477,4583.404836385816
419.7273,4541.838814721868
421.9064,4363.808315337408
424.0848,4257.210406520024
426.2627,4099.642112919231
428.4399,3831.750416612438
430.6166,3474.3322586806444
432.7928,3167.5845418873487
434.9683,2816.9041342527453
437.1432,2587.03787212118
439.3176,2397.682563667957
441.4914,2233.284991198014
443.6645,2177.491913039472
445.8371,2098.0500651876027
448.0091,1995.356161862759
450.1806,1954.506896304807
452.3514,1907.5489418000525
454.5216,1900.5289520897386
456.6913,1846.8435618396288
458.8603,1847.2893867101975
461.0288,1881.5630238934937
463.1967,1859.6110521086757
465.3639,1858.6800312592823
467.5306,1764.0165026527447
469.6967,1750.0669890096979
471.8622,1729.5779954106238
474.0271,1737.2460094353264
476.1914,1731.51750136784
478.3551,1684.3389241197365
480.5182,1751.5067132874137
482.6807,1780.4172876238936
484.8426,1960.2170483671325
487.0039,2238.2023789509203
489.1647,2578.319643206887
491.3248,2871.1151825846446
493.4843,2934.835312750618
495.6432,2843.6763206600863
497.8015,2669.7344639199837
499.9592,2545.005971700486
502.1163,2351.887046474436
504.2728,2046.1738652646181
506.4287,1787.0125815749616
508.5839,1512.0993284476554
510.7386,1298.3302210547736
512.8927,1222.2013594474047
515.0461,1171.8588306933398
517.199,1252.598709638356
519.3512,1413.017059409649
521.5029,1640.8099306084296
523.6539,1888.5233597057468
525.8043,1955.9033667645563
527.9541,1911.5459529625878
530.1033,1677.5470999185454
532.2519,1500.6527701356808
534.3999,1413.5089093417773
536.5472,1423.3114482581022
538.694,1572.6063034708313
540.8401,1791.9893773330332
542.9856,1976.8065564717162
545.1305,1984.9037095940112
547.2748,1908.3766856389793
549.4185,1741.3213136966515
551.5615,1628.7834037732937
553.704,1627.5087484619635
555.8458,1711.1431240678921
557.987,1845.7822906212205
560.1276,2081.621991040678
562.2675,2465.507949787161
564.4069,2950.6858705053546
566.5456,3380.601432184869
568.6837,3529.4502843084592
570.8212,3153.128042552871
572.958,2505.8802873003533
575.0942,1843.0525674018718
577.2299,1415.1904066495972
579.3648,1209.239310405177
581.4992,1120.6447698783631
583.6329,1201.452264186515
585.766,1393.7572612405547
587.8985,1507.7552169368919
590.0304,1581.5915732343656
592.1616,1536.5617570142658
594.2922,1410.1111793419695
596.4222,1208.935235917248
598.5515,1024.5293083387642
600.6802,851.8387661158322
602.8083,665.7089685124793
604.9358,672.4352662743477
607.0626,652.5130034899976
609.1888,764.3375175236397
611.3144,928.6541392143681
613.4393,1069.5581917579002
615.5636,1210.294989063419
617.6873,1270.9598343445305
619.8103,1192.3480187119021
621.9327,993.904820566604
624.0544,800.8255063862434
626.1756,620.3553327093832
628.2961,463.0395480663319
630.4159,388.0733947838562
632.5351,393.5521105583284
634.6537,377.2209292053958
636.7716,394.57508060519285
638.8889,415.9097908656531
641.0056,446.7702821489711
643.1216,434.65177245825544
645.237,409.6994753289073
647.3518,356.2585999498151
649.4659,268.92435141287024
651.5793,198.14193124738267
653.6922,159.80653829342555
655.8043,133.16336940965266
657.9159,159.20761985666832
660.0268,139.4344835634456
662.137,147.68915286688207
664.2466,180.36681870953544
666.3556,161.86267055707867
668.4639,114.1218960715214
670.5716,99.38968129625027
672.6786,78.5612111334467
674.785,3.431669491392313
676.8907,-33.753760507228435
678.9958,6.997787386353593e-05
681.1002,-54.561353012939435
683.204,-47.092543440016016
685.3072,-71.54747019579372
687.4097,-65.77963171819283
689.5115,-45.39181168592222
691.6127,-61.73613663917058
693.7132,-62.41427965393814
695.8131,-43.02729706222635
697.9123,-3.1756216773828783
700.0109,31.690743529929023
702.1089,75.62182731350367
704.2061,118.71734183658918
706.3028,225.4769985062303
708.3987,289.6505075422956
710.4941,298.8875769098886
712.5887,328.437911677609
714.6827,382.30121392518413
716.7761,500.9771824479649
718.8688,654.8155122182961
720.9608,757.56589319876
723.0522,925.8780088037911
725.1429,988.9515348721616
727.233,1087.0861379838734
729.3224,1222.681474829411
731.4112,1154.4871912284034
733.4993,1040.2529207736698
735.5867,831.4282855131605
737.6735,624.0628970923099
739.7596,407.40635884226504
741.845,283.9582678535644
743.9298,202.51821714267862
746.014,159.0357968865046
748.0974,170.66059523676267
750.1802,160.69219875482122
752.2624,159.43019229545098
754.3439,218.72415910651034
756.4247,326.72368084157097
758.5048,477.42833696696107
760.5843,733.1377036817885
762.6631,1093.7013524108716
764.7413,1633.2188472476628
766.8188,2308.9897413486087
768.8956,2869.063571537972
770.9718,3279.9398515501252
773.0473,3269.168066428816
775.1221,3057.1976684183956
777.1962,2837.628077071542
779.2697,2771.9586813689657
781.3426,2864.4888419150902
783.4147,3028.6678915947614
785.4862,3076.745134647934
787.557,2896.6198450278916
789.6271,2441.3912659204743
791.6966,1817.7586115453287
793.7654,1264.8710717081922
795.8335,854.4278180372221
797.901,600.0780095118735
799.9678,427.9707965673351
802.0339,357.0053236380172
804.0993,310.68073087863377
806.1641,245.54615487385854
808.2282,190.95072910155977
810.2916,117.84358458414863
812.3544,91.62385043454015
814.4164,49.84065458722034
816.4778,74.84312406043864
818.5385,126.93038537404209
820.5986,281.90156429945637
822.658,527.9557853388142
824.7166,837.4921701752282
826.7747,1385.7098352122757
828.832,1937.1578884786086
830.8886,2322.0854241457837
832.9446,2563.891517013786
834.9999,2416.5252186617527
837.0545,2124.185555029908
839.1085,1771.371527893236
841.1618,1431.8821177848622
843.2143,1184.316287524207
845.2662,994.7229856118756
847.3175,871.7511487053125
849.368,752.8497035147429
851.4179,696.917568032879
853.467,607.8536527239521
855.5155,581.7568610830131
857.5633,517.5260905265914
859.6105,460.81023265365
861.6569,403.50817388789255
863.7027,331.2687960449384
865.7478,282.14097690531526
867.7922,267.023590936873
869.8359,252.61550978605374
871.8789,259.51560242906635
873.9212,346.47273531596875
875.9629,390.53577230166593
878.0039,494.40357377635155
880.0441,630.6249962248658
882.0837,679.3488911880086
884.1226,751.8741039003471
886.1609,846.9494728029549
888.1984,929.023828818179
890.2352,1107.0959943988782
892.2714,1114.4647827076697
894.3069,1129.3289958362202
896.3416,983.18742473155
898.3757,834.0888490473899
900.4091,755.282038605601
902.4418,731.165754887159
904.4739,758.1887518202329
906.5052,860.0497760213366
908.5358,812.297566525107
910.5658,741.2308537656845
912.595,555.3483600542422
914.6236,344.848800289652
916.6515,208.7808838173005
918.6786,153.94331653409427
920.7051,164.13480224913837
922.7309,177.40404323210169
924.756,228.7497401113178
926.7804,285.4705917410738
928.8041,280.91529468817134
930.8272,392.88254266470904
932.8495,369.8210265736325
934.8711,372.0294333890597
936.892,330.5064463869112
938.9123,369.9007451228117
940.9318,401.5610058473285
942.9506,428.73590111202066
944.9688,432.0740994528387
946.9862,315.8242651183773
949.003,179.7350580364946
951.019,51.70513497680804
953.0344,26.68315091159093
955.0491,-4.182239703926825
957.063,44.95761731865605
959.0763,114.70141794831397
961.0888,145.29785770444505
963.1007,228.59563095944577
965.1119,252.34343063273263
967.1223,245.68994735776505
969.1321,248.98386924458646
971.1412,256.7238819463364
973.1495,247.90866862632174
975.1572,246.43690988061826
977.1641,288.5072838262131
979.1704,269.9684661157262
981.1759,249.96912951671038
983.1808,279.5079440970312
985.1849,272.53357742487424
987.1884,338.59469427334807
989.1911,429.93995669023025
991.1932,490.3180233373605
993.1945,530.7275485771879
995.1951,512.8671818689782
997.1951,510.1855673647351
999.1943,468.9313440877904
1001.1928,490.2031459596237
1003.1906,554.9496022124022
1005.1877,655.8193371762627
1007.1841,768.5609696318515
1009.1798,812.2731118016309
1011.1748,766.7043682224503
1013.1691,620.8533353084349
1015.1627,481.31860180667536
1017.1556,250.5987502557291
1019.1477,150.9423583809712
1021.1392,61.69800140179541
1023.1299,22.914253028169696
1025.12,35.38968635309175
1027.1093,102.7228742404186
1029.0979,227.012389200112
1031.0859,332.3068027149129
1033.0731,368.7046839974337
1035.0596,335.70459893722364
1037.0454,254.55510973679338
1039.0304,181.25477524161033
1041.0148,85.7521517515961
1042.9985,10.595793754126134
1044.9814,-43.41574512094121
1046.9636,-75.5340170957279
1048.9452,-91.46014066907264
1050.926,-39.44447975498042
1052.9061,-2.436484580653996
1054.8855,5.914788677053366
1056.8642,70.31030818176441
1058.8421,134.85098300835853
1060.8194,176.98772152861602
1062.7959,218.02143076580978
1064.7717,277.35301597334
1066.7469,348.83338022439966
1068.7213,434.11342381864415
1070.695,549.4940435674125
1072.6679,580.2761319409037
1074.6402,635.7605759143862
1076.6117,631.0482566603696
1078.5826,522.9900489937645
1080.5527,361.336821419005
1082.5221,271.23943721063006
1084.4908,240.59875602981083
1086.4587,229.71563482532838
1088.426,250.84092813998723
1090.3925,266.92548821944
1092.3584,334.67016480093844
1094.3235,340.17580495248876
1096.2879,419.34325239539976
1098.2515,558.223347449215
1100.2145,744.0169262400595
1102.1767,957.0248193118186
1104.1382,1161.6978497682212
1106.099,1431.0368311427483
1108.0591,1645.64256535191
1110.0185,1818.3658400018458
1111.9771,1916.1574262422791
1113.9351,1856.8680770392739
1115.8923,1762.0985261973337
1117.8488,1658.8994889522755
1119.8045,1471.2216629189425
1121.7596,1347.7157291231842
1123.7139,1187.9823538786422
1125.6675,1126.422190021808
1127.6204,1154.2858785093558
1129.5726,1132.1740490337306
1131.524,1066.8873197445319
1133.4748,923.4762974696223
1135.4248,760.091578367993
1137.3741,605.7337493638788
1139.3226,497.35338978059826
1141.2705,442.3010728841464
1143.2176,376.5773669669843
1145.164,368.23283589856237
1147.1097,299.5680397825681
1149.0546,231.8335350403595
1150.9989,122.27987509761806
1152.9424,25.857611061693206
1154.8852,-60.08270718285894
1156.8272,-70.29053001005468
1158.7686,-62.714707567664846
1160.7092,-16.003387801071767
1162.6491,13.145907864266519
1164.5883,124.03581787673465
1166.5267,226.06898055326292
1168.4644,401.8480329704271
1170.4014,588.7756099441185
1172.3377,833.454342271747
1174.2732,1147.4368548629718
1176.2081,1524.9257642929215
1178.1421,2034.9236756623495
1180.0755,2599.083178822766
1182.0082,2970.656843276446
1183.9401,3135.5972125348353
1185.8713,3009.106800402814
1187.8017,2658.888089329291
1189.7315,2279.543531672113
1191.6605,1838.9255532002444
1193.5888,1545.0365568872203
1195.5163,1381.578927317325
1197.4432,1300.15503362448
1199.3693,1242.5672311268163
1201.2947,1210.1678621409292
1203.2193,1184.7092565577377
1205.1432,1177.9937321664884
1207.0664,1161.273594909333
1208.9889,1151.4011389484976
1210.9106,1126.9786468334732
1212.8316,1140.2083895997366
1214.7519,1183.9926270129845
1216.6715,1202.7336074368377
1218.5903,1295.68356739499
1220.5084,1374.444731383799
1222.4257,1517.9193109427906
1224.3424,1594.5595038670417
1226.2583,1731.717492772441
1228.1735,1885.2954443292847
1230.0879,2046.4455078907004
1232.0016,2271.969813956861
1233.9146,2433.570472563487
1235.8269,2470.4995710266066
1237.7384,2447.0591723265425
1239.6492,2351.0513147386246
1241.5592,2348.928012067602
1243.4686,2406.8912546077117
1245.3772,2629.2930091639164
1247.285,2879.9352184722666
1249.1922,3125.4197989758877
1251.0986,3335.948638318553
1253.0042,3470.823592889845
1254.9092,3627.546485719856
1256.8134,3728.919105130445
1258.7169,3883.0932031680113
1260.6196,4023.770494589766
1262.5216,4225.702655321989
1264.4229,4393.091321053267
1266.3234,4589.4880852151555
1268.2232,4737.194497308301
1270.1223,4797.962060938474
1272.0207,4831.142232339506
1273.9183,4810.286419765616
1275.8151,4753.745983159602
1277.7113,4766.772234361395
1279.6067,4910.466437673478
1281.5014,5193.029809730613
1283.3953,5657.913518062904
1285.2885,6270.118678270152
1287.181,6889.6963493730345
1289.0727,7486.247527691047
1290.9637,7876.023140646723
1292.854,8135.9240408001215
1294.7435,8085.851001951071
1296.6323,7939.354716540165
1298.5204,7686.935796149486
1300.4077,7414.744772967576
1302.2943,7084.1321023136215
1304.1802,6745.348165359367
1306.0653,6212.74327243524
1307.9497,5738.567666418191
1309.8333,5318.121528057743
1311.7162,4983.804980717742
1313.5984,4810.518094580828
1315.4798,4646.660889991587
1317.3605,4561.383339189431
1319.2405,4422.885367947165
1321.1197,4180.366856423767
1322.9982,3890.977640549366
1324.876,3622.867514450424
1326.753,3277.3862333436264
1328.6293,3053.3335162169833
1330.5048,2851.559049284654
1332.3796,2657.7124882274593
1334.2537,2553.693460210634
1336.127,2443.201565822288
1337.9996,2418.736380113596
1339.8714,2398.3974537037284
1341.7426,2386.6343130244895
1343.6129,2441.596460523713
1345.4826,2436.6333747828967
1347.3515,2461.994509967576
1349.2196,2446.5292958769596
1351.087,2486.1871376903055
1352.9537,2518.217416121587
1354.8197,2626.269487022909
1356.6849,2787.2426810642028
1358.5493,2980.9863026527073
1360.4131,3188.949628323242
1362.276,3368.6319048007636
1364.1383,3434.5823469207344
1365.9998,3348.000135832299
1367.8606,3103.58441833878
1369.7206,2746.034307763506
1371.5799,2479.2988863939663
1373.4384,2233.6772090573077
1375.2962,2011.5683057876904
1377.1533,1717.8211842825076
1379.0096,1370.3848321234727
1380.8652,1058.2582197140864
1382.7201,820.8403037540029
1384.5742,628.8800303602966
1386.4275,487.0263374416427
1388.2802,348.528156617921
1390.132,240.48441463875042
1391.9832,206.74403476847147
1393.8336,129.45593786658628
1395.6832,115.91904272515967
1397.5322,85.48226684170095
1399.3803,87.84452655453424
1401.2278,43.20473734716688
1403.0745,47.76181382466257
1404.9204,34.96467016004499
1406.7656,46.062220048725976
1408.6101,77.15337683647067
1410.4538,103.88705340842898
1412.2968,159.46216187821756
1414.139,230.9776133205869
1415.9805,293.5323172156659
1417.8213,372.4751807338116
1419.6613,481.8051081100657
1421.5006,638.4209998547167
1423.3391,827.321751660008
1425.1769,1100.8562528339744
1427.0139,1493.4233844114324
1428.8502,2015.4720164186447
1430.6858,2513.2510039476356
1432.5206,2870.6091819357116
1434.3547,3107.8453601876727
1436.188,3134.508319802231
1438.0206,3060.6468107996434
1439.8524,2934.109551855089
1441.6835,2834.645231037286
1443.5139,2744.2025070738564
1445.3435,2731.830010345977
1447.1724,2694.1263437928037
1449.0005,2692.5400830351973
1450.8279,2683.769776752758
1452.6545,2693.713946699686
1454.4804,2721.721087792487
1456.3056,2699.089668010529
1458.13,2679.1181281159743
1459.9536,2549.8048818800844
1461.7766,2352.998316282946
1463.5987,2085.896792806596
1465.4202,1803.9986494030927
1467.2409,1550.8522031655284
1469.0608,1282.1557531470116
1470.88,1056.4075828921314
1472.6984,885.005963123921
1474.5161,717.9991540013407
1476.3331,601.1854068332905
1478.1493,517.112965748689
1479.9648,463.43006886459807
1481.7795,414.2849491269535
1483.5935,394.025834847389
1485.4067,348.450950194695
1487.2192,331.5085153974096
1489.031,315.59674719956365
1490.842,324.7138590301038
1492.6522,284.40806116201657
1494.4618,271.9275606211477
1496.2705,249.72056158926716
1498.0785,224.28526552887342
1499.8858,213.81987140526235
1501.6924,200.22257594088023
1503.4981,173.04157371997644
1505.3032,164.9250573245763
1507.1075,139.27121760629325
1508.911,127.17824376749104
1510.7138,98.14432361782474
1512.5159,85.16764369516932
1514.3172,54.49638955595765
1516.1178,34.278745904948664
1517.9176,14.71289690193953
1519.7166,-9.252973636056595
1521.515,-5.520682039154053
1523.3126,-14.54195220026395
1525.1094,-8.768452860686011
1526.9055,-52.45170748761666
1528.7008,-43.4431519514128
1530.4954,-45.99369812987425
1532.2893,-38.803823903715966
1534.0824,-41.02354767661109
1535.8747,-3.7525002020338434
1537.6663,-10.939902408215858
1539.4572,-14.834937735914536
1541.2473,13.063319663734546
1543.0367,40.25594384062151
1544.8253,68.3940087140054
1546.6132,113.97858780058596
1548.4003,138.96075393312822
1550.1867,201.84157880460862
1551.9723,279.9221327183959
1553.7572,395.2034839594462
1555.5414,490.2866980134959
1557.3247,653.2728364142458
1559.1074,830.9129557925353
1560.8893,1040.6581062464766
1562.6705,1215.4593295650557
1564.4509,1367.6176571306787
1566.2305,1447.3841081711616
1568.0094,1529.309688238145
1569.7876,1538.7953884094277
1571.565,1534.8421844697177
1573.3417,1566.951036815768
1575.1176,1553.4228904959136
1576.8928,1586.4086748889795
1578.6672,1639.0593038395646
1580.4409,1679.97567532818
1582.2138,1757.5086709447487
1583.986,1843.3591554794375
1585.7575,1982.8779761473315
1587.5282,2133.565961729926
1589.2981,2249.8739211799366
1591.0673,2354.9026421144117
1592.8358,2480.302889651669
1594.6035,2613.525405360998
1596.3704,2695.9209060086605
1598.1366,2769.1900822256657
1599.9021,2850.333597683817
1601.6668,2955.9520883630166
1603.4308,3055.996161739835
1605.194,3214.666395731325
1606.9564,3430.8633376945763
1608.7182,3665.23750284002
1610.4791,4006.4393720694543
1612.2394,4332.969389632303
1613.9988,4672.227959713603
1615.7576,5023.265443168692
1617.5156,5211.382154130635
1619.2728,5316.828356499849
1621.0293,5241.704262062924
1622.785,5013.160029438173
1624.54,4642.745764826872
1626.2942,4260.061524298695
1628.0477,3846.5573174958645
1629.8005,3471.983111459984
1631.5525,3125.1388347670895
1633.3037,2837.8743812733837
1635.0542,2617.4896135836852
1636.804,2424.1343659240706
1638.553,2278.658446345721
1640.3013,2215.8116386584766
1642.0488,2175.293703885593
1643.7955,2176.7043808922117
1645.5416,2211.2933867905417
1647.2868,2296.8604169257487
1649.0313,2403.405144530067
1650.7751,2528.6772198671274
1652.5181,2659.676269166513
1654.2604,2796.4018933710363
1656.0019,2985.0536668267487
1657.7427,3208.981135915682
1659.4828,3474.8838171693333
1661.222,3644.661195029389
1662.9606,3670.212719188701
1664.6984,3510.8878028935114
1666.4354,3172.935822687935
1668.1717,2716.0061200072128
1669.9072,2226.1980045572277
1671.642,1805.8107588838047
1673.3761,1465.1436432707906
1675.1094,1198.1458999439246
1676.8419,991.4667564775141
1678.5737,821.3554284644083
1680.3048,699.11112158279
1682.0351,588.4830332972901
1683.7646,510.62035408142947
1685.4934,452.47226852390213
1687.2215,400.7379561071998
1688.9488,352.36659178909304
1690.6754,323.45734651997327
1692.4012,285.4593877265679
1694.1263,256.52187960103265
1695.8506,252.29398348093036
1697.5742,221.47485813860794
1699.297,179.71365982347152
1701.0191,151.6595425701803
1702.7404,146.76165861625805
1704.461,112.76915868263677
1706.1808,106.78119202263315
1707.8999,90.44690676187247
1709.6182,70.56544995817148
1711.3358,80.93596776487811
1713.0527,56.25760562968708
1714.7688,55.47950819093512
1716.4841,52.40081952438504
1718.1987,40.020683151005414
1719.9126,46.5382420677588
1721.6257,42.70263887140209
1723.338,40.21301569331217
1725.0496,32.5185142378391
1726.7605,43.718275807203554
1728.4706,28.511441378444488
1730.18,53.397151491418754
1731.8886,35.124546400868894
1733.5964,30.94276582756811
1735.3036,21.000949141044202
1737.0099,19.94823540139896
1738.7156,19.18376345872639
1740.4204,12.056671963639019
1742.1246,10.116099374912665
1743.8279,-7.7388159692413865
1745.5306,-1.8089358317724873
1747.2325,-11.495044664859051
1748.9336,-22.54790884941167
1750.634,-13.418179930845781
1752.3336,-25.35628420096782
1754.0325,-14.462513903969466
1755.7307,-4.836907974764927
1757.4281,4.870639132243468
1759.1247,8.06028128336311
1760.8206,-15.517827703803505
1762.5158,5.336465907745605
1764.2102,8.923470878110493
1765.9039,-2.9065040859713918
1767.5968,-4.6031503669969425
1769.289,3.133869688510458
1770.9804,11.604939719497452
1772.6711,21.51044333357504
1774.361,11.000764022303883
1776.0502,29.326285062142688
1777.7386,33.187389619543865
1779.4263,21.634460567696806
1781.1132,34.61788044791774
1782.7994,35.538031585181216
1784.4849,33.695295958280894
1786.1696,41.490055190632575
1787.8535,44.12269056869991
1789.5367,50.14358296404589
1791.2192,48.903112807007346
1792.9009,41.851660026487934
1794.5818,43.13960406236174
1796.2621,66.71732393598586
1797.9415,55.23519823732249
1799.6202,57.193604889163
1801.2982,55.14292126195005
1802.9755,51.483524154185034
1804.6519,70.56578981294433
1806.3277,65.64009397046948
1808.0027,53.75681165334527
1809.6769,75.61631723175606
1811.3504,65.51898453832064
1813.0231,71.11518664949472
1814.6951,79.80529598654539
1816.3664,82.98968425958992
1818.0369,79.31872238069354
1819.7067,84.09278043202812
1821.3757,86.21222770257828
1823.044,103.52743264040237
1824.7115,102.98876283143909
1826.3783,108.14658482635241
1828.0443,104.45126414592141
1829.7096,90.30316522945986
1831.3741,110.75265147177106
1833.0379,114.65008536462892
1834.701,119.09582829228157
1836.3633,114.79024049247755
1838.0248,118.6836810120094
1839.6856,131.6765077497671
1841.3457,127.76907741780724
1843.005,131.86174541141963
1844.6636,142.35486584820592
1846.3214,133.04879152714966
1847.9785,137.14387382369023
1849.6349,150.3904627827792
1851.2904,143.58890707793125
1852.9453,161.9895538787573
1854.5994,162.6427489189805
1856.2528,156.84883631243065
1857.9054,161.10815854651128
1859.5572,167.57105654013776
1861.2083,160.83786960114594
1862.8587,164.20893536166068
1864.5084,176.48458984543186
1866.1572,173.1151674341204
1867.8054,164.20100074454194
1869.4528,173.2924206623602
1871.0994,171.28975643123067
1872.7453,177.74333556188503
1874.3905,172.00348385215784
1876.0349,175.1705253224518
1877.6786,185.19478227313448
1879.3215,186.97657525287013
1880.9637,189.26622295837433
1882.6051,196.31404221660114
1884.2458,203.67034796183952
1885.8858,179.5354531652415
1887.525,196.05966876125376
1889.1634,188.6933038889715
1890.8011,185.2866657268919
1892.4381,186.44005956658066
1894.0743,184.70378884673573
1895.7098,190.22815514165632
1897.3446,193.2634581786033
1898.9786,185.25999578255733
1900.6118,202.81806384586707
1902.2443,185.18795640828193
1903.8761,204.01996548137186
1905.5071,180.9143812248285
1907.1374,196.02149175814566
1908.7669,191.89158339167489
1910.3957,189.47494047555438
1912.0237,181.97184544100583
1913.651,195.43257882450462
1915.2776,198.7074193428084
1916.9034,179.79664375834818
1918.5285,175.40052684648435
1920.1528,189.569341584609
1921.7764,193.75335919611234
1923.3992,192.85284900869055
1925.0213,167.46807841250802
1926.6427,172.84931286919937
1928.2633,164.39681616571852
1929.8832,201.7108503605291
1931.5023,181.64167586812482
1933.1207,185.83955108589407
1934.7383,189.40473259480723
1936.3552,175.88747511744123
1937.9714,180.58803148232573
1939.5868,174.60665275911742
1941.2015,175.5935882115923
1942.8154,177.24908535746226
1944.4286,156.17338995850264
1946.041,148.31674600400038
1947.6528,154.3793959215061
1949.2637,172.11158065540644
1950.8739,153.71353960629244
1952.4834,159.2855104536411
1954.0921,174.1777293397945
1955.7001,166.04043081424038
1957.3074,164.22384768469055
1958.9139,155.42821109845318
1960.5197,150.5037505605976
1962.1247,141.25069402191252
1963.729,144.01926792815038
1965.3325,143.15969731255746
1966.9353,156.1722057681866
1968.5374,145.95701545649536
1970.1387,136.4643469772193
1971.7393,139.14441947052524
1973.3392,145.0474507119368
1974.9383,148.42365708553575
1976.5366,122.07325352493103
1978.1342,139.04645347949395
1979.7311,139.64346917786543
1981.3273,137.71451145822198
1982.9227,141.7597897623068
1984.5173,133.57951215471894
1986.1112,135.4738852824603
1987.7044,141.6931144567386
1989.2968,131.98740363402317
1990.8885,144.2069553538538
1992.4795,129.40197083589646
1994.0697,117.87264985774914
1995.6592,129.16919090299075
1997.2479,125.94179127647408
1998.8359,127.69064699136152
2000.4232,132.16595280139768
2002.0097,130.86790218342185
2003.5955,129.1966872926139
2005.1805,131.65249897547483
2006.7648,126.1355267865406
2008.3484,122.99595896382311
2009.9312,133.4339824839799
2011.5133,127.84978309371036
2013.0946,127.59354520537522
2014.6752,135.2154519528383
2016.2551,123.61568519402886
2017.8342,131.344425434723
2019.4126,134.40185194454034
2020.9902,115.43814267965672
2022.5672,136.40347425223013
2024.1433,132.1980221200372
2025.7188,118.17196037682015
2027.2935,124.32546179434189
2028.8674,122.20869796264674
2030.4406,113.72183922852605
2032.0131,124.8650547166842
2033.5849,111.33851241460957
2035.1559,117.74237906114058
2036.7261,120.67682028173135
2038.2957,128.6920005244133
2039.8645,126.88808303044993
2041.4325,121.81522975418625
2042.9998,116.17360138108688
2044.5664,128.9633573784647
2046.1323,119.48465605189699
2047.6974,117.5876544173284
2049.2617,123.87250829585764
2050.8254,115.43937233270685
2052.3883,127.93839993437359
2053.9504,124.01974335296313
2055.5118,123.33355356119614
2057.0725,118.27998029159698
2058.6325,114.45917204335524
2060.1917,121.4712761328617
2061.7502,124.31643873191547
2063.3079,110.89480479760323
2064.8649,119.75651804384961
2066.4212,117.50172107563094
2067.9767,129.08055530035995
2069.5315,117.74316095043264
2071.0856,106.43967696743948
2072.6389,114.77024111554147
2074.1915,98.48499009450279
2075.7433,98.93405945638597
2077.2945,102.91758376840448
2078.8448,92.93569660843218
2080.3945,103.03853052516683
2081.9434,101.92621713795074
2083.4916,94.79888703574193
2085.039,85.65666978823651
2086.5857,102.64969401714393
2088.1317,91.32808748760772
2089.677,95.14197693827464
2091.2215,112.69148819451243
2092.7652,88.1267461302682
2094.3083,102.39787449257642
2095.8506,93.95499614720438
2097.3921,100.69823293594163
2098.933,109.32770576102985
2100.4731,102.59353451772904
2102.0124,100.14583800802234
2103.5511,99.13473400795783
2105.089,110.4603392921274
2106.6261,110.57276964377638
2108.1626,104.27213974154688
2109.6983,107.15856315835413
2111.2332,106.33215242439269
2112.7675,103.44301899827201
2114.301,102.89127327528195
2115.8337,108.7270246162825
2117.3657,114.85038135322247
2118.897,102.6114507307816
2120.4276,115.1603388451365
2121.9575,102.6971507663502
2123.4866,105.12199041288386
2125.0149,92.284960676227
2126.5426,91.08616339665105
2128.0695,99.07569949157755
2129.5956,104.25366896756782
2131.1211,102.17017084042641
2132.6458,101.5253030834208
2134.1698,100.16916264811812
2135.693,94.45184547083318
2137.2155,101.02344648618896
2138.7373,101.2340596842912
2140.2584,90.68377804501142
2141.7787,87.62269353587999
2143.2983,87.80089721759077
2144.8171,82.2684792746104
2146.3353,94.57552901339682
2147.8527,92.42213491772418
2149.3693,83.65838452561161
2150.8853,94.93436445085717
2152.4005,91.85016047067506
2153.9149,95.6558574129383
2155.4287,80.40153918701753
2156.9417,87.23728874572726
2158.454,98.61318823786678
2159.9655,84.9293189398636
2161.4764,91.93576114201323
2162.9865,92.33259428531937
2164.4958,77.06989689142847
2166.0045,88.24774655866145
2167.5124,88.51622011464156
2169.0195,92.37539350451539
2170.526,91.92534178826759
2172.0317,97.51613910213041
2173.5367,94.34785866308266
2175.0409,93.32057271294275
2176.5445,102.03435255005002
2178.0473,86.28926853953908
2179.5494,89.93539002620264
2181.0507,95.02278549194011
2182.5513,83.50152251929876
2184.0512,92.52166774059765
2185.5504,94.23328695314217
2187.0488,81.88644502902093
2188.5465,80.68120589798991
2190.0435,87.9176326709412
2191.5397,74.94578765195592
2193.0353,92.76573226593973
2194.5301,70.1775271883414
2196.0241,77.03123216695167
2197.5175,87.27690624778779
2199.0101,82.11460770655344
2200.502,73.54439394618566
2201.9931,67.31632154847466
2203.4835,74.13044635976735
2204.9733,69.8868235532484
2206.4622,74.48550756079703
2207.9505,67.97655211542587
2209.438,63.460010205292065
2210.9248,66.83593413878862
2212.4109,71.80437558970857
2213.8962,66.015385563486
2215.3809,62.76901434751335
2216.8648,63.515311569028654
2218.3479,67.60432622758094
2219.8304,63.23610668756601
2221.3121,52.61070063733723
2222.7931,59.52815513288624
2224.2733,46.738516704099084
2225.7529,50.39183128558034
2227.2317,54.288144344550574
2228.7098,47.427500844312135
2230.1872,66.35994520528607
2231.6638,52.68552137361962
2233.1397,52.004272631859976
2234.6149,60.166241735700396
2236.0894,54.97147092079217
2237.5632,54.170001821123606
2239.0362,40.81187552097049
2240.5085,49.19713256290811
2241.9801,56.325813081394244
2243.4509,46.24795671891661
2244.921,49.4636025547054
2246.3904,50.42278920551166
2247.8591,42.925554793451056
2249.3271,33.771936936411066
2250.7943,36.51197282302405
2252.2608,42.545699304203254
2253.7266,45.57315286574294
2255.1917,30.944369567980175
2256.656,40.359385015521866
2258.1197,38.0182345035314
2259.5826,38.37095292357958
2261.0447,44.76757478705599
2262.5062,32.658134221640466
2263.9669,43.8426649073383
2265.4269,34.821200197573035
2266.8862,29.743773007341815
2268.3448,36.910415903430476
2269.8026,46.171161155187065
2271.2598,36.976040662856576
2272.7162,40.92508586497297
2274.1719,45.36832783031173
2275.6268,35.90579721839708
2277.0811,46.837524235072124
2278.5346,36.26353872712116
2279.9874,38.48387007295537
2281.4395,40.74854728835021
2282.8908,42.2575990042435
2284.3414,48.36105344408884
2285.7914,45.80893840876297
2287.2406,39.201281215533754
2288.689,39.83810872357935
2290.1368,50.169447400065565
2291.5838,42.59532331377795
2293.0302,46.71576203180757
2294.4758,39.980788695293086
2295.9206,44.79042797821603
2297.3648,50.89470415475057
2298.8082,42.44364105116642
2300.251,53.237261984787665
2301.693,37.425589848502796
2303.1343,45.80864700282905
2304.5748,38.68645543402795
2306.0147,45.85903667027583
2307.4538,47.376411852884075
2308.8922,38.63860166457448
2310.3299,35.64562631430431
2311.7669,42.99750562464442
2313.2031,31.044259061711045
2314.6387,41.83590566164435
2316.0735,31.12246415014306
2317.5076,43.553952834546635
2318.941,50.78038971097044
2320.3737,35.9017923399897
2321.8056,36.51817777437668
2323.2369,38.129562707885725
2324.6674,39.93596346909089
2326.0972,37.43739600527033
2327.5263,44.53387586434337
2328.9547,45.02541821985517
2330.3823,37.56203780001283
2331.8092,38.04374888276948
2333.2355,44.620565370458735
2334.661,41.79250078497682
2336.0858,41.809568202015384
2337.5098,47.271780279340646
2338.9332,42.92914925662399
2340.3558,40.381686900819204
2341.7778,36.77940454958775
2343.199,47.47231313677594
2344.6195,49.4604232284363
2346.0393,41.79374491589874
2347.4583,45.872287795889974
2348.8767,48.846061047199896
2350.2943,45.415073389895156
2351.7113,45.62933305558283
2353.1275,39.08884782171981
2354.543,49.29362500946888
2355.9578,47.4936715491051
2357.3718,38.98899387796769
2358.7852,39.02959795845902
2360.1978,48.71548936309193
2361.6098,51.29667327408367
2363.021,37.42315438649655
2364.4315,49.34493688242571
2365.8413,35.562024569735286
2367.2504,38.92442076284078
2368.6587,37.032128420538356
2370.0664,45.4851501123801
2371.4733,40.78348803759684
2372.8795,43.477143940568794
2374.285,32.866119157841126
2375.6899,39.35041459118793
2377.0939,44.53003081372253
2378.4973,46.10496800505496
2379.9,37.57522589949531
2381.3019,39.79080377030459
2382.7032,43.151700514991944
2384.1037,46.0079146331592
2385.5035,41.70944419289253
2386.9027,37.15628680219913
2388.3011,36.848439651992294
2389.6987,51.23589956162266
2391.0957,44.36866298195628
2392.492,42.396725851500264
2393.8876,28.170083665075595
2395.2824,35.48873149353619
2396.6765,32.9026641260358
2398.07,33.06187599684063
2399.4627,31.766361211190883
2400.8547,32.46611354370907
2402.246,30.061126451354312
2403.6366,28.65139306642493
2405.0265,29.736906220606897
2406.4156,29.167658459073778
2407.8041,37.143642029630314
2409.1918,34.01484888840548
2410.5789,31.731270620091777
2411.9652,24.192898469233114
2413.3508,26.499723363061776
2414.7358,28.451735986881317
2416.12,24.798926760998825
2417.5035,32.74128582120329
2418.8863,34.07880305529534
2420.2684,30.911468023663474
2421.6497,28.3892699459077
2423.0304,25.06219773251462
2424.4104,24.38024001007784
2425.7896,32.74338515456941
2427.1682,32.45162129815924
2428.546,36.15493624558201
2429.9232,27.10331747705709
2431.2996,35.996752111254295
2432.6753,26.885226995811536
2434.0503,29.66872861839886
2435.4246,29.697243197834723
2436.7982,28.170756656250774
2438.1711,31.13925461880592
2439.5433,26.35272242895246
2440.9148,25.9111451187498
2442.2856,34.21450745673121
2443.6557,28.16279395231834
2445.025,27.35598877278892
2446.3937,26.944075803792884
2447.7617,23.67703865742112
2449.1289,30.504860676323915
2450.4955,43.3275249663817
2451.8613,37.64501432842701
2453.2265,32.10731113001714
2454.5909,23.564397362259683
2455.9546,29.866254695189696
2457.3177,35.71286456319865
2458.68,29.854208102015605
2460.0416,31.39026609024188
2461.4025,42.171019007936366
2462.7627,39.89644702125668
2464.1222,30.71652987464961
2465.4811,34.73124691359851
2466.8392,39.240577176421425
2468.1966,41.04449935412458
2469.5533,40.54299174530877
2470.9093,42.98603223812984
2472.2645,33.07359831531414
2473.6191,47.305667029727715
2474.973,40.78221510350147
2476.3262,44.653218785709555
2477.6787,34.918653917604615
2479.0305,37.7784958939078
2480.3816,44.132719760153805
2481.7319,43.631300184092765
2483.0816,39.27421139214766
2484.4306,38.76142717442917
2485.7789,37.642920928306125
2487.1264,49.51866566353294
2488.4733,47.63863401343565
2489.8195,38.45279811615387
2491.165,37.111129633441465
2492.5097,38.61359984252476
2493.8538,40.66017964951891
2495.1972,32.20083957440397
2496.5398,42.685549730557796
2497.8818,40.814279909350375
2499.2231,41.58699947529601
2500.5637,41.20367738476705
2501.9035,34.91428217826581
2503.2427,34.06878198425841
2504.5812,38.167144582068545
2505.919,40.45933741033207
2507.256,41.14532752601383
2508.5924,51.675081581485074
2509.9281,36.348565817664166
2511.2631,39.11574595871889
2512.5974,44.77658736533215
2513.9309,36.23105500702923
2515.2638,39.92911340557032
2516.596,47.970726720405196
2517.9275,38.455858711693395
2519.2583,43.73447265988659
2520.5884,40.456531460878864
2521.9178,46.97199757321971
2523.2465,38.080833050893375
2524.5745,40.53299947816481
2525.9018,38.17845805849072
2527.2284,44.3671695899983
2528.5543,45.29909448903038
2529.8796,51.0241927282583
2531.2041,44.24242382736327
2532.5279,50.70374679578447
2533.851,46.65812020053727
2535.1735,52.855502101599654
2536.4952,48.84585009236855
2537.8163,55.82912123768642
2539.1366,48.805272113937235
2540.4562,48.02425873921436
2541.7752,55.78603664355899
2543.0935,51.94056087676972
2544.411,56.637785930784844
2545.7279,56.52766577813725
2547.0441,51.81015382498242
2548.3596,59.83520291219884
2549.6744,57.20276536256404
2550.9885,51.712792900503814
2552.3019,60.86523667841641
2553.6146,58.06004733157238
2554.9266,62.19717488659046
2556.2379,55.12656878948883
2557.5485,61.948177864314516
2558.8585,58.961950383848944
2560.1677,63.71783400139202
2561.4762,63.51577578062438
2562.7841,62.305722148048744
2564.0913,70.58761889501079
2565.3977,75.36141118979867
2566.7035,64.27704349482485
2568.0086,70.98445951888789
2569.313,73.73360232801622
2570.6167,75.07441427839353
2571.9197,75.3068369888681
2573.222,69.88081132754405
2574.5236,71.44627740945828
2575.8246,72.85317465083892
2577.1248,74.95144175345183
2578.4244,69.2410166905313
2579.7232,76.87183668579769
2581.0214,83.14383827056156
2582.3189,79.75695720741533
2583.6157,80.56112842751327
2584.9118,80.25628606444002
2586.2072,84.09236344616954
2587.5019,85.91929309811292
2588.7959,80.48700670475807
2590.0893,91.39543509140003
2591.3819,96.59450827846422
2592.6739,89.38415537242179
2593.9652,96.71430451379888
2595.2557,85.63488294928004
2596.5456,88.19581695840748
2597.8348,102.4970319643744
2599.1234,95.03845250841641
2600.4112,103.87000210679889
2601.6983,98.94160332540321
2602.9848,98.85317769141102
2604.2705,99.85464574258799
2605.5556,99.8459270281686
2606.84,103.97694009884106
2608.1237,97.69760250683487
2609.4067,95.35783076461041
2610.689,94.60754040765175
2611.9707,87.79664601786499
2613.2516,93.47506123108087
2614.5319,95.4426988051639
2615.8115,92.39947056322808
2617.0903,91.8452873739609
2618.3685,87.88005918205567
2619.6461,94.90369501375335
2620.9229,99.56610301649437
2622.199,95.16719038868257
2623.4745,89.60686333306114
2624.7493,99.28502710070154
2626.0234,98.8015860466071
2627.2968,93.4064435329309
2628.5695,97.29950193381046
2629.8415,90.13066268931902
2631.1128,101.69982626653541
2632.3835,87.8068922312321
2633.6535,86.35175913218347
2634.9228,85.08432464009564
2636.1914,93.60448556215715
2637.4593,95.66213785471342
2638.7265,96.10717653806552
2639.9931,89.68949567589328
2641.259,92.35898837080515
2642.5242,86.51554682851497
2643.7887,89.40906233114686
2645.0525,81.98942529566949
2646.3156,81.85652524496123
2647.5781,86.76025088200629
2648.8398,83.05049009122405
2650.1009,84.87712988943179
2651.3613,87.74005646294188
2652.6211,88.039155149296
2653.8801,81.92431040863528
2655.1385,85.74540582070927
2656.3961,79.50232414602488
2657.6531,88.49494728763477
2658.9094,89.42315635356857
2660.1651,100.83683156690682
2661.42,94.43585225649844
2662.6743,93.02009674282391
2663.9279,97.23944240200558
2665.1808,106.04376567996474
2666.433,100.73294205022864
2667.6846,98.25684592588709
2668.9354,105.0153507127007
2670.1856,114.35832883386166
2671.4351,119.28565166240872
2672.6839,111.797189427798
2673.9321,118.74281116662877
2675.1795,114.8723847975287
2676.4263,110.38577705169763
2677.6724,119.13285351161159
2678.9179,124.91347865588938
2680.1626,125.72751577182169
2681.4067,122.67482689756412
2682.6501,120.355272813998
2683.8928,120.46871307525612
2685.1348,120.36500603191871
2686.3761,109.39400882987962
2687.6168,106.75557741138272
2688.8568,101.84956662473178
2690.0961,104.62583025067516
2691.3348,105.73422105146608
2692.5727,96.97459074309927
2693.81,97.64678998422795
2695.0466,97.20066846375977
2696.2826,96.28607489413486
2697.5178,103.2028570157866
2698.7524,100.40086160628817
2699.9863,103.32993441118401
2701.2195,110.33992017201052
2702.452,106.23066259700533
2703.6839,110.55200429100671
2704.9151,108.95378679654641
2706.1456,121.03585055063667
2707.3755,123.29803490075176
2708.6046,125.69017798400813
2709.8331,135.06211670454178
2711.0609,135.21368670958742
2712.2881,149.24472229575838
2713.5145,155.95505640753163
2714.7403,161.444520496937
2715.9654,162.86294445645387
2717.1899,181.81015656411654
2718.4136,189.23598346933005
2719.6367,195.64025000339768
2720.8591,198.52277910526328
2722.0809,215.9833917574686
2723.3019,211.37190695732795
2724.5223,237.43814154232166
2725.7421,242.3319102362115
2726.9611,237.00302538837764
2728.1795,232.8512969248817
2729.3972,224.62653240175513
2730.6142,211.02853704651642
2731.8306,202.30711384041905
2733.0462,183.36206365443138
2734.2612,178.79318533645107
2735.4756,160.8502759007548
2736.6892,153.18313057368846
2737.9022,142.39154297309472
2739.1145,125.9253051849858
2740.3262,118.88420787145833
2741.5372,106.16804043535609
2742.7475,101.92659109068086
2743.9571,92.8096469897547
2745.1661,90.36699426563354
2746.3744,71.24841812327759
2747.582,65.15370286397683
2748.7889,56.13263207653762
2749.9952,54.73498869822936
2751.2008,49.460555104995706
2752.4057,46.45911312543063
2753.61,45.73044409352286
2754.8136,43.074328878669974
2756.0165,36.89054789296574
2757.2188,31.028881117760477
2758.4204,32.13910816549924
2759.6213,33.02100833833839
2760.8215,31.724360617043317
2762.0211,36.698943652169476
2763.22,24.79453577702901
2764.4182,24.61091495794483
2765.6158,20.14785891329501
2766.8127,19.905145115348603
2768.009,10.782550834896483
2769.2045,13.429853143678088
2770.3994,6.196829005607526
2771.5936,1.783255250300499
2772.7872,-2.9610913545952826
2773.9801,-9.58643405926449
2775.1723,-2.442966532589537
2776.3639,-9.030786674976639
2777.5548,-10.499967981596342
2778.745,-7.150493730060418
2779.9346,-0.4322423033009386
2781.1235,-8.145020650817855
2782.3117,-9.588631404010698
2783.4992,-13.612795825522767
2784.6861,-10.367139387569864
2785.8723,-7.201151570537377
2787.0579,-9.214218287088556
2788.2428,-5.905653510382535
2789.427,-7.57467916353778
2790.6106,-13.020458172194765
2791.7935,4.157922209051151
2792.9757,6.211504799981242
2794.1573,15.591332378797858
2795.3382,9.348447661588125
2796.5184,16.483893208526297
2797.698,18.798711486302125
2798.8769,28.193944796766516
2800.0551,43.770635253783325
2801.2327,45.92982468927664
2802.4096,53.972554497465296
2803.5859,67.99986561327029
2804.7615,80.31279843188776
2805.9364,93.2123926685149
2807.1106,113.29968723522171
2808.2842,121.12572011195431
2809.4572,151.6915281456624
2810.6294,169.89814697203832
2811.801,197.44661070985944
2812.972,217.18795177892196
2814.1423,253.72320062455577
2815.3119,292.9533855202121
2816.4808,329.97953220211025
2817.6491,370.95266347693564
2818.8167,417.87379885157895
2819.9837,452.14395412340446
2821.15,509.0141409110387
2822.3157,555.485366311669
2823.4807,602.6586323323419
2824.645,651.0849354252504
2825.8086,709.0652660160015
2826.9716,745.7006080193528
2828.134,795.04193825941
2829.2957,839.0902261032727
2830.4567,874.1964329676211
2831.617,892.4615118782341
2832.7767,893.0864071189258
2833.9358,904.1220540488955
2835.0941,875.1693790964796
2836.2519,867.9792996487929
2837.4089,857.302724341258
2838.5653,831.3905531295042
2839.7211,816.9936773961334
2840.8761,809.4629802098431
2842.0306,809.1493364693937
2843.1843,832.9036129789165
2844.3374,843.2266684510496
2845.4899,883.7693532693954
2846.6417,918.5325093852898
2847.7928,965.3669699123749
2848.9433,1008.273558778968
2850.0931,1057.753090259717
2851.2422,1106.8063685465338
2852.3907,1169.9341872538002
2853.5385,1206.8373289278347
2854.6857,1240.5165644156132
2855.8323,1288.272652495739
2856.9781,1318.5563395416511
2858.1233,1368.418359044061
2859.2679,1403.9094313081177
2860.4118,1458.6302629547881
2861.555,1492.9315465659422
2862.6976,1528.0639601371504
2863.8395,1572.7281667346656
2864.9808,1583.2248141441032
2866.1214,1600.3545344237964
2867.2614,1623.167943799831
2868.4007,1630.4656424947477
2869.5393,1633.8982144994075
2870.6773,1650.5662275000168
2871.8146,1655.420232843799
2872.9513,1667.1107653723152
2874.0874,1650.2883433729248
2875.2227,1641.75346846188
2876.3574,1629.456625752549
2877.4915,1610.498283940767
2878.6249,1572.5288954278021
2879.7577,1568.1988965099417
2880.8898,1532.2087077581823
2882.0212,1523.8587340615327
2883.152,1522.3493649869147
2884.2821,1509.4309748626633
2885.4116,1515.5039227936204
2886.5405,1521.7185527903175
2887.6686,1521.3251937082482
2888.7962,1524.0241591857202
2889.923,1526.96574764779
2891.0493,1543.7502422792736
2892.1748,1541.5279109953276
2893.2997,1557.0990062736087
2894.424,1567.7137651764933
2895.5476,1571.0224091953696
2896.6706,1595.4251441444871
2897.7929,1602.8721601278723
2898.9145,1628.1136312953004
2900.0355,1650.199715767826
2901.1559,1682.0305553853673
2902.2756,1710.556275485845
2903.3946,1728.9269845868757
2904.513,1745.7927741005133
2905.6308,1767.7037181495414
2906.7479,1774.6098733988172
2907.8643,1803.86127883616
2908.9801,1807.907955703292
2910.0953,1830.8999072033207
2911.2098,1819.587118460277
2912.3236,1809.7195562891914
2913.4368,1808.1471693092235
2914.5494,1789.6698880423373
2915.6613,1758.8376249290263
2916.7725,1733.7002745130842
2917.8831,1702.557713749929
2918.9931,1678.0098022579757
2920.1024,1658.4063826300635
2921.211,1644.6472806789334
2922.319,1637.4823056332634
2923.4264,1625.1112502752585
2924.5331,1624.0338910123014
2925.6391,1620.9499880006624
2926.7445,1614.359285156274
2927.8493,1617.4115101855682
2928.9534,1619.8563746513844
2930.0569,1632.3435739424485
2931.1597,1639.5227872489213
2932.2619,1642.843677437529
2933.3634,1649.6058909797691
2934.4643,1663.8590579187032
2935.5645,1652.152791801334
2936.6641,1628.0366895360735
2937.763,1617.2103315098075
2938.8613,1591.9232818290534
2939.959,1560.9750884282264
2941.056,1514.8652833225096
2942.1523,1447.693382917334
2943.248,1404.9088884694797
2944.3431,1315.7112867587912
2945.4375,1243.100050516026
2946.5313,1168.0746393148283
2947.6244,1075.6345002978421
2948.7169,994.0290689269655
2949.8087,926.4577699077506
2950.8999,852.7200180054601
2951.9904,791.515218720779
2953.0803,727.3427690271916
2954.1696,673.5520579830313
2955.2582,640.4424673732034
2956.3462,600.6133722470935
2957.4335,572.9141412496616
2958.5202,540.4941370197354
2959.6062,529.0527164670006
2960.6916,500.8392310962018
2961.7764,487.55302712155753
2962.8605,482.5434457488938
2963.9439,474.30982330850674
2965.0267,464.85149130525826
2966.1089,450.8677765009124
2967.1905,453.95800100871816
2968.2714,454.37148243324697
2969.3516,461.2575338394905
2970.4312,468.61546374872603
2971.5102,475.6945760696551
2972.5885,468.2441700248256
2973.6662,489.4635400798396
2974.7432,489.70197601785765
2975.8196,484.5587627274051
2976.8954,479.28318019998784
2977.9705,484.97450358152463
2979.045,480.082003225102
2980.1188,462.6549446340624
2981.192,458.392588510928
2982.2645,445.89419093167203
2983.3364,424.109003388342
2984.4077,409.8862729140433
2985.4783,389.37524230079146
2986.5483,369.37515024173945
2987.6177,340.08523153628795
2988.6864,324.60471729008657
2989.7545,293.13283520793254
2990.8219,280.3688097485763
2991.8887,240.01186243944034
2992.9548,226.6112120042584
2994.0204,191.0660747666464
2995.0852,163.82566478410826
2996.1495,156.93919420348715
2997.2131,130.80587353336995
2998.276,113.07491171295169
2999.3383,101.09551637336898
3000.4,90.76689401500937
3001.4611,67.03825012730573
3002.5215,63.45878929202189
3003.5812,39.777715420539494
3004.6404,41.14423178965268
3005.6989,27.107541278378392
3006.7567,20.71684635429159
3007.8139,13.871349213891904
3008.8705,10.170251846510723
3009.9264,6.312756102765832
3010.9818,7.548063731573052
3012.0364,6.175376418720532
3013.0905,-2.806104225483864
3014.1439,-9.447176652486064
3015.1966,-6.598611280751015
3016.2487,-7.26108415144887
3017.3002,-2.3352053856233965
3018.3511,-5.921512566087756
3019.4013,-13.62051994695355
3020.4509,-13.482682626421763
3021.4998,-2.5083196336993865
3022.5481,-3.2476153059940884
3023.5958,-5.800728922400708
3024.6428,-11.817787318337139
3025.6892,-1.0988593799394835
3026.735,3.4561040663515428
3027.7802,1.3971631717001287
3028.8247,6.574378052709903
3029.8685,3.4378088120126904
3030.9118,12.387515486496852
3031.9544,13.873558078672716
3032.9963,21.89599646717562
3034.0376,22.904890391905553
3035.0783,22.000299373802477
3036.1184,32.28228270475779
3037.1578,43.25089945666002
3038.1966,38.756208378575366
3039.2348,45.04826778706081
3040.2723,46.37713561111167
3041.3092,50.94286932924075
3042.3455,51.59552595618959
3043.3811,52.085161997271484
3044.4161,53.91183344184435
3045.4505,57.32559575841486
3046.4842,59.32650387637136
3047.5173,55.36461215184664
3048.5498,61.789974347708494
3049.5816,62.35264367317876
3050.6128,63.50267271957972
3051.6434,59.540113454706955
3052.6734,65.51501721132973
3053.7027,58.277434726816125
3054.7314,59.827416083384094
3055.7594,61.41501078047759
3056.7868,62.89026771926643
3057.8136,67.50323518677038
3058.8398,65.95396084110666
3059.8653,65.04249166536042
3060.8902,60.718873983077145
3061.9145,65.73315346737758
3062.9381,66.83537518419382
3063.9612,66.62558354212652
3064.9835,62.60382228142262
3066.0053,63.9701344760735
3067.0264,60.02456257403239
3068.0469,63.367148383551296
3069.0668,67.44793311263692
3070.086,64.66695733562435
3071.1046,61.72426095236963
3072.1226,60.06988321605945
3073.1399,58.60386276263776
3074.1567,48.126237627350065
3075.1727,49.03704525940316
3076.1882,42.936322626741685
3077.203,36.674106206939825
3078.2173,41.55043204820856
3079.2308,34.66533583201797
3080.2438,29.168852824333783
3081.2561,27.861017944468415
3082.2678,28.041865820046013
3083.2789,26.161430800080552
3084.2893,22.26974695316744
3085.2991,18.016848086287894
3086.3083,11.002767783725801
3087.3169,11.877539449596696
3088.3248,14.991196377988445
3089.3321,6.943771744213649
3090.3388,10.035298573672975
3091.3449,7.3658098223294814
3092.3503,14.235338345793139
3093.3551,5.793916926016095
3094.3593,9.591578202596992
3095.3629,1.628354757195524
3096.3658,6.204279075555519
3097.3681,3.7193836271373186
3098.3698,6.673700819358629
3099.3708,4.867263022443325
3100.3713,7.250102539878412
3101.3711,0.47225162647825414
3102.3702,1.9337424645562749
3103.3688,3.534602518631999
3104.3667,-0.7251407661123324
3105.364,6.154540020159629
3106.3607,2.073679531440291
3107.3568,6.482312360176792
3108.3522,0.9804730780795694
3109.347,-3.2318038079640132
3110.3412,1.845516199128781
3111.3348,1.562499882160722
3112.3277,0.1692140054794038
3113.32,3.565725317807619
3114.3117,1.0020988774200816
3115.3028,-2.3716002930656543
3116.2932,0.9446928189470043
3117.2831,3.6010669183416155
3118.2723,3.9476107005548613
3119.2608,7.13441282501293
3120.2488,1.4115619116659843
3121.2361,1.3791465091199768
3122.2229,3.6372551518654745
3123.209,5.185976360601558
3124.1944,2.6753986196547572
3125.1793,5.105610361491955
3126.1635,6.776699991826149
3127.1471,4.838755865314226
3128.1301,6.591866268846147
3129.1125,3.986119440924284
3130.0942,11.271603554132355
3131.0753,7.148406741192957
3132.0558,4.1666170221127174
3133.0357,11.426322345414235
3134.015,12.127610617953977
3134.9936,9.120569632325257
3135.9716,12.855287059845296
3136.949,15.131850480625687
3137.9258,14.250347346225269
3138.902,11.210864956884436
3139.8775,12.96349047034009
3140.8524,10.958310932220527
3141.8267,16.295413258519204
3142.8004,11.774884255646526
3143.7735,16.29681056705884
3144.7459,13.811278718463726
3145.7178,17.51837507260069
3146.689,19.96818585409659
3147.6596,15.510797112394542
3148.6295,18.446294697255894
3149.5989,19.124764303334004
3150.5676,19.04629144081933
3151.5357,23.46096142865477
3152.5032,21.81885939532029
3153.4701,17.520070234686344
3154.4364,21.964678622434903
3155.402,22.902769059047216
3156.367,22.0344258253578
3157.3315,32.409732973173476
3158.2952,26.0787743339569
3159.2584,24.991633415073466
3160.221,24.49839346310084
3161.1829,23.299137474700444
3162.1442,26.393948201549634
3163.105,31.83290816233452
3164.065,27.6160996118017
3165.0245,29.243604486368838
3165.9834,27.715504446292485
3166.9416,33.6318808593933
3167.8993,34.442814816336806
3168.8563,32.3483870714698
3169.8127,34.04867803471097
3170.7684,34.04376779249512
3171.7236,32.98373609077035
3172.6782,35.068662335047044
3173.6321,32.89862560099828
3174.5854,37.173704613610525
3175.5381,37.29397776888403
3176.4902,32.759523091082016
3177.4417,38.570418231527974
3178.3926,37.72674051395017
3179.3428,41.17856687637273
3180.2924,38.07597387955236
3181.2415,40.16903767246012
3182.1899,42.90783402330739
3183.1377,43.042438298615124
3184.0848,42.072925435825965
3185.0314,46.89936994195821
3185.9773,46.621845903300944
3186.9227,49.29042693714954
3187.8674,45.755186194580965
3188.8115,45.46619633376792
3189.755,53.073529555331284
3190.6979,51.12725760522998
3191.6402,49.72745169868766
3192.5818,46.87418253965541
3193.5229,48.46752033480978
3194.4633,52.857534822085526
3195.4031,50.94429525474222
3196.3423,56.97787035746404
3197.2809,53.158328345492286
3198.2189,54.335736864289515
3199.1563,56.61016302773504
3200.0931,56.93167340635084
3201.0292,58.90033400455722
3201.9648,55.91621025745784
3202.8997,58.92936701115295
3203.834,58.789868552580764
3204.7677,57.8477785793858
3205.7008,60.00316020131393
3206.6333,60.25607594963322
3207.5652,59.95658775558013
3208.4964,65.40475694783038
3209.4271,64.30064425549384
3210.3571,63.894309753632754
3211.2865,63.28581287430299
3212.2154,65.92521241061728
3213.1436,69.31256652283022
3214.0712,66.24793271194433
3214.9982,69.08136778583643
3215.9246,66.71292788990402
3216.8503,67.19266847873091
3217.7755,68.97064433977167
3218.7001,69.74690958855415
3219.624,74.22151765089973
3220.5473,73.34452125516077
3221.4701,71.51597238747436
3222.3922,71.78592230053246
3223.3137,77.05442153186723
3224.2346,73.17151990115168
3225.1549,77.28726645751449
3226.0746,78.00170951836925
3226.9937,77.26489662825679
3227.9121,77.12687455170088
3228.83,77.18768928057631
3229.7473,79.8473860354891
3230.6639,82.55600926516836
3231.5799,81.81360261986936
3232.4954,80.22020892428723
3233.4102,84.62587018498112
3234.3244,83.28062760630802
3235.238,80.53452154636624
3236.151,80.73759153044779
3237.0634,86.38987627849946
3237.9752,84.79141370309213
3238.8864,90.3922408528979
3239.797,85.19239392867468
3240.7069,88.44190822725801
3241.6163,89.49081819355939
3242.5251,88.83915738807133
3243.4332,91.78695847637806
3244.3408,90.48425323567227
3245.2477,92.181072525277
3246.154,90.37744629967278
3247.0598,93.87340359152944
3247.9649,92.41897252974223
3248.8694,93.66418030447244
3249.7733,95.05905318169158
3250.6766,97.50361649072937
3251.5793,98.04789461032496
3252.4814,100.54191094418132
3253.3829,98.3856879155225
3254.2838,95.52924694215332
3255.1841,99.97260845802174
3256.0838,96.96579194178327
3256.9829,101.00881587236725
3257.8814,98.65169775904515
3258.7792,99.49445410100017
3259.6765,100.7871004108986
3260.5731,103.42965120646215
3261.4692,101.12211999754146
3262.3647,100.7645192596907
3263.2595,101.10686045724279
3264.1538,102.8991540468854
3265.0474,101.29140947423758
3265.9404,102.83363515592684
3266.8329,107.5258384956665
3267.7247,102.46802586883356
3268.616,107.61020257554654
3269.5066,108.25237289124375
3270.3966,104.1945400152614
3271.286,107.48670606441196
