RamanShift,CorrectedData
30.1047,825.8515375017723
32.3739,763.3173994171909
34.6426,700.8832530740938
36.9109,642.499082580792
39.1787,578.814865036763
41.4461,517.3305711164938
43.7131,458.3961657063222
45.9796,402.96160851928016
48.2456,341.7768546844377
50.5112,281.9418553012489
52.7764,223.4565580513988
55.0411,163.42090779715417
57.3054,107.784847166216
59.5692,47.44831715207615
61.8326,-9.388742329621934
64.0955,-68.026391837718
66.3579,-125.26459813751592
68.6199,-171.05264841066528
70.8815,-212.63857844548042
73.1426,-219.26871521431798
75.4032,-125.08726143013638
77.6634,194.41377068857082
79.9231,1039.093618545051
82.1824,2899.5615175984153
84.4412,6352.326692916837
86.6995,11069.848340572877
88.9574,15742.085593115828
91.2148,18971.097472396497
93.4717,20458.742842844844
95.7282,20661.830379179846
97.9842,20406.668551533054
100.2398,19834.865623417718
102.4949,19159.779654280403
104.7495,18410.16850521901
107.0036,17680.739845733664
109.2573,16959.101161222785
111.5105,16319.909760277407
113.7632,15694.272781897542
116.0154,15122.447201884119
118.2672,14706.98983909533
120.5185,14268.757361164899
122.7693,13913.906288656652
125.0197,13640.642999446842
127.2696,13334.223732272663
129.519,13122.454589464878
131.7679,12840.491540012012
134.0163,12562.790421678044
136.2642,12280.10694382204
138.5117,11932.146690175165
140.7587,11609.015121667508
143.0052,11226.1175799077
145.2512,10918.759290414213
147.4967,10607.245366444356
149.7417,10294.73081206784
151.9863,10107.970525281922
154.2304,9930.11930113655
156.4739,9746.731833601976
158.717,9654.262717347254
160.9596,9510.466449574125
163.2017,9273.997430941696
165.4433,9056.209967004419
167.6844,8750.908270576772
169.925,8440.046463911129
172.1651,8090.628581750785
174.4047,7807.6085744385755
176.6439,7531.740311411046
178.8825,7311.127584028662
181.1206,7118.174108334484
183.3582,6942.8335272603
185.5954,6798.309412556156
187.832,6698.505266543765
190.0681,6632.674523561747
192.3037,6547.320550963668
194.5388,6488.846649776351
196.7734,6468.456055553415
199.0075,6455.051938960014
201.2411,6492.237405976742
203.4742,6489.215498033676
205.7068,6565.539191638525
207.9389,6585.261398406845
210.1704,6656.034964298798
212.4015,6675.462669421937
214.632,6725.8972273234685
216.862,6774.2912847959715
219.0915,6787.597421373053
221.3205,6823.718148845411
223.549,6821.955911127772
225.777,6809.013083897679
228.0044,6811.041974613123
230.2314,6844.594822641962
232.4578,6839.823799241643
234.6837,6820.481007223662
236.909,6839.618481001281
239.1339,6772.438186782953
241.3582,6672.24202238095
243.582,6547.731817883163
245.8053,6463.259336655064
248.0281,6382.176276584808
250.2503,6310.884270927957
252.472,6257.434889118321
254.6932,6298.2296374808575
256.9139,6329.669959766182
259.134,6407.107236742615
261.3536,6549.542785881778
263.5727,6738.427860584225
265.7912,6919.613648755083
268.0092,7134.401270915203
270.2267,7266.391778389302
272.4436,7394.3361511580915
274.6601,7414.435296538363
276.8759,7337.090047903551
279.0913,7242.70116448274
281.3061,7155.219332134124
283.5204,7097.845164288886
285.7341,7032.029202826017
287.9473,7012.321918646057
290.16,6969.1737123292605
292.3721,6962.984914332659
294.5837,7022.455785421546
296.7947,7092.986516731376
299.0052,7193.777229173039
301.2152,7164.777972727575
303.4246,7038.988725438245
305.6334,6780.559393700543
307.8418,6436.439813520076
310.0495,6055.729753096861
312.2568,5687.628916266515
314.4635,5285.986946307363
316.6696,5033.753429621441
318.8752,4769.677899750918
321.0802,4641.359839900431
323.2847,4612.848685577847
325.4887,4615.543825877429
327.692,4581.294603764956
329.8949,4557.850316050776
332.0972,4440.260213732288
334.2989,4277.923502228389
336.5001,4074.439342555379
338.7007,3855.506852950325
340.9008,3666.825110905902
343.1003,3480.9931553597226
345.2992,3326.8099885811444
347.4976,3212.7245780296007
349.6955,3087.1858578964266
351.8927,3027.142730245714
354.0895,2909.8440662696985
356.2856,2857.138706889191
358.4812,2760.725463926562
360.6763,2724.4031206328027
362.8707,2667.3204326516525
365.0646,2671.476128382824
367.258,2677.5189095528294
369.4508,2695.147451173423
371.643,2786.8604014811763
373.8346,2855.5563817611846
376.0257,2928.1839854299433
378.2162,2939.891777348389
380.4062,2939.1282930956213
382.5956,2828.1420388518245
384.7844,2695.631491405902
386.9726,2539.4950992653403
389.1603,2445.031283981314
391.3474,2319.138441710046
393.5339,2309.314944157448
395.7199,2260.0591398380566
397.9052,2297.419354173253
400.09,2366.9438899838333
402.2743,2489.531027116407
404.4579,2602.529021748139
406.641,2755.286105160899
408.8235,2862.550482611263
411.0054,2973.570331802951
413.1868,3067.293801814182
415.3675,3067.019011987476
417.5477,3057.494050992421
419.7273,3004.766976828412
421.9064,2903.235816919914
424.0848,2819.5485686437187
426.2627,2647.753200344272
428.4399,2440.097652170527
430.6166,2156.1298377939183
432.7928,1867.4476464848967
434.9683,1605.8489459526245
437.1432,1411.3815852317903
439.3176,1258.7433972985946
441.4914,1141.6822010154247
443.6645,1116.4958026572376
445.8371,1032.3819970821687
448.0091,998.7885679834062
450.1806,993.0632887303127
452.3514,968.1039227043757
454.5216,1001.4082233564486
456.6913,946.273934456347
458.8603,981.4487897598083
461.0288,982.1805135598343
463.1967,974.8168203349423
465.3639,1013.4054147418465
467.5306,961.543991689101
469.6967,935.230235951205
471.8622,928.9618226872226
474.0271,910.3364177039166
476.1914,938.1016775184389
478.3551,926.8052495445827
480.5182,970.6447718151294
482.6807,1006.3678730948086
484.8426,1134.7721724419134
487.0039,1371.9552788510528
489.1647,1660.9647899691254
491.3248,1925.9482897234793
493.4843,1996.803345431812
495.6432,1968.2275051523466
497.8015,1841.7682969752723
499.9592,1715.773229308501
502.1163,1517.139792142273
504.2728,1270.7654583090953
506.4287,1036.747685470079
508.5839,806.5339185786825
510.7386,630.4715922208925
512.8927,592.1081329173621
515.0461,593.3409608840348
517.199,628.7174904157737
519.3512,780.6851298740366
521.5029,1022.0912813331088
523.6539,1249.6833390604315
525.8043,1333.4086871025365
527.9541,1277.3146970091266
530.1033,1055.5487269958194
532.2519,890.1081225050884
534.3999,819.3902184239232
536.5472,852.5423407382359
538.694,973.6618072400406
540.8401,1159.9459271959304
542.9856,1325.4420001358903
545.1305,1350.047313990448
547.2748,1295.1091434357122
549.4185,1206.1247496473306
551.5615,1105.6913808498612
553.704,1121.1062732066102
555.8458,1186.96665182398
557.987,1331.2697305973134
560.1276,1505.6627115522815
562.2675,1798.0427834018747
564.4069,2210.35711980245
566.5456,2605.6028764299435
568.6837,2718.677186856723
570.8212,2417.627158599121
572.958,1857.599871986712
575.0942,1351.242383172792
577.2299,978.2017297346583
579.3648,813.0249357371958
581.4992,776.4590154632697
583.6329,837.9509750655006
585.766,991.8978129319285
587.8985,1144.546519071081
590.0304,1229.244073572514
592.1616,1248.6874450803198
594.2922,1167.1735899461546
596.4222,1016.4994520348064
598.5515,839.6619635393236
600.6802,651.3580464877705
602.8083,507.4846145115889
604.9358,483.18857472864784
607.0626,509.71682918197257
609.1888,578.866275082708
611.3144,737.633804544832
613.4393,847.5163038936689
615.5636,997.9606520782054
617.6873,1074.5137195722627
619.8103,1058.322366870062
621.9327,909.5834437206886
624.0544,738.2437892900061
626.1756,565.9002336480407
628.2961,407.3995994823854
630.4159,367.33870382162877
632.5351,356.7643596203625
634.6537,331.92337615979795
636.7716,328.4125591535012
638.8889,331.97871099581243
641.0056,361.96863079694504
643.1216,352.1791143473283
645.237,345.2069538177093
647.3518,265.54893785704917
649.4659,204.90185166224182
651.5793,144.16247777469653
653.6922,127.87759668680883
655.8043,110.04398744935133
657.9159,117.55842783432217
660.0268,96.21769451328146
662.137,103.21856298220973
664.2466,132.35780777491163
666.3556,130.2322023930119
668.4639,103.58851901455546
670.5716,79.3235285152723
672.6786,35.33400073500525
674.785,-8.133295279629237
676.8907,-7.731590835355746
678.9958,-21.314035987283205
681.1002,-32.433703551926556
683.204,-30.793453418591525
685.3072,-27.595821463884022
687.4097,-50.34303593781351
689.5115,-43.487049408137864
691.6127,-53.62931151568591
693.7132,-53.42083746566823
695.8131,-22.212106706476334
697.9123,-10.003065012338993
700.0109,12.506563741458194
702.1089,40.16715561024739
704.2061,135.92908652429833
706.3028,206.84273201221458
708.3987,277.55846624331207
710.4941,306.4766613184802
712.5887,340.6476865630302
714.6827,387.32190823750716
716.7761,466.09968919598305
718.8688,559.5813884193176
720.9608,666.9173602273722
723.0522,813.8079533442087
725.1429,910.1035098247094
727.233,999.854363585684
729.3224,1098.7108394429033
731.4112,1118.7732522135975
733.4993,1003.8419057278907
735.5867,820.3170926281773
737.6735,610.8990955184363
739.7596,411.53818879947903
741.845,317.334640763127
743.9298,213.43871558582487
746.014,197.0506742706748
748.0974,186.42077568639434
750.1802,172.8492767312
752.2624,203.43643243910537
754.3439,254.28249611563479
756.4247,307.98771903194665
758.5048,428.602349916383
760.5843,667.226634417405
762.6631,947.960813897459
764.7413,1409.8051230467263
766.8188,1961.4597870757862
768.8956,2476.8750170971625
770.9718,2853.351004608793
773.0473,2873.587916339863
775.1221,2688.43589048605
777.1962,2504.0950365071576
779.2697,2481.4654369786394
781.3426,2611.2471494349975
783.4147,2777.540206596086
785.4862,2833.9946150692904
787.557,2634.0603536865974
789.6271,2223.1873729400513
791.6966,1686.425596981092
793.7654,1176.174927729292
795.8335,833.8352502399703
797.901,588.9064378066951
799.9678,435.98835538468757
802.0339,372.6308620401078
804.0993,351.78381247923517
806.1641,325.2970576820435
808.2282,248.97044511066906
810.2916,222.35381897428215
812.3544,154.44702099234928
814.4164,106.2998906608018
816.4778,143.6122659310986
818.5385,189.03398369170463
820.5986,318.7148793949618
822.658,502.75478660287627
824.7166,799.5535356903083
826.7747,1245.4109520045713
828.832,1736.2768528974466
830.8886,2103.4010432666055
832.9446,2321.1333106469547
834.9999,2210.2734215393994
837.0545,1945.5711192335084
839.1085,1624.126124916127
841.1618,1322.98814031839
843.2143,1090.0568509301747
845.2662,908.8819290114798
847.3175,792.0130359217392
849.368,717.999823931571
851.4179,651.8919373914641
853.467,587.7890134719128
855.5155,562.0406828244941
857.5633,543.2965702228967
859.6105,452.2062948204066
861.6569,397.41947033734505
863.7027,339.03570597197177
865.7478,295.3046069483562
867.7922,261.22577510021256
869.8359,261.89880930821164
871.8789,275.0733058407686
873.9212,284.9988583473132
875.9629,381.9750577265495
878.0039,516.2014920271904
880.0441,586.2277454782034
882.0837,617.1033971465413
884.1226,685.6280202368798
886.1609,741.8011817828665
888.1984,869.1724419618658
890.2352,1021.4913535332344
892.2714,1035.8074605646052
894.3069,1019.1702969086991
896.3416,885.1793860601674
898.3757,744.5342413219605
900.4091,660.0843671452394
902.4418,647.4292605358269
904.4739,695.3184118987074
906.5052,747.8513051645741
908.5358,762.0274173109428
910.5658,648.8462178368181
912.595,511.45716862093377
914.6236,319.05972505356385
916.6515,208.30333741041795
918.6786,116.88745277660655
920.7051,112.71151615421604
922.7309,131.0249713764597
924.756,169.1272611494378
926.7804,239.16782686900297
928.8041,252.4961082397367
930.8272,304.1115425745447
932.8495,295.6635646613777
934.8711,318.5016062470695
936.892,312.77509612182166
938.9123,330.4334598908199
940.9318,383.8261200315055
942.9506,403.5524957169864
944.9688,384.2120022821109
946.9862,288.90405102621025
949.003,177.87804940649312
951.019,93.88340199113281
953.0344,49.91951156952018
955.0491,26.585779992216885
957.063,58.881608610590774
959.0763,107.90639851015567
961.0888,129.05955018761142
963.1007,188.7404630605979
965.1119,217.14853525615854
967.1223,227.83316301393734
969.1321,195.6437404020935
971.1412,194.92965921045652
973.1495,188.29030927242184
975.1572,201.92507847209072
977.1641,231.8333528106641
979.1704,210.1145162700941
981.1759,173.56795051400422
983.1808,201.29303510487716
985.1849,213.53914786951827
987.1884,257.15566462180414
989.1911,318.64195904022563
991.1932,384.9974022317174
993.1945,403.0213621167968
995.1951,394.1132027660087
997.1951,389.3222842196892
999.1943,385.8979625770462
1001.1928,371.8895900440684
1003.1906,428.09651496776405
1005.1877,550.7180819762543
1007.1841,645.903631416697
1009.1798,690.3024981290719
1011.1748,661.6640104943262
1013.1691,570.587489990382
1015.1627,420.67225147852423
1017.1556,239.71760411416017
1019.1477,138.97285284598001
1021.1392,64.88730022550044
1023.1299,44.11024741451456
1025.12,51.49099492594087
1027.1093,104.17884283159765
1029.0979,220.1230906883966
1031.0859,294.07303701145884
1033.0731,352.2279781146799
1035.0596,357.68720737122294
1037.0454,256.9000146319786
1039.0304,182.8656861709651
1041.0148,102.88350569320573
1042.9985,13.902755075068853
1044.9814,-5.1772848359096315
1046.9636,-47.45733333122007
1048.9452,-29.38805798127487
1050.926,9.830347742262347
1052.9061,47.69798395443195
1054.8855,71.71495067197066
1056.8642,110.08134743464325
1058.8421,159.49727306506338
1060.8194,190.9128252850378
1062.7959,214.8781002213991
1064.7717,245.8431920918565
1066.7469,315.3581929653419
1068.7213,377.8231924523543
1070.695,468.68827700981547
1072.6679,529.0035293164156
1074.6402,577.6690273639633
1076.6117,579.6348438542336
1078.5826,484.7510457123126
1080.5527,363.26769406694257
1082.5221,267.58484519936064
1084.4908,192.55255175812636
1086.4587,212.02086371595215
1088.426,224.68982912002684
1090.3925,232.40949389733214
1092.3584,253.57990172795235
1094.3235,292.6010939678772
1096.2879,375.32310943730135
1098.2515,482.84598403040854
1100.2145,641.2697498881562
1102.1767,786.5444343230411
1104.1382,1005.470058234866
1106.099,1221.0466346579924
1108.0591,1416.5241665720805
1110.0185,1611.352644746331
1111.9771,1684.0320457847038
1113.9351,1676.9623301776319
1115.8923,1643.5934415752336
1117.8488,1557.8253068580043
1119.8045,1404.3578364705054
1121.7596,1254.7909252790496
1123.7139,1063.1744541063745
1125.6675,996.8582912273096
1127.6204,982.7922942849418
1129.5726,983.3263109537857
1131.524,944.2101790804272
1133.4748,840.5937266781966
1135.4248,673.626772318321
1137.3741,532.5091261660946
1139.3226,415.54059165054423
1141.2705,392.62096687560734
1143.2176,345.0000457898186
1145.164,329.8776184155022
1147.1097,279.7034713249868
1149.0546,198.2773877918271
1150.9989,111.84914829254467
1152.9424,28.96853132088836
1154.8852,-44.564685747879594
1156.8272,-72.3007258281832
1158.7686,-71.68936663323348
1160.7092,-40.32966359199327
1162.6491,-21.569955956655576
1164.5883,68.64181991392616
1166.5267,176.8579431447588
1168.4644,297.380692174429
1170.4014,470.7623436729509
1172.3377,672.1051713365277
1174.2732,926.3114441537437
1176.2081,1279.5334243921316
1178.1421,1717.723365056113
1180.0755,2197.8335063547765
1182.0082,2525.266071319982
1183.9401,2636.423261005255
1185.8713,2501.807251211465
1187.8017,2191.820191375249
1189.7315,1811.7142059151765
1191.6605,1447.4413973316168
1193.5888,1210.2038500077979
1195.5163,1051.9536338525368
1197.4432,928.6928066726114
1199.3693,872.6234157552663
1201.2947,850.4974991008221
1203.2193,806.3170859833672
1205.1432,814.7341971720189
1207.0664,802.9508453727267
1208.9889,803.1190351441
1210.9106,810.6407630152462
1212.8316,826.2180174840805
1214.7519,859.0027789421156
1216.6715,916.9470195186841
1218.5903,988.9027027530956
1220.5084,1075.2717830151914
1222.4257,1142.2562047857882
1224.3424,1222.7079017929855
1226.2583,1333.4787963423205
1228.1735,1472.020798512256
1230.0879,1624.9858050464663
1232.0016,1827.4756979684207
1233.9146,1966.1923430517318
1235.8269,2034.887587795256
1237.7384,2028.8632600359315
1239.6492,1955.9211672618221
1241.5592,1957.9130966723596
1243.4686,2023.5908159077671
1245.3772,2222.606073029139
1247.285,2449.060595861665
1249.1922,2684.8560900044768
1251.0986,2915.644236566104
1253.0042,3106.2766898065156
1254.9092,3247.655074829243
1256.8134,3408.8809856750504
1258.7169,3534.505983908153
1260.6196,3659.781597003961
1262.5216,3785.5593170928214
1264.4229,3923.740599707273
1266.3234,4069.4768625242596
1268.2232,4164.619483983326
1270.1223,4196.569801829249
1272.0207,4173.27911216061
1273.9183,4170.4986691103
1275.8151,4121.179685078415
1277.7113,4140.8233307600685
1279.6067,4252.430735638575
1281.5014,4534.302987789028
1283.3953,4965.0911327622025
1285.2885,5543.6461707658555
1287.181,6108.8190523568255
1289.0727,6635.5106726555
1290.9637,6973.771865694071
1292.854,7152.3033991496295
1294.7435,7158.4059709615485
1296.6323,6984.380207546171
1298.5204,6751.926663735778
1300.4077,6512.84582451885
1302.2943,6201.5381073646095
1304.1802,5875.553864613816
1306.0653,5476.693386591853
1307.9497,5044.456904868568
1309.8333,4680.844596246875
1311.7162,4395.15658708512
1313.5984,4189.092956933212
1315.4798,4069.903741389484
1317.3605,4013.5389341613536
1319.2405,3950.2984882571955
1321.1197,3765.482316550001
1322.9982,3468.0402924097816
1324.876,3217.622251551722
1326.753,2891.87799501061
1328.6293,2642.5072916450117
1330.5048,2419.1598813947157
1332.3796,2224.6854777744347
1334.2537,2085.0337701072885
1336.127,1994.3544254695398
1337.9996,1934.1970900871183
1339.8714,1906.0113902424064
1341.7426,1900.796932875819
1343.6129,1928.90330586766
1345.4826,1887.5800780902637
1347.3515,1883.3767991269328
1349.2196,1846.5929996851723
1351.087,1907.5281916387194
1352.9537,1931.1818683953866
1354.8197,1996.4535042877033
1356.6849,2137.8925543363844
1358.5493,2288.798453597611
1360.4131,2472.7706157486405
1362.276,2650.808431578745
1364.1383,2751.161267149495
1365.9998,2685.978462014376
1367.8606,2501.7093282152664
1369.7206,2242.7031509342573
1371.5799,2063.0591903363534
1373.4384,1879.3266841595228
1375.2962,1683.2548495111469
1377.1533,1438.0428847053413
1379.0096,1174.289971223673
1380.8652,911.3452761672843
1382.7201,700.1079548944222
1384.5742,501.7771536498781
1386.4275,382.60201167737114
1388.2802,280.53166320284754
1390.132,212.81523862623635
1391.9832,146.7518655421518
1393.8336,110.64066941705642
1395.6832,82.38077424989478
1397.5322,49.62130293320752
1399.3803,59.66137753573048
1401.2278,27.05011962998924
1403.0745,12.036650191899753
1404.9204,6.770089926876608
1406.7656,21.849559419973048
1408.6101,33.024179188540984
1410.4538,79.74306953143696
1412.2968,104.50535041727562
1414.139,147.56014101724395
1415.9805,217.25655945747576
1417.8213,286.69372238850565
1419.6613,385.5207442883061
1421.5006,519.2867367679128
1423.3391,718.7408075831563
1425.1769,979.4820592970027
1427.0139,1332.159587285014
1428.8502,1771.822477127931
1430.6858,2188.819801084904
1432.5206,2541.3006136968606
1434.3547,2678.263947616528
1436.188,2705.7588100836333
1438.0206,2649.9341815552616
1439.8524,2538.9390154309126
1441.6835,2472.972238610744
1443.5139,2403.8327526055273
1445.3435,2379.41943419631
1447.1724,2391.281136125819
1449.0005,2355.766687342587
1450.8279,2325.624892882338
1452.6545,2334.254534223133
1454.4804,2356.704369586783
1456.3056,2339.5231338525587
1458.13,2307.359538332687
1459.9536,2234.512270944167
1461.7766,2035.7299965304042
1463.5987,1793.3113575896828
1465.4202,1573.204976262989
1467.2409,1318.0594567581957
1469.0608,1113.8733875511248
1470.88,924.9953439370092
1472.6984,750.6738900723449
1474.5161,605.2075808636764
1476.3331,516.3949637108121
1478.1493,434.5845799614867
1479.9648,391.9249657994869
1481.7795,334.61465306275613
1483.5935,307.4521696699867
1485.4067,291.3360401937298
1487.2192,277.2147861320136
1489.031,273.4369260695107
1490.842,258.7009758187446
1492.6522,267.75544845787
1494.4618,238.898854478035
1496.2705,231.87970169283471
1498.0785,208.19649552687906
1499.8858,185.24773908598172
1501.6924,172.98193339399177
1503.4981,163.04757762228246
1505.3032,130.24316921241143
1507.1075,137.91720397545942
1508.911,110.7681764200779
1510.7138,62.04457967574717
1512.5159,45.29490576426497
1514.3172,42.76764608698568
1516.1178,22.2612915923155
1517.9176,3.2243328009858487
1519.7166,1.505260011115297
1521.515,-2.4474365114165266
1523.3126,-13.385266515784224
1525.1094,-29.509715301270717
1526.9055,-21.072134448348606
1528.7008,-24.32358073543719
1530.4954,-27.214900430333728
1532.2893,-23.746696808265824
1534.0824,-36.5693012676079
1535.8747,-36.03280797723437
1537.6663,-12.886945778701374
1539.4572,-8.381083545816637
1541.2473,21.435538588201325
1543.0367,21.013764217155313
1544.8253,41.90443672049514
1546.6132,87.35839926753533
1548.4003,107.22649460854609
1550.1867,166.85956462021568
1551.9723,222.4584501069694
1553.7572,304.073990204638
1555.5414,406.2070218244694
1557.3247,546.0083788369743
1559.1074,707.7788910505947
1560.8893,868.419382813689
1562.6705,1027.1306713968302
1564.4509,1155.213565386398
1566.2305,1236.8188630974641
1568.0094,1326.0473512929702
1569.7876,1333.2998043676675
1571.565,1322.626983455837
1573.3417,1352.8796363587603
1575.1176,1379.3084976514524
1576.8928,1380.9142883801305
1578.6672,1457.1977157979304
1580.4409,1522.0094733488431
1582.2138,1601.350239904888
1583.986,1687.2206791179874
1585.7575,1831.8714386265647
1587.5282,1934.703149196835
1589.2981,2053.3664232763012
1591.0673,2132.4618539654352
1592.8358,2264.8400138310467
1594.6035,2350.8014541153275
1596.3704,2392.0967034120677
1598.1366,2455.126266807049
1599.9021,2489.2906254650834
1601.6668,2520.6402359997214
1603.4308,2590.5255301316083
1605.194,2692.546914374989
1606.9564,2869.104769338851
1608.7182,3099.3494487067123
1610.4791,3384.131277471045
1612.2394,3682.450549630826
1613.9988,4009.507525343723
1615.7576,4295.402427942896
1617.5156,4488.535440666434
1619.2728,4541.506703798403
1621.0293,4458.3663127375185
1622.785,4260.514317467429
1624.54,3935.700723388121
1626.2942,3585.425493294442
1628.0477,3204.0385506242296
1629.8005,2854.2397829610695
1631.5525,2542.5290458481645
1633.3037,2275.856166286317
1635.0542,2082.220945851044
1636.804,1905.7231633593015
1638.553,1754.4625768058345
1640.3013,1701.9889251281597
1642.0488,1627.151929719168
1643.7955,1635.651294951862
1645.5416,1650.5867089277258
1647.2868,1691.657843391733
1649.0313,1754.4143535829912
1650.7751,1829.4558778240303
1652.5181,1926.982036893241
1654.2604,2033.2424332744527
1656.0019,2181.386650181678
1657.7427,2354.3142504965026
1659.4828,2566.5747752866528
1661.222,2745.2677420767063
1662.9606,2819.692642725499
1664.6984,2751.498941639187
1666.4354,2507.936075027002
1668.1717,2154.3534515831902
1669.9072,1749.1004549226336
1671.642,1404.026447116683
1673.3761,1121.1807727456867
1675.1094,890.1627623497284
1676.8419,735.2717352570844
1678.5737,604.7570018944061
1680.3048,505.01786533562563
1682.0351,426.25362260710835
1683.7646,351.26356568504116
1685.4934,305.24698228307443
1687.2215,258.2531566022262
1688.9488,238.6813697910452
1690.6754,201.23090041554906
1692.4012,174.50102465494274
1694.1263,164.24101667612285
1695.8506,152.70014890097855
1697.5742,122.27769210898896
1699.297,119.57291555263328
1701.0191,93.03508726161567
1702.7404,92.56347406991108
1704.461,75.90734188114698
1706.1808,62.015955673315375
1707.8999,46.88857966533669
1709.6182,41.924477455972465
1711.3358,40.07291217509783
1713.0527,36.6831465333446
1714.7688,26.904442840616184
1716.4841,17.586063039986357
1718.1987,5.527268805484937
1719.9126,-4.272678364718104
1721.6257,-4.064517027723923
1723.338,20.001056943421418
1725.0496,6.173388280196832
1726.7605,5.251821514070798
1728.4706,-1.5642988852198414
1730.18,2.1243714995446226
1731.8886,19.367192712928045
1733.5964,0.41352477825330425
1735.3036,4.262727525171385
1737.0099,3.614160779200347
1738.7156,2.8671843232311858
1740.4204,-1.9288420959862833
1742.1246,-0.07455876037261078
1743.8279,3.2794133172831152
1745.5306,-14.967546130966866
1747.2325,-9.666057405864876
1748.9336,-10.116591282367835
1750.634,-22.769521971520135
1752.3336,-16.975122619620606
1754.0325,-8.133438905443654
1755.7307,-7.444346926290791
1757.4281,-2.7076415264102707
1759.1247,1.3269568189757592
1760.8206,3.209754683982055
1762.5158,19.091058629456484
1764.2102,11.271175184149115
1765.9039,8.250410685900079
1767.5968,1.629071359838008
1769.289,20.9574633485895
1770.9804,12.435892778489688
1772.6711,3.4146655663023466
1774.361,17.244087504432628
1776.0502,30.47446435114034
1777.7386,25.006101692243874
1779.4263,12.289304808819452
1781.1132,18.974378731881643
1782.7994,17.961628369553637
1784.4849,28.701358440215472
1786.1696,35.59387348263067
1787.8535,44.28947774855078
1789.5367,36.738475133787915
1791.2192,38.99116909126087
1792.9009,43.697862706503884
1794.5818,45.5588586751378
1796.2621,46.27445925580446
1797.9415,46.09496625155839
1799.6202,48.870681002709034
1801.2982,42.501904388616595
1802.9755,40.838936799935254
1804.6519,66.08207820230109
1806.3277,58.6316281529605
1808.0027,53.687885548341
1809.6769,54.001148698553834
1811.3504,60.02171537683307
1813.0231,57.04988281640203
1814.6951,69.28594765026742
1816.3664,75.23020594093873
1818.0369,70.23295305806573
1819.7067,77.49448361899772
1821.3757,69.31509153875504
1823.044,72.09506995741435
1824.7115,74.83471132190243
1826.3783,71.78430735819552
1828.0443,92.04414904392365
1829.7096,81.56452663887444
1831.3741,76.39572948239379
1833.0379,82.18804609818312
1834.701,78.39176424598736
1836.3633,92.45717086367267
1838.0248,90.28455210518723
1839.6856,111.57419319990845
1841.3457,99.97637847436863
1843.005,105.49139113935894
1844.6636,96.21951340590772
1846.3214,99.96102643013
1847.9785,110.11621040594696
1849.6349,112.98534452766967
1851.2904,114.51870688844815
1852.9453,120.76657445158025
1854.5994,110.57922303517694
1856.2528,122.65692724968358
1857.9054,126.94996059975324
1859.5572,123.90859536347125
1861.2083,132.53310254942312
1862.8587,124.6737519271096
1864.5084,130.08081194070132
1866.1572,122.90454978763069
1867.8054,120.1952313645238
1869.4528,132.05312133896132
1871.0994,143.7284831765719
1872.7453,132.77157902245335
1874.3905,124.38266958442
1876.0349,127.06201424257051
1877.6786,136.55987113317678
1879.3215,142.52649712189145
1880.9637,142.06214770876954
1882.6051,135.26707696860058
1884.2458,136.14153755555412
1885.8858,139.0357807711298
1887.525,138.25005655541304
1889.1634,139.0846134581309
1890.8011,146.93969864651126
1892.4381,143.11555789693557
1894.0743,146.86243551638927
1895.7098,142.38057438070268
1897.3446,144.42021589708247
1898.9786,150.68160004893025
1900.6118,145.9149653754448
1902.2443,133.27054890901036
1903.8761,145.24858622286183
1905.5071,139.14931155752902
1907.1374,145.72295770105643
1908.7669,137.06975604999593
1910.3957,149.9899365436695
1912.0237,136.58372775070325
1913.651,144.85135673982336
1915.2776,139.0930492139205
1916.9034,142.15902942737125
1918.5285,135.999520243623
1920.1528,136.96474310453254
1921.7764,146.7549180919632
1923.3992,126.92026391813033
1925.0213,143.56099782770116
1926.6427,116.87733579614155
1928.2633,123.91949236330743
1929.8832,150.88768090028225
1931.5023,138.28211353895472
1933.1207,133.40300090233768
1934.7383,144.00055223062327
1936.3552,132.47497542997485
1937.9714,136.62647696655017
1939.5868,137.55526198175835
1941.2015,130.51153425074426
1942.8154,138.3454961731004
1944.4286,135.05734884330536
1946.041,127.09729197238289
1947.6528,125.26552392078383
1949.2637,130.71224177798717
1950.8739,122.28764138081715
1952.4834,117.54191725897567
1954.0921,125.62526271928868
1955.7001,128.63786989316304
1957.3074,122.4799296557535
1958.9139,118.60163159583658
1960.5197,117.75316407739024
1962.1247,125.53471427837758
1963.729,119.09646819922978
1965.3325,112.68861058503103
1966.9353,113.11132498990219
1968.5374,116.06479384107865
1970.1387,115.49919843468251
1971.7393,114.81471890618946
1973.3392,118.81153423608271
1974.9383,108.83982225669934
1976.5366,106.94975961226078
1978.1342,109.69152185859139
1979.7311,110.21528348201741
1981.3273,112.97121787195056
1982.9227,114.30949731565079
1984.5173,111.68029297066687
1986.1112,97.73377485145215
1987.7044,108.27011185565834
1989.2968,109.989471903599
1990.8885,107.54202183288749
1992.4795,116.17792738124308
1994.0697,100.24735321096523
1995.6592,117.55046282257535
1997.2479,109.6874187141209
1998.8359,102.55838220814621
2000.4232,97.71351353032128
2002.0097,102.90297188073464
2003.5955,101.07691548233879
2005.1805,114.38550152905759
2006.7648,111.4288862040462
2008.3484,109.05722454660452
2009.9312,114.37067048174549
2011.5133,101.26937684390907
2013.0946,101.5034953238304
2014.6752,104.5231765995502
2016.2551,112.62857033407579
2017.8342,115.31982514518256
2019.4126,111.59708852436086
2020.9902,111.06050680990279
2022.5672,98.16022522413084
2024.1433,101.74638787876233
2025.7188,101.3191379039132
2027.2935,108.82861741223599
2028.8674,90.77496750319244
2030.4406,99.25832818795868
2032.0131,102.02883856996118
2033.5849,103.03663676004385
2035.1559,102.68185984876322
2036.7261,104.21464389630967
2038.2957,95.88512393605572
2039.8645,104.5934339592277
2041.4325,99.98970699820131
2042.9998,97.52407503941822
2044.5664,102.8466690694238
2046.1323,105.50761909952223
2047.6974,100.20705411255176
2049.2617,104.14510203627526
2050.8254,103.72188979638531
2052.3883,106.23754327712379
2053.9504,115.39218732551433
2055.5118,97.38594572620445
2057.0725,97.66894110992212
2058.6325,100.09129513353503
2060.1917,107.35312847722241
2061.7502,99.454560820251
2063.3079,99.09571076835755
2064.8649,103.22669593273247
2066.4212,102.24763293361082
2067.9767,98.35863735896055
2069.5315,101.15982377427372
2071.0856,93.2013057614572
2072.6389,94.03319589081991
2074.1915,95.80560580065821
2075.7433,94.61864618893719
2077.2945,87.822426795566
2078.8448,84.9170564142679
2080.3945,89.65264296054227
2081.9434,102.12929350071806
2083.4916,90.64711420459878
2085.039,88.9562102206952
2086.5857,84.95668579104722
2088.1317,79.44864426813342
2089.677,90.08218815486578
2091.2215,86.7574191596699
2092.7652,86.7244380901501
2094.3083,79.2333448863368
2095.8506,77.53423862101647
2097.3921,89.87721757464226
2098.933,88.41237925232554
2100.4731,87.6898202604068
2102.0124,81.75963632110268
2103.5511,96.77192227973183
2105.089,95.22677216401723
2106.6261,98.97427903396283
2108.1626,94.96453499730592
2109.6983,93.8476311720409
2111.2332,96.62365772651742
2112.7675,89.44270389060898
2114.301,89.35485792795316
2115.8337,98.11020720776048
2117.3657,88.50883820569311
2118.897,90.25083641631215
2120.4276,84.73628644909013
2121.9575,85.51527201099225
2123.4866,92.03787596162044
2125.0149,83.55418030542478
2126.5426,80.7642661264764
2128.0695,84.31821367330485
2129.5956,83.66610238679789
2131.1211,87.00801086466083
2132.6458,83.6440168679386
2134.1698,85.47419728759667
2135.693,78.2486281781604
2137.2155,85.91738473941439
2138.7373,86.9305413886566
2140.2584,76.63817168401158
2141.7787,75.84034831429904
2143.2983,79.53714320195752
2144.8171,84.92862751102246
2146.3353,76.31487161015775
2147.8527,74.99594501874162
2149.3693,77.57191649300421
2150.8853,76.09285403921695
2152.4005,78.85882488793209
2153.9149,76.4698955087739
2155.4287,82.62613158277907
2156.9417,66.92759802628586
2158.454,81.27435892937115
2159.9655,80.56647771283622
2161.4764,88.40401698473909
2162.9865,75.68703854747321
2164.4958,79.5156033193922
2166.0045,72.9897714619799
2167.5124,86.60960234156471
2169.0195,75.32515459457773
2170.526,72.23648599135458
2172.0317,77.84365354897955
2173.5367,69.54671356217273
2175.0409,84.445721547218
2176.5445,73.24073232493197
2178.0473,76.23179987167441
2179.5494,77.41897743139816
2181.0507,73.70231748573906
2182.5513,69.63187174214306
2184.0512,75.55769117103353
2185.5504,70.22982604651554
2187.0488,68.29832588711781
2188.5465,67.86323950907104
2190.0435,71.2746150456237
2191.5397,69.78249995139242
2193.0353,75.43694096824811
2194.5301,78.63798414023665
2196.0241,66.83567475703558
2197.5175,75.33005732194204
2199.0101,72.67117566989748
2200.502,65.2590728825428
2201.9931,62.5937913148083
2203.4835,63.32537266903387
2204.9733,76.80385802162164
2206.4622,65.17928781572061
2207.9505,60.35170172644143
2209.438,59.87113877710203
2210.9248,59.68763738750397
2212.4109,58.75123537873776
2213.8962,63.761969975017564
2215.3809,63.41987781304579
2216.8648,66.72499489190511
2218.3479,62.577356576479815
2219.8304,54.57699756440468
2221.3121,48.573951927540975
2222.7931,53.2182531919799
2224.2733,60.20993439807398
2225.7529,49.199028053993516
2227.2317,54.78556606581026
2228.7098,52.71957984760604
2230.1872,54.65110026560717
2231.6638,59.53015765884493
2233.1397,44.306781819839784
2234.6149,43.081001945811295
2236.0894,41.90284679091121
2237.5632,49.82234467848184
2239.0362,35.13952351283751
2240.5085,44.30441070006964
2241.9801,42.56703329487448
2243.4509,32.87741790890482
2244.921,39.585590728143075
2246.3904,37.391577609798105
2247.8591,38.84540401522327
2249.3271,40.19709503185686
2250.7943,37.94667535868325
2252.2608,44.04416929271679
2253.7266,44.38960075150533
2255.1917,29.23299321215586
2256.656,36.22436970787999
2258.1197,30.91375297955915
2259.5826,30.901165405831534
2261.0447,31.236629056197557
2262.5062,29.070165691145576
2263.9669,38.95179675879865
2265.4269,33.931543416577824
2266.8862,30.759426432386363
2268.3448,38.635466234812725
2269.8026,37.60968294485133
2271.2598,28.732096297142448
2272.7162,39.30272565023006
2274.1719,36.22159007533753
2275.6268,39.438708250660625
2277.0811,47.10409849218047
2278.5346,28.717778721491186
2279.9874,34.529766389146175
2281.4395,35.34007865852152
2282.8908,38.04873234769593
2284.3414,38.25574392134797
2285.7914,36.36112946366893
2287.2406,42.31490467629283
2288.689,31.617084897242762
2290.1368,38.21768504139243
2291.5838,37.86671970744533
2293.0302,35.96420311192833
2294.4758,37.96014909270127
2295.9206,31.554571127982285
2297.3648,34.34748231638855
2298.8082,41.33889544099202
2300.251,38.428822941390195
2301.693,32.317276843791774
2303.1343,39.80426879011759
2304.5748,34.53981009911638
2306.0147,30.47391169149455
2307.4538,34.05658414256072
2308.8922,30.937837722884865
2310.3299,37.117682362471214
2311.7669,41.496127681945836
2313.2031,40.72318293075807
2314.6387,32.89885694339671
2316.0735,32.22315814711851
2317.5076,36.54609464019222
2318.941,32.46767419865512
2320.3737,27.187904233084396
2321.8056,38.606791829380086
2323.2369,38.17434380156408
2324.6674,35.84056657759061
2326.0972,41.15546620367104
2327.5263,33.819048367611686
2328.9547,34.881318345664226
2330.3823,36.74228107589033
2331.8092,36.95194114753929
2333.2355,40.260302782437634
2334.661,33.11736983289268
2336.0858,30.023145748609295
2337.5098,33.22763364811851
2338.9332,28.480836349720448
2340.3558,28.782756339438265
2341.7778,36.483395818487566
2343.199,36.23275670025703
2344.6195,34.730840533302285
2346.0393,35.37764850385145
2347.4583,30.02318145082461
2348.8767,31.567439859365663
2350.2943,33.810423914387115
2351.7113,43.95213348512732
2353.1275,37.142568102720475
2354.543,28.181726858779598
2355.9578,37.369608473492235
2357.3718,38.80621138522906
2358.7852,31.24153365866482
2360.1978,37.525572970412554
2361.6098,36.05832668467065
2363.021,28.789791790381628
2364.4315,43.669964915905325
2365.8413,36.498842401703655
2367.2504,31.17642015153956
2368.6587,31.452693704188164
2370.0664,34.577658286660494
2371.4733,30.801308811440776
2372.8795,38.32363984523727
2374.285,24.24464564674497
2375.6899,35.66432009142261
2377.0939,32.982656812282585
2378.4973,27.849649085694864
2379.9,33.41528985820253
2381.3019,30.629571797852805
2382.7032,33.79248723854005
2384.1037,28.404028207863576
2385.5035,26.064186395497927
2386.9027,24.772953207077762
2388.3011,23.430319787596545
2389.6987,31.83627703431887
2391.0957,35.39081561020646
2392.492,29.993925859858336
2393.8876,27.895597773965846
2395.2824,27.04582104328165
2396.6765,30.544585079602143
2398.07,16.741879024266154
2399.4627,22.23769171316701
2400.8547,24.832011814779435
2402.246,24.37482777520188
2403.6366,25.266127792212842
2405.0265,22.505899819842057
2406.4156,24.544131559458947
2407.8041,27.480810487374583
2409.1918,20.315923834458772
2410.5789,19.049458556774084
2411.9652,20.881401407223848
2413.3508,22.711738948216976
2414.7358,30.740457533348376
2416.12,26.367543289096147
2417.5035,24.042982034533452
2418.8863,28.41675932505882
2420.2684,26.488860475641445
2421.6497,23.659270517082973
2423.0304,23.22797421529674
2424.4104,26.294956099603667
2425.7896,27.960200467045297
2427.1682,20.623691351713433
2428.546,21.53541250809809
2429.9232,16.895347484452884
2431.2996,28.703479613677473
2432.6753,24.60979205971796
2434.0503,22.66426769948623
2435.4246,22.616889163796486
2436.7982,27.717638856820372
2438.1711,23.51649895656095
2439.5433,28.563451363844763
2440.9148,24.808477744333914
2442.2856,21.551559478055594
2443.6557,19.642677696952887
2445.025,25.63181331745335
2446.3937,22.918947059558263
2447.7617,16.15405938695119
2449.1289,24.387130534126072
2450.4955,23.56814057403642
2451.8613,21.497069335764536
2453.2265,25.673896412711542
2454.5909,28.24860118330787
2455.9546,22.771162769245223
2457.3177,25.6915600097293
2458.68,26.359771516254682
2460.0416,37.77577564340032
2461.4025,23.889550482147797
2462.7627,25.401073745720964
2464.1222,30.86032290844861
2465.4811,29.817275190649013
2466.8392,33.171907504037506
2468.1966,34.124196462156874
2469.5533,31.474118346831006
2470.9093,34.97164909864205
2472.2645,31.3667643434311
2473.6191,37.009439357323174
2474.973,27.699649102775652
2476.3262,36.13736817215175
2477.6787,36.72257088081835
2479.0305,37.80523118276881
2480.3816,32.035322664771115
2481.7319,30.962818535541032
2483.0816,34.437691683441585
2484.4306,30.5099146872073
2485.7789,36.4294597811961
2487.1264,37.19629889466694
2488.4733,30.96040359258444
2489.8195,32.5717450679503
2491.165,33.33029420416233
2492.5097,44.43602155890113
2493.8538,33.988897356544385
2495.1972,31.58889137711003
2496.5398,36.63597306072694
2497.8818,35.53011153163533
2499.2231,32.12127554771598
2500.5637,31.359433511548673
2501.9035,31.844553504500368
2503.2427,28.676603294344147
2504.5812,38.70555033040773
2505.919,37.58136177525324
2507.256,36.90400440438725
2508.5924,38.27344461750306
2509.9281,35.589648445254
2511.2631,36.452581535559204
2512.5974,35.41220918044132
2513.9309,39.16849630739773
2515.2638,32.17140748980387
2516.596,40.37090690935014
2517.9275,38.81695842601329
2519.2583,36.3095254960611
2520.5884,35.04857118759173
2521.9178,34.284058205608346
2523.2465,33.5159489046282
2524.5745,36.694205296328334
2525.9018,37.21878905722622
2527.2284,34.83966149689775
2528.5543,45.00678355273101
2529.8796,41.32011581371745
2531.2041,38.17961841878116
2532.5279,42.43525109364509
2533.851,39.18697318223633
2535.1735,48.13474360412965
2536.4952,45.32852088703049
2537.8163,39.91826307729713
2539.1366,45.553927768002836
2540.4562,46.23547215303853
2541.7752,44.06285297075573
2543.0935,47.53602649715134
2544.411,44.75494856759411
2545.7279,41.56957454209237
2547.0441,44.92985933310513
2548.3596,47.43575743739598
2549.6744,44.98722290242978
2550.9885,51.28420930131398
2552.3019,55.526669757284196
2553.6146,48.414556880733926
2554.9266,49.74782272679056
2556.2379,51.976418866435836
2557.5485,50.30029637317381
2558.8585,48.96940580074414
2560.1677,50.48369719988415
2561.4762,56.74312013163728
2562.7841,49.997623652209995
2564.0913,48.24715625037754
2565.3977,51.79166591493936
2566.7035,55.58110015222309
2568.0086,56.21540595064016
2569.313,53.29452974279104
2570.6167,54.71841739912236
2571.9197,63.33701425713576
2573.222,53.60026510714874
2574.5236,62.65811410610894
2575.8246,59.26050487496116
2577.1248,56.75738040806954
2578.4244,62.998683107193415
2579.7232,57.734354806518354
2581.0214,61.71433671024306
2582.3189,66.08856944522324
2583.6157,64.45699302117106
2584.9118,65.91954678691332
2586.2072,67.57616944670741
2587.5019,62.72679904561517
2588.7959,66.47137295293743
2590.0893,62.55982791070687
2591.3819,69.89209999624302
2592.6739,74.66812466126726
2593.9652,78.08783665858022
2595.2557,74.00116999430139
2596.5456,78.05805789367218
2597.8348,78.70843284192227
2599.1234,79.75222654370089
2600.4112,79.23936991657291
2601.6983,84.2197930805811
2602.9848,82.24342536337468
2604.2705,80.06019525040494
2605.5556,87.82003040468925
2606.84,86.37285768864314
2608.1237,77.36860308648187
2609.4067,78.80719171869254
2610.689,78.2385479320763
2611.9707,78.66259528536256
2613.2516,80.27925655489543
2614.5319,83.18845373039335
2615.8115,71.14010799878224
2617.0903,71.13413971510357
2618.3685,79.62046852299784
2619.6461,78.99901335476426
2620.9229,66.7696923464976
2622.199,75.93242284430283
2623.4745,74.83712152658813
2624.7493,79.23370431243751
2626.0234,75.02208637256388
2627.2968,76.50218208534318
2628.5695,72.87390507893076
2629.8415,70.88716821646017
2631.1128,76.79188363232595
2632.3835,75.88796275205124
2633.6535,76.42531623324066
2634.9228,75.20385397461945
2636.1914,75.87348511065989
2637.4593,68.58411802379578
2638.7265,70.58566033772638
2639.9931,80.62801899030995
2641.259,79.06110021354851
2642.5242,72.8348094331638
2643.7887,78.29905128426662
2645.0525,70.1037296736198
2646.3156,69.09874772499563
2647.5781,71.53400786112951
2648.8398,73.45941181376935
2650.1009,68.92486059932327
2651.3613,74.88025449960548
2652.6211,70.8754931071818
2653.8801,69.51047526581567
2655.1385,66.03509911051589
2656.3961,74.99926208118671
2657.6531,78.15286095738134
2658.9094,72.6957917686608
2660.1651,73.8779497630573
2661.42,79.0992294616454
2662.6743,78.20952464672013
2663.9279,84.00872830958446
2665.1808,78.64673265944617
2666.433,78.4734290654261
2667.6846,87.6387081101779
2668.9354,86.84245959162126
2670.1856,85.88457243128886
2671.4351,89.66493468228913
2672.6839,91.43343353888491
2673.9321,92.1399552986897
2675.1795,107.48438534498302
2676.4263,99.01660813964497
2677.6724,97.63650706971163
2678.9179,97.19396453205354
2680.1626,101.23886194717619
2681.4067,96.87107976364541
2682.6501,100.59049741763852
2683.8928,101.7469933766223
2685.1348,83.89044510215854
2686.3761,89.8207290383391
2687.6168,83.63772079035152
2688.8568,87.6912950651764
2690.0961,85.23132573341718
2691.3348,89.15768578876452
2692.5727,82.32024737259599
2693.81,83.16888173471267
2695.0466,82.60345930171314
2696.2826,80.82384966850765
2697.5178,83.12992160397192
2698.7524,85.92154306874323
2699.9863,81.04858119215982
2701.2195,88.06090224434439
2702.452,84.60837168493418
2703.6839,90.84085409295722
2704.9151,83.75821320135822
2706.1456,106.51031183467319
2707.3755,104.89701197985625
2708.6046,105.61817455875848
2709.8331,108.3236594442609
2711.0609,111.16332545306312
2712.2881,124.18703031862799
2713.5145,120.09463066278528
2714.7403,133.88598186549467
2715.9654,130.66093810576945
2717.1899,147.4193522237632
2718.4136,156.56107575302042
2719.6367,167.68595875289213
2720.8591,164.8438497171187
2722.0809,186.38459546258105
2723.3019,185.20804115772188
2724.5223,197.26403010713778
2725.7421,199.3024037633453
2726.9611,197.82300160622066
2728.1795,194.92566112261625
2729.3972,184.71021782115452
2730.6142,183.12650526120154
2731.8306,170.22435515502144
2733.0462,156.2035973836135
2734.2612,147.0140601257337
2735.4756,134.65556999810212
2736.6892,121.2279521472986
2737.9022,115.13103037334736
2739.1145,103.01462726399296
2740.3262,95.62856425567003
2741.5372,85.47266175466689
2742.7475,80.99673921098639
2743.9571,78.90061521990492
2745.1661,74.18410756673165
2746.3744,61.84703324776984
2747.582,57.18920851748186
2748.7889,45.16044901185978
2749.9952,42.0605697950038
2751.2008,39.83938547940977
2752.4057,38.596710256967924
2753.61,36.1323579211749
2754.8136,36.94614187956017
2756.0165,34.337875178330194
2757.2188,19.857370494229997
2758.4204,31.704440160626177
2759.6213,27.728896312311747
2760.8215,27.53055076703538
2762.0211,27.40921506525683
2763.22,21.664700472130676
2764.4182,27.496817978719207
2765.6158,14.9553783594381
2766.8127,16.790192113734804
2768.009,9.451069591503142
2769.2045,11.337820974735052
2770.3994,3.000256350912025
2771.5936,6.788185694137496
2772.7872,-0.04858105148753111
2773.9801,0.5397659902561145
2775.1723,-6.7969628190875255
2776.3639,-5.758957123372284
2777.5548,-3.5963386647932793
2778.745,-17.859171653564317
2779.9346,-6.797484372476049
2781.1235,-11.211126691194465
2782.3117,-9.999880572516929
2783.4992,-8.863415980085279
2784.6861,-8.951302978734759
2785.8723,-4.913023087774832
2787.0579,-10.947968402998697
2788.2428,-2.855481939098695
2789.427,-2.534797340563159
2790.6106,-3.285119725615914
2791.7935,1.6943711101445729
2792.9757,5.604528189465441
2794.1573,2.4462045181504095
2795.3382,11.770253045958043
2796.5184,14.527526698185113
2797.698,15.468878282426203
2798.8769,23.29516046100042
2800.0551,31.45722574153848
2801.2327,47.40592639871943
2802.4096,50.09211439265022
2803.5859,58.01664120937863
2804.7615,61.08035783403136
2805.9364,75.53411467156849
2807.1106,84.72876151614696
2808.2842,97.76514740658274
2809.4572,114.09412053440411
2810.6294,131.31652811348835
2811.801,155.5832162167714
2812.972,177.8450296040245
2814.1423,198.9028114791866
2815.3119,230.70740326774688
2816.4808,266.65964440616636
2817.6491,296.6103720238319
2818.8167,329.5604205835347
2819.9837,373.110621581962
2821.15,407.71180322019717
2822.3157,459.3147899682177
2823.4807,501.32040221888303
2824.645,542.9794557719046
2825.8086,585.14276141379
2826.9716,629.3611245012528
2828.134,673.3853445395787
2829.2957,712.9162147404422
2830.4567,742.9545215816653
2831.617,755.3010444119067
2832.7767,768.006555150281
2833.9358,754.7718181628923
2835.0941,754.1975901357782
2836.2519,743.4846202072604
2837.4089,724.6836499736823
2838.5653,692.7454135965438
2839.7211,678.9206379905063
2840.8761,670.7100431427789
2842.0306,679.3143422513638
2843.1843,687.8342418071635
2844.3374,705.1704415079369
2845.4899,743.4736341731007
2846.6417,765.194505570367
2847.7928,798.5837340327128
2848.9433,832.0919902411695
2850.0931,864.1199368909311
2851.2422,917.0182283562729
2852.3907,950.3375103702706
2853.5385,964.2784194958182
2854.6857,1012.3415827924343
2855.8323,1048.2776176768543
2856.9781,1090.4871314423976
2858.1233,1118.8207208996068
2859.2679,1153.0289719541543
2860.4118,1187.5624593235057
2861.555,1217.2217461948358
2862.6976,1231.3073838796963
2863.8395,1259.369911517421
2864.9808,1300.30985593427
2866.1214,1306.227731362805
2867.2614,1325.4240390324885
2868.4007,1327.1992671105068
2869.5393,1328.7038905098057
2870.6773,1345.788370871338
2871.8146,1351.803156549018
2872.9513,1358.1486824388774
2874.0874,1357.025369918915
2875.2227,1338.1336267856445
2876.3574,1338.0738472653247
2877.4915,1321.0964122028793
2878.6249,1299.2016890624932
2879.7577,1298.2400320973873
2880.8898,1280.6117825687663
2882.0212,1276.1172687554342
2883.152,1276.006806130078
2884.2821,1270.380697404212
2885.4116,1261.4892325292824
2886.5405,1262.4826887529289
2887.6686,1267.4613307078992
2888.7962,1271.8254104021148
2889.923,1268.2751671688836
2891.0493,1280.1608276232596
2892.1748,1271.7826056975464
2893.2997,1290.6907025224377
2894.424,1309.035306510803
2895.5476,1312.5665931686042
2896.6706,1323.2847249114507
2897.7929,1338.639851029286
2898.9145,1352.332107579207
2900.0355,1350.8116172319121
2901.1559,1383.6284891347786
2902.2756,1401.4328189270682
2903.3946,1426.7746884117576
2904.513,1436.204165377496
2905.6308,1439.0713033451855
2906.7479,1453.0261414736865
2907.8643,1478.968704531147
2908.9801,1502.3990027554532
2910.0953,1496.7170315948051
2911.2098,1484.5727714734119
2912.3236,1486.9161878483133
2913.4368,1466.647231330821
2914.5494,1464.3158376630852
2915.6613,1447.0219279207838
2916.7725,1417.3654085364365
2917.8831,1401.3961714723432
2918.9931,1375.7640945171515
2920.1024,1354.0690414455464
2921.211,1338.8108622745726
2922.319,1323.589393480584
2923.4264,1314.3044581518266
2924.5331,1308.555866140652
2925.6391,1313.393414156367
2926.7445,1308.2668858227216
2927.8493,1315.5760516295304
2928.9534,1322.8706689839398
2930.0569,1320.7504821373357
2931.1597,1339.765222112398
2932.2619,1326.6646067243023
2933.3634,1353.2483403905712
2934.4643,1338.3661142620822
2935.5645,1350.9176059572285
2936.6641,1331.0524797107437
2937.763,1319.0703862481846
2938.8613,1315.9209629845836
2939.959,1278.0538341442689
2941.056,1240.9686107923594
2942.1523,1196.1148912134363
2943.248,1151.3422612823947
2944.3431,1079.55029491298
2945.4375,1025.438554505516
2946.5313,938.556591664824
2947.6244,869.3539477413394
2948.7169,812.8301546999323
2949.8087,736.6847358119336
2950.8999,691.6172062203725
2951.9904,636.7270737014312
2953.0803,587.2138391151199
2954.1696,549.876996954178
2955.2582,519.4660358392073
2956.3462,483.3304388920393
2957.4335,461.26968403984523
2958.5202,440.8832443764926
2959.6062,429.7705883831519
2960.6916,412.2311801321618
2961.7764,410.364479398155
2962.8605,395.8199418334527
2963.9439,381.94701898673134
2965.0267,372.2951584484683
2966.1089,373.713803989671
2967.1905,378.4523956583952
2968.2714,380.8103697655586
2969.3516,380.7371588375556
2970.4312,391.4321915926763
2971.5102,393.2448929418399
2972.5885,394.57468388164364
2973.6662,398.670981476236
2974.7432,400.5831988440191
2975.8196,404.41074511668523
2976.8954,410.4030254200949
2977.9705,404.40944083600107
2979.045,392.32938834212723
2980.1188,399.8122608721023
2981.192,379.5074474362612
2982.2645,371.0643330468167
2983.3364,351.03229892090707
2984.4077,340.81072256502716
2985.4783,322.8989779753494
2986.5483,312.9464357399389
2987.6177,292.9524632178714
2988.6864,267.8164246387583
2989.7545,238.7376813026865
2990.8219,228.9655918315791
2991.8887,207.09951245998252
2992.9548,179.48879713278728
2994.0204,165.23279772388918
2995.0852,139.98086431229603
2996.1495,126.78234532468775
2997.2131,110.6365877879357
2998.276,99.4929374610877
2999.3383,87.6007389968259
3000.4,74.35933605290302
3001.4611,54.81807141106475
3002.5215,46.42628710946349
3003.5812,37.38332463807075
3004.6404,29.53852502259565
3005.6989,28.041228914913916
3006.7567,17.090776671516267
3007.8139,13.03650836848118
3008.8705,11.727763910979206
3009.9264,1.8638830738161118
3010.9818,3.944205514519979
3012.0364,2.8680708719805352
3013.0905,3.0848187456452933
3014.1439,-8.206211293718752
3015.1966,0.14432029380731137
3016.2487,-7.164164971807168
3017.3002,-6.532245572035777
3018.3511,-9.160428418344225
3019.4013,-11.949155165065179
3020.4509,-3.9987759538515206
3021.4998,-7.559521554296168
3022.5481,-12.281582788220447
3023.5958,-0.6150749578255841
3024.6428,-1.159990672300836
3025.6892,-0.4663163962368344
3026.735,0.31597299408252866
3027.7802,-2.5630927191260753
3028.8247,1.946516243194452
3029.8685,3.594855265397257
3030.9118,7.181979712370406
3031.9544,14.007944913053393
3032.9963,10.622806124565983
3034.0376,16.576618463948705
3035.0783,22.969436942014084
3036.1184,24.85131640380868
3037.1578,30.57231146468473
3038.1966,29.632476491481555
3039.2348,34.431865545315304
3040.2723,31.920532390977485
3041.3092,42.04853044894102
3042.3455,45.41591282047372
3043.3811,46.07273218635814
3044.4161,47.51904077321802
3045.4505,46.9048903469498
3046.4842,42.030332198259714
3047.5173,45.245417148805245
3048.5498,47.700195599940514
3049.5816,45.64471750056569
3050.6128,46.37903232257912
3051.6434,48.203189081432015
3052.6734,49.967236328785305
3053.7027,50.52122213426813
3054.7314,47.66519406783752
3055.7594,51.94919919423833
3056.7868,49.72328410156365
3057.8136,53.23749485841472
3058.8398,51.54187703616
3059.8653,52.4364756737931
3060.8902,50.32133529488894
3061.9145,54.04649989865774
3062.9381,54.41201298109638
3063.9612,57.317917497736715
3064.9835,61.514255859990556
3066.0053,56.351069906090714
3067.0264,63.47840085912745
3068.0469,59.24628937868047
3069.0668,50.1547754895455
3070.086,55.553898624055535
3071.1046,51.093697712995834
3072.1226,50.87421113161261
3073.1399,49.29547674421542
3074.1567,45.25753190637161
3075.1727,41.21041348069397
3076.1882,37.35415787721993
3077.203,34.68880109388297
3078.2173,30.464378755075103
3079.2308,24.43092613830035
3080.2438,29.988478216419054
3081.2561,24.73706971798228
3082.2678,25.076735071656458
3083.2789,19.757508458737277
3084.2893,19.579423809753195
3085.2991,13.492514857657596
3086.3083,14.29681513960972
3087.3169,15.142358057843722
3088.3248,15.079176871625606
3089.3321,20.60730468879794
3090.3388,10.476774466411541
3091.3449,11.587618955444213
3092.3503,5.839870802106105
3093.3551,10.233562536731228
3094.3593,5.268726631254907
3095.3629,5.295395455277031
3096.3658,7.963601325710073
3097.3681,4.673376506512739
3098.3698,6.874753182007737
3099.3708,2.667763489784207
3100.3713,1.3524394986837223
3101.3711,5.678813250870306
3102.3702,3.4969167749836885
3103.3688,2.0067820428754857
3104.3667,1.9584409914282759
3105.364,2.9019255374567905
3106.3607,2.687267578191424
3107.3568,0.8144989818434567
3108.3522,3.3336515897515113
3109.347,3.144757235109296
3110.3412,1.1978477177739961
3111.3348,1.292954806155322
3112.3277,-0.2698897433154599
3113.32,6.859345812863438
3114.3117,-3.4693040856077317
3115.3028,2.0941949323778886
3116.2932,3.749911896274952
3117.2831,4.897915814596203
3118.2723,0.0382756583552748
3119.2608,4.071060349586716
3120.2488,4.696338427951204
3121.2361,5.014178392398847
3122.2229,6.424648694916442
3123.209,3.377817737348977
3124.1944,0.9237538572950115
3125.1793,0.31252535857500163
3126.1635,4.394200535771915
3127.1471,1.3688476803434924
3128.1301,3.136535039805551
3129.1125,1.5473308479854353
3130.0942,5.801303307345151
3131.0753,3.348520604873528
3132.0558,4.9890508695463325
3133.0357,3.4729621968542403
3134.015,6.300322632397354
3134.9936,9.871200187046284
3135.9716,5.585662808668403
3136.949,8.8437783464191
3137.9258,5.495614593597182
3138.902,9.941239255063692
3139.8775,7.230719980723478
3140.8524,8.314124321069144
3141.8267,8.791519754286057
3142.8004,12.812973675418448
3143.7735,10.928553391595344
3144.7459,15.33832608181605
3145.7178,12.84235881579442
3146.689,12.140718509861074
3147.6596,10.733471951923065
3148.6295,17.520685808480287
3149.5989,14.802426638697987
3150.5676,14.328760826534548
3151.5357,15.149754607924145
3152.5032,16.215474075513356
3153.4701,16.82598517045124
3154.4364,18.981353671732116
3155.402,14.631645190090424
3156.367,20.62692514644715
3157.3315,14.96725881540678
3158.2952,17.352711265304585
3159.2584,15.63334741480331
3160.221,15.659232009038604
3161.1829,19.830429636812653
3162.1442,20.597004730335406
3163.105,21.509021523512516
3164.065,20.666544044279583
3165.0245,19.269636105482085
3165.9834,23.318361313300045
3166.9416,21.412783081217135
3167.8993,20.802964589533495
3168.8563,25.238968804421404
3169.8127,27.970858484023537
3170.7684,24.198696134092884
3171.7236,26.072543980673906
3172.6782,30.642464007824074
3173.6321,25.90851793887545
3174.5854,30.570767190735452
3175.5381,30.379272921226374
3176.4902,32.28409598246282
3177.4417,34.43529692276668
3178.3926,28.48293596761886
3179.3428,31.62707299814731
3180.2924,31.36776761065063
3181.2415,30.15507908515673
3182.1899,34.98906638801587
3183.1377,34.36978818402757
3184.0848,29.89730278810066
3185.0314,31.771668171446095
3185.9773,35.64294200630179
3186.9227,35.26118164718896
3187.8674,37.02644409219946
3188.8115,38.78878598681329
3189.755,41.39826360624602
3190.6979,39.4049328378254
3191.6402,38.658849154896515
3192.5818,38.860067636755176
3193.5229,41.15864297610867
3194.4633,40.40462947706363
3195.4031,43.44808103214028
3196.3423,39.389051129812515
3197.2809,40.12759282407349
3198.2189,40.8637587750258
3199.1563,41.34760124149615
3200.0931,44.62917207367367
3201.0292,45.208522708271445
3201.9648,43.78570413571087
3202.8997,46.36076689432812
3203.834,46.683761084602345
3204.7677,45.55473634340498
3205.7008,46.273741840769915
3206.6333,50.19082629118362
3207.5652,47.2060379463952
3208.4964,46.41942455624546
3209.4271,45.531033398514836
3210.3571,50.49091128678953
3211.2865,52.6991045793454
3212.2154,52.15565912954919
3213.1436,52.91062026377659
3214.0712,52.56403278684671
3214.9982,53.66594097447246
3215.9246,51.2663885767264
3216.8503,54.6654188070217
3217.7755,50.16307436610761
3218.7001,54.159397408079215
3219.624,54.20442958540083
3220.5473,55.2482120089428
3221.4701,58.79078524753117
3222.3922,60.18218931750984
3223.3137,58.87246364731489
3224.2346,59.111647063560454
3225.1549,58.199777804136076
3226.0746,61.53689351581478
3226.9937,58.07303126337183
3227.9121,65.05822749621353
3228.83,61.29251808301588
3229.7473,61.82593824187258
3230.6639,63.35852257795213
3231.5799,59.54030507816369
3232.4954,64.82131909583113
3233.4102,65.05159738887525
3234.3244,65.28117206700371
3235.238,65.31007458940812
3236.151,66.9383357624684
3237.0634,63.76598573946369
3237.9752,66.64305400428975
3238.8864,64.71956940318248
3239.797,69.34556011594724
3240.7069,68.97105367519367
3241.6163,69.09607692007582
3242.5251,70.97065600003714
3243.4332,73.34481637356036
3244.3408,69.26858278942159
3245.2477,71.29197926294873
3246.154,73.16502911678387
3247.0598,71.88775496064929
3247.9649,74.66017867261687
3248.8694,71.93232141188103
3249.7733,72.60420359103432
3250.6766,75.07584490334605
3251.5793,76.99726431604354
3252.4814,75.51848004559557
3253.3829,74.68950953849827
3254.2838,77.66036948606302
3255.1841,75.03107583270601
3256.0838,76.85164374623974
3256.9829,76.82208764416592
3257.8814,74.39242117546978
3258.7792,77.3126572209157
3259.6765,82.08280791734377
3260.5731,80.60288462846756
3261.4692,80.4228978971725
3262.3647,80.04285746031518
3263.2595,83.46277225052317
3264.1538,79.58265039999547
3265.0474,78.55249920630331
3265.9404,83.87232517119143
3266.8329,81.24213401087957
3267.7247,80.21193060286416
3268.616,80.88171901222032
3269.5066,80.2515025019038
3270.3966,83.77128352605314
3271.286,81.39106373629184
