RamanShift,CorrectedData
30.1047,153.90411438732315
32.3739,140.97754295758827
34.6426,129.35096998881218
36.9109,119.67439253217837
39.1787,107.14780634536052
41.4461,99.0712059892883
43.7131,83.74458495341331
45.9796,73.91793573647507
48.2456,59.19124999976718
50.5112,55.16451866540387
52.7764,42.63773206358687
55.0411,34.060879972872684
57.3054,21.93395174544051
59.5692,9.65693639286071
61.8326,0.17982270736414208
64.0955,-10.397400615387692
66.3579,-20.37474488153151
68.6199,-29.402117527171903
70.8815,-38.42922244471211
73.1426,-38.55546979940131
75.4032,-23.02988584855646
77.6634,25.498888319648728
79.9231,151.08244168560014
82.1824,431.9723629746949
84.4412,914.1702394015055
86.6995,1572.2776538608812
88.9574,2187.296180105969
91.2148,2655.027376167139
93.4717,2847.4727782018
95.7282,2886.9838958170862
97.9842,2892.2622101454053
100.2398,2844.3091734493246
102.4949,2788.5262090687916
104.7495,2773.06471190066
107.0036,2729.2760489565226
109.2573,2677.711559517325
111.5105,2609.7725555712523
113.7632,2538.210322329375
116.0154,2459.5761189050368
118.2672,2378.2211790294787
120.5185,2302.946711838182
122.7693,2236.1539026844152
125.0197,2166.093913891979
127.2696,2095.2678854231362
129.519,2049.7769355792116
131.7679,2027.4221617088488
134.0163,2000.9046406629236
136.2642,1982.4254290180907
138.5117,1956.3855633419582
140.7587,1936.2860603778795
143.0052,1885.8779173053538
145.2512,1842.7621119410198
147.4967,1799.0396032427361
149.7417,1761.4113317407414
151.9863,1713.1782199748786
154.2304,1691.7411728708767
156.4739,1667.5510782226831
158.717,1666.8088069068335
160.9596,1660.8152131243535
163.2017,1661.9211344081805
165.4433,1662.0773916830992
167.6844,1645.1847892546846
169.925,1615.794114807737
172.1651,1568.0561395752093
174.4047,1517.671618632112
176.6439,1471.541291372897
178.8825,1449.5158820152974
181.1206,1433.7461000616363
183.3582,1401.0326405190758
185.5954,1382.9761840573183
187.832,1357.37739733574
190.0681,1348.6369331839553
192.3037,1341.0554308578048
194.5388,1334.0835161267603
196.7734,1322.471801349738
199.0075,1322.7208855448207
201.2411,1329.5313545053725
203.4742,1332.6537807975496
205.7068,1337.4887236921948
207.9389,1350.4867291336132
210.1704,1335.8483296912232
212.4015,1327.424044429576
214.632,1313.8143790547397
216.862,1308.8698259985422
219.0915,1293.490864554668
221.3205,1299.6279609281037
223.549,1292.831568388929
225.777,1293.002127210943
228.0044,1271.0400647396302
230.2314,1243.6957953904548
232.4578,1233.76972086848
234.6837,1203.4122304418115
236.909,1182.973701040859
239.1339,1179.9544975619094
241.3582,1147.8549730715145
243.582,1137.02546883668
245.8053,1137.8163146458633
248.0281,1120.4778289172673
250.2503,1113.8103186909325
252.472,1104.0140798021216
254.6932,1109.089396947994
256.9139,1086.3865437855686
259.134,1093.2057828809707
261.3536,1102.4473659364617
263.5727,1107.1115337222436
265.7912,1131.7485159840467
268.0092,1155.4585313964865
270.2267,1174.9917873166924
272.4436,1205.5984795472104
274.6601,1203.0787921406682
276.8759,1227.3828970937093
279.0913,1227.7109543721913
281.3061,1232.0631116681413
283.5204,1225.6395043964785
285.7341,1237.0402556514914
287.9473,1235.6154762710726
290.16,1223.7152647227138
292.3721,1189.3397071177528
294.5837,1146.1388773303743
296.7947,1118.7128373413666
299.0052,1108.46163767013
301.2152,1077.6353176489363
303.4246,1057.7339055254417
305.6334,1037.1074187709498
307.8418,1017.5058642794259
310.0495,1006.1292385737604
312.2568,980.1775280017871
314.4635,933.5507088500467
316.6696,901.0987476033054
318.8752,850.8716014108224
321.0802,824.4192184108701
323.2847,797.8915382330056
325.4887,802.7384922625938
327.692,801.5100039060851
329.8949,806.7559885425458
332.0972,835.8263535359431
334.2989,864.7209981826845
336.5001,855.1898134209146
338.7007,825.7826815415692
340.9008,792.9994762836866
343.1003,739.3900631284789
345.2992,706.4542996271639
347.4976,653.8920359370595
349.6955,621.8531151509412
351.8927,601.9873738226645
354.0895,590.5446422875539
356.2856,570.6247448610611
358.4812,556.2274999531919
360.6763,547.1527202677057
362.8707,531.550212946087
365.0646,524.7697796582943
367.258,536.5112167587843
369.4508,532.9743153543163
371.643,551.2588611865374
373.8346,545.7646346673521
376.0257,572.4414106960774
378.2162,584.2389587143853
380.4062,597.2570424395337
382.5956,577.1454197463913
384.7844,534.0038425372572
386.9726,498.38205694297676
389.1603,467.9298037543583
391.3474,440.0968187783899
393.5339,440.78283314276246
395.7199,437.3375735741988
397.9052,455.71076239159447
400.09,482.5521175404699
402.2743,501.6113524092384
404.4579,517.9881755607923
406.641,543.1322905419115
408.8235,563.1933957194951
411.0054,605.1211840291198
413.1868,660.5153427744283
415.3675,736.4755532078539
417.5477,745.8014899766758
419.7273,672.3928203634184
421.9064,593.4992041925918
424.0848,524.7702945647789
426.2627,465.75573864556986
428.4399,415.40517835285436
430.6166,380.71825094696374
432.7928,335.1445895341785
434.9683,298.0338234135986
437.1432,280.78557853287793
439.3176,253.99947785933205
441.4914,233.42514155242156
443.6645,241.262187231614
445.8371,234.36023018212518
448.0091,236.16888327654897
450.1806,224.13775704387808
452.3514,202.6664596514172
454.5216,213.8545970250941
456.6913,199.15177306417195
458.8603,196.6075895293693
461.0288,195.8216461898869
463.1967,188.79354084885085
465.3639,195.82286935117122
467.5306,181.5592256538232
469.6967,171.85220175555423
471.8622,165.6013878395197
474.0271,156.6063723703528
476.1914,159.81674215667408
478.3551,155.88208244103953
480.5182,147.45197686783854
482.6807,154.07600752264034
484.8426,159.00375501649523
487.0039,190.38479841969365
489.1647,221.96871521248886
491.3248,255.30508097128836
493.4843,258.1434690528124
495.6432,250.78345026073112
497.8015,232.07459281728097
499.9592,214.16646243686432
502.1163,163.85862251313893
504.2728,138.2006342980983
506.4287,125.24205740515049
508.5839,105.33245006569791
510.7386,96.67136925872296
512.8927,97.10837090988457
515.0461,94.39300997812825
517.199,106.5248404513161
519.3512,129.80341537338063
521.5029,173.32828672300616
523.6539,218.79900518084378
525.8043,222.51511969426224
527.9541,199.676177022641
530.1033,139.88172170020948
532.2519,94.03129626443592
534.3999,96.02444185397121
536.5472,78.51069866715466
538.694,73.98960594208143
540.8401,85.76070213173944
542.9856,93.82352494922225
545.1305,108.8776112500168
547.2748,118.97249695137452
549.4185,120.8577168817717
551.5615,111.53280467996024
553.704,128.297292776115
555.8458,142.30071248508284
557.987,157.69259383873873
560.1276,168.5724654459516
562.2675,205.68985433866396
564.4069,270.5942858630942
566.5456,292.73528330856243
568.6837,287.31236725844656
570.8212,211.82505536877238
572.958,166.8228624224423
575.0942,148.35530108410808
577.2299,129.17188235019307
579.3648,93.4721157335689
581.4992,77.55550945538812
583.6329,84.7215708020833
585.766,92.96980628453207
587.8985,124.29972156639747
590.0304,161.51082138164543
592.1616,184.9026092212439
594.2922,198.62458696105432
596.4222,162.92625462791148
598.5515,112.60711026240597
600.6802,78.41665027586555
602.8083,44.304369953547166
604.9358,44.06976379654316
607.0626,20.86232586290089
609.1888,42.881549769972025
611.3144,55.476720720471576
613.4393,88.09712348829976
615.5636,121.79204229259017
617.6873,146.36076047150527
619.8103,179.40256014528836
621.9327,176.5667219705747
624.0544,167.7025248099751
626.1756,121.3092457604339
628.2961,90.43616024187168
630.4159,57.88254246111592
632.5351,58.79766572063295
634.6537,62.58080274406552
636.7716,56.93122566707939
638.8889,62.548205999532456
641.0056,63.731014681971374
643.1216,70.778922029461
645.237,86.59119771975679
647.3518,53.167110722825555
649.4659,40.15592914272224
651.5793,35.656920551831945
653.6922,24.419352120981102
655.8043,18.34249066442726
657.9159,6.7756027522359545
660.0268,4.617954771047607
662.137,5.418745419231982
664.2466,9.327127261789201
666.3556,-7.957801269547872
668.4639,-7.286941836316828
670.5716,3.8388833983797213
672.6786,2.768925067987311
674.785,-7.1976045444948795
676.8907,-20.161520817628798
678.9958,-4.823567225908391
681.1002,-17.134285830235285
683.204,-13.194170504074464
685.3072,-13.153543949375717
687.4097,-4.1125970583257185
689.5115,-1.9213893192090836
691.6127,-3.979939135465429
693.7132,-3.9882648913210232
695.8131,4.45365478858912
697.9123,5.39588112239494
700.0109,10.93847528369065
702.1089,11.58149839211228
704.2061,26.425011457911296
706.3028,34.76907537552415
708.3987,66.9137507751384
710.4941,77.20909793925148
712.5887,68.70517648122427
714.6827,79.1520452423274
716.7761,68.99976237678106
718.8688,64.54838524728484
720.9608,67.84797052654085
723.0522,74.74857424176798
725.1429,84.30025174170646
727.233,120.05305762760986
729.3224,163.8570456577304
731.4112,210.6122683897902
733.4993,208.11877674294146
735.5867,187.92661953021366
737.6735,136.53584348344862
739.7596,110.94649345522294
741.845,85.95861293275539
743.9298,87.17224429380076
746.014,100.88742905652771
748.0974,125.55420786738296
750.1802,104.02262036393972
752.2624,110.24270492822939
754.3439,92.06449890205795
756.4247,87.83803852480469
758.5048,85.16335911520446
760.5843,92.24049511361272
762.6631,104.2194801087519
764.7413,143.30034676693936
766.8188,186.73312671229928
768.8956,258.5178501359517
770.9718,296.70454536168677
773.0473,294.2432381281162
775.1221,264.1839512068077
777.1962,254.2767044268976
779.2697,302.97151497568234
781.3426,368.71839749769174
783.4147,438.0673636077411
785.4862,426.1184212334624
787.557,367.12157392181416
789.6271,270.17682095857094
791.6966,177.23415795829237
793.7654,117.49357783377013
795.8335,88.40507172545495
797.901,53.21862959886198
799.9678,58.48424053545659
802.0339,62.95189308451722
804.0993,59.47157521048143
806.1641,50.39327424826729
808.2282,51.71697693807687
810.2916,37.24266951618051
812.3544,29.920337701679955
814.4164,19.59996684124917
816.4778,40.23154198236011
818.5385,43.46504797648504
820.5986,64.15046927278036
822.658,95.23778988575282
824.7166,157.7769931884045
826.7747,214.1180616013594
828.832,259.3609759674723
830.8886,304.905714988417
832.9446,323.5522547722579
834.9999,306.250568378003
837.0545,266.9006256291384
839.1085,196.90239328664507
841.1618,154.20583544249757
843.2143,111.41091421964711
845.2662,89.76759019898736
847.3175,83.52582284730295
849.368,69.93557073370266
851.4179,67.24679159203833
853.467,68.6094424568056
855.5155,71.67347969003288
857.5633,85.53885896765473
859.6105,76.30553524887102
861.6569,76.6234626374943
863.7027,54.542594474281145
865.7478,51.16288333375485
867.7922,56.58428124501302
869.8359,48.60673972552513
871.8789,42.33020972691838
873.9212,36.85464171475269
875.9629,38.67998573128659
878.0039,54.85619145023202
880.0441,60.93320815850177
882.0837,70.61098459444702
884.1226,97.7394688870869
886.1609,127.31860845933147
888.1984,163.49834975669694
890.2352,200.87863795151395
892.2714,208.4594165811303
894.3069,195.69062717410782
896.3416,155.02220917441502
898.3757,134.15410006911463
900.4091,107.3362357950474
902.4418,112.06855094751393
904.4739,125.35097904845213
906.5052,144.28345249911615
908.5358,141.7659024472506
910.5658,136.29825859776497
912.595,108.03044923791163
914.6236,78.51240129195969
916.6515,72.29404060387571
918.6786,52.52529223250201
920.7051,40.106080513741404
922.7309,50.58632925824361
924.756,48.415961875597986
926.7804,50.594901269531306
928.8041,53.62306985961038
930.8272,80.75038955945433
932.8495,76.72678174645159
934.8711,94.50216699048747
936.892,101.52646509418003
938.9123,104.89959491512604
940.9318,122.97147429565825
942.9506,131.04202002911336
944.9688,135.6111476791142
946.9862,121.37877149886322
949.003,92.19480438545236
951.019,75.8591580221863
953.0344,67.67174317042259
955.0491,62.08246983292713
957.063,66.4412473357495
959.0763,59.19798438411408
961.0888,61.952589018833464
963.1007,58.30496868874036
965.1119,54.90503022314192
967.1223,47.90267986829599
969.1321,50.197823321410624
971.1412,53.19036580066779
973.1495,33.63021202227105
975.1572,32.81726617052118
977.1641,52.40143209341693
979.1704,47.03261331078522
981.1759,45.360712818438856
983.1808,41.6356331418649
985.1849,27.107276352943927
987.1884,35.225544107200335
989.1911,42.84033778908599
991.1932,48.051558430798195
993.1945,55.30910663613088
995.1951,48.762882528363434
997.1951,51.462785677684906
999.1943,52.30871516665593
1001.1928,43.70056956320957
1003.1906,58.28824691219245
1005.1877,76.37164482144647
1007.1841,90.20066031593149
1009.1798,108.92518965689123
1011.1748,100.59512820356372
1013.1691,79.56037022593421
1015.1627,60.92080898803772
1017.1556,42.57633695830509
1019.1477,38.72684599596005
1021.1392,12.372227534463264
1023.1299,5.162372620006863
1025.12,15.44717217506161
1027.1093,15.026517070474938
1029.0979,26.900298022622678
1031.0859,47.06840559761656
1033.0731,58.33073009256498
1035.0596,51.18716133389319
1037.0454,48.337588564719
1039.0304,42.231900516288874
1041.0148,31.119985436473144
1042.9985,9.60173115082398
1044.9814,12.977025173693391
1046.9636,3.9457549234170983
1048.9452,9.057807688560274
1050.926,21.61307071823171
1052.9061,34.46143117096153
1054.8855,39.10277598915059
1056.8642,40.68699177058568
1058.8421,39.363964722025685
1060.8194,44.08358064336039
1062.7959,38.895724940839955
1064.7717,44.85028257987892
1066.7469,41.59713813693543
1068.7213,39.18617573996448
1070.695,48.01727910095008
1072.6679,61.04033154001502
1074.6402,81.25521589711013
1076.6117,82.91181440178286
1078.5826,79.41000847102885
1080.5527,53.99967869272621
1082.5221,38.48070486065342
1084.4908,18.802966228592254
1086.4587,7.666341665517621
1088.426,-2.6292901476250563
1090.3925,-7.384050606553615
1092.3584,12.801938919306963
1094.3235,11.428630827197026
1096.2879,19.2459773863377
1098.2515,32.70393075166385
1100.2145,55.002442885651135
1102.1767,68.29146542373621
1104.1382,101.8209494513319
1106.099,144.84084537093634
1108.0591,175.6511025668392
1110.0185,192.70166897492095
1111.9771,222.84249077455195
1113.9351,265.97351221808594
1115.8923,311.19467532945225
1117.8488,330.45591947284515
1119.8045,309.3071809005131
1121.7596,243.04839256014498
1123.7139,167.279484306359
1125.6675,126.85038356328994
1127.6204,119.71101608227787
1129.5726,132.21130634615906
1131.524,148.35117764066024
1133.4748,117.38055192939498
1135.4248,70.29934969246597
1137.3741,48.707490236170884
1139.3226,23.154892163814793
1141.2705,23.791473591627437
1143.2176,28.117152404289982
1145.164,41.08184624856926
1147.1097,41.83547249006108
1149.0546,31.277948083543038
1150.9989,19.659189565438282
1152.9424,2.479113159390863
1154.8852,-1.5123651075464295
1156.8272,-5.1153292331121065
1158.7686,-8.029848106517193
1160.7092,-11.505939514834267
1162.6491,-0.3435410269530621
1164.5883,-1.0424752674283582
1166.5267,13.64743514262068
1168.4644,31.52637799640229
1170.4014,34.79454095065114
1172.3377,66.75211134683832
1174.2732,95.39927617849025
1176.2081,148.03622177161253
1178.1421,240.76313349821874
1180.0755,323.58019524995996
1182.0082,366.8875885108565
1183.9401,366.93549152912635
1185.8713,306.5240788841119
1187.8017,218.5035214858002
1189.7315,150.4739871789377
1191.6605,90.53564162323607
1193.5888,63.03864897366702
1195.5163,43.63317247984628
1197.4432,24.269374761003633
1199.3693,19.64741800003742
1201.2947,5.067464137152115
1203.2193,-4.57032508392183
1205.1432,2.834212029872333
1207.0664,-0.9687171708611686
1208.9889,2.6710946361401966
1210.9106,-0.24613554937661775
1212.8316,-5.770190754374539
1214.7519,-1.1008515469233089
1216.6715,10.662159149113108
1218.5903,18.66912940737666
1220.5084,29.420347194888222
1222.4257,43.51610029197741
1224.3424,54.10667618477066
1226.2583,59.99236192423348
1228.1735,69.87344402026508
1230.0879,97.30020838284099
1232.0016,124.02294022320291
1233.9146,146.09192377959062
1235.8269,158.45744205001495
1237.7384,160.7697765715675
1239.6492,164.22920729676582
1241.5592,174.6860125704303
1243.4686,202.69046909508904
1245.3772,237.64285182641038
1247.285,299.09343369315854
1249.1922,345.14248524766924
1251.0986,397.39027405134414
1253.0042,444.63706421416043
1254.9092,504.33311587219305
1256.8134,557.9286847151458
1258.7169,613.124021389392
1260.6196,664.7193709620176
1262.5216,677.3649723688687
1264.4229,678.8110578985984
1266.3234,657.2078530662096
1268.2232,616.605576598596
1270.1223,590.4544406505721
1272.0207,550.1546512108974
1273.9183,527.7064083637871
1275.8151,539.1099066919097
1277.7113,570.4653355008704
1279.6067,628.1728787051754
1281.5014,710.8327145146775
1283.3953,838.3950148575013
1285.2885,963.0099445534441
1287.181,1072.5776600383535
1289.0727,1118.1483081179776
1290.9637,1078.222024872288
1292.854,998.0989351997742
1294.7435,911.4291532167049
1296.6323,847.0627830583604
1298.5204,760.3999197457299
1300.4077,715.1406498291743
1302.2943,668.0350522550565
1304.1802,656.833198818332
1306.0653,621.1851546336069
1307.9497,613.8409782471554
1309.8333,595.9007219933994
1311.7162,581.4144320683531
1313.5984,558.9321487090225
1315.4798,556.7039063382696
1317.3605,547.9297337896361
1319.2405,557.9096543296241
1321.1197,560.0936857454396
1322.9982,526.181840245192
1324.876,503.3241244360538
1326.753,441.22053966337955
1328.6293,377.37108223928306
1330.5048,318.8257440636728
1332.3796,274.8345132627468
1334.2537,230.4973747744457
1336.127,201.91431078836524
1337.9996,180.4353011891278
1339.8714,169.86032384221335
1341.7426,157.58935480874857
1343.6129,146.97236845125758
1345.4826,136.6093375563712
1347.3515,127.00023344099668
1349.2196,119.64502605594839
1351.087,121.54368408203834
1352.9537,118.79617500362895
1354.8197,116.65246508964537
1356.6849,128.51251942105148
1358.5493,128.77630191228639
1360.4131,142.69377519266402
1362.276,177.0649006037362
1364.1383,208.73963806011648
1365.9998,212.86794570577
1367.8606,200.74977959726596
1369.7206,202.83509366249444
1371.5799,203.42383982184793
1373.4384,205.6659679673682
1375.2962,175.26142595685917
1377.1533,152.86015959146522
1379.0096,123.66211291971695
1380.8652,106.26722846154377
1382.7201,86.675447500254
1384.5742,67.63671025648438
1386.4275,50.9009560841169
1388.2802,50.268123660666674
1390.132,37.83815115463983
1391.9832,40.710976231861025
1393.8336,24.886536179774055
1395.6832,32.11476787871328
1397.5322,22.295607960148118
1399.3803,16.87899273440013
1401.2278,11.56485828883524
1403.0745,10.503140542029712
1404.9204,5.193775296911156
1406.7656,2.536698251376208
1408.6101,-0.618154948616052
1410.4538,-6.020848682473343
1412.2968,0.07855884576451899
1414.139,-2.6199304196642856
1415.9805,6.33368468067539
1417.8213,15.939431479323275
1419.6613,28.29733724548248
1421.5006,41.95742908896199
1423.3391,75.3697338365975
1425.1769,104.33427789565098
1427.0139,148.3010869196874
1428.8502,205.97018551892933
1430.6858,266.4915968205886
1432.5206,272.46534189217533
1434.3547,272.99143913628393
1436.188,259.7699042308556
1438.0206,245.35075012391707
1439.8524,248.4839871657963
1441.6835,243.16962325331423
1443.5139,241.70766379845196
1445.3435,252.9481117814944
1447.1724,249.09096776565042
1449.0005,251.8862297846481
1450.8279,237.63389338130577
1452.6545,242.93395157958008
1454.4804,245.28639502708864
1456.3056,231.94121194210982
1458.13,224.79838809005827
1459.9536,219.05790691693676
1461.7766,200.86974962076442
1463.5987,167.7338952089811
1465.4202,148.7503206803292
1467.2409,121.51900135621275
1469.0608,96.7899110705323
1470.88,79.66302244199841
1472.6984,62.83830712142304
1474.5161,61.71573596298782
1476.3331,50.54527919249165
1478.1493,35.176906418576436
1479.9648,45.660586744431384
1481.7795,43.34628892147657
1483.5935,44.98398124452666
1485.4067,44.52363157493323
1487.2192,43.765207324208404
1489.031,48.808675458627874
1490.842,51.10400250681573
1492.6522,50.251154509309515
1494.4618,49.800096995606964
1496.2705,48.55079499269448
1498.0785,46.203213029557844
1499.8858,42.50731514967492
1501.6924,37.163064934491615
1503.4981,36.22042554038086
1505.3032,40.42935975208525
1507.1075,33.68982999214319
1508.911,32.80179827879988
1510.7138,27.165226293402498
1512.5159,24.13007538928042
1514.3172,25.396306648110794
1516.1178,19.313880910270314
1517.9176,16.882758762172898
1519.7166,15.752900597093458
1521.515,13.074266639479731
1523.3126,13.996816956250825
1525.1094,15.170511483583027
1526.9055,9.895310017684778
1528.7008,8.571172203059461
1530.4954,3.5980575852576067
1532.2893,5.125925624118111
1534.0824,7.204735743499839
1535.8747,0.13444731600247906
1537.6663,5.265019642178515
1539.4572,11.746412021236154
1541.2473,5.428583699733338
1543.0367,4.961493806764224
1544.8253,6.245101417137278
1546.6132,13.42936555604615
1548.4003,19.714245186233825
1550.1867,24.14969913614965
1551.9723,29.585686037101027
1553.7572,33.97216427889833
1555.5414,49.709091955495296
1557.3247,66.69642682112396
1559.1074,87.03412613292596
1560.8893,112.57214648107845
1562.6705,138.11044358541795
1564.4509,156.34897204005938
1566.2305,168.2376850580132
1568.0094,170.52653428880058
1569.7876,173.16546969956573
1571.565,168.6544395521882
1573.3417,170.0933903768925
1575.1176,172.48226701735922
1576.8928,183.12101261633507
1578.6672,196.65956859174457
1580.4409,218.69787453030204
1582.2138,229.6858680521264
1583.986,263.773484590358
1585.7575,278.0106572812786
1587.5282,311.5973166234349
1589.2981,334.5333903352676
1591.0673,342.41880301924397
1592.8358,351.25347593249813
1594.6035,345.7373269079757
1596.3704,340.7202702660883
1598.1366,325.15221686987405
1599.9021,313.9330741751687
1601.6668,295.212746386286
1603.4308,283.79113456820915
1605.194,281.36813683379404
1606.9564,303.49364845798544
1608.7182,328.7175619020467
1610.4791,379.9397665923054
1612.2394,441.06014866791304
1613.9988,503.8785904686242
1615.7576,565.2449699235915
1617.5156,590.2091599231823
1619.2728,578.8710277053138
1621.0293,526.9304346058125
1622.785,457.587236171794
1624.54,390.5912826810704
1626.2942,320.1924198355812
1628.0477,252.24048943135324
1629.8005,203.98533006248937
1631.5525,164.72677780068767
1633.3037,138.51466667779312
1635.0542,112.34882907838318
1636.804,93.42909600188858
1638.553,79.75529732425201
1640.3013,69.32726198712527
1642.0488,62.744818134607385
1643.7955,49.05779321752476
1645.5416,47.316014059255906
1647.2868,46.419306992601264
1649.0313,42.367497877201345
1650.7751,35.41041210850386
1652.5181,37.29787465828153
1654.2604,36.82971014420298
1656.0019,39.405742810958316
1657.7427,43.47579653494063
1659.4828,59.83969479848554
1661.222,71.5972606491708
1662.9606,98.94831653617737
1664.6984,118.99268419271351
1666.4354,131.18018436250455
1668.1717,121.56063659934895
1669.9072,100.68385914524373
1671.642,77.54966902657932
1673.3761,54.057882262907924
1675.1094,37.75831409828501
1676.8419,26.200779236187287
1678.5737,19.585092002508617
1680.3048,12.161066461135249
1682.0351,10.328516480102536
1683.7646,3.1372558058354514
1685.4934,3.0870980814738402
1687.2215,5.127856918785113
1688.9488,-1.540654101334212
1690.6754,-0.41862144926616907
1692.4012,3.2437837957415354
1694.1263,0.1963947364694718
1695.8506,-1.2109555567395205
1697.5742,1.8215659844935317
1699.297,-1.156195474006438
1701.0191,-2.2943947846301853
1702.7404,-0.8931752493757301
1704.461,1.4973427507625843
1706.1808,-4.272952242388868
1707.8999,2.2958282980227693
1709.6182,-0.49638441435683944
1711.3358,4.050340811159771
1713.0527,-0.06405987585975481
1714.7688,-2.2396503663511282
1716.4841,-4.376493911291988
1718.1987,-0.4746313875528472
1719.9126,0.8159400491697966
1721.6257,1.245227984747089
1723.338,-3.9867600031093673
1725.0496,2.1199836508599503
1726.7605,4.365506339646856
1728.4706,-2.450144564956588
1730.18,3.473078265186757
1731.8886,2.2352466351581484
1733.5964,2.73643231530815
1735.3036,1.9267070536349422
1737.0099,4.9061425707724595
1738.7156,4.324810568087713
1740.4204,7.3827826978862845
1742.1246,4.230130569225878
1743.8279,7.566925717336346
1745.5306,11.143239635146244
1747.2325,4.95914373991485
1748.9336,7.614709337469293
1750.634,9.460007684045252
1752.3336,8.595109959731218
1754.0325,8.47008725001578
1755.7307,9.035010554436553
1757.4281,19.1399507878302
1759.1247,15.034978774683395
1760.8206,12.870165148083373
1762.5158,14.595580390767651
1764.2102,15.761294856772082
1765.9039,8.717378754176963
1767.5968,15.863902133449614
1769.289,15.150934957883607
1770.9804,11.928547032133537
1772.6711,15.146808009344824
1774.361,14.50578742337737
1776.0502,15.355554656623099
1777.7386,16.646178946416
1779.4263,18.227729376534768
1781.1132,19.300274864296227
1782.7994,19.863884144740126
1784.4849,17.618625759903438
1786.1696,20.964568053184564
1787.8535,21.451779191795623
1789.5367,20.480327133303177
1791.2192,21.600279620755913
1792.9009,19.66170419239944
1794.5818,24.914668170476546
1796.2621,20.10923868061306
1797.9415,19.545482599288306
1799.6202,20.473466601889186
1801.2982,19.393257168347873
1802.9755,17.104920573861932
1804.6519,25.80852289969647
1806.3277,20.65413005606746
1808.0027,25.191807695105723
1809.6769,23.971621262400845
1811.3504,16.843635951624293
1813.0231,24.407916716731393
1814.6951,24.4145283432413
1816.3664,20.71353537259401
1818.0369,24.305002102084387
1819.7067,26.23899262187183
1821.3757,25.16557077906583
1823.044,23.834800158386003
1824.7115,26.896744092896228
1826.3783,24.75146567731261
1828.0443,27.34902773738375
1829.7096,28.439492851343857
1831.3741,30.42292332393683
1833.0379,26.299381175511797
1834.701,27.61892812218875
1836.3633,25.63162561709393
1838.0248,25.137534837164395
1839.6856,22.086716703020926
1841.3457,24.379231883909085
1843.005,25.915140828207342
1844.6636,26.39450374050179
1846.3214,30.76738056622716
1847.9785,23.833830986873267
1849.6349,23.793914376256282
1851.2904,31.947689869853974
1852.9453,30.59521636520512
1854.5994,26.586552440371577
1856.2528,28.471756367463087
1857.9054,30.200886152723996
1859.5572,30.073999517681273
1861.2083,31.391153881852944
1862.8587,26.902406364017253
1864.5084,22.557813769040905
1866.1572,28.00743263276661
1867.8054,29.0513192654591
1869.4528,25.23952969730874
1871.0994,29.672119667992803
1872.7453,33.349144664793215
1874.3905,29.520659878270905
1876.0349,32.986720165495285
1877.6786,30.747380088329237
1879.3215,30.552693878768494
1880.9637,26.40271546133502
1882.6051,31.797498455023913
1884.2458,33.43709621480312
1885.8858,30.471561777665684
1887.525,30.450947846233717
1889.1634,30.975306818413685
1890.8011,29.444690787602624
1892.4381,32.109151537444504
1894.0743,29.468740557136428
1895.7098,32.023509014784054
1897.3446,33.32350778380565
1898.9786,32.86878741738444
1900.6118,34.15939813546866
1902.2443,29.64538982931866
1903.8761,29.976812048600934
1905.5071,31.353714046528054
1907.1374,29.42614477654459
1908.7669,31.89415287855799
1910.3957,27.007786698214346
1912.0237,28.217094262218282
1913.651,32.422123327196516
1915.2776,26.972921367604926
1916.9034,32.669535533678214
1918.5285,26.41201270592194
1920.1528,25.750399438146346
1921.7764,33.384742020041614
1923.3992,30.865086483793917
1925.0213,27.691478527742092
1926.6427,25.06396354157411
1928.2633,30.082586638063262
1929.8832,28.547392679343062
1931.5023,29.658426226721417
1933.1207,31.415731556032227
1934.7383,29.569352646525275
1936.3552,27.61933316329292
1937.9714,28.215716475734084
1939.5868,24.858545677054437
1941.2015,27.79786357830254
1942.8154,27.483712741941574
1944.4286,22.766135452456155
1946.041,31.695173719493866
1947.6528,25.27086932504089
1949.2637,26.343263734131853
1950.8739,30.012398159092598
1952.4834,27.97831354881643
1954.0921,27.24105055207275
1955.7001,29.950649537847823
1957.3074,26.657150602717422
1958.9139,28.160593543750963
1960.5197,26.411017891446335
1962.1247,25.60846289469555
1963.729,25.352967538280538
1965.3325,22.79457055089867
1966.9353,28.783310407717565
1968.5374,25.41922535595927
1970.1387,25.95235335501266
1971.7393,22.482732110074522
1973.3392,22.41039906681803
1974.9383,22.03539144608922
1976.5366,24.05774624463011
1978.1342,23.427500238828813
1979.7311,24.344689964496197
1981.3273,24.209351723168055
1982.9227,23.221521572933412
1984.5173,26.431235329787896
1986.1112,21.48852857751197
1987.7044,24.643436635573778
1989.2968,23.145994608556208
1990.8885,21.396237354607862
1992.4795,28.04419950041745
1994.0697,22.33991545871133
1995.6592,21.733419361773898
1997.2479,26.724745118490475
1998.8359,24.46392642041225
2000.4232,22.500996691843042
2002.0097,18.335989112447393
2003.5955,19.11893663687998
2005.1805,25.14987203643554
2006.7648,25.07882789121959
2008.3484,24.055836529838913
2009.9312,23.030930030112074
2011.5133,26.80414022929932
2013.0946,24.725498734351646
2014.6752,25.645036884178666
2016.2551,21.762785770435087
2017.8342,23.428776228325262
2019.4126,24.39303887542576
2020.9902,17.455604095025464
2022.5672,22.316502026482866
2024.1433,24.57576263460055
2025.7188,21.98341566101604
2027.2935,26.939490601609336
2028.8674,25.094016732426397
2030.4406,18.597023060118246
2032.0131,23.09853834039582
2033.5849,18.7485911429998
2035.1559,22.547209806685558
2036.7261,24.494422482722612
2038.2957,22.340257096908417
2039.8645,26.234741330096327
2041.4325,24.527902639737206
2042.9998,19.1697682209345
2044.5664,29.8603650235127
2046.1323,20.749719805598744
2047.6974,23.687859026715927
2049.2617,18.8248089388904
2050.8254,17.810595557269806
2052.3883,21.74524470875376
2053.9504,19.428782042136007
2055.5118,21.261232988757882
2057.0725,20.99262278567295
2058.6325,18.322976457322525
2060.1917,17.602318818221704
2061.7502,21.430674499655893
2063.3079,20.15806795688735
2064.8649,19.984523430871704
2066.4212,20.760064960983883
2067.9767,21.284716386753672
2069.5315,20.508501340110215
2071.0856,23.731443240135604
2072.6389,18.053565300826918
2074.1915,25.074890498866935
2075.7433,22.495441630402823
2077.2945,20.665241240832927
2078.8448,20.38431165060119
2080.3945,20.4526749734992
2081.9434,26.82035311947547
2083.4916,22.98736779395186
2085.039,16.303740434146775
2086.5857,23.819492247404924
2088.1317,20.634644278033676
2089.677,24.149217332145483
2091.2215,20.113232009506362
2092.7652,21.676708668390233
2094.3083,19.689667465938726
2095.8506,16.402128342526424
2097.3921,22.46411104163127
2098.933,19.675635142709908
2100.4731,17.3367200005779
2102.0124,17.74738477329447
2103.5511,22.907648445551615
2105.089,21.067529824567544
2106.6261,22.527047488484016
2108.1626,22.236219804767515
2109.6983,23.195064915614054
2111.2332,22.903600740857556
2112.7675,20.81184496838125
2114.301,21.519815057032446
2115.8337,21.527528257540055
2117.3657,19.035001605434815
2118.897,19.29225192097232
2120.4276,23.949295834058105
2121.9575,25.056149781675288
2123.4866,20.012829961314026
2125.0149,18.919352319902984
2126.5426,18.27573260424262
2128.0695,22.181986371939843
2129.5956,21.78812899784434
2131.1211,24.19417563498601
2132.6458,22.20014121851358
2134.1698,22.106040441634036
2135.693,15.611887775553058
2137.2155,16.61769747041589
2138.7373,22.173483620249016
2140.2584,18.829260152901895
2141.7787,20.68504077448921
2143.2983,24.79083900283308
2144.8171,21.44666814890529
2146.3353,19.352541275769298
2147.8527,18.658471232021867
2149.3693,22.764470672734447
2150.8853,15.72055206639375
2152.4005,20.826727653841843
2153.9149,19.183009518715338
2155.4287,18.13940953638364
2156.9417,14.945939390386158
2158.454,19.052610582868226
2159.9655,21.609434466515793
2161.4764,16.91642220348872
2162.9865,22.1735847398525
2164.4958,18.630932852508522
2166.0045,17.488477096622347
2167.5124,16.996227841050285
2169.0195,20.354195279763914
2170.526,21.36238943677256
2172.0317,16.870820132543642
2173.5367,16.829496973920783
2175.0409,16.38842939903944
2176.5445,22.647626677740178
2178.0473,19.95709791597932
2179.5494,21.766851993236912
2181.0507,18.326897589422074
2182.5513,21.68724316677546
2184.0512,16.247897004268793
2185.5504,18.108867164001467
2187.0488,18.620161545593845
2188.5465,18.13178786757767
2190.0435,18.493753662283055
2191.5397,15.806066280722291
2193.0353,16.41873288897021
2194.5301,14.68176049504099
2196.0241,15.945155942761517
2197.5175,14.008925929141128
2199.0101,17.923076991737673
2200.502,10.437615528019762
2201.9931,20.2025477562253
2203.4835,19.16787979021605
2204.9733,17.033617541828363
2206.4622,20.04976673121986
2207.9505,14.46633290821201
2209.438,13.533321422128665
2210.9248,14.850737477630332
2212.4109,16.918586144044298
2213.8962,11.436872342190583
2215.3809,14.25560082370329
2216.8648,13.774776225847788
2218.3479,13.444403043333494
2219.8304,16.114485633122044
2221.3121,14.535028217731139
2222.7931,12.356034858533647
2224.2733,15.127509471552202
2225.7529,16.39945584924915
2227.2317,13.971877632811768
2228.7098,17.844778299432804
2230.1872,10.468161186586286
2231.6638,15.292029453298525
2233.1397,13.466386153914257
2234.6149,11.041234189857988
2236.0894,15.66657632789034
2237.5632,11.742415224359604
2239.0362,11.868753378948412
2240.5085,13.695593173915313
2241.9801,11.422936872831329
2243.4509,12.650786602311584
2244.921,10.379144374741898
2246.3904,11.808012076000267
2247.8591,8.487391488173174
2249.3271,9.26728427526713
2250.7943,12.747692016414803
2252.2608,13.078616198075963
2253.7266,9.560058179233508
2255.1917,13.442019188084245
2256.656,13.824500357224437
2258.1197,11.257502684830158
2259.5826,11.19102703083253
2261.0447,10.125074142587692
2262.5062,11.559644655541518
2263.9669,14.644739103889236
2265.4269,8.030357906229668
2266.8862,6.716501334714238
2268.3448,10.153169581190866
2269.8026,12.69036277034246
2271.2598,10.228080925320256
2272.7162,7.066323942371923
2274.1719,5.855091615464318
2275.6268,10.344383667901141
2277.0811,10.684199764435206
2278.5346,7.624539466375495
2279.9874,10.065402228189058
2281.4395,11.056787428097664
2282.8908,9.198694343669004
2284.3414,10.341122141903014
2285.7914,4.684069897812748
2287.2406,4.277536583000099
2288.689,9.121521122226227
2290.1368,5.816022397476942
2291.5838,9.061039199522895
2293.0302,10.956570260974473
2294.4758,12.802614223831725
2295.9206,9.599169620529096
2297.3648,6.796234855474935
2298.8082,8.043808237085997
2300.251,8.591888005816656
2301.693,7.190472321683302
2303.1343,9.63955925878345
2304.5748,8.789146819309977
2306.0147,9.189232909060209
2307.4538,7.789815345940099
2308.8922,9.790891855963338
2310.3299,7.49246008724559
2311.7669,8.64451758999357
2313.2031,10.697061839489535
2314.6387,7.5000902245705845
2316.0735,6.203600027103207
2317.5076,6.057588453953059
2318.941,10.6620526499499
2320.3737,10.216989699347664
2321.8056,11.022396579779809
2323.2369,13.128270166709882
2324.6674,12.684607225377476
2326.0972,9.341404389739523
2327.5263,17.19865816690684
2328.9547,13.656364970576206
2330.3823,19.464521042457946
2331.8092,10.073122487698683
2333.2355,12.232165216799956
2334.661,9.14164503953208
2336.0858,6.201557643343676
2337.5098,9.111898624266985
2338.9332,6.372663516318667
2340.3558,4.933847762396439
2341.7778,7.6454467416713925
2343.199,8.40745578397619
2344.6195,11.169870142689007
2346.0393,8.232684987113558
2347.4583,9.895895374854803
2348.8767,9.359496281190928
2350.2943,5.973482582441221
2351.7113,4.437849061330013
2353.1275,7.45259044084689
2354.543,1.9177013996030041
2355.9578,4.983176541683605
2357.3718,5.599010451997017
2358.7852,5.315197665619749
2360.1978,7.08173266163827
2361.6098,6.698609865987109
2363.021,3.9658236337835575
2364.4315,3.7333682531587584
2365.8413,6.751237972585756
2367.2504,5.169427003203907
2368.6587,9.33792948864027
2370.0664,5.406739520827628
2371.4733,5.075851098319561
2372.8795,5.495258165602266
2374.285,8.664954616403463
2375.6899,6.484934289498312
2377.0939,7.705190937012446
2378.4973,4.525718246222212
2379.9,5.496509827352071
2381.3019,2.167559245369347
2382.7032,8.288860010276295
2384.1037,9.660405610399579
2385.5035,9.582189451177314
2386.9027,3.104204841443547
2388.3011,6.576444994210448
2389.6987,3.198903091448159
2391.0957,6.8215722493624185
2392.492,4.94444555216991
2393.8876,2.767516015871692
2395.2824,7.290776607024384
2396.6765,5.9142202645094955
2398.07,-0.06216014569922379
2399.4627,6.711628183229806
2400.8547,4.0355786791080135
2402.246,7.70968470263054
2403.6366,5.433939574136772
2405.0265,6.758336536869265
2406.4156,6.332868779731285
2407.8041,4.857529424042653
2409.1918,3.082311527794573
2410.5789,1.7572081004029627
2411.9652,2.382212120460693
2413.3508,3.7073165489885866
2414.7358,4.482514323185335
2416.12,3.8077983431765716
2417.5035,4.533161464262747
2418.8863,4.658596503666409
2420.2684,4.484096233278528
2421.6497,5.009653378404103
2423.0304,5.135260619507257
2424.4104,4.560910586955565
2425.7896,0.43659585976404003
2427.1682,3.3123089713386094
2428.546,3.48804245071927
2429.9232,1.9137887938229738
2431.2996,6.889540461686273
2432.6753,4.8152898962078865
2434.0503,9.541029470391123
2435.4246,1.716751509086464
2436.7982,5.092448241734097
2438.1711,8.568111880606722
2439.5433,2.543734587052576
2440.9148,5.219308436738814
2442.2856,2.1948254798952576
2443.6557,3.4202777145586865
2445.025,3.245657116817668
2446.3937,3.4709556285580305
2447.7617,2.846165159209086
2449.1289,3.6712775834905855
2450.4955,4.596284747660711
2451.8613,5.521178461264867
2453.2265,8.04595048788562
2454.5909,2.5205925358937975
2455.9546,3.9450962332007435
2457.3177,-0.6805468174881071
2458.68,4.993654947081744
2460.0416,4.467699888827468
2461.4025,4.34158631972975
2462.7627,6.765312507092283
2464.1222,4.188876674802941
2465.4811,5.212276979096508
2466.8392,5.635511534319008
2468.1966,2.008578402693722
2469.5533,7.181475590088851
2470.9093,3.654201082286818
2472.2645,2.226752793255315
2473.6191,1.9991286004200362
2474.973,7.0213263589391985
2476.3262,6.493343903979735
2477.6787,6.66517900049535
2479.0305,8.436829348506329
2480.3816,3.3582925813812707
2481.7319,1.9295662481204587
2483.0816,5.550647864141311
2484.4306,2.8215349255655653
2485.7789,6.542224873008514
2487.1264,7.462715118870072
2488.4733,3.733003010127952
2489.8195,6.65308581913272
2491.165,7.0229607809049455
2492.5097,5.892625063934361
2493.8538,5.2120757664810995
2495.1972,6.281309927879079
2496.5398,3.5003245353414627
2497.8818,2.819116513268348
2499.2231,4.337682751056633
2500.5637,3.7060201099120675
2501.9035,1.3241254076636153
2503.2427,8.091995425080029
2504.5812,5.059626929688854
2505.919,4.277016608097689
2507.256,4.89416109631788
2508.5924,4.561056987590604
2509.9281,6.777700826215451
2511.2631,2.7440891108814967
2512.5974,5.160218272500785
2513.9309,3.976084714544527
2515.2638,2.2916847888817244
2516.596,3.95701480762056
2517.9275,5.972071059952377
2519.2583,3.986849795498401
2520.5884,5.601347204159168
2521.9178,2.61555943596678
2523.2465,4.579482584939882
2524.5745,4.143112718941559
2525.9018,9.056445860040093
2527.2284,5.819477988872642
2528.5543,3.6822049955119738
2529.8796,5.994622711836108
2531.2041,4.656726932901016
2532.5279,2.368513393816464
2533.851,5.379977783124936
2535.1735,5.941115765683833
2536.4952,3.701922952550767
2537.8163,7.612394895372276
2539.1366,5.572527108775645
2540.4562,3.132315031264284
2541.7752,2.641754045616331
2543.0935,5.700839503286808
2544.411,7.609566729313222
2545.7279,6.06793099172468
2547.0441,5.325927482454617
2548.3596,4.983551332757216
2549.6744,8.190797620627364
2550.9885,6.097661374224479
2552.3019,7.304137539800017
2553.6146,5.260221002628882
2554.9266,5.415906574944572
2556.2379,5.071189016378419
2557.5485,8.626063032402705
2558.8585,5.93052327777783
2560.1677,4.784564321003629
2561.4762,4.588180671274671
2562.7841,6.091366789939947
2564.0913,5.744117092466631
2565.3977,5.796425933408273
2566.7035,2.4482876098772692
2568.0086,5.799696361021795
2569.313,4.9506464015072
2570.6167,4.5511318880018905
2571.9197,6.451146927667821
2573.222,8.900685582155667
2574.5236,7.049741848604661
2575.8246,5.04830963514717
2577.1248,6.996382779418198
2578.4244,-0.5060449314303384
2579.7232,3.641020219789688
2581.0214,8.987577005655247
2582.3189,7.733624162333101
2583.6157,6.829160336114249
2584.9118,8.024184095953508
2586.2072,5.218693942514079
2587.5019,7.5126882962173624
2588.7959,5.756165525297831
2590.0893,6.999123922863099
2591.3819,9.191561724459135
2592.6739,6.7834770956406985
2593.9652,9.474868110046948
2595.2557,7.515732773482306
2596.5456,8.506068997002508
2597.8348,9.645874616506035
2599.1234,9.185147382830685
2600.4112,8.22388495035549
2601.6983,8.362084881608055
2602.9848,10.549744656877138
2604.2705,9.486861672830685
2605.5556,8.1234332206392
2606.84,5.709456496604595
2608.1237,6.744928615794471
2609.4067,8.679846636181871
2610.689,7.214207548290574
2611.9707,8.948008255845927
2613.2516,8.181245590431203
2614.5319,6.0639162941495925
2615.8115,9.646017027291848
2617.0903,7.077544389509605
2618.3685,4.658494883994329
2619.6461,4.838864943162129
2620.9229,11.418650952844146
2622.199,6.897849250482949
2623.4745,7.576456059334568
2624.7493,7.5044675336766105
2626.0234,4.681879752022084
2627.2968,5.458688717839365
2628.5695,6.08489038777806
2629.8415,6.36048066390088
2631.1128,3.2854553874216634
2632.3835,7.209810335949484
2633.6535,6.883541254238878
2634.9228,6.056643814946277
2636.1914,6.579113621892759
2637.4593,6.75094621833297
2638.7265,9.872137081730429
2639.9931,7.692681622039231
2641.259,7.012575150492097
2642.5242,5.681812901394935
2643.7887,6.750390038927925
2645.0525,4.968301670453094
2646.3156,7.385542835828623
2647.5781,5.80210852522967
2648.8398,6.217993654975977
2650.1009,7.783193083366221
2651.3613,9.247701606519136
2652.6211,2.9115139427215766
2653.8801,4.274624717783382
2655.1385,6.087028528399273
2656.3961,5.998719928517765
2657.6531,8.559693411217076
2658.9094,3.5699434095882694
2660.1651,7.27946427112547
2661.42,7.788250307623414
2662.6743,5.496295758082191
2663.9279,6.103594783619421
2665.1808,6.060141490389782
2666.433,5.315929923511995
2667.6846,6.970954067503406
2668.9354,3.925207853722071
2670.1856,8.928685143816523
2671.4351,8.381379760183243
2672.6839,7.9332854359318645
2673.9321,7.484395820358266
2675.1795,4.984704483425446
2676.4263,9.634204920252479
2677.6724,9.182890576111404
2678.9179,8.580754799932222
2680.1626,7.927790848816052
2681.4067,10.273991894056465
2682.6501,8.969351027669155
2683.8928,6.46386123892988
2685.1348,6.757515427420934
2686.3761,8.200306428086009
2687.6168,8.142227008293652
2688.8568,4.483269853409382
2690.0961,4.073427567376456
2691.3348,5.012692709305448
2692.5727,8.801057797572696
2693.81,6.538515300427605
2695.0466,4.925057598109035
2696.2826,6.310677005470673
2697.5178,5.145365788115683
2698.7524,4.079116148540443
2699.9863,7.161920237787712
2701.2195,11.143770166109086
2702.452,7.324657972136983
2703.6839,6.154575583066137
2704.9151,9.883514852844705
2706.1456,11.061467573875106
2707.3755,5.338425439724627
2708.6046,12.064380033345909
2709.8331,11.839322884307322
2711.0609,5.6632454015334694
2712.2881,7.486138875555714
2713.5145,10.457994540272992
2714.7403,9.878803554722868
2715.9654,11.898556973362961
2717.1899,14.567245751862856
2718.4136,10.234860726906582
2719.6367,13.451392589505751
2720.8591,9.816831928323346
2722.0809,13.181169197508463
2723.3019,14.54439475304191
2724.5223,14.056498819092809
2725.7421,11.61747147438636
2726.9611,12.777302657082789
2728.1795,15.535982189167608
2729.3972,12.593499764853313
2730.6142,10.3998449229926
2731.8306,8.705007076503197
2733.0462,5.808975534304391
2734.2612,6.7117395182654285
2735.4756,7.26328819216581
2736.6892,9.813610652667656
2737.9022,10.062695923800213
2739.1145,6.910532931456636
2740.3262,9.85711050090314
2741.5372,9.602417388300633
2742.7475,3.746442251238925
2743.9571,5.939173651283671
2745.1661,4.080600112536132
2746.3744,3.3707100997058212
2747.582,5.259492036696258
2748.7889,0.546934313703904
2749.9952,3.7830252683302845
2751.2008,2.3677532327076136
2752.4057,2.5511065011378697
2753.61,3.9830733442455006
2754.8136,1.9636420071439247
2756.0165,4.8428006951158125
2757.2188,3.120537593807427
2758.4204,5.296840840437042
2759.6213,1.5716985410175681
2760.8215,2.3950987485935222
2762.0211,-1.1329704995075218
2763.22,3.0374788100910273
2764.4182,0.3064460091410339
2765.6158,1.2239303990196149
2766.8127,3.039931278039422
2768.009,4.204447932273826
2769.2045,0.6674796173968929
2770.3994,3.7290255470382156
2771.5936,2.0390849281526187
2772.7872,2.0476569304046635
2773.9801,-0.29525929693193476
2775.1723,-0.13966462506001065
2776.3639,0.5644430244579723
2777.5548,0.2670671253091328
2778.745,3.418211145536201
2779.9346,4.21787855051123
2781.1235,-0.9839272285758192
2782.3117,0.5627971972862298
2783.4992,-0.9419349534584356
2784.6861,0.9518895320064189
2785.8723,1.594293276427198
2787.0579,-0.06470110696857034
2788.2428,2.47492897910373
2789.427,0.6132067782927528
2790.6106,0.5501555094978805
2791.7935,2.735798385486433
2792.9757,1.220158613524184
2794.1573,3.003259373518951
2795.3382,0.08512383317696148
2796.5184,0.16577513017184486
2797.698,2.5952364013260087
2798.8769,-1.1264692181958615
2800.0551,0.7506813808185413
2801.2327,-1.5232774389909878
2802.4096,4.101688677508559
2803.5859,2.1256293029917828
2804.7615,-0.05140603088357665
2805.9364,1.6706321862839495
2807.1106,2.1917939784420497
2808.2842,3.0621293528321054
2809.4572,5.081688294777582
2810.6294,4.900520758980665
2811.801,1.8186766493266617
2812.972,6.886205820695682
2814.1423,8.203158109781079
2815.3119,9.569583284414183
2816.4808,8.835531030394712
2817.6491,13.201050937826587
2818.8167,9.916192508458423
2819.9837,12.081005112028322
2821.15,21.24553801911246
2822.3157,23.609840379477
2823.4807,24.823961130432707
2824.645,27.237948973191973
2825.8086,31.451852360727592
2826.9716,36.11571947363288
2828.134,37.42959817798269
2829.2957,46.793535978694635
2830.4567,49.05758000639044
2831.617,50.3217769237564
2832.7767,55.386172902903084
2833.9358,54.900813612723255
2835.0941,51.76574416824802
2836.2519,54.08100913550031
2837.4089,49.146652562845674
2838.5653,46.862717957839536
2839.7211,42.72924833657084
2840.8761,42.59628624650139
2842.0306,38.46387380780048
2843.1843,43.582052714674546
2844.3374,42.40086427669135
2845.4899,43.970349367598075
2846.6417,43.090548437133336
2847.7928,42.91150149533223
2848.9433,45.583248121324424
2850.0931,49.455827465124564
2851.2422,48.07927822091487
2852.3907,47.35363858831926
2853.5385,46.628946286168905
2854.6857,47.655238559758644
2855.8323,49.28255218809381
2856.9781,53.8109234736274
2858.1233,48.84038822598688
2859.2679,56.42098171669048
2860.4118,57.95273872885257
2861.555,58.585693481377746
2862.6976,57.819879613643174
2863.8395,63.20533017916912
2864.9808,57.892077653277084
2866.1214,62.980153879235274
2867.2614,65.66959012139108
2868.4007,61.21041701429046
2869.5393,68.45266453578341
2870.6773,71.09636205161583
2871.8146,70.991538243007
2872.9513,72.2882210802126
2874.0874,68.48643782357289
2875.2227,73.23621501054598
2876.3574,71.78757849372556
2877.4915,78.99055339334328
2878.6249,75.94516411175493
2879.7577,76.20143426141085
2880.8898,75.35938669530974
2882.0212,78.619043504436
2883.152,80.53042602618015
2884.2821,83.84355481174228
2885.4116,81.85844960701826
2886.5405,84.3751293194684
2887.6686,87.1436120379686
2888.7962,88.11391500764341
2889.923,88.53605460218128
2891.0493,86.21004631413159
2892.1748,85.33590475068307
2893.2997,84.4636436569241
2894.424,84.69327592458399
2895.5476,84.32481360075559
2896.6706,85.85826788559908
2897.7929,83.99364913602645
2898.9145,85.18096685036707
2900.0355,82.8702296870138
2901.1559,84.91144545254984
2902.2756,87.4046211248561
2903.3946,83.19976283269908
2904.513,82.14687583079902
2905.6308,82.24596454187855
2906.7479,79.74703256719158
2907.8643,84.65008268553237
2908.9801,80.45511687822486
2910.0953,78.7621362800922
2911.2098,85.02114122140632
2912.3236,77.28213124481786
2913.4368,83.04510504276602
2914.5494,80.26006053486871
2915.6613,80.72699481029282
2916.7725,80.8959041556046
2917.8831,77.0667840501004
2918.9931,77.08962916411754
2920.1024,74.71443339732551
2921.211,72.99118987849758
2922.319,72.36989098926261
2923.4264,69.45052838133768
2924.5331,72.03309298274084
2925.6391,68.217575026985
2926.7445,70.60396402725206
2927.8493,72.54224881454824
2928.9534,70.48241751384006
2930.0569,72.07445752467166
2931.1597,71.36835554176295
2932.2619,67.91409753908935
2933.3634,72.11166877694268
2934.4643,77.41105383647385
2935.5645,75.01223657771706
2936.6641,75.31520008659601
2937.763,77.76992669891202
2938.8613,79.97639799731446
2939.959,76.33459478675343
2941.056,75.79449707241506
2942.1523,73.65608409613955
2943.248,69.41933434182218
2944.3431,62.63422555679736
2945.4375,62.70073479420621
2946.5313,57.26883848084762
2947.6244,52.7385124165131
2948.7169,46.90973182830585
2949.8087,43.48247141594395
2950.8999,38.70670541004818
2951.9904,34.78240760641465
2953.0803,34.75955141377243
2954.1696,34.038109893026494
2955.2582,30.91805575748634
2956.3462,32.14936138008037
2957.4335,28.98199882455644
2958.5202,30.71593983316881
2959.6062,30.25115585835176
2960.6916,26.78761804538018
2961.7764,31.025297237017433
2962.8605,25.3641640081507
2963.9439,30.60418862341421
2965.0267,27.19534109380058
2966.1089,29.887591124260545
2967.1905,28.23090814779147
2968.2714,27.3752612985148
2969.3516,27.720619428242927
2970.4312,28.816951115035646
2971.5102,24.164224659746562
2972.5885,29.062408075059775
2973.6662,25.211469132017164
2974.7432,26.51137531103653
2975.8196,28.712093840420984
2976.8954,26.96359168335989
2977.9705,26.865835515921688
2979.045,25.81879174453891
2980.1188,26.722426506985762
2981.192,27.126705682848534
2982.2645,28.881594884489246
2983.3364,26.137059453002866
2984.4077,26.64306444066843
2985.4783,24.049574638394386
2986.5483,24.80655457065857
2987.6177,20.76396852144306
2988.6864,18.771780526664426
2989.7545,19.329954414599523
2990.8219,17.138453825807446
2991.8887,17.14724220754776
2992.9548,14.906282835695482
2994.0204,12.665538814653221
2995.0852,10.27497309976076
2996.1495,11.084548519702519
2997.2131,9.294227800413168
2998.276,9.303973556981916
2999.3383,8.413748311555715
3000.4,4.573514493241788
3001.4611,4.883234447009894
3002.5215,5.492870472094637
3003.5812,5.152384818898298
3004.6404,7.2617396828944685
3005.6989,4.720897208032902
3006.7567,4.029819465645961
3007.8139,2.7884684798570447
3008.8705,-0.9531937655086438
3009.9264,1.85479468548942
3010.9818,1.3624053111974739
3012.0364,1.2196095714138053
3013.0905,3.1263789123126635
3014.1439,2.482684767872204
3015.1966,0.8384985408067998
3016.2487,1.8937916090039941
3017.3002,0.6485353419663298
3018.3511,1.4027010902584607
3019.4013,1.6062601979596849
3020.4509,2.1091839951223044
3021.4998,1.511443795736028
3022.5481,-0.5369891073012631
3023.5958,2.3638565637938775
3024.6428,-1.886042548673922
3025.6892,1.9132901739614034
3026.735,-0.5881498080690246
3027.7802,1.6096329463330257
3028.8247,1.9066397538823576
3029.8685,1.102871915197447
3030.9118,3.6483307118303863
3031.9544,0.9930174143045587
3032.9963,5.286933256660042
3034.0376,2.1300794630067212
3035.0783,1.5224572045851552
3036.1184,2.964067631335114
3037.1578,3.2549118779718
3038.1966,4.044991049569759
3039.2348,2.6343062186544213
3040.2723,1.5728584173012923
3041.3092,5.060648651242838
3042.3455,1.9976779104829419
3043.3811,3.083947134419004
3044.4161,4.919457242471648
3045.4505,2.104209123222036
3046.4842,4.238203616056756
3047.5173,6.771441539320296
3048.5498,2.7039236689751203
3049.5816,4.4856507132692816
3050.6128,2.2166233534116024
3051.6434,5.59684222575442
3052.6734,7.576307944483839
3053.7027,5.90502106781754
3054.7314,6.782982078210134
3055.7594,6.110191399066029
3056.7868,6.786649385959812
3057.8136,6.312356333364159
3058.8398,7.237312467885264
3059.8653,6.311517953005756
3060.8902,8.334972879835158
3061.9145,9.157677276367805
3062.9381,8.179631087248318
3063.9612,7.450834165544558
3064.9835,6.621286282528075
3066.0053,7.540987134962085
3067.0264,10.05993635339696
3068.0469,6.278133492973188
3069.0668,10.395578008231908
3070.086,8.262269290932926
3071.1046,5.528206628880273
3072.1226,6.543389227255284
3073.1399,9.707816235957246
3074.1567,8.921486739451558
3075.1727,6.334399725125454
3076.1882,5.746554091151319
3077.203,8.75794867235754
3078.2173,3.56858224610696
3079.2308,6.578453502182953
3080.2438,9.837561094683075
3081.2561,7.69590361192034
3082.2678,5.2534795438321655
3083.2789,3.0602873033969384
3084.2893,6.51632525105825
3085.2991,4.071591716656824
3086.3083,7.076084964870134
3087.3169,6.279803219659746
3088.3248,3.9327446342263723
3089.3321,4.584907298972707
3090.3388,1.4362892649739951
3091.3449,2.8368885374564154
3092.3503,5.63670310728326
3093.3551,5.285730936948934
3094.3593,4.5339699325808205
3095.3629,5.631417947448996
3096.3658,7.028072789483837
3097.3681,7.473932210301548
3098.3698,7.118993891237603
3099.3708,4.713255438888159
3100.3713,3.456714388659438
3101.3711,3.4993682288251184
3102.3702,-1.1087855869082697
3103.3688,3.632250360172126
3104.3667,5.322484565547167
3105.364,4.061925488375214
3106.3607,6.750581534589785
3107.3568,3.3884610695051522
3108.3522,5.525572390929773
3109.347,3.1619237627874996
3110.3412,4.447523393746469
3111.3348,4.5823794608555755
3112.3277,6.716500096688495
3113.32,5.299893387995109
3114.3117,5.5325673543603004
3115.3028,3.8645299623700256
3116.2932,0.4457891232845652
3117.2831,1.4263527097189064
3118.2723,7.6062285898301445
3119.2608,6.735424617511851
3120.2488,2.1639485705953145
3121.2361,4.891808159557577
3122.2229,5.269011073236203
3123.209,6.845564951550668
3124.1944,5.321477381730348
3125.1793,1.096755882548969
3126.1635,1.521407919565493
3127.1471,3.1454409473713225
3128.1301,5.418862405343785
3129.1125,5.741679701405805
3130.0942,4.5139001892916815
3131.0753,5.785531165318919
3132.0558,2.5065798806660258
3133.0357,3.677053528656197
3134.015,2.296959277546832
3134.9936,2.716304258824797
3135.9716,5.3850955810073655
3136.949,2.603340325448775
3137.9258,5.221045519652305
3138.902,3.2882181650878417
3139.8775,3.204865211014809
3140.8524,6.57099357381046
3141.8267,1.2866101378033958
3142.8004,4.251721721612282
3143.7735,3.516335130989681
3144.7459,7.030457129170946
3145.7178,7.294094444228072
3146.689,1.057253733928491
3147.6596,4.069941583098691
3148.6295,6.732164565992626
3149.5989,1.4439292161648383
3150.5676,5.155241999848222
3151.5357,3.3161093688363863
3152.5032,5.42653772337052
3153.4701,2.8865334305307213
3154.4364,6.9961028031317145
3155.402,5.905252125122889
3156.367,6.363987610492613
3157.3315,2.522315414176729
3158.2952,4.830241627471213
3159.2584,3.1877723164488834
3160.221,2.9449134988801458
3161.1829,7.001671160657684
3162.1442,2.608051258225046
3163.105,3.5140596780090734
3164.065,5.069702280356093
3165.0245,4.624984890471842
3165.9834,3.429913282865031
3166.9416,1.9844931857945287
3167.8993,1.4387302932200692
3168.8563,4.892630279256458
3169.8127,2.6961988036311992
3170.7684,2.19944147714549
3171.7236,5.352363883638544
3172.6782,5.15497158495516
3173.6321,3.9572700894165016
3174.5854,4.709264853794016
3175.5381,3.7609612952864495
3176.4902,2.912364783999904
3177.4417,4.713480652430869
3178.3926,5.814314203952188
3179.3428,2.3148706948018996
3180.2924,4.615155323074899
3181.2415,6.66517326371738
3182.1899,3.6149296455239783
3183.1377,4.864429530637603
3184.0848,4.5636779450518645
3185.0314,5.612679866116083
3185.9773,3.861440225542796
3186.9227,5.159963898917745
3187.8674,3.0582557232122713
3188.8115,5.656320483798078
3189.755,3.7041629354643106
3190.6979,4.451787776436912
3191.6402,4.349199667900196
3192.5818,3.096403226520599
3193.5229,6.393403025472562
3194.4633,4.090203606966496
3195.4031,4.536809449278783
3196.3423,8.083224989783766
3197.2809,3.029454620487698
3198.2189,3.1255026525645806
3199.1563,6.321373366893869
3200.0931,3.967071013099997
3201.0292,6.912599777593659
3201.9648,2.8079638071148434
3202.8997,3.853167179277541
3203.834,5.048213943616104
3204.7677,4.793108111133214
3205.7008,3.537853642349412
3206.6333,4.28245444985416
3207.5652,4.676914410858383
3208.4964,7.4712373597484625
3209.4271,6.265427084141635
3210.3571,7.359487296942762
3211.2865,5.103421648402436
3212.2154,3.9972337151763746
3213.1436,2.790927022886082
3214.0712,4.0345050571807235
3214.9982,3.627971275800197
3215.9246,3.121329096139349
3216.8503,6.964581899313312
3217.7755,4.107733035223929
3218.7001,4.9507857841272225
3219.624,4.743743385201888
3220.5473,4.486609028118764
3221.4701,7.279385855111252
3222.3922,5.672076963546664
3223.3137,4.714685377998458
3224.2346,3.8072140663193164
3225.1549,7.39966594921507
3226.0746,4.892043909319407
3226.9937,7.234350755269361
3227.9121,4.576589246781518
3228.83,6.568762071228966
3229.7473,3.9108718702188927
3230.6639,6.0529212196708695
3231.5799,3.1949126563957484
3232.4954,4.33684865667517
3233.4102,4.928731664841648
3234.3244,1.220564081859211
3235.238,8.012348259404567
3236.151,5.454086536948788
3237.0634,3.5957811738394594
3237.9752,6.437434374883301
3238.8864,6.479048308929221
3239.797,6.2206250804517795
3240.7069,5.812166729135058
3241.6163,4.753675232456883
3242.5251,5.0451525097734145
3243.4332,7.536600432904059
3244.3408,4.778020823216698
3245.2477,6.21941542671321
3246.154,5.560785941615263
3247.0598,7.252134003950373
3247.9649,8.993461194138195
3248.8694,4.4347690200770415
3249.7733,3.4260588997306103
3250.6766,6.6673322067149146
3251.5793,4.058590280385372
3252.4814,6.999834393424084
3253.3829,5.141065777927249
3254.2838,6.53228559599272
3255.1841,4.073494958307692
3256.0838,6.4646949102365
3256.9829,7.305886456408533
3257.8814,4.847070536806228
3258.7792,3.5382480183531566
3259.6765,5.429419719502183
3260.5731,8.720586423323697
3261.4692,5.36174885859389
3262.3647,3.052907666883084
3263.2595,6.444063436144119
3264.1538,4.235216723800752
3265.0474,5.1263680228361075
3265.9404,5.967517783881137
3266.8329,6.508666406303111
3267.7247,5.549814229794119
3268.616,5.940961528959585
3269.5066,6.1321085229067895
3270.3966,5.123255371333396
3271.286,4.714402172615982
