RamanShift,CorrectedData
30.1047,154.76530221969182
32.3739,142.66226588246678
34.6426,129.5592279975887
36.9109,117.2061855907819
39.1787,109.15313439217836
41.4461,99.05006895984815
43.7131,85.94698276033
45.9796,73.79386826966186
48.2456,63.69071710441183
50.5112,52.68752014320931
52.7764,44.234267627776504
55.0411,31.03094927296039
57.3054,18.077554351265288
59.5692,4.974071824885993
61.8326,-1.3295095247582385
64.0955,-11.583200965988855
66.3579,-20.437000485327175
68.6199,-33.59079035311687
70.8815,-36.9942486740668
73.1426,-35.346717980890205
75.4032,-22.6971712337561
77.6634,21.805771720879065
79.9231,141.61371778129939
82.1824,418.6282736277314
84.4412,885.6510445242643
86.6995,1502.2836315487048
88.9574,2113.8276269223493
91.2148,2542.4846078436576
93.4717,2740.6061303728134
95.7282,2781.1937251451545
97.9842,2784.4988953899583
100.2398,2760.1231165245636
102.4949,2707.2178361213205
104.7495,2691.7344741513493
107.0036,2636.2244235135913
109.2573,2610.7890501896427
111.5105,2527.079693798856
113.7632,2459.0476678526934
116.0154,2405.1942605918207
118.2672,2329.270735666426
120.5185,2267.078332674756
122.7693,2184.36826792235
125.0197,2115.791735043963
127.2696,2065.399905830669
129.519,2026.443930915625
131.7679,2003.0249402779878
134.0163,1968.5440436324748
136.2642,1963.1023306635557
138.5117,1942.100871370259
140.7587,1914.090716120589
143.0052,1873.022895861544
145.2512,1829.2984223992125
147.4967,1775.4682888094562
149.7417,1749.5834698751523
151.9863,1708.4949226244948
154.2304,1693.8535865898439
156.4739,1677.1603842186098
158.717,1657.616221019669
160.9596,1660.7719857302925
163.2017,1651.7285505115894
165.4433,1662.0867709169504
167.6844,1637.7474859824797
169.925,1600.1615181234145
172.1651,1556.5296733775174
174.4047,1517.752741780936
176.6439,1483.1314978045211
178.8825,1447.6167007415972
181.1206,1427.7590950541728
183.3582,1403.5594107280904
185.5954,1380.718363471602
187.832,1367.6366549573652
190.0681,1361.7649730508538
192.3037,1355.953991941176
194.5388,1341.2043721997893
196.7734,1329.566760838613
199.0075,1321.0917914575216
201.2411,1337.3800843607228
203.4742,1326.9322466415074
205.7068,1329.598872019365
207.9389,1328.1305409444644
210.1704,1323.2278205709845
212.4015,1315.9912647718004
214.632,1304.8214141875087
216.862,1289.668796298794
219.0915,1274.6339255381258
221.3205,1273.0173034412885
223.549,1279.369418797725
225.777,1271.1907476667066
228.0044,1244.531753313811
230.2314,1226.892886292708
232.4578,1204.6245847117523
234.6837,1187.2772744103681
236.909,1165.3513691817352
239.1339,1151.2472709462606
241.3582,1142.8653699708386
243.582,1118.1060450098907
245.8053,1112.3696633891846
248.0281,1099.906581253428
250.2503,1085.817143623633
252.472,1089.5516845217462
254.6932,1083.0605271115423
256.9139,1073.3939836612794
259.134,1071.4023556086113
261.3536,1062.335933657252
263.5727,1079.2949977968924
265.7912,1096.0298173938645
268.0092,1096.390651021551
270.2267,1130.2777462930374
272.4436,1152.3913398575019
274.6601,1147.331657061347
276.8759,1155.7489117270616
279.0913,1173.2433062038194
281.3061,1163.365031283306
283.5204,1153.5142660247739
285.7341,1169.991177853826
287.9473,1178.1459226609236
290.16,1156.228644636615
292.3721,1125.0394761899909
294.5837,1089.6785381678544
296.7947,1062.4959401666156
299.0052,1037.4917808858988
301.2152,1030.3161484003697
303.4246,1000.6691204097779
305.6334,972.300764310711
307.8418,972.511137493068
310.0495,940.4002876237384
312.2568,902.1182526445023
314.4635,883.6150610931363
316.6696,835.4407324862357
318.8752,798.3952775042446
321.0802,771.0786984732013
323.2847,754.2409897351915
325.4887,746.5321379215145
327.692,748.4521221210593
329.8949,771.2509139573949
332.0972,789.1284775695683
334.2989,790.3847693841187
336.5001,782.3697379363002
338.7007,763.7833238575201
340.9008,728.5754599554887
343.1003,690.296071400084
345.2992,645.9950760754286
347.4976,619.5223849626864
349.6955,579.3779025830697
351.8927,566.561527262568
354.0895,547.3731515333925
356.2856,529.7626622621392
358.4812,515.4299408416732
360.6763,507.72486336723364
362.8707,497.7973007797607
365.0646,484.69711894294755
367.258,480.6241787425147
369.4508,479.3783362172119
371.643,492.40944259954836
373.8346,495.7673443282497
376.0257,524.9018829179481
378.2162,536.6128949256029
380.4062,524.3002116591547
382.5956,511.2136590604166
384.7844,468.20305782819923
386.9726,444.2682235491777
389.1603,409.30896712799654
391.3474,388.7750950266184
393.5339,386.36640961391686
395.7199,384.0327093710148
397.9052,396.573788915372
400.09,424.38943902412075
402.2743,425.87944650865666
404.4579,458.89359393648124
406.641,475.53165961630293
408.8235,493.3934172678946
411.0054,522.478635855713
413.1868,585.1870794102815
415.3675,653.4685067373373
417.5477,677.0726707907481
419.7273,597.6993179896974
421.9064,504.84818798264223
424.0848,440.81901444104665
426.2627,395.0615259878939
428.4399,354.37544683797796
430.6166,319.81049725547814
432.7928,289.716393960819
434.9683,251.94285047632093
437.1432,229.38957742714229
439.3176,202.20628291901153
441.4914,194.94267276376286
443.6645,196.89845075116818
445.8371,193.02331872157333
448.0091,174.6669765463398
450.1806,170.87912216659674
452.3514,166.05945177680428
454.5216,152.6076598626321
456.6913,145.57343924915472
458.8603,147.70648123537103
461.0288,167.60647566454645
463.1967,148.92311090288194
465.3639,137.05607364051502
467.5306,127.20504907835198
469.6967,127.31972104673923
471.8622,113.19977210397315
474.0271,114.2448835351538
476.1914,113.90473549338412
478.3551,103.87900698931958
480.5182,110.01737589456843
482.6807,101.66951904195071
484.8426,111.48511216411248
487.0039,131.96382997700584
489.1647,173.40534608173175
491.3248,184.2093327597545
493.4843,189.92546055848493
495.6432,181.65339818324082
497.8015,158.39281244008566
499.9592,139.54336831854948
502.1163,107.70472922423528
504.2728,67.32655716731165
506.4287,61.15851308090191
508.5839,63.950257224862526
510.7386,43.00144924746701
512.8927,47.71174815748623
515.0461,45.73038337921366
517.199,68.8565838598256
519.3512,83.18957808919527
521.5029,117.07859386863038
523.6539,147.6728581675436
525.8043,165.82159678456173
527.9541,135.52403404158372
530.1033,85.87939260229291
532.2519,68.88689377513356
534.3999,47.545758009755446
536.5472,42.255205066941244
538.694,46.56445423201512
540.8401,47.62272436775106
542.9856,56.67923387127894
545.1305,61.43320066350202
547.2748,72.93384209853207
549.4185,69.88037491614887
551.5615,72.1220151267953
553.704,97.7079780421102
555.8458,90.03747825251207
557.987,99.20972937134047
560.1276,126.62394411156083
562.2675,154.6793341940413
564.4069,198.47511007341222
566.5456,214.8104806575111
568.6837,217.08465286942578
570.8212,180.24683148413897
572.958,129.09621910578767
575.0942,103.83201653604169
577.2299,88.10342328560864
579.3648,68.75963782687631
581.4992,57.849857751199806
583.6329,49.57327996233789
585.766,64.42910078555178
587.8985,87.26651605037068
590.0304,115.78472094203289
592.1616,132.78290977311258
594.2922,135.06027569833714
596.4222,121.56601054460589
598.5515,85.84930478821548
600.6802,49.059347689802735
602.8083,24.045327651513162
604.9358,21.306432584898857
607.0626,6.0418501610595285
609.1888,10.650767838031697
611.3144,35.58231271576733
613.4393,50.28550549304691
615.5636,85.15936651282755
617.6873,109.25291561521203
619.8103,146.21517178870977
621.9327,143.89515292930218
624.0544,116.19187547081833
626.1756,93.55435440813858
628.2961,51.58160357422412
630.4159,45.12263586649442
632.5351,42.97646366655181
634.6537,34.79209890477432
636.7716,31.0685530817741
638.8889,30.404837350243497
641.0056,47.24996255219003
643.1216,48.1029392255723
645.237,62.512777435851376
647.3518,42.37848676745875
649.4659,37.49907617969916
651.5793,15.97355420809231
653.6922,5.650929013168934
655.8043,11.530208595722797
657.9159,0.01040090003948535
660.0268,-5.809486244896789
662.137,-15.530445114008216
664.2466,-5.553409945449857
666.3556,-4.079159828230331
668.4639,-1.5084183727926757
670.5716,-4.841868438775009
672.6786,-4.530177816715195
674.785,-9.123965926886285
676.8907,-13.073806933085734
678.9958,-11.780183850691856
681.1002,-14.593449087752333
683.204,-12.163837368279246
685.3072,-0.7414376277288284
687.4097,-3.4262172848234513
689.5115,-3.8181437508703766
691.6127,0.2328497907333258
693.7132,-2.223131700153999
695.8131,0.16401673399741412
697.9123,2.2444000729506115
700.0109,5.018123294827092
702.1089,8.88529135530598
704.2061,20.39600915988558
706.3028,34.800381525210696
708.3987,43.64851306396736
710.4941,55.99050804083822
712.5887,63.5264702840218
714.6827,72.35650306181196
716.7761,64.28070900723742
718.8688,57.09919002976335
720.9608,54.96204739604741
723.0522,79.16938180175566
725.1429,89.6212933929346
727.233,119.91788152393747
729.3224,150.20924465290454
731.4112,181.09548003879854
733.4993,200.52668343849064
735.5867,171.0029487978968
737.6735,128.57436805766702
739.7596,99.94103144842188
741.845,99.9030279150395
743.9298,98.21044540298749
746.014,109.31337085870405
748.0974,134.61189024652367
750.1802,131.85608843764817
752.2624,117.29604895716125
754.3439,115.6818540115853
756.4247,99.66358463448319
758.5048,88.34132070259875
760.5843,105.2151410960414
762.6631,119.98512381150658
764.7413,141.35134579353985
766.8188,190.41388278683553
768.8956,237.52280912257493
770.9718,273.17819722779996
773.0473,270.33011715432554
775.1221,248.62863622218447
777.1962,231.07381904810927
779.2697,276.26572776254613
781.3426,331.5544221852035
783.4147,374.8399593731333
785.4862,365.9223930678439
787.557,323.00177326244443
789.6271,239.1781462908216
791.6966,173.05155525684415
793.7654,117.62204087260102
795.8335,83.98964211966495
797.901,65.05439680338952
799.9678,53.766341889232194
802.0339,66.32551369210648
804.0993,71.68194798926322
806.1641,62.08567989469827
808.2282,63.236743805588276
810.2916,36.385173498253835
812.3544,40.93100211664853
814.4164,46.37426244087408
816.4778,45.06498684172243
818.5385,48.50320722624406
820.5986,73.88895505083917
822.658,101.67226128687696
824.7166,131.25315616683702
826.7747,195.53166890647753
828.832,240.10782740902494
830.8886,287.6316576223903
832.9446,299.8031830934066
834.9999,278.37242449259077
837.0545,232.98939949242913
839.1085,187.30412298168403
841.1618,148.96660751922388
843.2143,116.22686379087634
845.2662,92.73490099280434
847.3175,82.14072715890154
849.368,77.29434939571411
851.4179,84.5457739883808
853.467,83.74500644909699
855.5155,84.34205144460088
857.5633,88.2869128041815
859.6105,93.7795935137076
861.6569,80.7200956761792
863.7027,70.15842045680085
865.7478,67.69456821357733
867.7922,63.0285386029293
869.8359,63.610330604332376
871.8789,57.28994256697729
873.9212,65.21737220395221
875.9629,66.79261665544664
878.0039,74.76567240947657
880.0441,91.63653528613224
882.0837,89.9552003578475
884.1226,104.62166178069151
886.1609,124.13591281118136
888.1984,160.64794565961836
890.2352,188.70775129494518
892.2714,201.76531907962567
894.3069,178.82063648904636
896.3416,154.8236889809417
898.3757,134.47446022483962
900.4091,110.97293234203198
902.4418,119.46908610906655
904.4739,134.01290119276246
906.5052,150.0543560652486
908.5358,147.7934278585251
910.5658,135.63009220404865
912.595,111.06432325534195
914.6236,91.74609380962727
916.6515,81.7753755534842
918.6786,61.652139256031774
920.7051,53.22635486863521
922.7309,63.197991726139435
924.756,62.26701863112601
926.7804,68.83340375419687
928.8041,75.44711464328373
930.8272,81.50811815798477
932.8495,91.16638040342752
934.8711,95.87186666965874
936.892,91.92454133506192
938.9123,105.4743678193023
940.9318,133.1213086227997
942.9506,140.8153251912304
944.9688,128.35637763905822
946.9862,119.49442467259462
949.003,98.02942371458778
951.019,84.41133099284195
953.0344,72.34010175486765
955.0491,69.26569040406252
957.063,68.98805062042379
959.0763,74.95713539129213
961.0888,64.42289701412835
963.1007,55.685287036822615
965.1119,62.644256363036334
967.1223,58.199755339578246
969.1321,61.701733686815146
971.1412,51.25014054311646
973.1495,54.29492442983394
975.1572,52.73603335581879
977.1641,66.3734147869726
979.1704,56.157015661837704
981.1759,65.68678225522262
983.1808,49.56266028036589
985.1849,55.53459479363926
987.1884,54.75253035578817
989.1911,59.71641097221243
991.1932,65.82618010078681
993.1945,77.98178060222278
995.1951,63.03315467897016
997.1951,57.130243753661716
999.1943,61.322988618598856
1001.1928,58.6113294947811
1003.1906,68.3952059899791
1005.1877,81.67455712585001
1007.1841,91.6493212401
1009.1798,102.31943585368981
1011.1748,96.73483757108761
1013.1691,81.29546197356751
1015.1627,64.25124367505532
1017.1556,54.852116476523406
1019.1477,37.49801353643181
1021.1392,23.68886746471992
1023.1299,19.42461049634767
1025.12,23.60517462938617
1027.1093,24.730491667661227
1029.0979,37.60049317894698
1031.0859,48.765110483713215
1033.0731,54.424274526424824
1035.0596,63.82791576389593
1037.0454,56.27596410869796
1039.0304,39.06834883512374
1041.0148,32.00499865470613
1042.9985,25.88584188829509
1044.9814,22.06080653669096
1046.9636,16.929820341836148
1048.9452,17.09281082506527
1050.926,34.349705338415106
1052.9061,42.700431062994426
1054.8855,42.09491483641591
1056.8642,36.88308306928809
1058.8421,46.66486175127068
1060.8194,39.14017650319272
1062.7959,44.85895247923531
1064.7717,45.32111444217787
1066.7469,43.67658670621029
1068.7213,43.62529313231198
1070.695,51.81715714469692
1072.6679,69.00210173132632
1074.6402,84.83004936199086
1076.6117,77.75092181646016
1078.5826,70.01464002620389
1080.5527,52.171124145182944
1082.5221,36.22029362721207
1084.4908,18.76206740439534
1086.4587,6.546364046633812
1088.426,12.3731019362084
1090.3925,5.342199389936695
1092.3584,13.1535746009057
1094.3235,14.307145708780808
1096.2879,23.05283072169152
1098.2515,33.9405475046965
1100.2145,50.42021369232634
1102.1767,69.4917465797065
1104.1382,97.75506295776029
1106.099,130.36007892249404
1108.0591,151.30670959236375
1110.0185,178.29486878222463
1111.9771,195.97446879386553
1113.9351,226.49542014612666
1115.8923,265.7076313981039
1117.8488,286.0610088439396
1119.8045,251.3054561206999
1121.7596,199.19087400484113
1123.7139,136.21716075976497
1125.6675,115.3842126569649
1127.6204,117.6419246057635
1129.5726,124.94019036164127
1131.524,118.97890250365981
1133.4748,97.50795236147883
1135.4248,73.67723007497
1137.3741,42.686624808925444
1139.3226,28.38602499136539
1141.2705,26.92531862344424
1143.2176,25.704393422456064
1145.164,33.8731368364422
1147.1097,40.4314360564
1149.0546,28.679177934595714
1150.9989,20.816248918981387
1152.9424,5.3425351707176105
1154.8852,0.057922642802736846
1156.8272,-5.787702765190261
1158.7686,-7.194455154267189
1160.7092,-9.612390806283543
1162.6491,-7.69149413048774
1164.5883,2.3683464916555295
1166.5267,11.817319516707926
1168.4644,20.85561337754791
1170.4014,40.78341638888094
1172.3377,60.15091665685702
1174.2732,95.45830187979175
1176.2081,139.0557591544923
1178.1421,197.44347462318274
1180.0755,269.97163303752984
1182.0082,312.39041717476573
1183.9401,303.95000711240687
1185.8713,249.00057980406564
1187.8017,183.54230916385472
1189.7315,117.02536661588158
1191.6605,72.54992174883068
1193.5888,50.5161429811335
1195.5163,34.774198005722496
1197.4432,21.374254010368873
1199.3693,18.616477835102273
1201.2947,15.20103610621004
1203.2193,-1.5719047361850471
1205.1432,2.547821596029621
1207.0664,-6.689602905705556
1208.9889,-0.5839962754279213
1210.9106,5.614890281957855
1212.8316,5.257311395669376
1214.7519,7.8435216387759965
1216.6715,13.973775531773867
1218.5903,25.198327516723793
1220.5084,24.267431895950153
1222.4257,32.581342719793156
1224.3424,34.74031379591963
1226.2583,47.644598606183195
1228.1735,70.79445028503403
1230.0879,89.74012149047712
1232.0016,108.93186417257277
1233.9146,128.56992938398014
1235.8269,128.90456708804015
1237.7384,137.98602596239493
1239.6492,139.71455339564102
1241.5592,140.29039539651478
1243.4686,174.8137965766075
1245.3772,208.28500014460667
1247.285,255.90424756106188
1249.1922,303.82177820367315
1251.0986,337.6878288910981
1253.0042,370.9526334037769
1254.9092,422.8664221452717
1256.8134,473.87942180961863
1258.7169,523.79185486219
1260.6196,546.7039390295636
1262.5216,561.2158868003995
1264.4229,550.5279051963186
1266.3234,540.6401956267832
1268.2232,509.85295399597703
1270.1223,472.0663708016823
1272.0207,448.93063144315227
1273.9183,446.8959165989761
1275.8151,445.0124024584371
1277.7113,463.4802607418592
1279.6067,511.24965871944266
1281.5014,591.5707590265855
1283.3953,687.9437191861894
1285.2885,791.7186908054488
1287.181,875.3458186121215
1289.0727,897.6752394167783
1290.9637,881.1070812765322
1292.854,817.5414632717439
1294.7435,750.6284956717035
1296.6323,692.468280570287
1298.5204,637.6609125550848
1300.4077,591.1064792890056
1302.2943,558.8050620583485
1304.1802,544.8067362383485
1306.0653,535.66157161619
1307.9497,513.9696325309899
1309.8333,497.18097796524944
1311.7162,485.74566176177404
1313.5984,469.06373279155935
1315.4798,451.63523506814465
1317.3605,452.1102079144321
1319.2405,462.0386861369719
1321.1197,458.2207000212123
1322.9982,433.85627523221495
1324.876,394.74543285283517
1326.753,349.8381896273651
1328.6293,296.184558352643
1330.5048,251.33454832712522
1332.3796,216.5381658874229
1334.2537,183.69541485680185
1336.127,160.05629689314645
1337.9996,146.97081181738696
1339.8714,139.73895784989105
1341.7426,132.21073174131902
1343.6129,122.28612884494157
1345.4826,109.96514319192266
1347.3515,105.94776759056475
1349.2196,94.8339937495196
1351.087,99.62381231796121
1352.9537,96.66721299672355
1354.8197,102.71418449040294
1356.6849,101.56471453692387
1358.5493,111.71878984706893
1360.4131,120.07639611597398
1362.276,150.9875179215872
1364.1383,160.90213864109307
1365.9998,177.32024014180087
1367.8606,167.59180268199862
1369.7206,164.36680474677212
1371.5799,165.49522314528917
1373.4384,162.82703304305028
1375.2962,160.21220795060333
1377.1533,128.65071975022676
1379.0096,95.29253872207664
1380.8652,85.23763385980203
1382.7201,69.08597320412696
1384.5742,57.687523943399185
1386.4275,41.24225257510699
1388.2802,33.80012501986346
1390.132,36.36110678585925
1391.9832,26.17516304328427
1393.8336,23.792258598717297
1395.6832,18.812357996985895
1397.5322,20.535425544995178
1399.3803,12.061425361526801
1401.2278,15.240321360008409
1403.0745,7.022077333253549
1404.9204,1.9066569216725497
1406.7656,1.1940236954552574
1408.6101,2.6841412057251546
1410.4538,1.8269729916659116
1412.2968,-3.277517434379945
1414.139,0.9206334216603977
1415.9805,13.521421796258778
1417.8213,11.57484391668089
1419.6613,23.480895874978614
1421.5006,40.83957364745538
1423.3391,55.60087297560602
1425.1769,85.11478919252983
1427.0139,120.43131707531768
1428.8502,177.00045054991233
1430.6858,202.272182337944
1432.5206,219.64650339103827
1434.3547,221.52340263809913
1436.188,210.95286681156563
1438.0206,210.63488042864282
1439.8524,197.71942589700728
1441.6835,200.50648351798702
1443.5139,194.19603161571598
1445.3435,206.98804650926314
1447.1724,205.5825025757377
1449.0005,204.47937212236883
1450.8279,199.2786254005607
1452.6545,202.03023061692386
1454.4804,190.28415398528307
1456.3056,195.6903596991607
1458.13,191.69881004923803
1459.9536,179.95946536929307
1461.7766,152.82228407611558
1463.5987,137.53722278690105
1465.4202,116.95423659062214
1467.2409,104.77327920087981
1469.0608,81.19430316173248
1470.88,72.01725996950614
1472.6984,51.94210030858386
1474.5161,44.51877414317602
1476.3331,40.0472309180725
1478.1493,34.877419632875444
1479.9648,28.959288886714944
1481.7795,32.54278692994711
1483.5935,36.47786172333525
1485.4067,39.51446090221498
1487.2192,40.252531737143556
1489.031,40.092021103533625
1490.842,41.782875474272544
1492.6522,42.825040921327684
1494.4618,35.618463098838106
1496.2705,35.963087232692374
1498.0785,39.10885819259488
1499.8858,36.455720488619136
1501.6924,34.15361823975036
1503.4981,33.402495200416524
1505.3032,31.752294783509797
1507.1075,28.80296006789763
1508.911,28.404433814924516
1510.7138,23.556658497905516
1512.5159,24.809576306111467
1514.3172,19.66312919324679
1516.1178,15.767258864920336
1517.9176,11.42190683010972
1519.7166,10.92701444011999
1521.515,8.282522932037068
1523.3126,12.938373433677043
1525.1094,10.994506990030743
1526.9055,9.50086451670552
1528.7008,7.907386819363694
1530.4954,-1.335985391341012
1532.2893,5.270688516171731
1534.0824,11.177362519976157
1535.8747,5.383990545439872
1537.6663,4.090526406156812
1539.4572,9.646923861881191
1541.2473,4.353136631461723
1543.0367,7.059118337278221
1544.8253,10.064822558178832
1546.6132,15.470202802420772
1548.4003,12.925212477613002
1550.1867,23.779804836662663
1551.9723,24.63393300322508
1553.7572,40.48754986315748
1555.5414,34.290608055978055
1557.3247,57.64305981632975
1559.1074,76.29485703594952
1560.8893,91.14595103014375
1562.6705,117.79629235127055
1564.4509,125.09583064022871
1566.2305,141.0445143599539
1568.0094,139.29229072242413
1569.7876,139.2391055291722
1571.565,129.18490318880828
1573.3417,137.32962671755143
1575.1176,138.373217839772
1576.8928,152.51561690654432
1578.6672,163.60676288521063
1580.4409,172.74659321795718
1582.2138,189.43504371090285
1583.986,213.37204844270025
1585.7575,229.75753959765143
1587.5282,244.79144722633856
1589.2981,258.7236990817681
1591.0673,258.2042204690322
1592.8358,267.6329341059864
1594.6035,272.0097601284439
1596.3704,265.6346159958886
1598.1366,262.10741644770724
1599.9021,249.32807356693985
1601.6668,234.84649681555283
1603.4308,222.6125931622318
1605.194,224.22626722719752
1606.9564,240.78742140454477
1608.7182,267.24595584610597
1610.4791,311.90176829583913
1612.2394,359.6047538252433
1613.9988,406.90480438679936
1615.7576,450.4518083369412
1617.5156,458.59564996305437
1619.2728,449.1362090480068
1621.0293,415.5233607887095
1622.785,358.30697589071167
1624.54,299.3869209043289
1626.2942,245.46305879680716
1628.0477,193.63524954152354
1629.8005,162.50335065722453
1631.5525,129.3672177263042
1633.3037,105.82670470612325
1635.0542,92.8816642603704
1636.804,71.68194799446735
1638.553,64.1274065850194
1640.3013,57.5178899918121
1642.0488,46.45324753335731
1643.7955,48.08332795298793
1645.5416,34.65797952950439
1647.2868,33.17705006087411
1649.0313,34.54038699848476
1650.7751,29.797837461953605
1652.5181,32.649248225494176
1654.2604,30.494465765341687
1656.0019,30.13333623123887
1657.7427,36.56570546798406
1659.4828,48.59141901904229
1661.222,61.160322062221496
1662.9606,83.72225928941575
1664.6984,94.6270747809157
1666.4354,95.32461177978965
1668.1717,91.66471258283534
1669.9072,77.5472185336042
1671.642,62.57197005900073
1673.3761,40.73880681045742
1675.1094,25.647567813686976
1676.8419,17.548091687014306
1678.5737,15.890216792288612
1680.3048,10.77378131587821
1682.0351,4.948623285249425
1683.7646,0.7145806201307607
1685.4934,3.521491190764692
1687.2215,7.669192860247904
1688.9488,2.1075234564621894
1690.6754,-2.0136792694025303
1692.4012,1.8054224127685359
1694.1263,0.9146863497459776
1695.8506,0.2139703702463578
1697.5742,0.3031322938394112
1699.297,1.0820299379552125
1701.0191,-3.899478883007248
1702.7404,3.708463634530716
1704.461,-4.394245750058218
1706.1808,-2.6577103144858825
1707.8999,0.41801056205085274
1709.6182,-1.4171159491188803
1711.3358,-4.0631226808461065
1713.0527,-3.020028308993602
1714.7688,1.3621890811713797
1716.4841,-1.5664184255358293
1718.1987,4.594201242078299
1719.9126,0.14411580372720323
1721.6257,2.8333929331824663
1723.338,1.4621003027745303
1725.0496,1.330305556499951
1726.7605,5.838076323734299
1728.4706,0.08548022055032334
1730.18,8.972584804640007
1731.8886,6.59945763284054
1733.5964,3.7161661722634562
1735.3036,4.772777824025724
1737.0099,3.2193599520826695
1738.7156,8.605979872662033
1740.4204,0.3827048697979478
1742.1246,12.949602141464936
1743.8279,7.206738881810395
1745.5306,10.754182155485921
1747.2325,9.691998955075633
1748.9336,11.87025616562201
1750.634,9.68902057524761
1752.3336,10.348358853372446
1754.0325,11.598337572526418
1755.7307,14.339023201755822
1757.4281,14.320482094123633
1759.1247,11.84278045930273
1760.8206,11.80598436376107
1762.5158,17.110159755539087
1764.2102,13.755372464617409
1765.9039,12.741688149874989
1767.5968,16.119172332637277
1769.289,15.337890406812875
1770.9804,14.247907605118684
1772.6711,13.249289006892838
1774.361,17.192099548994406
1776.0502,16.976404035789642
1777.7386,16.50226709972381
1779.4263,17.319753203478257
1781.1132,20.878926644711697
1782.7994,18.229851547885318
1784.4849,17.472591828671142
1786.1696,23.207211220442787
1787.8535,17.433773281848005
1789.5367,18.00234133946256
1791.2192,16.812978545524544
1792.9009,21.61574787224872
1794.5818,21.11071212372015
1796.2621,20.99793388786638
1797.9415,20.027475541508068
1799.6202,18.64939925148643
1801.2982,20.813766984368044
1802.9755,21.020640520225527
1804.6519,20.470081430993844
1806.3277,18.412151078401735
1808.0027,26.34691061947707
1809.6769,22.97442102712644
1811.3504,20.044743010787386
1813.0231,17.707937050153248
1814.6951,22.464063424470083
1816.3664,23.61318223590463
1818.0369,20.25535336198307
1819.7067,25.79063644409986
1821.3757,25.21909092109584
1823.044,22.69077597390566
1824.7115,24.00575053127305
1826.3783,21.41407329503403
1828.0443,24.31580272696715
1829.7096,22.760997074710303
1831.3741,23.94971434274339
1833.0379,26.782012307936355
1834.701,19.357948507662172
1836.3633,20.227580211473608
1838.0248,22.49096449534406
1839.6856,26.89815823297114
1841.3457,24.149218073142833
1843.005,24.594200395665638
1844.6636,24.883161338853967
1846.3214,28.366156795080173
1847.9785,26.84324240788517
1849.6349,28.664473537148353
1851.2904,23.17990527431681
1852.9453,24.83959242419283
1854.5994,28.743589559779778
1856.2528,26.941951005685056
1857.9054,24.234730799080253
1859.5572,24.471982707717544
1861.2083,28.603760257001824
1862.8587,22.6801167276181
1864.5084,27.151105114213948
1866.1572,26.616778184635805
1867.8054,24.477188435219105
1869.4528,23.882388096131606
1871.0994,30.632429152769262
1872.7453,29.377363351704247
1874.3905,29.31724213318438
1876.0349,29.202116643684036
1877.6786,29.68203773650511
1879.3215,25.157055972928433
1880.9637,26.52722161741447
1882.6051,28.94258468285325
1884.2458,25.70319491686263
1885.8858,30.959101777634714
1887.525,30.36035446632968
1889.1634,30.057001874516786
1890.8011,28.84909259016166
1892.4381,29.786674900660117
1894.0743,28.069796804916976
1895.7098,31.998506003970377
1897.3446,29.02284991816053
1898.9786,29.792875647842692
1900.6118,29.30863000314359
1902.2443,25.470159496261218
1903.8761,27.777510346307324
1905.5071,26.480728517692086
1907.1374,25.979859697050628
1908.7669,23.924949306210863
1910.3957,27.816042507202155
1912.0237,31.45318422280438
1913.651,28.6864190976371
1915.2776,29.215791461788086
1916.9034,32.19134535848099
1918.5285,23.81312453878155
1920.1528,24.53117243184215
1921.7764,22.745532228683913
1923.3992,28.85624687501634
1925.0213,25.56335908909371
1926.6427,25.66691130060785
1928.2633,28.166945683617016
1929.8832,25.413504155510324
1931.5023,26.60662835200756
1933.1207,28.496359654693492
1934.7383,21.93273917908658
1936.3552,25.165807755741753
1937.9714,29.79560599588659
1939.5868,25.172174259090667
1941.2015,26.54555260696752
1942.8154,27.765780849409012
1944.4286,25.98289853085153
1946.041,22.196944918073697
1947.6528,20.95795901802518
1949.2637,26.865979615686186
1950.8739,22.271045286457422
1952.4834,26.323194337079784
1954.0921,27.42246485158371
1955.7001,28.16889465076781
1957.3074,20.162521281206068
1958.9139,24.003382007783557
1960.5197,27.191513893760202
1962.1247,26.026953762362126
1963.729,22.409738164900347
1965.3325,25.289903392416406
1966.9353,21.317485511854542
1968.5374,23.34252033725994
1970.1387,24.36504346950302
1971.7393,25.78509027602898
1973.3392,25.50269588063263
1974.9383,22.167895149257916
1976.5366,26.73072269282183
1978.1342,21.191212900562576
1979.7311,21.249399894411056
1981.3273,22.6053175843862
1982.9227,18.608999668012927
1984.5173,23.210479616763067
1986.1112,21.65979071601849
1987.7044,24.256966019056378
1989.2968,21.00203836255595
1990.8885,29.095040340626838
1992.4795,22.986004337358352
1994.0697,25.72496244588939
1995.6592,24.011946529498886
1997.2479,17.396988194216235
1998.8359,21.18011880595131
2000.4232,20.9613695566442
2002.0097,23.540771426433807
2003.5955,19.16835518584547
2005.1805,20.744151369996757
2006.7648,20.268190322321757
2008.3484,23.040502178813057
2009.9312,22.511116872781457
2011.5133,17.580064107132714
2013.0946,20.997373359661424
2014.6752,20.313073932361576
2016.2551,19.42719491725346
2017.8342,21.08976520322669
2019.4126,18.30081348489898
2020.9902,19.06036824599046
2022.5672,19.118457787213117
2024.1433,23.225110218675297
2025.7188,23.180353459300846
2027.2935,22.13421519576255
2028.8674,18.93672288292973
2030.4406,16.98790375432958
2032.0131,20.387784854122103
2033.5849,18.486393056588284
2035.1559,20.9837550321313
2036.7261,20.479897266290394
2038.2957,19.674846034767356
2039.8645,23.368627408465017
2041.4325,23.061267261537864
2042.9998,20.50279123445408
2044.5664,23.593224737069264
2046.1323,20.5325929742111
2047.6974,17.6209209147751
2049.2617,21.708233322330813
2050.8254,25.994554784238616
2052.3883,23.82990967077656
2053.9504,25.214322092277214
2055.5118,15.697815920774062
2057.0725,23.2804147761574
2058.6325,12.762142121339437
2060.1917,19.29302118642825
2061.7502,23.373075073910556
2063.3079,21.35232669334286
2064.8649,21.780798720550933
2066.4212,21.658513617837343
2067.9767,18.385493629696626
2069.5315,19.561760784038285
2071.0856,17.137336924916795
2072.6389,22.962243700769136
2074.1915,14.886502588658928
2075.7433,20.710134836027393
2077.2945,22.983161541450784
2078.8448,19.155603596404035
2080.3945,19.977481662530508
2081.9434,22.89881620991754
2083.4916,18.519627508877676
2085.039,21.089935600735387
2086.5857,18.459760341618903
2088.1317,14.929121376757152
2089.677,23.698038166781444
2091.2215,19.266530023031976
2092.7652,24.234616019868525
2094.3083,19.402315038985606
2095.8506,19.419645719731648
2097.3921,20.886626507431956
2098.933,17.053275653215337
2100.4731,20.419611199344445
2102.0124,19.335651017549168
2103.5511,22.901412775363283
2105.089,18.016913946964166
2106.6261,18.832171777515086
2108.1626,22.997203332010187
2109.6983,20.012025487121917
2111.2332,19.5266548895507
2112.7675,23.09110798587676
2114.301,21.605401027413834
2115.8337,20.569550034564585
2117.3657,20.533570811677734
2118.897,20.197478957406446
2120.4276,21.361289865068272
2121.9575,17.47501872600597
2123.4866,19.538680517949444
2125.0149,19.902290043878438
2126.5426,18.81586191138595
2128.0695,18.52941052904208
2129.5956,18.242950117258417
2131.1211,19.656494711152405
2132.6458,20.370058163412068
2134.1698,19.733654130160446
2135.693,16.847296063820053
2137.2155,21.110997219476914
2138.7373,17.824770683744106
2140.2584,17.938629332124748
2141.7787,19.502585861874323
2143.2983,17.06665279086205
2144.8171,13.780842441931313
2146.3353,19.69516696725907
2147.8527,16.00963838121382
2149.3693,19.574268501212515
2150.8853,19.43906898457574
2152.4005,13.504051292881428
2153.9149,20.76922669331684
2155.4287,16.78460631802868
2156.9417,17.700201091471442
2158.454,16.166021770253593
2159.9655,22.532078933981637
2161.4764,17.298383000601902
2162.9865,15.514944162739894
2164.4958,15.531772440037344
2166.0045,19.59887769698652
2167.5124,16.26626964276204
2169.0195,18.633957790549758
2170.526,18.151951490872776
2172.0317,18.620259907914757
2173.5367,21.68889202433982
2175.0409,18.50785663660959
2176.5445,14.277162324296825
2178.0473,15.446817481895707
2179.5494,14.216830361128842
2181.0507,18.637209059250708
2182.5513,15.057961531347516
2184.0512,14.079095546133459
2185.5504,16.400618721743143
2187.0488,13.472538535520272
2188.5465,16.694862300802356
2190.0435,18.517597196201592
2191.5397,13.190750233381621
2193.0353,15.514328238830117
2194.5301,14.638337907127294
2196.0241,14.262785777710121
2197.5175,17.63767824363225
2199.0101,19.263021555319483
2200.502,14.63882178682087
2201.9931,18.515084819555213
2203.4835,17.24181638855316
2204.9733,14.119022043694542
2206.4622,15.196707162441001
2207.9505,15.924876981064074
2209.438,15.203536583868228
2210.9248,14.832690895909153
2212.4109,13.112344690207266
2213.8962,13.642502591456065
2215.3809,13.373169093225656
2216.8648,12.804348552661224
2218.3479,13.986045193176224
2219.8304,11.468263110140654
2221.3121,11.201006259064073
2222.7931,15.984278480773455
2224.2733,14.068083504085735
2225.7529,14.352424897975098
2227.2317,14.087306090734955
2228.7098,13.972730367134474
2230.1872,13.508700871069877
2231.6638,15.645220606710069
2233.1397,14.232292443137027
2234.6149,11.619919092980524
2236.0894,11.658103126547502
2237.5632,16.146846997945687
2239.0362,12.336153044701874
2240.5085,11.326023442874359
2241.9801,11.966460245160022
2243.4509,11.557465390995503
2244.921,13.39904070015288
2246.3904,12.391187876829619
2247.8591,12.933908491232813
2249.3271,11.527203989657679
2250.7943,8.821075689060393
2252.2608,12.065524791125114
2253.7266,11.56055240932534
2255.1917,11.806159536479313
2256.656,8.85234704979979
2258.1197,9.299115708438023
2259.5826,15.396466183021758
2261.0447,9.594399051187665
2262.5062,14.94291473660779
2263.9669,10.942013567010207
2265.4269,7.041695720693866
2266.8862,10.141961266537635
2268.3448,13.492810203003444
2269.8026,9.34424242713358
2271.2598,11.946257701042313
2272.7162,5.598855693401504
2274.1719,10.402035953420508
2275.6268,5.65579797432018
2277.0811,14.010141145301091
2278.5346,12.665064799005819
2279.9874,7.82056812797552
2281.4395,7.026650198100796
2282.8908,8.633309997066547
2284.3414,9.640546442291182
2285.7914,11.948358364860042
2287.2406,5.756744499453049
2288.689,11.015703461266625
2290.1368,8.975233807929712
2291.5838,9.135333986914276
2293.0302,8.346002355939945
2294.4758,7.257237181373114
2295.9206,9.969036646120173
2297.3648,12.281398860515182
2298.8082,7.844321835201967
2300.251,8.157803458010378
2301.693,13.071841538327064
2303.1343,5.7364338039606935
2304.5748,8.85157785200154
2306.0147,6.317271222175563
2307.4538,10.983511365692962
2308.8922,5.150295670591291
2310.3299,8.667621415073
2311.7669,8.535485825837583
2313.2031,6.203886042908323
2314.6387,12.922819120953747
2316.0735,11.04228205260354
2317.5076,3.862271701259246
2318.941,4.682784819899609
2320.3737,5.2538181228806735
2321.8056,10.625368277730672
2323.2369,7.147431899439695
2324.6674,11.270005496744204
2326.0972,11.393085506906317
2327.5263,17.516668254488167
2328.9547,19.240749950121085
2330.3823,18.615326629269745
2331.8092,9.490394134991355
2333.2355,11.665948124189896
2334.661,10.041984158865475
2336.0858,11.318497684358768
2337.5098,6.245484045590608
2338.9332,5.772938474296893
2340.3558,6.8008561397587215
2341.7778,7.279232153527779
2343.199,8.058061559147305
2344.6195,11.537339327368208
2346.0393,3.917060348360863
2347.4583,9.697219396922236
2348.8767,4.52781120867872
2350.2943,5.658830422284595
2351.7113,8.890271631116086
2353.1275,8.172129371961148
2354.543,7.004398092705031
2355.9578,5.887072159511725
2357.3718,4.920145868501223
2358.7852,4.303613456922868
2360.1978,8.687469112824502
2361.6098,8.321706981217837
2363.021,5.206321120239906
2364.4315,6.241305504810718
2365.8413,4.2766540577870416
2367.2504,7.612360639612653
2368.6587,7.098419067964798
2370.0664,6.2348230843970995
2371.4733,4.771566359479017
2372.8795,7.7586425014318365
2374.285,5.99604507076117
2375.6899,9.033767550386308
2377.0939,6.571803363266028
2378.4973,3.0601458420215053
2379.9,5.148788253555885
2381.3019,6.987723834170971
2382.7032,7.876945768680699
2384.1037,2.816447172021796
2385.5035,5.806221080361546
2386.9027,6.446260501702781
2388.3011,9.836558385986216
2389.6987,8.227107618689985
2391.0957,6.017900986926648
2392.492,4.858931195537714
2393.8876,4.55019088918575
2395.2824,5.791672663944006
2396.6765,4.633369070383871
2398.07,1.3752726011600274
2399.4627,3.717375702593479
2400.8547,9.659670807252503
2402.246,5.0521503105316725
2403.6366,3.4448065112288404
2405.0265,6.987631657620419
2406.4156,2.7306179635347334
2407.8041,5.22375757292383
2409.1918,3.517042602433584
2410.5789,4.910465116472338
2411.9652,3.0040171442780377
2413.3508,2.947690665983991
2414.7358,4.141477631683401
2416.12,5.135369961992588
2417.5035,4.9793595361131295
2418.8863,-0.7265618181070366
2420.2684,1.4175976773864605
2421.6497,2.8118370590005455
2423.0304,5.106155348966205
2424.4104,6.450551541396095
2425.7896,5.495024579341312
2427.1682,1.0895733413474602
2428.546,7.184196651009934
2429.9232,6.57889332102841
2431.2996,4.373662092260616
2432.6753,3.668501639775407
2434.0503,3.663410594905038
2435.4246,2.5083875522967958
2436.7982,0.803431069963878
2438.1711,1.7485396808356057
2439.5433,6.343711909807013
2440.9148,4.688946264287814
2442.2856,1.5842411882505658
2443.6557,5.4795950787784236
2445.025,0.7750063171121511
2446.3937,3.02047322969657
2447.7617,5.015994135226471
2449.1289,2.261567322191908
2450.4955,1.3571910289230686
2451.8613,4.0028634711344395
2453.2265,1.9985828509686314
2454.5909,3.194347330539628
2455.9546,2.8401550519756213
2457.3177,6.036004125461318
2458.68,1.381892632779909
2460.0416,3.227818595354556
2461.4025,2.8737800207894892
2462.7627,1.869774884410809
2464.1222,2.41580113280682
2465.4811,2.461856693868107
2466.8392,1.7079394713272578
2468.1966,4.004047344298293
2469.5533,2.6501781748158564
2470.9093,3.4463297848741377
2472.2645,5.542499969965569
2473.6191,5.138686491119309
2474.973,2.634887053939572
2476.3262,2.6310993126437126
2477.6787,4.827320895100236
2479.0305,6.173549402866691
2480.3816,4.369782389227403
2481.7319,5.9660173457312595
2483.0816,2.7622517202293153
2484.4306,3.4084829009124746
2485.7789,3.454708248349135
2487.1264,3.600925089022901
2488.4733,4.297130714870299
2489.8195,1.6433223818186207
2491.165,5.089497302823894
2492.5097,3.9356526744089493
2493.8538,3.931785642201696
2495.1972,2.4778933124735474
2496.5398,0.07397275217809351
2497.8818,4.820021003490005
2499.2231,-0.08396489215577674
2500.5637,2.5620120584755313
2501.9035,1.9579496874279343
2503.2427,2.6038458011253596
2504.5812,5.449698186412242
2505.919,4.945504604094566
2507.256,5.191262760481365
2508.5924,3.586970312426608
2509.9281,0.9826248648716955
2511.2631,5.228223986888331
2512.5974,0.5737652377220002
2513.9309,1.7692461243359148
2515.2638,2.9646641479556664
2516.596,0.810016792114368
2517.9275,5.505301510698558
2519.2583,1.7005157494945777
2520.5884,0.64565689923581
2521.9178,1.2907223336504856
2523.2465,2.0357094200103205
2524.5745,3.6306155126798245
2525.9018,6.525437945666418
2527.2284,1.4201740166713819
2528.5543,3.6648209581416182
2529.8796,1.9093759883223171
2531.2041,4.903836288810467
2532.5279,3.048199022109337
2533.851,1.5424613016838435
2535.1735,3.486620210516932
2536.4952,3.730672816166951
2537.8163,4.324616151326104
2539.1366,2.018447211379865
2540.4562,2.362162948467571
2541.7752,6.105760294544098
2543.0935,3.3492361579427126
2544.411,4.092587385939105
2545.7279,2.085810792316636
2547.0441,4.628903149932761
2548.3596,7.7718612107868665
2549.6744,0.8146816805892954
2550.9885,6.107361187331826
2552.3019,1.49989635085943
2553.6146,6.042283729943485
2554.9266,5.184519868356425
2556.2379,2.2766012494478716
2557.5485,4.818524304722239
2558.8585,3.360285442917956
2560.1677,1.8018810245882264
2561.4762,3.643307376683417
2562.7841,3.234560808135093
2564.0913,5.175637591441777
2565.3977,3.1665339667563757
2566.7035,4.707246122475468
2568.0086,6.497770215330334
2569.313,4.4881023549797945
2570.6167,6.0782385861049875
2571.9197,3.068174908506009
2573.222,2.2579072612006
2574.5236,6.1474315525247505
2575.8246,4.986743668235384
2577.1248,2.2758394326151787
2578.4244,3.214714620079299
2579.7232,6.703364982284583
2581.0214,3.841786238740724
2582.3189,2.929974041923792
2583.6157,5.61792400589205
2584.9118,6.605631715404023
2586.2072,3.493092699039039
2587.5019,4.430302419320093
2588.7959,3.017256303839261
2590.0893,8.503949735885605
2591.3819,6.640378068575664
2592.6739,8.026536569986476
2593.9652,5.762420441791313
2595.2557,9.998024805398089
2596.5456,5.333344724590546
2597.8348,5.618375163172175
2599.1234,4.003111031613038
2600.4112,4.6375471841994695
2601.6983,5.821678435186698
2602.9848,6.055499552454513
2604.2705,6.539005245665926
2605.5556,6.872190163928991
2606.84,7.90504889096173
2608.1237,5.437575941760258
2609.4067,4.169765752270244
2610.689,3.95161270406161
2611.9707,6.533111137006628
2613.2516,5.964255351461475
2614.5319,2.045039582451203
2615.8115,5.175458005358344
2617.0903,8.105504775115051
2618.3685,2.085173994898888
2619.6461,5.014459686832382
2620.9229,6.143355852186346
2622.199,5.421856442086998
2623.4745,5.4499553462270285
2624.7493,6.227646400080566
2626.0234,2.754923384622188
2627.2968,6.981780018550033
2628.5695,3.708209993013
2629.8415,5.5842069293422085
2631.1128,8.309764411786674
2632.3835,4.58487596875338
2633.6535,9.909535045551678
2634.9228,6.133735041642154
2636.1914,2.5574692573900677
2637.4593,4.280730931823339
2638.7265,4.053513278395194
2639.9931,5.625809467751573
2641.259,2.5976126300032973
2642.5242,4.818915839003118
2643.7887,2.589712142627704
2645.0525,6.859994540564529
2646.3156,4.879756006603998
2647.5781,4.648989445936589
2648.8398,9.467687714955247
2650.1009,4.385843623563034
2651.3613,0.5034498869861679
2652.6211,6.6204991765924355
2653.8801,3.1369841587151406
2655.1385,1.6528974334825968
2656.3961,3.618231569653272
2657.6531,5.8329791194566845
2658.9094,5.797132598940038
2660.1651,5.860684465820746
2661.42,5.573627119844904
2662.6743,5.235952902151801
2663.9279,3.6476540981444217
2665.1808,7.708722940866281
2666.433,6.569151626884334
2667.6846,3.0289322756783434
2668.9354,6.188056941036557
2670.1856,7.396517646457934
2671.4351,6.8543063535608475
2672.6839,1.6114149499985366
2673.9321,7.067835254881189
2675.1795,8.173559071204846
2676.4263,3.8785781312872203
2677.6724,7.932884085710469
2678.9179,9.436468546270937
2680.1626,6.439323045436183
2681.4067,7.541439021309078
2682.6501,5.1428078475992685
2683.8928,7.0934208226020345
2685.1348,6.643269193184569
2686.3761,3.792344135279862
2687.6168,8.59063675838826
2688.8568,6.138138134086638
2690.0961,7.534839248045532
2691.3348,3.1307310245540947
2692.5727,7.2758043125531024
2693.81,8.470049929676062
2695.0466,5.663458620798433
2696.2826,2.8060210460952
2697.5178,2.8977278091067795
2698.7524,6.8885694853134005
2699.9863,8.32853662121802
2701.2195,4.367619694437934
2702.452,5.105809099305077
2703.6839,4.343095186475207
2704.9151,8.929468255546006
2706.1456,6.214918562684229
2707.3755,7.049436274761959
2708.6046,7.1830114965021
2709.8331,7.465634262133225
2711.0609,8.797294534053776
2712.2881,8.077982200005888
2713.5145,7.4576870597587686
2714.7403,6.086398832301786
2715.9654,8.71410716204748
2717.1899,7.99080163254439
2718.4136,7.216471740200017
2719.6367,10.641106901513862
2720.8591,9.2146964608207
2722.0809,11.837229656044268
2723.3019,13.758695632961327
2724.5223,8.479083418976394
2725.7421,12.198381903907002
2726.9611,9.966579892779887
2728.1795,9.933666068637994
2729.3972,8.549629014858464
2730.6142,9.914457215481818
2731.8306,7.6781390690522855
2733.0462,8.490662874969523
2734.2612,7.352016855851815
2735.4756,4.262189149410823
2736.6892,6.6711678198380575
2737.9022,7.27894088870314
2739.1145,5.985496310864026
2740.3262,8.090821968389282
2741.5372,4.394905683492521
2742.7475,7.047735197479156
2743.9571,5.5992982077055515
2745.1661,5.999582341050722
2746.3744,6.698575168400719
2747.582,3.4962642006457543
2748.7889,7.592636881690307
2749.9952,4.587680620476235
2751.2008,3.3313827500190314
2752.4057,5.823730557457406
2753.61,2.964711296616251
2754.8136,4.504312163083171
2756.0165,0.8925203227986813
2757.2188,0.7293228966601895
2758.4204,2.314706996639906
2759.6213,4.898659727416842
2760.8215,1.8811681705229546
2762.0211,4.762219358503614
2763.22,0.14180030509253427
2764.4182,4.369897976401223
2765.6158,3.046499337123212
2766.8127,5.071591308253044
2768.009,4.595160780320292
2769.2045,3.8171945931386304
2770.3994,4.787679540570135
2771.5936,3.7066023783049467
2772.7872,4.123949814156418
2773.9801,0.589708518871884
2775.1723,-1.9961348780408095
2776.3639,1.0164062470291064
2777.5548,-1.622661540920184
2778.745,6.086668312945456
2779.9346,1.094418573848941
2781.1235,-1.1493880538534818
2782.3117,0.605271123250251
2783.4992,2.8584302809588458
2784.6861,2.2601235890183027
2785.8723,2.6103851885903104
2787.0579,0.30924919823536
2788.2428,2.7567497104101015
2789.427,1.202920814478702
2790.6106,1.7977965722378464
2791.7935,0.8914110334550251
2792.9757,3.933798229919759
2794.1573,2.12499218450748
2795.3382,5.615026880755657
2796.5184,1.2539362809518373
2797.698,0.991754291233331
2798.8769,1.028514805198089
2800.0551,-0.13574829347345485
2801.2327,-0.1010011313860133
2802.4096,2.13279152098114
2803.5859,1.2156659021500182
2804.7615,-0.40234177068525057
2805.9364,4.328804707512795
2807.1106,0.8591455611759002
2808.2842,0.8887209714477926
2809.4572,5.217571110880737
2810.6294,1.6457361431398176
2811.801,4.523256179714419
2812.972,5.550171315636582
2814.1423,3.0265216007057845
2815.3119,5.602347029219803
2816.4808,9.027687565211224
2817.6491,6.602583116689175
2818.8167,8.877073501385919
2819.9837,12.401198471007902
2821.15,17.52499768849083
2822.3157,17.14851069275846
2823.4807,21.12177684748456
2824.645,25.094835344857824
2825.8086,28.217725165849192
2826.9716,29.490485040481282
2828.134,33.713153416599454
2829.2957,38.935768447144255
2830.4567,38.208367947924714
2831.617,40.78098934539215
2832.7767,41.203669683914256
2833.9358,41.726445600048805
2835.0941,43.29935331831692
2836.2519,45.772428645975225
2837.4089,39.49570695728684
2838.5653,39.16922316879061
2839.7211,37.643011802068315
2840.8761,33.61710698700951
2842.0306,35.591542477073624
2843.1843,37.91635168954906
2844.3374,31.34156768580877
2845.4899,35.41722314806222
2846.6417,33.843350445103226
2847.7928,33.06998159155336
2848.9433,36.147148263600684
2850.0931,37.07488180673349
2851.2422,36.35321320496857
2852.3907,39.18217307157393
2853.5385,35.411791656285445
2854.6857,38.2920988170173
2855.8323,41.47312405756575
2856.9781,41.504896498806076
2858.1233,42.687444846882336
2859.2679,46.77079739288962
2860.4118,45.604982001048555
2861.555,46.49002606787187
2862.6976,48.02595653382243
2863.8395,45.262799874462885
2864.9808,48.80058208509632
2866.1214,50.739328708397835
2867.2614,50.77906479903669
2868.4007,49.3198149042889
2869.5393,51.41160306363986
2870.6773,51.104452823376775
2871.8146,58.49838721567093
2872.9513,53.243428761649014
2874.0874,54.289599397453856
2875.2227,55.78692052679405
2876.3574,60.88541301048218
2877.4915,57.83509715146161
2878.6249,57.08599264382162
2879.7577,60.63811860330051
2880.8898,62.44149357477664
2882.0212,62.99613549674722
2883.152,63.55206168329453
2884.2821,63.25928881853951
2885.4116,63.067832951082465
2886.5405,68.17770949693087
2887.6686,66.18893324141386
2888.7962,64.45151828808346
2889.923,66.61547807860241
2891.0493,64.68082541011825
2892.1748,67.19757241362375
2893.2997,62.26573057330347
2894.424,68.13531070136622
2895.5476,66.35632298736358
2896.6706,67.77877693949397
2897.7929,64.85268140239265
2898.9145,68.32804454290704
2900.0355,68.35487387935785
2901.1559,66.73317624678535
2902.2756,68.11295779668103
2903.3946,68.69422401320466
2904.513,67.5769796993865
2905.6308,61.561228971314485
2906.7479,63.496975269306844
2907.8643,63.184221418069534
2908.9801,65.02296960733872
2910.0953,65.26322139500844
2911.2098,65.70497768874299
2912.3236,63.44823874357447
2913.4368,64.64300415748525
2914.5494,61.439272893975286
2915.6613,59.68704327011452
2916.7725,56.786312988580164
2917.8831,56.637079155179016
2918.9931,62.78933830785475
2920.1024,57.79308641818028
2921.211,58.04831882983512
2922.319,54.85503030856795
2923.4264,55.013215039644265
2924.5331,55.222866659779314
2925.6391,55.83397825555616
2926.7445,52.24654236132925
2927.8493,56.3605509531132
2928.9534,56.12599548445728
2930.0569,57.292866845305205
2931.1597,56.76115536434082
2932.2619,57.28085079731925
2933.3634,57.60194233238413
2934.4643,55.72441858487056
2935.5645,62.748267594094244
2936.6641,59.07347684212673
2937.763,61.0500331835569
2938.8613,59.42792288223884
2939.959,57.25713159152635
2941.056,57.98764437049401
2942.1523,56.419445705645074
2943.248,55.802519503606376
2944.3431,51.08684910681031
2945.4375,45.67241729966407
2946.5313,41.15920635570636
2947.6244,38.24719809175174
2948.7169,36.186373913022706
2949.8087,33.6267148422698
2950.8999,28.718201540379805
2951.9904,26.21081433197239
2953.0803,25.00453325448522
2954.1696,27.44933808324782
2955.2582,22.645208343544407
2956.3462,21.292123286165825
2957.4335,22.84006193545084
2958.5202,21.73900310281698
2959.6062,18.23892537128117
2960.6916,22.98980710647031
2961.7764,19.79162649162205
2962.8605,19.59436148007599
2963.9439,22.297989827255456
2965.0267,19.40248909264021
2966.1089,18.607836612730097
2967.1905,18.864009530000086
2968.2714,20.320984800846794
2969.3516,21.728739193026758
2970.4312,21.987249271086654
2971.5102,21.546491382285787
2972.5885,22.056441654010992
2973.6662,20.917075998184178
2974.7432,24.078370106162847
2975.8196,22.04029946013376
2976.8954,21.80283930149996
2977.9705,19.96596465126152
2979.045,22.679650312390123
2980.1188,23.243870888197815
2981.192,21.00860075520013
2982.2645,21.473814057473927
2983.3364,20.239484729010048
2984.4077,18.605586489061224
2985.4783,18.822092854485348
2986.5483,20.338977156084447
2987.6177,15.856212536439632
2988.6864,17.823771934742254
2989.7545,12.441628131621542
2990.8219,13.009753729469008
2991.8887,11.878121206259902
2992.9548,9.746702909871935
2994.0204,12.115471069401611
2995.0852,9.18439781647842
2996.1495,10.053455161577148
2997.2131,5.722615023328604
2998.276,8.24184921982906
2999.3383,5.511129511948631
3000.4,5.230427578138965
3001.4611,4.049715041740409
3002.5215,4.318963473789051
3003.5812,1.638144404823823
3004.6404,4.157229322194029
3005.6989,2.626189696867529
3006.7567,-0.20500304176009543
3007.8139,-0.03637749055516615
3008.8705,3.382039801596383
3009.9264,2.650222649219735
3010.9818,1.7181448330196893
3012.0364,3.5857801071988202
3013.0905,0.5531022087782596
3014.1439,3.1700848389213423
3015.1966,-1.1632983067396143
3016.2487,2.652926435726865
3017.3002,0.8687443516023308
3018.3511,3.034140699639071
3019.4013,-0.4508992700980503
3020.4509,0.36360966211441514
3021.4998,-0.37234277951637473
3022.5481,0.09123312558064711
3023.5958,-0.4956691823190962
3024.6428,3.516943736147484
3025.6892,3.3290702720786065
3026.735,1.740708781403061
3027.7802,2.15185758675894
3028.8247,0.012514993377257255
3029.8685,2.5726792849704534
3030.9118,2.0323487451258337
3031.9544,3.6915216317039103
3032.9963,0.2501961822417176
3034.0376,1.608370597361077
3035.0783,0.5660430751818577
3036.1184,0.6232117977402165
3037.1578,2.6298749414118934
3038.1966,3.1360306763405
3039.2348,2.3916771463709097
3040.2723,0.5468124639876883
3041.3092,1.3514347177586394
3042.3455,1.8555419907834487
3043.3811,3.509132352647459
3044.4161,1.9622038543805829
3045.4505,2.4147545119214318
3046.4842,-0.4332176784134223
3047.5173,3.3682852555450467
3048.5498,1.7692656138104716
3049.5816,4.169725662713635
3050.6128,3.1696676508926664
3051.6434,1.7190937852884502
3052.6734,2.368006241145185
3053.7027,4.26640717651615
3054.7314,4.0642987257745595
3055.7594,2.7116829806295684
3056.7868,4.7585619921473405
3057.8136,2.604937784277219
3058.8398,6.300812333382925
3059.8653,4.396187589778808
3060.8902,6.141065440771106
3061.9145,4.235447729704179
3062.9381,4.679336238511738
3063.9612,5.872732706773014
3064.9835,6.815638827273885
3066.0053,2.6580562340729017
3067.0264,7.89998649307223
3068.0469,6.041431143593487
3069.0668,7.632391645958418
3070.086,5.472869400074462
3071.1046,6.862865729525147
3072.1226,6.552381903165312
3073.1399,5.091419121221138
3074.1567,7.629978518394992
3075.1727,3.6680611784750514
3076.1882,6.755668108949715
3077.203,7.8928002806267745
3078.2173,5.2294585967573415
3079.2308,6.765643881664527
3080.2438,2.401356907376865
3081.2561,5.98659837826645
3082.2678,5.471368974691817
3083.2789,4.455669317145519
3084.2893,2.1894999714064216
3085.2991,3.972861458696711
3086.3083,5.055754278343564
3087.3169,2.788178889945553
3088.3248,4.470135702543711
3089.3321,2.151625097297286
3090.3388,2.282647410664169
3091.3449,5.363202957586002
3092.3503,4.293292030177957
3093.3551,3.022914866923184
3094.3593,2.852071663371917
3095.3629,2.480762584845242
3096.3658,2.158987768143536
3097.3681,4.436747325259551
3098.3698,3.7640413465961586
3099.3708,4.340869878188767
3100.3713,6.117232928432369
3101.3711,4.293130462313264
3102.3702,7.568562383645427
3103.3688,6.543528553311529
3104.3667,6.268028756508622
3105.364,1.9420627129984833
3106.3607,2.1656300798625994
3107.3568,1.8387304947618412
3108.3522,2.661363573700772
3109.347,3.8835289142966554
3110.3412,5.7552260875531225
3111.3348,1.7764546256385136
3112.3277,2.747214003168909
3113.32,4.667503676995848
3114.3117,3.637323076498732
3115.3028,0.5566715843819283
3116.2932,1.8755485469765754
3117.2831,-0.6060466949528998
3118.2723,2.4618851806024447
3119.2608,2.4793495500580294
3120.2488,2.346351765210427
3121.2361,3.2628971530627116
3122.2229,7.628991017154447
3123.209,3.2446386283962205
3124.1944,3.559845181408722
3125.1793,1.3746158383662488
3126.1635,0.5889557258446505
3127.1471,1.7528699566736199
3128.1301,2.216363637793295
3129.1125,2.6294418586151167
3130.0942,2.292109686386894
3131.0753,4.204372162062016
3132.0558,1.7662343036727766
3133.0357,0.02770108720775699
3134.015,1.5387774709931907
3134.9936,3.099468413078304
3135.9716,3.859778856124552
3136.949,2.0697137117987046
3137.9258,1.6292778531697474
3138.902,2.8884761326095285
3139.8775,4.747313386197121
3140.8524,4.3557944211268325
3141.8267,3.863923997119848
3142.8004,2.6717068303394007
3143.7735,0.12914759830949096
3144.7459,3.786250951837048
3145.7178,3.1430215404375335
3146.689,2.649463975763899
3147.6596,2.105582838038884
3148.6295,3.4613826809905905
3149.5989,2.5168680372912955
3150.5676,2.47204340499945
3151.5357,5.126913257004825
3152.5032,2.9814820414767595
3153.4701,4.285754155315461
3154.4364,3.1897339656063166
3155.402,3.893425796577169
3156.367,2.7968339405585265
3157.3315,3.9999626509466384
3158.2952,3.8528161531694196
3159.2584,0.8053986326551583
3160.221,-0.042285763696016776
3161.1829,4.10976710296204
3162.1442,2.911561793910253
3163.105,3.1631028293318764
3164.065,3.714394700294549
3165.0245,5.065441866234884
3165.9834,3.4662487494455485
3166.9416,2.4168197215647944
3167.8993,2.167159119568384
3168.8563,4.967271256263886
3169.8127,3.9671604227872783
3170.7684,4.36683086060183
3171.7236,2.5162867714992037
3172.6782,3.065532313602759
3173.6321,4.464571619872988
3174.5854,4.663408792615058
3175.5381,2.562047889488424
3176.4902,3.110492921518454
3177.4417,4.558747874110037
3178.3926,5.156816701563136
3179.3428,2.2047033125902304
3180.2924,1.9524115643356375
3181.2415,3.5499452918966377
3182.1899,6.4473083108464
3183.1377,3.7445044012586433
3184.0848,4.291537278734
3185.0314,4.088410621428065
3185.9773,7.885128064581058
3186.9227,2.5316932025490964
3187.8674,3.978109550837015
3188.8115,1.1243805996327163
3189.755,3.270509799343013
3190.6979,1.2165005891309058
3191.6402,5.112356375454303
3192.5818,5.858080552606104
3193.5229,4.903676463755646
3194.4633,0.6491473934914613
3195.4031,5.694496577365317
3196.3423,2.78972724443751
3197.2809,5.934842566823369
3198.2189,3.829845688740953
3199.1563,0.22473969505989755
3200.0931,3.819527632351381
3201.0292,3.264212544939184
3201.9648,5.908797438951815
3202.8997,2.0532852878756542
3203.834,4.197679006109111
3204.7677,2.941981487517742
3205.7008,5.086195583990312
3206.6333,5.630324117995773
3207.5652,6.524369861141121
3208.4964,6.118335528730112
3209.4271,3.0622237708228033
3210.3571,4.256037176295898
3211.2865,1.249778303403862
3212.2154,7.593449667840791
3213.1436,6.237053772802993
3214.0712,6.6305930455522715
3214.9982,3.224069850979895
3215.9246,4.517486487671202
3216.8503,3.860845221970829
3217.7755,4.404148275048552
3218.7001,3.7473978294656924
3219.624,5.09059602374209
3220.5473,5.033744958923606
3221.4701,4.57684668515014
3222.3922,5.4699032022241445
3223.3137,3.5629164641796027
3224.2346,2.955888370351467
3225.1549,3.948820784445525
3226.0746,4.54171554060868
3226.9937,3.534574433499628
3227.9121,6.877399212359909
3228.83,4.1701915910853184
3229.7473,6.062953214797659
3230.6639,7.555685686916821
3231.5799,4.7483905502331565
3232.4954,7.291069271980164
3233.4102,4.283723271907435
3234.3244,3.9263538968538705
3235.238,8.068962450821134
3236.151,4.261550198547353
3237.0634,6.804118324081029
3237.9752,5.746667968855158
3238.8864,2.8892002062615583
3239.797,5.231716052225363
3240.7069,6.674216493779706
3241.6163,3.016702465640558
3242.5251,5.059174835781726
3243.4332,3.4516344420099907
3244.3408,1.994082071540385
3245.2477,5.736518477071597
3246.154,4.178944391361491
3247.0598,5.421360489802749
3247.9649,3.5637674059986093
3248.8694,7.1061657193387004
3249.7733,4.49855597357498
3250.6766,3.4409386413977465
3251.5793,5.533314150511738
3252.4814,2.4256828942123048
3253.3829,6.418045210461655
3254.2838,5.560401412965168
3255.1841,7.102751751247771
3256.0838,6.6950964192303735
3256.9829,4.437435539806367
3257.8814,5.979769168918182
3258.7792,-0.07790268186611415
3259.6765,5.164419939223861
3260.5731,5.456737762206277
3261.4692,6.099051465455105
3262.3647,5.491361672776938
3263.2595,5.033668946987852
3264.1538,6.075973795990308
3265.0474,4.6682766773500735
3265.9404,1.3105779878731778
3266.8329,5.1528780776828835
3267.7247,5.495177283796673
3268.616,6.237475891703244
3269.5066,4.9297741319395225
3270.3966,3.822072172667677
3271.286,8.064370132752128
