RamanShift,CorrectedData
30.1047,1224.126519922519
32.3739,1134.6040137257503
34.6426,1049.531495287716
36.9109,961.3089410211112
39.1787,871.786316843315
41.4461,786.6135790586168
43.7131,696.1406752534429
45.9796,605.8675451480829
48.2456,523.6941215014198
50.5112,434.47033101366077
52.7764,346.1460951480717
55.0411,264.47133102321504
57.3054,179.8459522961922
59.5692,93.3198699793911
61.8326,8.34299328674031
64.0955,-74.28476950103035
66.3579,-157.71351018662102
68.6199,-230.79257846788448
70.8815,-299.0697484847069
73.1426,-320.19048875911585
75.4032,-235.04728010635188
77.6634,126.6705953613274
79.9231,1131.7762036539916
82.1824,3424.6326095150057
84.4412,7731.002866369973
86.6995,13851.54999339817
88.9574,20041.036932468847
91.2148,24429.62648693575
93.4717,26564.881259742266
95.7282,27022.26360953551
97.9842,26956.03562931378
100.2398,26347.909141852746
102.4949,25715.995700367723
104.7495,24882.306594594935
107.0036,23968.402857110643
109.2573,23085.84527166805
111.5105,22132.54438233634
113.7632,21193.610502326213
116.0154,20411.453723522973
118.2672,19769.183925875783
120.5185,19089.26078521928
122.7693,18591.693779696274
125.0197,18107.292196556955
127.2696,17711.465137134583
129.519,17463.771521689483
131.7679,17191.220093367356
134.0163,16973.569420676165
136.2642,16720.077900211683
138.5117,16460.75375883399
140.7587,16255.40505620239
143.0052,15969.089687368652
145.2512,15685.065384830492
147.4967,15353.58972139474
149.7417,15103.670113017559
151.9863,14898.263822119226
154.2304,14735.777960083324
156.4739,14514.619489310786
158.717,14358.145224844768
160.9596,14105.111836582246
163.2017,13751.725850838735
165.4433,13376.843652878633
167.6844,12946.971490449083
169.925,12512.315477528791
172.1651,12040.581598626752
174.4047,11590.325713128803
176.6439,11209.50356001497
178.8825,10839.270762362023
181.1206,10547.682831151695
183.3582,10251.345168973017
185.5954,10076.713072938192
187.832,9858.891737645969
190.0681,9718.986256927972
192.3037,9609.201626026912
194.5388,9499.092742995628
196.7734,9457.464409794953
199.0075,9447.77133339479
201.2411,9491.6681261904
203.4742,9451.309306099334
205.7068,9514.899296122465
207.9389,9498.49242474758
210.1704,9577.742925313465
212.4015,9623.554936173987
214.632,9727.782499905594
216.862,9845.229562849174
219.0915,10006.599974067802
221.3205,10210.397484172261
223.549,10430.675743707336
225.777,10722.73830111384
228.0044,11147.738600525841
230.2314,11624.879978850015
232.4578,12070.06566151567
234.6837,12465.748757703303
236.909,12676.332255892767
239.1339,12564.619019906431
241.3582,12227.711786803342
243.582,11679.713167996364
245.8053,11175.025652621245
248.0281,10670.601613016603
250.2503,10238.993309770813
252.472,9939.552896766229
254.6932,9700.63242549527
256.9139,9475.833848054841
259.134,9318.709019535512
261.3536,9092.40970026953
263.5727,9003.187557402054
265.7912,8783.544167154138
268.0092,8613.131015714973
270.2267,8467.149501438314
272.4436,8317.550936546604
274.6601,8188.836548590797
276.8759,8055.357481946344
279.0913,8025.014799100331
281.3061,7993.859481986279
283.5204,8020.392432287561
285.7341,8105.964471748956
287.9473,8253.426341911327
290.16,8467.77870325589
292.3721,8803.172133729604
294.5837,9249.807126601654
296.7947,9600.034087109496
299.0052,9783.903327992517
301.2152,9571.465065989776
303.4246,9125.819420001293
305.6334,8433.766413212452
307.8418,7771.055977550432
310.0495,7293.737960604765
312.2568,6872.962132254423
314.4635,6590.428189440996
316.6696,6493.135760376463
318.8752,6400.084407368522
321.0802,6449.7236277935135
323.2847,6513.052855026939
325.4887,6530.771457947072
327.692,6435.8787403016595
329.8949,6264.5739405307395
332.0972,5889.1062327155705
334.2989,5547.4747282916705
336.5001,5203.42847980351
338.7007,4948.666484320811
340.9008,4720.4376868790205
343.1003,4558.940983026923
345.2992,4462.925221108937
347.4976,4378.139203880073
349.6955,4331.0816894660875
351.8927,4368.901392211352
354.0895,4291.496983149429
356.2856,4328.567089624867
358.4812,4280.110296067251
360.6763,4234.025143620502
362.8707,4138.910130627444
365.0646,4172.663713090653
367.258,4084.684305623612
369.4508,4070.2202811131647
371.643,4071.4199715993127
373.8346,4009.8816684198646
376.0257,3928.3536221984305
378.2162,3808.8840434598187
380.4062,3649.6711034453037
382.5956,3430.8629353073175
384.7844,3317.0076357015896
386.9726,3132.4032669752232
389.1603,3035.497858305258
391.3474,2932.789407544704
393.5339,2908.3258821915933
395.7199,2823.405220416076
397.9052,2811.975331305044
400.09,2785.034095711344
402.2743,2792.3793663680717
404.4579,2848.258968157985
406.641,2933.7206980400606
408.8235,3123.0623244906837
411.0054,3454.0815866490448
413.1868,3990.7761924237093
415.3675,4347.593815182441
417.5477,4606.732088385244
419.7273,4633.988602016187
421.9064,4451.160899992023
424.0848,4329.046479889621
426.2627,4064.3927947742504
428.4399,3710.347254420716
430.6166,3295.3572279598993
432.7928,2874.020047419219
434.9683,2498.583011872528
437.1432,2247.6933916534836
439.3176,2036.8984321099142
441.4914,1872.8453561127135
443.6645,1815.6313661638123
445.8371,1722.3036460366766
448.0091,1628.9093613484656
450.1806,1566.745660493314
452.3514,1478.0596755762563
454.5216,1449.9985230348866
456.6913,1352.6093045262005
458.8603,1342.7891072072143
461.0288,1400.63500470886
463.1967,1429.0440572341795
465.3639,1547.4633109798706
467.5306,1690.6897978521993
469.6967,1861.6705342827972
471.8622,2042.7525197964096
474.0271,2208.882735301073
476.1914,2291.9581412772986
478.3551,2240.6756761167744
480.5182,2175.0322552916095
482.6807,2082.324771867161
484.8426,2144.200097158473
487.0039,2351.8050816573395
489.1647,2766.036554413564
491.3248,3268.041320958908
493.4843,3486.066159164773
495.6432,3516.3578142221486
497.8015,3442.412996461371
499.9592,3462.428381049209
502.1163,3427.050608728303
504.2728,3246.2762856170175
506.4287,2898.5019835632156
508.5839,2395.2242419520044
510.7386,2004.6895711834713
512.8927,1764.9944577054757
515.0461,1548.1853679189808
517.199,1418.8587505750074
519.3512,1325.5110389427264
521.5029,1301.688652102719
523.6539,1305.237995880474
525.8043,1305.2054630845905
527.9541,1345.6374334712964
530.1033,1373.2302737447717
532.2519,1464.230337152825
534.3999,1646.9839632109688
536.5472,2010.3874767924171
538.694,2540.387186300546
540.8401,3238.379380034863
542.9856,3852.510320891004
545.1305,4090.926239380822
547.2748,3948.1233274910683
549.4185,3492.5977362992344
551.5615,3066.3955774015812
553.704,2840.862927468401
555.8458,2680.0958325060255
557.987,2618.5403101121665
560.1276,2489.0423510835826
562.2675,2356.3479200316306
564.4069,2247.902956677246
566.5456,2063.4033771778904
568.6837,1918.745075211993
570.8212,1681.4739238239654
572.958,1456.4857768707589
575.0942,1249.6764713945977
577.2299,1159.841829872843
579.3648,1163.4776622860973
581.4992,1293.4297670165543
583.6329,1563.3439308116303
585.766,1822.8659274844504
587.8985,1959.891515214711
590.0304,1995.5164339534458
592.1616,1953.9864040527827
594.2922,1832.897125909687
596.4222,1701.544280381264
598.5515,1544.223529995652
600.6802,1360.5305202655545
602.8083,1164.8608812614366
604.9358,1092.3102294484706
607.0626,999.2241696432175
609.1888,881.798295739145
611.3144,797.5281916374806
613.4393,611.509432421477
615.5636,444.68758519910625
617.6873,347.9582109632538
619.8103,265.2668662599317
621.9327,194.45910415557773
624.0544,193.9804750639687
626.1756,242.92652745430132
628.2961,240.29280785595802
630.4159,195.72486036907685
632.5351,133.31822669085705
634.6537,68.51844656126559
636.7716,34.52105838708485
638.8889,32.12159988993153
641.0056,41.21560844621126
643.1216,48.348621111123066
645.237,93.36617452771497
647.3518,106.4138048555451
649.4659,151.18704732051083
651.5793,159.3314360843724
653.6922,155.29250379702898
655.8043,161.16578151506474
657.9159,139.64679874214744
660.0268,74.0810833702908
662.137,5.814161895048528
664.2466,-25.358439928844746
666.3556,-17.541254430125264
668.4639,-67.03856060672842
670.5716,11.54553778054833
672.6786,95.3576066861151
674.785,201.0440967244631
676.8907,316.7014575565099
678.9958,395.87613683273776
681.1002,407.7145790366176
683.204,413.96322469286133
685.3072,369.0185102490432
687.4097,275.32686801310047
689.5115,207.18472660278894
691.6127,138.08851188260087
693.7132,48.9846476451803
695.8131,-26.58044369770323
697.9123,-15.760340224131141
700.0109,-54.758354473546206
702.1089,-85.57764153959943
704.2061,-85.32080947998475
706.3028,-38.339611431758385
708.3987,11.965051822897294
710.4941,155.192662514517
712.5887,348.59270275398376
714.6827,664.8646531002632
716.7761,1105.857990626393
718.8688,1538.6721857567773
720.9608,1792.2566978572358
723.0522,1838.9609709068773
725.1429,1582.184430962241
727.233,1218.776485690265
729.3224,852.4865269360471
731.4112,513.1639343569277
733.4993,272.5580790853892
735.5867,116.61832712228352
737.6735,45.044041742881745
739.7596,-15.415414943721771
741.845,-0.46068127886428556
743.9298,4.957758396105419
746.014,8.639424342047278
748.0974,32.133836770237394
750.1802,45.240515805569885
752.2624,62.90898125160129
754.3439,86.0387524594862
756.4247,141.82934815129192
758.5048,266.13028618870885
760.5843,436.89108301512897
762.6631,737.1112524126529
764.7413,1157.8903037944692
766.8188,1760.5777392026557
768.8956,2275.9730491003957
770.9718,2634.8757063451067
773.0473,2538.535161034475
775.1221,2250.200836917442
777.1962,1885.9721323575977
779.2697,1709.798423216529
781.3426,1755.4290664961118
783.4147,2049.2134021002385
785.4862,2433.7007523785214
787.557,2471.8904191884376
789.6271,2169.7316800504595
791.6966,1627.7237877661628
793.7654,1071.1659734398072
795.8335,779.8574518984242
797.901,558.1974272573771
799.9678,492.5350958334675
802.0339,500.06964836151747
804.0993,585.6002706510044
806.1641,594.1261435107172
808.2282,560.4464418934385
810.2916,466.91033481070554
812.3544,369.8669856695924
814.4164,270.9155532080713
816.4778,284.0551924654628
818.5385,284.83505577192227
820.5986,316.6542926170714
822.658,366.36204964218086
824.7166,385.3574703219783
826.7747,530.7896944675813
828.832,655.8078580365363
830.8886,796.3110916784935
832.9446,961.4485194850349
834.9999,1085.6192575846271
837.0545,1183.8724124912678
839.1085,1274.9070798627554
841.1618,1286.3723435181819
843.2143,1330.1672745275573
845.2662,1302.6909310971823
847.3175,1241.7423581316862
849.368,1157.1205875087908
851.4179,1039.1246386887988
853.467,870.203519560805
855.5155,780.8062276226701
857.5633,677.7317516702178
859.6105,566.2790726912162
861.6569,483.7971648961211
863.7027,440.98499683259706
865.7478,424.8415322103401
867.7922,443.36573032920205
869.8359,532.3065462406257
871.8789,675.7129305623967
873.9212,857.8838285892343
875.9629,1083.3681788587483
878.0039,1275.9149113296999
880.0441,1385.8729451271802
882.0837,1404.1411866171293
884.1226,1306.2685283067667
886.1609,1142.803848661897
888.1984,993.5960130856474
890.2352,947.9438755531091
892.2714,875.3462801034157
894.3069,854.6020612962693
896.3416,814.9100449379084
898.3757,815.1690482885606
900.4091,783.1278804593503
902.4418,801.4853424097219
904.4739,836.7902272678402
906.5052,835.1913201470215
908.5358,751.4873977926864
910.5658,608.0772285983467
912.595,467.30957344264607
914.6236,350.633187123457
916.6515,318.1468197655613
918.6786,342.59921798741107
920.7051,403.63912522599094
922.7309,536.1152814922989
924.756,609.3264227609434
926.7804,756.571279645389
928.8041,740.7985766658367
930.8272,766.007030776781
932.8495,691.0953515247329
934.8711,634.1622407961404
936.892,499.1063935665006
938.9123,331.72649846968943
940.9318,187.47123914852546
942.9506,69.73929592856257
944.9688,-33.020652739351135
946.9862,-39.00992910176137
949.003,-81.72952552889365
951.019,-62.53004468178915
953.0344,-30.16127274353039
955.0491,26.077628777940845
957.063,124.6877996858002
959.0763,242.27037952244427
961.0888,283.37650658340135
963.1007,416.2073167415001
965.1119,461.1139430358062
967.1223,501.54751434331956
969.1321,537.9091549299001
971.1412,601.299984045937
973.1495,631.7211155627383
975.1572,693.8736573386132
977.1641,722.1587109146658
979.1704,739.8273708932675
981.1759,752.2307246552064
983.1808,835.519852182997
985.1849,954.9458259368457
987.1884,1145.1597100217678
989.1911,1358.8125589933215
991.1932,1505.3554159554724
993.1945,1581.9893104240582
995.1951,1595.8652568613752
997.1951,1561.0842539098148
999.1943,1501.4472842531268
1001.1928,1444.155314964216
1003.1906,1448.659298101522
1005.1877,1468.8101712819343
1007.1841,1478.908857635748
1009.1798,1364.9062656051638
1011.1748,1185.0532888432926
1013.1691,969.2008073541847
1015.1627,765.0496892913634
1017.1556,582.3007931163447
1019.1477,491.254969640152
1021.1392,463.76306385080534
1023.1299,464.6259158237808
1025.12,507.19436099692575
1027.1093,550.2192301618306
1029.0979,635.9513490381405
1031.0859,718.3415378433119
1033.0731,726.3406104352907
1035.0596,672.899373488609
1037.0454,537.7686264143922
1039.0304,471.2991618947726
1041.0148,324.7917672342028
1042.9985,253.09722502414388
1044.9814,220.01631460814497
1046.9636,180.04981279878393
1048.9452,169.7984942084795
1050.926,156.06313164915537
1052.9061,161.59449623475666
1054.8855,156.09335751859908
1056.8642,214.71048343805705
1058.8421,274.7966403695782
1060.8194,304.9525925425032
1062.7959,366.27910143821464
1064.7717,398.52692548856976
1066.7469,411.54681946263736
1068.7213,387.8895341442212
1070.695,330.9558162016601
1072.6679,282.64640842439985
1074.6402,236.81205029233297
1076.6117,224.553478458889
1078.5826,290.2214272093797
1080.5527,356.81662858358686
1082.5221,528.3398117190818
1084.4908,764.9417021852723
1086.4587,994.5730202681689
1088.426,1195.484478604374
1090.3925,1233.3767798847612
1092.3584,1155.9006148453636
1094.3235,1006.0066618884484
1096.2879,891.3455878572813
1098.2515,857.1180495350673
1100.2145,894.2246947915546
1102.1767,950.4661629253169
1104.1382,1093.5930842926819
1106.099,1303.5560797453172
1108.0591,1543.5557591989664
1110.0185,1711.2427195338087
1111.9771,1709.7675421944732
1113.9351,1515.2807915131616
1115.8923,1190.1830147244054
1117.8488,863.8747439099307
1119.8045,580.1064992496349
1121.7596,425.4787922846717
1123.7139,351.2921287551362
1125.6675,357.9970101463359
1127.6204,434.74393443065856
1129.5726,474.0333960005273
1131.524,514.265884900924
1133.4748,582.791886436501
1135.4248,636.7118807692596
1137.3741,686.826342233283
1139.3226,666.1357387955331
1141.2705,652.890531554719
1143.2176,569.091174948192
1145.164,636.1381168844073
1147.1097,672.2817995809055
1149.0546,670.1226588938498
1150.9989,592.0111239565858
1152.9424,444.9976172012366
1154.8852,238.63255513981312
1156.8272,108.41634983435597
1158.7686,16.599410960578098
1160.7092,-6.267852889966889
1162.6491,-0.935033291718355
1164.5883,46.348340796728735
1166.5267,148.53274975776094
1168.4644,303.0686735102854
1170.4014,498.95659048788093
1172.3377,726.5969760934468
1174.2732,956.440300740318
1176.2081,1183.9870275758622
1178.1421,1356.4376101830512
1180.0755,1522.2924903049907
1182.0082,1534.9520961204116
1183.9401,1471.2168405851226
1185.8713,1294.7871213054132
1187.8017,1049.9133211754097
1189.7315,798.7458101413695
1191.6605,544.3349476504163
1193.5888,377.881085162222
1195.5163,255.23456869310758
1197.4432,157.44574048058712
1199.3693,93.61494020983173
1201.2947,69.44250599155748
1203.2193,66.57877500033192
1205.1432,101.12408371630136
1207.0664,178.97876795382763
1208.9889,242.09316251603377
1210.9106,356.66760041626276
1212.8316,459.9524122469229
1214.7519,564.4979250337501
1216.6715,599.1544612029611
1218.5903,586.2223375357989
1220.5084,569.9018648219653
1222.4257,545.2433479889423
1224.3424,483.8970862651904
1226.2583,556.013373426742
1228.1735,686.7924984106639
1230.0879,813.9847445938904
1232.0016,970.6903884854355
1233.9146,1040.509698454469
1235.8269,977.392933163258
1237.7384,838.5903408689774
1239.6492,671.2021600548742
1241.5592,585.7286208182959
1243.4686,502.11994654456794
1245.3772,432.676354761732
1247.285,382.54805797663084
1249.1922,362.1352643693499
1251.0986,350.58817829449526
1253.0042,369.1570004853247
1254.9092,455.5919281692195
1256.8134,569.943154881993
1258.7169,713.6108696035399
1260.6196,886.7952556143291
1262.5216,1092.096489058723
1264.4229,1223.414737213132
1266.3234,1355.0501564330061
1268.2232,1413.4028908396513
1270.1223,1428.7730710038695
1272.0207,1397.9108133624404
1273.9183,1387.8162200644156
1275.8151,1316.8393792797397
1277.7113,1228.8303653002004
1279.6067,1102.2392392491947
1281.5014,946.0660499618161
1283.3953,812.510835250765
1285.2885,718.5736234680862
1287.181,656.8544348407167
1289.0727,686.8032824098582
1290.9637,708.0701726481693
1292.854,835.5051051602804
1294.7435,1012.95807247012
1296.6323,1223.529058746567
1298.5204,1517.8180380289205
1300.4077,1793.1249721211916
1302.2943,2027.5998076492178
1304.1802,2118.692473307585
1306.0653,2097.7028775148874
1307.9497,2013.4809075027952
1309.8333,1944.9264295259536
1311.7162,1960.1892897042017
1313.5984,2039.619314708114
1315.4798,2209.0163116063786
1317.3605,2394.9800670714903
1319.2405,2586.010345685787
1321.1197,2651.1068880818048
1322.9982,2642.1694090319834
1324.876,2651.7475967976934
1326.753,2648.041113218612
1328.6293,2688.5495936169436
1330.5048,2694.122646834484
1332.3796,2682.9098548275424
1334.2537,2666.4607726112
1336.127,2640.02492837144
1337.9996,2625.601823629643
1339.8714,2584.740933506945
1341.7426,2517.4917068684617
1343.6129,2484.2535667319044
1345.4826,2448.175910940071
1347.3515,2382.7081124932247
1349.2196,2326.3995199098727
1351.087,2325.199457881441
1352.9537,2387.5572278353657
1354.8197,2520.7221079470874
1356.6849,2676.793352516478
1358.5493,2792.520190636189
1360.4131,2797.3518246309422
1362.276,2714.487428900262
1364.1383,2599.376149870155
1365.9998,2402.0171068217605
1367.8606,2149.1593930424524
1369.7206,1887.7020777994394
1371.5799,1736.8442088683414
1373.4384,1662.4348151477543
1375.2962,1546.0729081678392
1377.1533,1333.8074828344115
1379.0096,1058.5875185925615
1380.8652,797.2119815493043
1382.7201,593.5298272257851
1384.5742,402.1400031710309
1386.4275,269.24145099877205
1388.2802,181.6831083013376
1390.132,103.86390997864692
1391.9832,67.98278911378748
1393.8336,3.888677751207979
1395.6832,-8.969492744465242
1397.5322,-26.842791047492483
1399.3803,-27.932196226900942
1401.2278,-23.98841919223605
1403.0745,-21.161891810404995
1404.9204,-5.352806304008936
1406.7656,29.63885651164901
1408.6101,46.56316929579725
1410.4538,90.72020441127688
1412.2968,134.11003375530072
1414.139,219.03272831788036
1415.9805,308.38835774793097
1417.8213,401.87698950404365
1419.6613,569.5486879609248
1421.5006,775.0035134745167
1423.3391,1065.1915207052716
1425.1769,1439.6127565636093
1427.0139,1968.3172573080406
1428.8502,2598.3550448009464
1430.6858,3235.3261212215393
1432.5206,3736.980462765483
1434.3547,4051.1180132751824
1436.188,4109.188679223235
1438.0206,4066.0923265710653
1439.8524,3977.3287801882097
1441.6835,3878.3478242832844
1443.5139,3767.149203291618
1445.3435,3740.7826228650656
1447.1724,3709.5977509839904
1449.0005,3641.144218220933
1450.8279,3550.7716180524544
1452.6545,3511.27950754368
1454.4804,3553.0174082520157
1456.3056,3576.9348066220755
1458.13,3535.681153568303
1459.9536,3303.8058642357933
1461.7766,2947.8083184128304
1463.5987,2535.6378628496473
1465.4202,2126.193814818391
1467.2409,1813.4754662348337
1469.0608,1506.182087752808
1470.88,1256.412931891396
1472.6984,1051.2172361078578
1474.5161,848.7442252953274
1476.3331,709.1431138347689
1478.1493,572.4631076197056
1479.9648,486.9534054522305
1481.7795,425.513200409805
1483.5935,349.39168070035794
1485.4067,288.788030276688
1487.2192,253.10142959767927
1489.031,207.13105623433603
1490.842,195.3760852266496
1492.6522,181.28568954330194
1494.4618,168.8590401992128
1496.2705,156.29530639644963
1498.0785,133.89365564848958
1499.8858,145.95325390585958
1501.6924,148.62326578015018
1503.4981,126.65285442341929
1505.3032,121.49118150149343
1507.1075,115.43740741367219
1508.911,107.29069134434621
1510.7138,81.85019132353591
1512.5159,60.815064308356796
1514.3172,66.28446643742518
1516.1178,46.00755324120837
1517.9176,21.483479587332567
1519.7166,15.561399883349623
1521.515,-0.059531678023631684
1523.3126,0.06983894031873206
1525.1094,-14.151333629798955
1526.9055,-8.823894757248581
1528.7008,-7.048548439082879
1530.4954,-17.27591052164371
1532.2893,-11.656526436276181
1534.0824,-35.390769027982515
1535.8747,-25.178894693067832
1537.6663,-18.070806274054576
1539.4572,-2.266155076310042
1541.2473,0.3855881221506934
1543.0367,18.93497518219783
1544.8253,11.132557960846952
1546.6132,31.278888125763842
1548.4003,42.57451723328995
1550.1867,69.81999652697868
1551.9723,93.71587682463996
1553.7572,120.16270824588582
1555.5414,155.1110399731724
1557.3247,201.1614199873311
1559.1074,236.11439471808308
1560.8893,311.0205085835373
1562.6705,386.53030364066035
1564.4509,486.14431883621364
1566.2305,567.0130892516554
1568.0094,670.5871451070034
1569.7876,781.9170109521406
1571.565,858.553204631085
1573.3417,911.4962361686835
1575.1176,938.246607004251
1576.8928,935.8548094621433
1578.6672,877.271326484251
1580.4409,765.3966316539172
1582.2138,646.1811897817752
1583.986,535.9754580244908
1585.7575,454.3798870769215
1587.5282,391.29492227417086
1589.2981,344.22100440754366
1591.0673,301.5585703553961
1592.8358,319.0080535538782
1594.6035,306.46988442355314
1596.3704,304.1944901949064
1598.1366,317.8322950337256
1599.9021,348.43372006385516
1601.6668,384.3991832308193
1603.4308,463.97909899580736
1605.194,531.823877976019
1606.9564,603.7339261488646
1608.7182,733.1096441735162
1610.4791,865.8014266718078
1612.2394,1035.709660934478
1613.9988,1242.4347255942544
1615.7576,1452.7269889267673
1617.5156,1692.4868067833013
1619.2728,1953.7145204878743
1621.0293,2168.010454439635
1622.785,2271.9249135005884
1624.54,2234.558180852635
1626.2942,2110.460516958429
1628.0477,1893.6321599350408
1629.8005,1665.8733267949397
1631.5525,1443.7842156142724
1633.3037,1261.3150078104532
1635.0542,1087.315870363056
1636.804,943.8869576385059
1638.553,851.678413130071
1640.3013,833.1903708921504
1642.0488,781.6729564623615
1643.7955,776.5762870464196
1645.5416,802.3004720333097
1647.2868,865.2456130462579
1649.0313,967.6118036854846
1650.7751,1101.2491288987567
1652.5181,1278.4076639577238
1654.2604,1533.9874731215436
1656.0019,1870.5386078653005
1657.7427,2251.311104324205
1659.4828,2604.2549799280864
1661.222,2853.570229593664
1662.9606,2947.8568221951064
1664.6984,2802.8646980708836
1666.4354,2510.243768080898
1668.1717,2091.9939150564055
1669.9072,1629.8649967262263
1671.642,1279.4568498992417
1673.3761,989.3192950856851
1675.1094,761.9521400012222
1676.8419,588.3551824683273
1678.5737,466.3782126899546
1680.3048,378.62101498550646
1682.0351,315.48336901060566
1683.7646,267.5150506346663
1685.4934,228.11583257226994
1687.2215,197.38548486285026
1688.9488,162.97377526468335
1690.6754,153.8304695621905
1692.4012,135.05533191005634
1694.1263,123.34812492466244
1695.8506,121.65860987183851
1697.5742,108.28654678393423
1699.297,86.78169447671371
1701.0191,90.34381068307721
1702.7404,68.32265226810614
1704.461,63.417975193447546
1706.1808,59.62953473751986
1707.8999,41.45708554456405
1709.6182,22.000381662525797
1711.3358,50.95917672478163
1713.0527,35.13322414470531
1714.7688,36.52227682608009
1716.4841,18.426087321357954
1718.1987,30.24440781776957
1719.9126,23.776990318287062
1721.6257,1.3735865234370976
1723.338,9.133947895979418
1725.0496,8.257825884937574
1726.7605,16.494971847997476
1728.4706,-0.554862939733539
1730.18,0.708072631905452
1731.8886,-9.816464783848232
1733.5964,-10.478718540835871
1735.3036,-2.3288339264172464
1737.0099,7.983148454445427
1738.7156,5.407211261840757
1740.4204,-12.356662923973317
1742.1246,0.541508423189498
1743.8279,7.951831272577465
1745.5306,11.52441158802435
1747.2325,-0.340644746154112
1748.9336,-2.2932319608848957
1750.634,-5.683240884055294
1752.3336,-0.16053943416613947
1754.0325,5.175061245857705
1755.7307,4.023751616879281
1757.4281,11.785722088011198
1759.1247,-0.1888369718701597
1760.8206,2.1502646882556746
1762.5158,7.353219205887854
1764.2102,4.170218697025575
1765.9039,12.751455204135482
1767.5968,8.397120727984202
1769.289,7.007407141823933
1770.9804,23.48250623493641
1772.6711,24.87260972653121
1774.361,14.32790910099493
1776.0502,19.04859559398733
1777.7386,19.034860297890646
1779.4263,22.336894114602046
1781.1132,24.30488775567096
1782.7994,22.139031709279607
1784.4849,17.18951622056079
1786.1696,10.606531313258756
1787.8535,30.69026683922357
1789.5367,27.090912544240837
1791.2192,43.95865786719446
1792.9009,15.843691976059517
1794.5818,34.396203599224464
1796.2621,33.96638130664178
1797.9415,35.154413324302595
1799.6202,30.260487538535926
1801.2982,31.934791484128027
1802.9755,46.077512393261486
1804.6519,41.33883717877143
1806.3277,37.76895229271872
1808.0027,30.618043773775526
1809.6769,40.48629728292531
1811.3504,38.57389817497051
1813.0231,44.28103139985228
1814.6951,45.257881521773015
1816.3664,48.85463266212673
1818.0369,47.72146848972875
1819.7067,45.65857218484939
1821.3757,55.26612645054411
1823.044,56.64431353328382
1824.7115,58.24331512687854
1826.3783,60.0133123586952
1828.0443,55.30448577366792
1829.7096,52.917015316597826
1831.3741,63.801080379242194
1833.0379,57.15685982418836
1834.701,59.23453187601399
1836.3633,68.0842741877284
1838.0248,61.106263819995775
1839.6856,66.65067715263876
1841.3457,68.61768995441821
1843.005,73.85747732758773
1844.6636,78.22021368822402
1846.3214,76.3060727138311
1847.9785,81.8652272997108
1849.6349,92.09784957810461
1851.2904,84.90411086260292
1852.9453,82.38418154581723
1854.5994,81.43823117131888
1856.2528,98.11642845883716
1857.9054,93.918941313721
1859.5572,104.44593666015567
1861.2083,100.84758048313984
1862.8587,105.37403772321204
1864.5084,88.82547231243711
1866.1572,90.10204712913924
1867.8054,89.603924163388
1869.4528,92.43126450423347
1871.0994,97.98422834468693
1872.7453,85.81297495344688
1874.3905,86.56766261937105
1876.0349,100.29844877318806
1877.6786,99.1054899799517
1879.3215,90.68894180173129
1880.9637,95.99895880954273
1882.6051,106.5856946675126
1884.2458,90.29930207977986
1885.8858,95.63993268462718
1887.525,95.75773721734481
1889.1634,90.55286545682338
1890.8011,93.42546622437817
1892.4381,91.42568743579545
1894.0743,92.40367607260737
1895.7098,104.4595782020906
1897.3446,95.49353896748448
1898.9786,85.90570246743323
1900.6118,85.49621184564671
1902.2443,96.21520938677759
1903.8761,97.46283652051693
1905.5071,97.63923371440569
1907.1374,100.34454046135602
1908.7669,88.77889527788875
1910.3957,104.84243567708018
1912.0237,102.8352982842191
1913.651,108.7576186761703
1915.2776,106.30953140144629
1916.9034,90.19116992098293
1918.5285,104.40266663262264
1920.1528,99.99415303229671
1921.7764,92.66575957191048
1923.3992,102.81761570342951
1925.0213,78.19984995216146
1926.6427,97.41258981523879
1928.2633,73.60596200779605
1929.8832,92.08009227084267
1931.5023,90.58510560932905
1933.1207,81.87112610740564
1934.7383,81.58827694337197
1936.3552,88.83668047681635
1937.9714,86.21645825144492
1939.5868,75.52773092259736
1941.2015,72.12061828344963
1942.8154,86.24523937190042
1944.4286,76.55171250464355
1946.041,74.24015513592121
1947.6528,73.01068395445941
1949.2637,67.6134149065831
1950.8739,70.59846320851148
1952.4834,82.01594340032875
1954.0921,78.21596931613522
1955.7001,80.39865396987261
1957.3074,59.91410959332302
1958.9139,62.262447614282564
1960.5197,64.49377886140655
1962.1247,71.10821354072664
1963.729,55.005861213337084
1965.3325,59.78683072924969
1966.9353,68.30123038841884
1968.5374,57.049167892930654
1970.1387,56.8307502618602
1971.7393,56.0460839437917
1973.3392,73.79527481900232
1974.9383,57.57842820730957
1976.5366,58.84564869057772
1978.1342,64.09704027488783
1979.7311,59.63270637786536
1981.3273,65.10274977616496
1982.9227,62.30727265011569
1984.5173,48.24637652901879
1986.1112,45.82016231910461
1987.7044,53.328730444138955
1989.2968,56.322180869686235
1990.8885,53.15061302802428
1992.4795,57.914125788209276
1994.0697,39.11281748779288
1995.6592,47.646785885185864
1997.2479,46.06612834767202
1998.8359,61.37094176606752
2000.4232,54.61132257052827
2002.0097,45.38736657750087
2003.5955,54.14916905731934
2005.1805,55.946824826445436
2006.7648,55.430428159848816
2008.3484,56.500072773032116
2009.9312,68.15585182719383
2011.5133,52.94785791853337
2013.0946,50.92618296169235
2014.6752,42.99091834183423
2016.2551,57.242154934861674
2017.8342,53.829983186768686
2019.4126,66.40449297112764
2020.9902,50.465773623212044
2022.5672,54.563913814250554
2024.1433,52.84900171081472
2025.7188,50.5711249338367
2027.2935,49.530370575760344
2028.8674,53.42682522331802
2030.4406,41.560574967940056
2032.0131,46.18170536678758
2033.5849,41.69030156141753
2035.1559,49.93644823157024
2036.7261,55.67022964008288
2038.2957,56.39172955043
2039.8645,50.10103116938262
2041.4325,51.64821713979654
2042.9998,51.28336960351703
2044.5664,43.506570185907776
2046.1323,46.11789999949906
2047.6974,49.117439721755545
2049.2617,46.65526956896406
2050.8254,50.33146926623749
2052.3883,58.29611807213723
2053.9504,46.04929474190976
2055.5118,54.0910774478416
2057.0725,54.47154390172682
2058.6325,49.890771274449435
2060.1917,48.14883619217812
2061.7502,51.895814782174966
2063.3079,41.831782690214595
2064.8649,43.30681504311406
2066.4212,49.97098654937281
2067.9767,49.874371484422454
2069.5315,42.56704362398523
2071.0856,38.94907624504049
2072.6389,50.520542198897374
2074.1915,38.031513947374606
2075.7433,43.682063447085966
2077.2945,44.02226227433039
2078.8448,31.952181568587093
2080.3945,38.27189202911359
2081.9434,34.081464035645695
2083.4916,33.83096758520173
2085.039,46.22047233398598
2086.5857,38.95004759989297
2088.1317,32.11976223861393
2089.677,44.079684716338306
2091.2215,31.079883178059504
2092.7652,43.57042532797459
2094.3083,37.35137855948176
2095.8506,36.97280983027633
2097.3921,47.08478572453964
2098.933,34.68737245672628
2100.4731,38.780635770442245
2102.0124,38.06464106242095
2103.5511,34.78945334158914
2105.089,36.90513723622814
2106.6261,44.96175702672463
2108.1626,39.15937662441513
2109.6983,41.34805949101815
2111.2332,38.07786869665995
2112.7675,44.39886689798618
2114.301,39.761116370863306
2115.8337,39.81467894716991
2117.3657,38.259616061173915
2118.897,36.245988748997206
2120.4276,44.073857664165416
2121.9575,33.143283097744984
2123.4866,37.10432490006383
2125.0149,38.45704259001798
2126.5426,32.151495315460124
2128.0695,33.187741839673095
2129.5956,32.1658406044254
2131.1211,29.235849719608495
2132.6458,46.447826973456245
2134.1698,48.301829861843885
2135.693,44.74791541616969
2137.2155,42.086140184813985
2138.7373,32.966560268677995
2140.2584,39.13923134780225
2141.7787,44.25420877256204
2143.2983,30.311547501940822
2144.8171,32.21130205238046
2146.3353,37.80352663720748
2147.8527,26.238275147636273
2149.3693,39.26560109684658
2150.8853,30.08555773563569
2152.4005,34.04819792214528
2153.9149,32.25357421366198
2155.4287,31.851738826990072
2156.9417,29.542743656399352
2158.454,36.77664027764206
2159.9655,30.50347997104359
2161.4764,25.223313649163856
2162.9865,36.28619191952828
2164.4958,37.54216513742995
2166.0045,38.99128329529992
2167.5124,32.68359601014879
2169.0195,37.86915250907464
2170.526,35.89800169233956
2172.0317,30.27019208151478
2173.5367,33.4357718391924
2175.0409,44.794788825262685
2176.5445,40.247290565259505
2178.0473,24.043324136768547
2179.5494,33.73293621490393
2181.0507,40.266173234346525
2182.5513,38.49308129244832
2184.0512,42.163706083900365
2185.5504,32.278092918462676
2187.0488,36.88628668425963
2188.5465,36.53833194663491
2190.0435,31.88427290206971
2191.5397,36.674153381662336
2193.0353,34.058016897668836
2194.5301,35.33590659560434
2196.0241,32.20786528040367
2197.5175,42.22393540364294
2199.0101,33.98415909482003
2200.502,31.038578061194357
2201.9931,28.187233670184355
2203.4835,35.48016697882235
2204.9733,22.817418762269426
2206.4622,31.549029440884738
2207.9505,33.42503920685431
2209.438,25.69548793687443
2210.9248,26.010415173391834
2212.4109,20.219860201898086
2213.8962,20.47386204778104
2215.3809,27.322459534230575
2216.8648,28.26569127969799
2218.3479,19.253595629410597
2219.8304,26.136210645939286
2221.3121,31.313574199319078
2222.7931,20.735723898223114
2224.2733,20.9526970381894
2225.7529,15.264530707399217
2227.2317,23.5712617845071
2228.7098,19.87292699552313
2230.1872,16.01956283074469
2231.6638,18.06120558174075
2233.1397,19.447891379884823
2234.6149,18.329656175938908
2236.0894,9.006535726186826
2237.5632,19.978565603616516
2239.0362,20.445781291150638
2240.5085,23.75821807192642
2241.9801,4.965911024623665
2243.4509,9.868894990340436
2244.921,5.267204760515597
2246.3904,6.460875027899533
2247.8591,11.849940432570975
2249.3271,7.9844355500000574
2250.7943,8.614394837158216
2252.2608,11.189852671172616
2253.7266,-2.139156656973455
2255.1917,9.977401031805243
2256.656,-0.3604187132316383
2258.1197,4.197439557401481
2259.5826,4.651034893773158
2261.0447,15.550426303977474
2262.5062,4.595672749598634
2263.9669,4.936833036716848
2265.4269,3.5239659254566504
2266.8862,18.807130126574634
2268.3448,5.6863843155879294
2269.8026,7.2117869799433265
2271.2598,10.133396550223779
2272.7162,15.601271384894176
2274.1719,9.165469741085985
2275.6268,12.926049719918069
2277.0811,9.033069330855028
2278.5346,12.436586454100848
2279.9874,10.186658879528977
2281.4395,20.083344272647764
2282.8908,9.57670019709883
2284.3414,12.716784015691587
2285.7914,11.253652995468428
2287.2406,7.237364276304447
2288.689,19.267974885538592
2290.1368,12.945541778136203
2291.5838,15.020121716383528
2293.0302,7.741771333111615
2294.4758,4.760547110950824
2295.9206,14.826505455113761
2297.3648,12.589702723208575
2298.8082,15.650195124578545
2300.251,7.7580387426716015
2301.693,14.163289504433237
2303.1343,7.366003259229615
2304.5748,5.816235714793834
2306.0147,4.864042505199109
2307.4538,10.759479206357014
2308.8922,6.102601345538687
2310.3299,9.443464342420725
2311.7669,11.18212355565447
2313.2031,6.718634249456727
2314.6387,7.003051576223356
2316.0735,1.4854306211641415
2317.5076,0.4658263994585923
2318.941,7.094279086834035
2320.3737,9.42082420541169
2321.8056,13.295497206369987
2323.2369,4.268333446679662
2324.6674,11.339368150357473
2326.0972,11.858636498736246
2327.5263,15.226173559756148
2328.9547,19.142014282771015
2330.3823,5.306193464873104
2331.8092,9.11874571173496
2333.2355,7.529705575967682
2334.661,8.83910751899532
2336.0858,10.29698592694524
2337.5098,11.803375097554635
2338.9332,8.408309225590983
2340.3558,13.811822387788197
2341.7778,8.763948576797588
2343.199,11.514721647152214
2344.6195,5.064175365746564
2346.0393,12.562343384327733
2347.4583,15.509259304002057
2348.8767,13.504956600252285
2350.2943,21.599468593469737
2351.7113,15.042828468995936
2353.1275,29.085069196177983
2354.543,19.22622359393563
2355.9578,18.416324190338173
2357.3718,10.405403321193262
2358.7852,12.443493138145527
2360.1978,18.130625688785926
2361.6098,14.666832896270876
2363.021,15.302146502450455
2364.4315,14.736598102507287
2365.8413,16.070219138602056
2367.2504,24.703040905529974
2368.6587,25.135094537384703
2370.0664,15.916410921229726
2371.4733,25.547020692777437
2372.8795,18.176954328576926
2374.285,15.206242049707384
2375.6899,11.434913895478417
2377.0939,10.312999753138001
2378.4973,7.490529395584645
2379.9,12.417532492587952
2381.3019,12.74403863901182
2382.7032,13.420077305545647
2384.1037,15.895677835438278
2385.5035,9.420869437738588
2386.9027,15.145681162538722
2388.3011,7.620141965722723
2389.6987,12.944280651717918
2391.0957,9.818125948750662
2392.492,3.3417064556045943
2393.8876,5.065050672882876
2395.2824,7.73815371754074
2396.6765,12.361010655883206
2398.07,6.133616476833936
2399.4627,7.7059660457074415
2400.8547,4.828054166481934
2402.246,11.149875566076048
2403.6366,18.371376739147422
2405.0265,18.742504068855283
2406.4156,11.663203754645224
2407.8041,16.233421808538083
2409.1918,21.703104125923005
2410.5789,9.922196439854815
2411.9652,15.140644266357754
2413.3508,8.10839302223394
2414.7358,26.325387972879525
2416.12,16.441574302606796
2417.5035,18.606896932474797
2418.8863,17.47130061912685
2420.2684,17.834729933137623
2421.6497,15.447129270369146
2423.0304,22.508442848336244
2424.4104,16.118614730082527
2425.7896,24.577588753567397
2427.1682,27.185308595564834
2428.546,16.691717687072924
2429.9232,19.196759187236694
2431.2996,20.300376088284338
2432.6753,16.902511190476844
2434.0503,23.503107091071456
2435.4246,22.102106218300605
2436.7982,23.04945076536592
2438.1711,21.34508270444792
2439.5433,17.88894377723318
2440.9148,18.180975511957854
2442.2856,18.721119257968667
2443.6557,23.159316182802854
2445.025,15.895507266786353
2446.3937,24.67963325865253
2447.7617,23.51163474817963
2449.1289,27.741452078349994
2450.4955,22.469025357030148
2451.8613,22.74429441467214
2453.2265,25.66719885703816
2454.5909,27.937678062447787
2455.9546,26.155671152548734
2457.3177,30.071116969612092
2458.68,25.93395409435277
2460.0416,28.094120806774754
2461.4025,34.40155512754251
2462.7627,30.55619479637977
2464.1222,37.10797720899478
2465.4811,32.05683945553386
2466.8392,33.30271825506429
2468.1966,37.24555000608473
2469.5533,38.48527077406686
2470.9093,39.12181625202726
2472.2645,45.755121748129795
2473.6191,39.085122179320706
2474.973,43.21175200499505
2476.3262,39.13494529369689
2477.6787,46.80463568185286
2479.0305,40.520756414540244
2480.3816,44.03324026879022
2481.7319,42.342019616426626
2483.0816,43.64702638894096
2484.4306,39.798192094404726
2485.7789,40.9454478044197
2487.1264,44.68872419260521
2488.4733,37.62795152312691
2489.8195,40.61305961326332
2491.165,41.99397790401338
2492.5097,40.72063543024569
2493.8538,43.442960806889175
2495.1972,37.81088224166649
2496.5398,41.42432750787111
2497.8818,42.93322400068786
2499.2231,36.38749870105869
2500.5637,37.08707816059348
2501.9035,38.38188856702749
2503.2427,39.92185573722526
2504.5812,48.006905104232715
2505.919,45.78696170187732
2507.256,50.76195008391795
2508.5924,49.681794346243635
2509.9281,47.59641807712421
2511.2631,47.555744368011744
2512.5974,47.8596958343943
2513.9309,48.85819461620264
2515.2638,49.751162374770786
2516.596,55.838520282850936
2517.9275,47.92018901568406
2519.2583,48.14608869012608
2520.5884,52.91613894383107
2521.9178,53.280258932992695
2523.2465,48.0883672846432
2524.5745,50.99038209301233
2525.9018,48.736220971446414
2527.2284,49.325801023387896
2528.5543,48.10903886491718
2529.8796,52.73585061885689
2531.2041,58.856151926939106
2532.5279,60.019857903537854
2533.851,54.37688307446564
2535.1735,55.32714136533656
2536.4952,58.22054615799601
2537.8163,63.70701028101831
2539.1366,61.936445980772305
2540.4562,55.308764866557
2541.7752,51.12387792830725
2543.0935,63.2316956028705
2544.411,63.38212781585554
2545.7279,56.125083860554184
2547.0441,62.91047239643751
2548.3596,59.28820152172574
2549.6744,61.25817870553453
2550.9885,64.82031082409782
2552.3019,64.62450414106809
2553.6146,59.020664271894475
2554.9266,65.20869618578155
2556.2379,60.88850426172746
2557.5485,63.75999222664376
2558.8585,63.273063198557
2560.1677,66.27761965789398
2561.4762,59.473563452351186
2562.7841,62.26079576684907
2564.0913,65.43921719157282
2565.3977,64.9587276940996
2566.7035,61.26922658761464
2568.0086,64.27061253571611
2569.313,68.81278358931036
2570.6167,68.8456371565976
2571.9197,62.469069957650504
2573.222,68.73297802408558
2574.5236,66.13725676282877
2575.8246,65.18180089347652
2577.1248,74.56650447425272
2578.4244,73.19126091156352
2579.7232,71.70596286614989
2581.0214,81.31050226684067
2582.3189,85.60477032540484
2583.6157,78.83865744050678
2584.9118,90.91205315476327
2586.2072,82.92484622240465
2587.5019,91.97692448854104
2588.7959,87.2181749690339
2590.0893,94.79848375997597
2591.3819,95.76773608527816
2592.6739,97.3258162208669
2593.9652,99.9226074849916
2595.2557,98.10799222264347
2596.5456,105.73185177958783
2597.8348,107.94406652051032
2599.1234,107.6445157527782
2600.4112,107.33307770431827
2601.6983,119.55962952661201
2602.9848,120.52404729781045
2604.2705,117.17620590046835
2605.5556,116.86597901190004
2606.84,116.84323913765786
2608.1237,116.30785761463477
2609.4067,122.05970461129158
2610.689,117.34864913301061
2611.9707,116.87455896457743
2613.2516,118.48730071729125
2614.5319,118.4367398337057
2615.8115,110.72274057150179
2617.0903,116.59516600399326
2618.3685,114.25387809726664
2619.6461,121.99873765145696
2620.9229,119.77960432416069
2622.199,122.04633655298682
2623.4745,118.69879157774864
2624.7493,120.58682541779626
2626.0234,125.36029290549175
2627.2968,122.3190476673293
2628.5695,119.06294207620044
2629.8415,130.64182728180617
2631.1128,123.6055532432182
2632.3835,123.25396861309014
2633.6535,120.03692080802034
2634.9228,129.35425601206748
2636.1914,127.60581920892139
2637.4593,134.09145408872905
2638.7265,125.16100306557956
2639.9931,123.6143072126477
2641.259,126.80120635149837
2642.5242,130.5215390675536
2643.7887,121.42514267822355
2645.0525,124.06185319570312
2646.3156,130.781505417936
2647.5781,121.13393290224724
2648.8398,123.26896789814714
2650.1009,118.8864414438068
2651.3613,121.63618334470783
2652.6211,117.51802221746749
2653.8801,119.73178546234135
2655.1385,119.22729930440488
2656.3961,122.70438877141595
2657.6531,123.71287769885936
2658.9094,121.25258869517643
2660.1651,119.42334313167976
2661.42,119.97496116715604
2662.6743,130.05726176615866
2663.9279,129.92006269349173
2665.1808,135.06318041338693
2666.433,129.98643009087522
2667.6846,129.28962554035593
2668.9354,133.47257927636406
2670.1856,139.2351025205386
2671.4351,141.57700515979286
2672.6839,140.74809568868938
2673.9321,143.59818118602084
2675.1795,145.17706732309932
2676.4263,156.18455833525508
2677.6724,156.77045700604805
2678.9179,152.68456455719274
2680.1626,152.77668064269926
2681.4067,160.7966033897323
2682.6501,161.24412939768973
2683.8928,157.3190536580035
2685.1348,155.27116954966448
2686.3761,150.65026887847307
2687.6168,154.65614189751824
2688.8568,143.43857735338617
2690.0961,140.84736244610207
2691.3348,141.48228294130575
2692.5727,138.04312319616332
2693.81,133.62966615301832
2695.0466,136.7916933737833
2696.2826,131.32898508407408
2697.5178,131.04132014159
2698.7524,132.9284760907405
2699.9863,137.24022916552218
2701.2195,139.57635427064707
2702.452,133.28662493842523
2703.6839,139.77081330540324
2704.9151,142.17869017526164
2706.1456,148.46002495397312
2707.3755,154.96458562572343
2708.6046,160.3921386900982
2709.8331,162.6424490970373
2711.0609,178.2652801925596
2712.2881,180.5603936962595
2713.5145,195.1275495450787
2714.7403,203.86650587035518
2715.9654,215.02701885215185
2717.1899,228.75884263186606
2718.4136,242.16172920062547
2719.6367,247.9354282619695
2720.8591,255.6796870978203
2722.0809,276.5942505107459
2723.3019,277.8288607465178
2724.5223,290.63325728496505
2725.7421,294.10717682762817
2726.9611,298.2503531697152
2728.1795,292.2625171653628
2729.3972,281.393396686204
2730.6142,269.39271668124735
2731.8306,268.71019928556706
2733.0462,240.54556394031044
2734.2612,231.79852739952298
2735.4756,212.46880401179487
2736.6892,196.15610580773114
2737.9022,179.11014269324886
2739.1145,166.03062261270435
2740.3262,149.11725171935268
2741.5372,133.96973450614297
2742.7475,124.58777397485198
2743.9571,112.02107178755921
2745.1661,93.46932836046676
2746.3744,88.88224298956578
2747.582,83.10951403615451
2748.7889,66.40083897270893
2749.9952,55.055914440610195
2751.2008,59.77443641723107
2752.4057,53.306100329385686
2753.61,48.950601006143586
2754.8136,39.05763274351335
2756.0165,44.32688934799796
2757.2188,45.00806423552382
2758.4204,34.00085037874891
2759.6213,32.20494030025043
2760.8215,34.57002618259747
2762.0211,26.795799886309624
2763.22,19.131952926206566
2764.4182,25.12817654915017
2765.6158,17.034161810682804
2766.8127,18.799599515065438
2768.009,12.9241802962174
2769.2045,10.807594600062373
2770.3994,2.599532743281884
2771.5936,-3.0503150655177933
2772.7872,-9.042258643725972
2773.9801,-11.526577336084301
2775.1723,-13.453460155170774
2776.3639,-16.622980963056307
2777.5548,-25.085079221744877
2778.745,-20.639528329660777
2779.9346,-8.135851085287413
2781.1235,-18.62336409822035
2782.3117,-7.751302700903182
2783.4992,-12.818716178372142
2784.6861,-12.574576380149779
2785.8723,-11.467727096784415
2787.0579,-1.9468864988066343
2788.2428,4.739341805846493
2789.427,8.642373658633858
2790.6106,23.86362485362099
2791.7935,23.30451109845012
2792.9757,40.116447862127416
2794.1573,49.25085038061388
2795.3382,56.159133488706686
2796.5184,70.09271152869434
2797.698,92.30299828127448
2798.8769,95.99140682621754
2800.0551,115.20934932026415
2801.2327,129.05823696024117
2802.4096,143.63947979088283
2803.5859,168.50448656634097
2804.7615,188.20466460437405
2805.9364,212.54141953769528
2807.1106,225.21615511697166
2808.2842,265.2302729674565
2809.4572,293.9351724622413
2810.6294,325.73225032211553
2811.801,362.4729003285168
2812.972,411.9585130055607
2814.1423,449.4404752526339
2815.3119,500.770169849538
2816.4808,531.9489750816701
2817.6491,587.6782642267261
2818.8167,636.6094052429119
2819.9837,678.4437602116514
2821.15,728.8826848482743
2822.3157,774.4275280836732
2823.4807,804.5296315599143
2824.645,859.4903291747879
2825.8086,897.0609467807886
2826.9716,924.442801635508
2828.134,968.4372020259282
2829.2957,999.3454469946038
2830.4567,1030.5188258997182
2831.617,1042.358618106
2832.7767,1054.9160926729894
2833.9358,1043.3925082366418
2835.0941,1044.5391128837507
2836.2519,1031.8571442671862
2837.4089,1018.5478295944264
2838.5653,1005.4623857543788
2839.7211,1009.402019450473
2840.8761,1009.0179273315148
2842.0306,1039.9112959522904
2843.1843,1058.1333017774082
2844.3374,1103.3351108723618
2845.4899,1168.0678787213128
2846.6417,1234.3827497750726
2847.7928,1326.130856803774
2848.9433,1372.3633202337214
2850.0931,1469.3812472299123
2851.2422,1549.5357312337112
2852.3907,1616.6778509926698
2853.5385,1685.1086697589833
2854.6857,1737.7792346180677
2855.8323,1801.4905758042537
2856.9781,1852.8937061740794
2858.1233,1899.4896205691769
2859.2679,1945.4292953022423
2860.4118,1991.2636876910747
2861.555,2018.1937355991809
2862.6976,2065.8203569774305
2863.8395,2115.1444495947567
2864.9808,2120.2668905618884
2866.1214,2147.9885358381107
2867.2614,2144.9602201800412
2868.4007,2171.4827568644105
2869.5393,2178.256937718348
2870.6773,2186.833532854158
2871.8146,2210.4632906015727
2872.9513,2195.49693742199
2874.0874,2201.4851776721757
2875.2227,2196.2286937539257
2876.3574,2177.1781460541833
2877.4915,2154.6841729976077
2878.6249,2129.947391237074
2879.7577,2091.718395878619
2880.8898,2075.497760728803
2882.0212,2063.8360386770046
2883.152,2054.133761857625
2884.2821,2020.5914417667045
2885.4116,2035.309569358948
2886.5405,2020.5386153831446
2887.6686,2033.4290302349898
2888.7962,2041.4812441047927
2889.923,2025.4956668485715
2891.0493,2055.6226879075325
2892.1748,2049.962676467927
2893.2997,2073.115981159778
2894.424,2082.0829301134836
2895.5476,2096.413830728281
2896.6706,2149.008969582579
2897.7929,2162.2686122906484
2898.9145,2185.6930029766713
2900.0355,2225.232364142144
2901.1559,2256.336896431631
2902.2756,2284.9567782373765
2903.3946,2319.1421653882544
2904.513,2351.143190863571
2905.6308,2383.559964451213
2906.7479,2410.3425724276344
2907.8643,2438.691077233689
2908.9801,2448.205517206806
2910.0953,2458.1859062975036
2911.2098,2464.1822339742457
2912.3236,2454.7944651236376
2913.4368,2445.2225399904605
2914.5494,2442.516374271554
2915.6613,2401.775859211532
2916.7725,2376.6508616298443
2917.8831,2356.441224328182
2918.9931,2329.2467663417297
2920.1024,2308.717283141259
2921.211,2286.4525469050745
2922.319,2264.9023067243083
2923.4264,2247.5662888255674
2924.5331,2231.694196786436
2925.6391,2220.9357117088357
2926.7445,2219.540492377747
2927.8493,2205.408175368792
2928.9534,2189.0383750621895
2930.0569,2183.7806837840753
2931.1597,2192.5346719702047
2932.2619,2183.1998882185235
2933.3634,2172.625859201633
2934.4643,2155.062089760135
2935.5645,2131.5580630083746
2936.6641,2105.313240510075
2937.763,2064.0270625133794
2938.8613,2012.0489482132991
2939.959,1955.6282961645743
2941.056,1888.614484801457
2942.1523,1802.5068730019157
2943.248,1723.1048007577751
2944.3431,1626.9575900357904
2945.4375,1528.0145455716697
2946.5313,1427.2749558315452
2947.6244,1313.5380940014047
2948.7169,1223.0032189944855
2949.8087,1120.6695765886454
2950.8999,1028.0864003317092
2951.9904,949.9529125648073
2953.0803,867.9683253482061
2954.1696,800.6818412426437
2955.2582,758.3426541291751
2956.3462,711.2999498820375
2957.4335,658.9529067920421
2958.5202,617.2506960370005
2959.6062,606.8424822051954
2960.6916,578.3274237124034
2961.7764,554.8046729059756
2962.8605,548.8233763499902
2963.9439,542.6326750604778
2965.0267,528.9317045652364
2966.1089,532.8695949657375
2967.1905,523.7954710741359
2968.2714,522.2584523738909
2969.3516,513.4576531105071
2970.4312,523.642182306905
2971.5102,535.5111438514288
2972.5885,532.1136363960005
2973.6662,542.6487532374321
2974.7432,539.1655823513987
2975.8196,549.4132062870885
2976.8954,534.1907022020347
2977.9705,523.2471417596379
2979.045,519.2315912813918
2980.1188,501.09311185631975
2981.192,489.3807593811291
2982.2645,476.44358474159617
2983.3364,452.48063392969004
2984.4077,420.24094817294383
2985.4783,399.12356417408466
2986.5483,370.42751443343013
2987.6177,331.6018274600629
2988.6864,306.14552805879015
2989.7545,276.4076377184015
2990.8219,239.93717486623115
2991.8887,220.68315516553747
2992.9548,189.1445918802068
2994.0204,158.17049606729415
2995.0852,130.05987689240902
2996.1495,117.16174193945614
2997.2131,94.27509749174152
2998.276,77.64894866095386
2999.3383,53.18229961603117
3000.4,47.07415374942218
3001.4611,38.37351392175293
3002.5215,26.279382522908122
3003.5812,14.8907615590374
3004.6404,3.7566527734967394
3005.6989,1.3760577607350797
3006.7567,-3.0020219223654294
3007.8139,-3.278584732682873
3008.8705,-10.454599136896661
3009.9264,-12.381000848625035
3010.9818,-13.058621140041168
3012.0364,-8.788167597119752
3013.0905,-11.670217350210635
3014.1439,-7.855259735869424
3015.1966,-4.443667505180542
3016.2487,-4.08573493518378
3017.3002,2.668288089319219
3018.3511,6.668192500018563
3019.4013,11.863769201921627
3020.4509,16.704809033353968
3021.4998,11.24110271400383
3022.5481,27.322440796511387
3023.5958,32.74861372110587
3024.6428,31.36941165479209
3025.6892,46.68462443708893
3026.735,45.94404159382134
3027.7802,49.44745218396844
3028.8247,58.84464480706896
3029.8685,69.58540756818752
3030.9118,71.76952798394217
3031.9544,84.49679287509707
3032.9963,91.56698834472184
3034.0376,100.87989965091845
3035.0783,112.38531113611896
3036.1184,120.63300613395648
3037.1578,123.17276685421149
3038.1966,131.6043743003342
3039.2348,141.42760824404746
3040.2723,145.84224714103038
3041.3092,143.5480680326861
3042.3455,146.64484650199552
3043.3811,140.53235669645903
3044.4161,144.41037129712885
3045.4505,148.97866157973363
3046.4842,135.88699737589837
3047.5173,140.28514702746185
3048.5498,141.57287751739278
3049.5816,131.29995442580866
3050.6128,126.61614191709816
3051.6434,127.57120284265073
3052.6734,121.56489878769452
3053.7027,118.44699006174574
3054.7314,117.5172357586718
3055.7594,120.92539378787018
3056.7868,109.6712208835661
3057.8136,110.10447257073093
3058.8398,106.17490327762397
3059.8653,110.03226633145971
3060.8902,108.07631399770392
3061.9145,108.10679744149974
3062.9381,100.32346674722717
3063.9612,105.82607091819855
3064.9835,98.01435795449135
3066.0053,96.38807479792263
3067.0264,83.096967410166
3068.0469,93.64078078901454
3069.0668,80.21925910129147
3070.086,78.88214557741242
3071.1046,72.5291826456006
3072.1226,71.86011194525759
3073.1399,58.92467439049341
3074.1567,58.67261017681713
3075.1727,56.30365891049104
3076.1882,46.66755961105122
3077.203,43.864050734997505
3078.2173,31.992870272154192
3079.2308,24.1537557737052
3080.2438,25.996444470905857
3081.2561,17.370673353474018
3082.2678,17.226179151163194
3083.2789,11.512698420020342
3084.2893,11.62996754383073
3085.2991,9.927722791252677
3086.3083,5.055700314644895
3087.3169,1.5636361670888732
3088.3248,0.30126635110923417
3089.3321,-1.1316731464056602
3090.3388,0.8645506517815988
3091.3449,-4.410317971676903
3092.3503,-2.8565347427746133
3093.3551,-1.17431132842853
3094.3593,-6.363830858773497
3095.3629,-3.075264732574368
3096.3658,-6.708720773925705
3097.3681,-3.714276085027535
3098.3698,-7.141940747959367
3099.3708,-3.2416877391827086
3100.3713,-0.9634186871710426
3101.3711,-1.1070028359373936
3102.3702,-3.2722998049421506
3103.3688,0.1908418453125762
3104.3667,-0.16739375540038282
3105.364,1.3531756161817299
3106.3607,2.452733855585194
3107.3568,0.23146484480461993
3108.3522,3.0395524413073076
3109.347,7.677178190226712
3110.3412,3.9945236063008025
3111.3348,9.191770127495857
3112.3277,12.769099151832961
3113.32,11.226691985415584
3114.3117,17.964729806656294
3115.3028,17.78339368170076
3116.2932,15.082864497047467
3117.2831,15.463322961360902
3118.2723,16.074949632476972
3119.2608,23.167924913598398
3120.2488,20.042429047178388
3121.2361,24.39864204399099
3122.2229,20.33674371438599
3123.209,25.606913624726744
3124.1944,27.25933113800933
3125.1793,26.644175361160848
3126.1635,31.711625128515138
3127.1471,28.611859007964284
3128.1301,32.745055250284224
3129.1125,32.71139182013227
3130.0942,33.76104635471525
3131.0753,38.29419616412607
3132.0558,33.21101822084721
3133.0357,38.36168911441921
3134.015,38.59638510227248
3134.9936,38.86528205822051
3135.9716,38.168555470113034
3136.949,43.00638043714697
3137.9258,40.67893167683368
3138.902,46.036383476620784
3139.8775,47.12890971716655
3140.8524,49.25668381876548
3141.8267,47.019878730422974
3142.8004,46.668666908577634
3143.7735,52.353220339469246
3144.7459,51.37371054265096
3145.7178,53.03030851414374
3146.689,55.27318473623144
3147.6596,53.452509160894856
3148.6295,57.6684511873829
3149.5989,57.27117968041945
3150.5676,55.21086292804385
3151.5357,54.98766864558369
3152.5032,62.65176399625789
3153.4701,61.2533155934087
3154.4364,62.892489423860745
3155.402,63.769450861905526
3156.367,62.234364652909576
3157.3315,64.58739490454502
3158.2952,67.22870510214025
3159.2584,65.10845808514979
3160.221,63.32681602074101
3161.1829,72.68394042499679
3162.1442,72.0299921807318
3163.105,71.41513144392133
3164.065,73.48951765024071
3165.0245,74.90330952121401
3165.9834,73.65666504347008
3166.9416,73.69974145460469
3167.8993,76.93269525564693
3168.8563,81.1056822106285
3169.8127,77.41885731425411
3170.7684,77.02237475017165
3171.7236,81.56638792784045
3172.6782,84.65104948649605
3173.6321,84.92651124971009
3174.5854,89.19292419454374
3175.5381,87.200438448793
3176.4902,85.54920324832464
3177.4417,89.63936695700104
3178.3926,89.27107708319251
3179.3428,89.64448023887569
3180.2924,91.25972214331642
3181.2415,95.11694761933576
3182.1899,94.26630057715752
3183.1377,98.507923975836
3184.0848,95.89195983176242
3185.0314,95.66854917624885
3185.9773,97.93783208168765
3186.9227,95.94994766378565
3187.8674,100.6050340588714
3188.8115,104.70322844377385
3189.755,103.09466698927167
3190.6979,106.77948481911122
3191.6402,103.35781602609208
3192.5818,104.97979363521905
3193.5229,110.34554963791871
3194.4633,111.85521497581968
3195.4031,108.75891948709506
3196.3423,110.70679189136573
3197.2809,114.0989598206634
3198.2189,113.63554979995178
3199.1563,116.51668721320499
3200.0931,114.0424963080416
3201.0292,116.96310016691334
3201.9648,116.27862073184683
3202.8997,118.23917877523778
3203.834,124.79489390669556
3204.7677,116.79588455343779
3205.7008,117.8922678947331
3206.6333,120.68415994189121
3207.5652,122.12167552729919
3208.4964,124.45492827650244
3209.4271,124.88403059382958
3210.3571,128.55909363905988
3211.2865,132.43022732313227
3212.2154,129.0475402713948
3213.1436,132.3611397848931
3214.0712,132.37113187419732
3214.9982,137.42762122626627
3215.9246,133.9307112043473
3216.8503,134.68050379741155
3217.7755,136.87709965512306
3218.7001,136.97059808034075
3219.624,140.71109700715255
3220.5473,137.74869299994032
3221.4701,139.683481215975
3222.3922,140.7655554350406
3223.3137,142.39500804008608
3224.2346,140.071930006405
3225.1549,147.29641088534078
3226.0746,146.71853882751745
3226.9937,147.88840051059495
3227.9121,148.1060811450477
3228.83,149.57166446246617
3229.7473,147.6352327133797
3230.6639,150.74686665260117
3231.5799,153.90664555859092
3232.4954,153.56464720234058
3233.4102,155.72094781577533
3234.3244,155.02562209517382
3235.238,155.52874317960513
3236.151,157.53038265788214
3237.0634,159.38061056353024
3237.9752,156.92949535477095
3238.8864,159.62710389601955
3239.797,161.22350148239647
3240.7069,162.568751812751
3241.6163,160.4629169736973
3242.5251,162.456057426162
3243.4332,166.5482320264424
3244.3408,165.13949800627526
3245.2477,167.27991093191494
3246.154,168.36952471822062
3247.0598,170.10839160725243
3247.9649,169.0965621573751
3248.8694,172.48408522586945
3249.7733,168.32100797905048
3250.6766,176.15737585839247
3251.5793,174.7932326221595
3252.4814,172.6786202670419
3253.3829,176.81357904179754
3254.2838,176.39814746839798
3255.1841,177.43236230067902
3256.0838,182.21625852849468
3256.9829,179.3998693673754
3257.8814,180.48322621068883
3258.7792,180.4663586578039
3259.6765,180.74929450325712
3260.5731,181.18205973692136
3261.4692,180.26467854117644
3262.3647,183.6971732865814
3263.2595,183.32956454104857
3264.1538,185.0618710355183
3265.0474,187.14410966763526
3265.9404,186.22629548442546
3266.8329,188.85844166147365
3267.7247,186.74055951210158
3268.616,190.47265846104645
3269.5066,185.70474606563988
3270.3966,189.93682797848678
3271.286,189.61890799514455
