RamanShift,CorrectedData
30.1047,169.37530262011308
32.3739,153.95066619357928
34.6426,143.4760280732924
36.9109,133.0513850259928
39.1787,123.02673238366046
41.4461,106.60206414776141
43.7131,94.02737308949438
45.9796,82.95265091403736
48.2456,70.87788838629464
50.5112,58.90307544164393
52.7764,45.82820130668401
55.0411,31.30325461898294
57.3054,21.27822355782674
59.5692,12.253095989468854
61.8326,-3.972140432619481
64.0955,-15.297498177498
66.3579,-22.922950032543522
68.6199,-32.34831596312608
70.8815,-40.57318693434493
73.1426,-38.74683075162285
75.4032,-26.81810989424521
77.6634,24.364500239341794
79.9231,158.55279216360978
82.1824,464.8985581493853
84.4412,999.0035888819671
86.6995,1691.7696703976687
88.9574,2386.148578742767
91.2148,2880.042073045843
93.4717,3105.8518885739927
95.7282,3165.429731793889
97.9842,3172.7272781136885
100.2398,3139.446171287249
102.4949,3089.188023341157
104.7495,3050.454414907536
107.0036,3010.7968957266307
109.2573,2955.0169850341404
111.5105,2864.6661719577965
113.7632,2804.7459160751605
116.0154,2715.7576483171324
118.2672,2653.3527715671526
120.5185,2576.632661551086
122.7693,2506.748667461269
125.0197,2434.652112723714
127.2696,2367.744295696942
129.519,2318.2264903929586
131.7679,2306.9499471463228
134.0163,2267.615893109331
136.2642,2245.575532364778
138.5117,2243.9300463193026
140.7587,2191.030593923786
143.0052,2162.67831168981
145.2512,2101.874314218651
147.4967,2058.0196944848026
149.7417,2024.3655244440142
151.9863,1979.4628554718402
154.2304,1975.612718700179
156.4739,1935.0161254663012
158.717,1937.7240673513493
160.9596,1924.287516586306
163.2017,1924.2574260249137
165.4433,1923.5347292780384
167.6844,1888.5203407139734
169.925,1857.3651554656647
172.1651,1804.8200497808543
174.4047,1759.3858813336337
176.6439,1720.1134897498946
178.8825,1680.4536970616691
181.1206,1661.0073080998545
183.3582,1652.2751108908128
185.5954,1630.0578768508321
187.832,1598.8563608734498
190.0681,1601.1213015516244
192.3037,1579.4534214897508
194.5388,1562.553427281013
196.7734,1559.472009724058
199.0075,1559.6598439919999
201.2411,1566.5675896632351
203.4742,1550.8958907195592
205.7068,1559.7453754770945
207.9389,1555.216656743004
210.1704,1555.060331726997
212.4015,1545.0769820866178
214.632,1537.3171739288064
216.862,1536.0814579097337
219.0915,1510.1203693124003
221.3205,1500.3844280589908
223.549,1506.6741389704875
225.777,1498.0899918640284
228.0044,1469.6324614900109
230.2314,1456.352007617932
232.4578,1435.3490753209667
234.6837,1399.1240951087686
236.909,1402.4774831375012
239.1339,1372.9596415720885
241.3582,1364.7709585526786
243.582,1338.0618084898247
245.8053,1340.5825521463698
248.0281,1321.88353690454
250.2503,1302.0650967407364
252.472,1300.6775524125237
254.6932,1290.3712116568174
256.9139,1298.2963692037565
259.134,1282.55330687977
261.3536,1287.5922935283213
263.5727,1299.713585167343
265.7912,1305.6174249388441
268.0092,1336.6540429877002
270.2267,1356.7236564026114
272.4436,1393.5764689057378
274.6601,1376.012670652005
276.8759,1371.1824378605734
279.0913,1387.8359329904777
281.3061,1389.32330478893
283.5204,1385.1446881247825
285.7341,1393.650203973656
287.9473,1396.9399594597237
290.16,1370.0140477706577
292.3721,1349.3225481247305
294.5837,1316.6155260400747
296.7947,1288.8930335415973
299.0052,1266.6051094880509
301.2152,1233.851779849258
303.4246,1221.5330579289923
305.6334,1195.848944692509
307.8418,1173.4494288897347
310.0495,1145.2344873121062
312.2568,1102.7040850165665
314.4635,1075.058175607714
316.6696,1033.896701663108
318.8752,980.5695950097243
321.0802,963.0267771355736
323.2847,949.6681597229713
325.4887,935.3936448239647
327.692,934.2531249939204
329.8949,953.296483434269
332.0972,967.0735940039101
334.2989,973.0343210287783
336.5001,956.278519164073
338.7007,930.9560333346515
340.9008,883.2166989025864
343.1003,848.4103419203889
345.2992,809.1367796084057
347.4976,782.0458207028796
349.6955,752.0372658486856
351.8927,732.6109078702423
354.0895,698.7665320715953
356.2856,687.9039164306816
358.4812,679.4728319377737
360.6763,660.1730427041057
362.8707,653.1043060461836
365.0646,649.2163726787849
367.258,627.4589867856439
369.4508,634.7818860583327
371.643,655.7348019138337
373.8346,668.6674594213114
376.0257,680.9795770925821
378.2162,683.8208667527883
380.4062,675.2910334172786
382.5956,651.539775263192
384.7844,623.9667837147585
386.9726,589.4217436808106
389.1603,568.154333830513
391.3474,532.864226938814
393.5339,542.1010900991189
395.7199,526.1145850761907
397.9052,537.9043682137828
400.09,565.9200905945024
402.2743,577.9613979219143
404.4579,596.2279302403829
406.641,615.5693218146591
408.8235,642.4852009472163
411.0054,673.925189784834
413.1868,746.1889040494411
415.3675,804.125952723715
417.5477,800.5859373284457
419.7273,733.4184513431628
421.9064,639.8230802415394
424.0848,580.4494021630624
426.2627,532.5969888489901
428.4399,480.66540623608694
430.6166,438.6042149351481
432.7928,388.7629707503147
434.9683,364.6412250996875
437.1432,330.8385255137375
439.3176,321.0044158765245
441.4914,296.6384367637222
443.6645,307.09012554096216
445.8371,308.1590166074916
448.0091,287.64464129165776
450.1806,289.94652784021764
452.3514,272.41420162348254
454.5216,254.9471851122994
456.6913,254.5949980533735
458.8603,254.35715764393808
461.0288,255.0831785352782
463.1967,253.27257283510653
465.3639,244.12485010030673
467.5306,226.43951735503538
469.6967,221.51607918220293
471.8622,213.75403790032397
474.0271,211.45289361275354
476.1914,195.96214428530675
478.3551,201.48128576927184
480.5182,199.5598119563158
482.6807,200.59721472329375
484.8426,210.34298395146402
487.0039,230.396607516112
489.1647,253.05757118909537
491.3248,281.7753584383063
493.4843,290.39945020106074
495.6432,287.0793245969228
497.8015,262.2144568414617
499.9592,238.90431927945383
502.1163,202.69838163353165
504.2728,171.04611123728546
506.4287,148.3469733973218
508.5839,143.55043170978684
510.7386,126.20594828735761
512.8927,121.56298380720727
515.0461,132.0209976844517
517.199,133.52944811857674
519.3512,164.93779198885954
521.5029,205.5954848392821
523.6539,238.20198056445156
525.8043,240.45673100301906
527.9541,203.60918561161793
530.1033,158.65879144231417
532.2519,134.20499351108288
534.3999,118.99723524731098
536.5472,98.63495873833722
538.694,109.81760488152804
540.8401,117.1446135879014
542.9856,124.96542367030042
545.1305,128.32947277012295
547.2748,139.08619727911264
549.4185,147.68503230572082
551.5615,144.47541156753687
553.704,164.95676730529954
555.8458,167.37853031499526
557.987,175.69012974304246
560.1276,191.49099306207518
562.2675,228.83054598782724
564.4069,263.5082123211225
566.5456,276.57341357448104
568.6837,274.47556862534
570.8212,237.2140935854029
572.958,195.5884018216184
575.0942,160.5979043287939
577.2299,139.89201014585342
579.3648,119.92012670574218
581.4992,94.73166004248674
583.6329,102.47601499091297
585.766,118.2025954385308
587.8985,140.4108042480907
590.0304,160.05004310031745
592.1616,178.01971227182958
594.2922,173.86921043874418
596.4222,151.2479344969836
598.5515,112.50527960377735
600.6802,87.34063940387705
602.8083,60.35340641698167
604.9358,51.99297228938485
607.0626,51.108728063846
609.1888,58.80006426319687
611.3144,61.31637089918172
613.4393,88.90703739554579
615.5636,113.82145256287072
617.6873,149.2590043226678
619.8103,173.7690794582345
621.9327,176.70106326027872
624.0544,144.50433928181792
626.1756,114.52828930885835
628.2961,96.3722936823633
630.4159,66.53573159801363
632.5351,76.01798128776682
634.6537,58.61842031822334
636.7716,60.936425495805
638.8889,53.67137304075004
641.0056,60.122638563932014
643.1216,69.28959713951213
645.237,63.57162324042565
647.3518,53.068090646712335
649.4659,39.82837250269699
651.5793,31.401841422023608
653.6922,21.987869620053743
655.8043,16.085828998130864
657.9159,9.74509123772009
660.0268,13.515027859428528
662.137,-0.30508696959873305
664.2466,5.234020782633479
666.3556,-1.0683718040620533
668.4639,0.5869600622595499
670.5716,11.049251846576908
672.6786,0.31773315013788306
674.785,-14.208366536301583
676.8907,-2.9298208961401997
678.9958,3.6527383288046167
681.1002,-13.411291334376074
683.204,-7.5725488494456386
685.3072,-15.781539201368787
687.4097,-12.288691725348826
689.5115,-0.44427809901276305
691.6127,-5.798447235957383
693.7132,-2.0013436114429624
695.8131,-11.50305377424138
697.9123,0.4963557202966058
700.0109,7.446933232327638
702.1089,10.848727117044064
704.2061,18.251785655170124
706.3028,21.956157018944168
708.3987,48.111889198086146
710.4941,62.969029962754576
712.5887,67.62762660198996
714.6827,62.58772577514242
716.7761,65.74937346528509
718.8688,62.21261502961488
720.9608,54.82749516783565
723.0522,73.49405795752614
725.1429,84.66234692799048
727.233,112.0824048735933
729.3224,163.75427374207652
731.4112,182.77799436035843
733.4993,198.85360591781568
735.5867,167.78114577604674
737.6735,132.91064930811444
739.7596,97.59215020927127
741.845,93.87568084566374
743.9298,90.06127260751896
746.014,99.79895594630648
748.0974,120.03876041288481
750.1802,113.53071456012276
752.2624,102.5248457405014
754.3439,96.07118017119592
756.4247,74.31974304413302
758.5048,77.7205585905283
760.5843,91.82365029840048
762.6631,95.47904087856318
764.7413,132.48675212359376
766.8188,184.7468048712799
768.8956,238.5592186345425
770.9718,277.22401107883456
773.0473,266.99119748401745
775.1221,253.26079035771295
777.1962,247.08279953763213
779.2697,282.9072323288776
781.3426,329.13409356572447
783.4147,376.0633852533765
785.4862,375.84510610569623
787.557,320.9792510759139
789.6271,248.66581135880824
791.6966,159.2547749393666
793.7654,105.59612731591756
795.8335,81.83985239424237
797.901,49.485933024161795
799.9678,63.484351237097826
802.0339,47.985088569613936
804.0993,41.4881259234312
806.1641,57.89344372041978
808.2282,37.60102196756975
810.2916,24.41084009293695
812.3544,26.72287714856793
814.4164,24.887111942400225
816.4778,27.853523015143082
818.5385,39.922088658635175
820.5986,60.292786886180465
822.658,93.86559531186276
824.7166,125.54049094683842
826.7747,189.66744986360777
828.832,241.39644687926693
830.8886,265.4274549142383
832.9446,295.8104444749795
834.9999,271.84538341367534
837.0545,230.482236624405
839.1085,182.670966282795
841.1618,140.5615322596493
843.2143,106.70389259906369
845.2662,78.64800393951782
847.3175,79.14382185245336
849.368,67.59130112283196
851.4179,64.04039574417789
853.467,61.84105903410364
855.5155,70.69324366981687
857.5633,69.94690171011644
859.6105,68.70198450686826
861.6569,62.85844271247015
863.7027,54.116226292300325
865.7478,40.82528458315369
867.7922,43.28556638066311
869.8359,40.89702007220944
871.8789,37.50959361231867
873.9212,37.22323454654679
875.9629,46.93789004535461
878.0039,54.80350690697037
880.0441,71.9200314602432
882.0837,80.78740948598852
884.1226,100.65558604582088
886.1609,119.97450539348233
888.1984,158.04411077615862
890.2352,178.71434424129188
892.2714,180.78514625588286
894.3069,169.10645549978915
896.3416,144.97820884501675
898.3757,121.25034147250881
900.4091,102.57278711342587
902.4418,109.04547828642626
904.4739,115.66834648444103
906.5052,122.39132210994671
908.5358,122.46433440873773
910.5658,114.63731140269567
912.595,96.61017988905883
914.6236,74.68286551869312
916.6515,60.855292976363785
918.6786,41.87738620000778
920.7051,42.79906851901001
922.7309,28.220262843981345
924.756,45.64089165754217
926.7804,61.11087716011082
928.8041,50.430141095697536
930.8272,81.04860459720373
932.8495,69.76618829322933
934.8711,77.28281200188951
936.892,85.74839484363724
938.9123,94.41285516609787
940.9318,114.87611045941287
942.9506,121.6380772695959
944.9688,110.89867099390005
946.9862,102.65780581319814
949.003,68.76539479937696
951.019,64.82134999774598
953.0344,62.425582765961735
955.0491,60.47800381346724
957.063,46.67852322545093
959.0763,55.677050482321306
961.0888,48.02349459770244
963.1007,53.31776402844832
965.1119,51.609766751178654
967.1223,39.74941020933511
969.1321,47.28660133026278
971.1412,40.721246643812606
973.1495,46.103252206970296
975.1572,43.18252366950878
977.1641,50.708966220169145
979.1704,44.882484615867156
981.1759,38.55298310642945
983.1808,45.92036549285831
985.1849,41.63453519062659
987.1884,30.59539515600352
989.1911,40.20284792891357
991.1932,48.00679574332719
993.1945,50.20714043118676
995.1951,50.1537833443673
997.1951,47.89662533267244
999.1943,53.635566744369044
1001.1928,42.52050744875828
1003.1906,55.55134677878641
1005.1877,73.42798364219539
1007.1841,84.85031639121416
1009.1798,92.36824264379209
1011.1748,83.1816591693763
1013.1691,69.59046181373185
1015.1627,58.84454559080791
1017.1556,36.143804818649414
1019.1477,28.438133226856166
1021.1392,14.677424183590801
1023.1299,10.461570772634786
1025.12,21.54046593099622
1027.1093,11.764002491067231
1029.0979,36.98207306983545
1031.0859,44.44457016664842
1033.0731,56.75138591103382
1035.0596,49.65241198807371
1037.0454,37.547539515336325
1039.0304,37.836659113867086
1041.0148,25.869661029236
1042.9985,21.646435128646885
1044.9814,10.16687102060746
1046.9636,-1.769141902838669
1048.9452,7.6382856486835635
1050.926,15.139042983241666
1052.9061,31.13301933252012
1054.8855,40.57010377681377
1056.8642,31.25018508508731
1058.8421,42.82315162060456
1060.8194,30.638891434127572
1062.7959,29.04729214818724
1064.7717,30.398241078926503
1066.7469,27.891625252015046
1068.7213,29.277331389140954
1070.695,55.155245933076344
1072.6679,55.525255033820486
1074.6402,80.98724428982052
1076.6117,80.09109874427156
1078.5826,58.73670263049621
1080.5527,42.873939380906904
1082.5221,34.452691840549505
1084.4908,16.972842425731415
1086.4587,3.6342732082331395
1088.426,1.236866090107469
1090.3925,-0.41949706293507916
1092.3584,-0.38493439755200143
1094.3235,2.240435943794296
1096.2879,22.206495822491547
1098.2515,35.21312707752338
1100.2145,54.06021132580872
1102.1767,67.19762983213559
1104.1382,98.87526332069046
1106.099,125.69299184368333
1108.0591,159.35069446457248
1110.0185,180.34824898988722
1111.9771,200.3355316326497
1113.9351,231.01241680240003
1115.8923,270.27877690532364
1117.8488,276.4344820374813
1119.8045,255.2293995921467
1121.7596,196.2633941982491
1123.7139,142.48632793242382
1125.6675,117.69806090867303
1127.6204,106.04845181613541
1129.5726,129.83735816696992
1131.524,121.66463641285054
1133.4748,97.33014170707816
1135.4248,60.53372798630676
1137.3741,49.775248213889995
1139.3226,26.354554747844077
1141.2705,30.321499448433315
1143.2176,25.125933912377036
1145.164,39.867709433179584
1147.1097,35.79667705308634
1149.0546,27.062687415665323
1150.9989,18.3655908065183
1152.9424,0.7052372406203631
1154.8852,-3.0685234507088808
1156.8272,-10.305841443201757
1158.7686,1.6431637419589151
1160.7092,-9.321524461054082
1162.6491,-10.149922634499262
1164.5883,4.808045761394169
1166.5267,13.352558664123762
1168.4644,24.38379396310677
1170.4014,36.55192941423593
1172.3377,68.50714252956607
1174.2732,108.69961045563343
1176.2081,157.32950965390273
1178.1421,210.19701549884348
1180.0755,288.85230179163
1182.0082,328.19554023146736
1183.9401,317.3268996290376
1185.8713,244.64654551306774
1187.8017,185.80464023901663
1189.7315,129.95134371587778
1191.6605,82.7368139945986
1193.5888,61.26120782661292
1195.5163,41.92468113598727
1197.4432,21.077389234176053
1199.3693,16.369487013387584
1201.2947,-3.7988708449437354
1203.2193,-4.427529823077521
1205.1432,2.3337025474459097
1207.0664,-5.364937033891579
1208.9889,1.4767881090557466
1210.9106,5.359168248153537
1212.8316,3.9824936404999107
1214.7519,5.597054489601419
1216.6715,12.603140959139864
1218.5903,32.40104315682663
1220.5084,35.441051064342446
1222.4257,32.67345433935759
1224.3424,52.04854228513227
1226.2583,59.56660387819261
1228.1735,77.87792757457964
1230.0879,88.98280123466839
1232.0016,116.13151194005513
1233.9146,136.2743458825089
1235.8269,151.0115880924833
1237.7384,164.69352223768885
1239.6492,152.32043047572063
1241.5592,167.74259331723852
1243.4686,197.31028974969854
1245.3772,243.32379708313113
1247.285,287.333390654464
1249.1922,326.13934336738714
1251.0986,377.74192525225703
1253.0042,410.04140307803675
1254.9092,466.0380398362704
1256.8134,511.53209441808815
1258.7169,557.7238210542401
1260.6196,566.4134688601561
1262.5216,581.8012813740272
1264.4229,562.7374964699111
1266.3234,558.7723462038521
1268.2232,523.00605700452
1270.1223,489.88884971286166
1272.0207,472.8209399397632
1273.9183,459.65253839722254
1275.8151,476.03385106902874
1277.7113,491.1150793424449
1279.6067,545.7464198443968
1281.5014,617.1780642906585
1283.3953,727.0601989395416
1285.2885,833.7930038775758
1287.181,897.5266519206892
1289.0727,933.9613075468807
1290.9637,892.7971262588823
1292.854,845.4842542198137
1294.7435,788.1228286648236
1296.6323,729.4129783742178
1298.5204,679.8548242470746
1300.4077,635.248479888342
1302.2943,616.5940521044207
1304.1802,595.7416413492259
1306.0653,571.7913419107334
1307.9497,551.5932421195025
1309.8333,537.6474245881788
1311.7162,518.8039664134761
1313.5984,506.9629393156348
1315.4798,488.7744098268548
1317.3605,485.8384394097071
1319.2405,487.25508463901883
1321.1197,464.52439723123223
1322.9982,434.1964240302393
1324.876,403.1212072346881
1326.753,347.2487847012627
1328.6293,303.87919025543533
1330.5048,258.16245425019065
1332.3796,223.6986039997215
1334.2537,186.58766423659665
1336.127,167.12965745639872
1337.9996,159.42460428883373
1339.8714,146.52252369231132
1341.7426,137.97343303099535
1343.6129,130.82734820382473
1345.4826,124.68428373000393
1347.3515,121.34425282046482
1349.2196,107.85726743929615
1351.087,110.57333833714449
1352.9537,110.3424751860843
1354.8197,114.36468655245682
1356.6849,114.53997989917855
1358.5493,122.81836154551934
1360.4131,142.94983666534972
1362.276,161.23440920435633
1364.1383,182.42208167872798
1365.9998,191.7628549923092
1367.8606,186.65672822472447
1369.7206,186.50369853796968
1371.5799,182.25376122747412
1373.4384,179.00690972363026
1375.2962,155.3131356342933
1377.1533,124.87242877724935
1379.0096,105.1847774171539
1380.8652,86.90016856993782
1382.7201,65.91858819968462
1384.5742,52.840021401476406
1386.4275,51.01445261120983
1388.2802,41.39186573638136
1390.132,31.172244174343348
1391.9832,29.805570908529774
1393.8336,21.04182861065243
1395.6832,17.330999654367588
1397.5322,17.373066202913492
1399.3803,11.168010246218671
1401.2278,10.815813600481079
1403.0745,3.66645797021863
1404.9204,1.169924951791245
1406.7656,2.7261961048947683
1408.6101,-0.014747022474352889
1410.4538,-1.4529229095811047
1412.2968,3.3616501116319455
1414.139,3.178968223922027
1415.9805,2.1490275764301146
1417.8213,16.22182428650757
1419.6613,26.047354450015803
1421.5006,32.675614000598216
1423.3391,58.15659861142473
1425.1769,85.34030362890911
1427.0139,131.57672381789928
1428.8502,174.56585308984052
1430.6858,217.65768404041063
1432.5206,231.40220751962914
1434.3547,230.09941220093918
1436.188,215.74928444376212
1438.0206,204.3518083065254
1439.8524,201.40696569016438
1441.6835,205.76473645209614
1443.5139,210.12509843566858
1445.3435,208.98802742658268
1447.1724,210.50349710928816
1449.0005,205.8214790783552
1450.8279,206.2419428233186
1452.6545,203.6648557754989
1454.4804,209.29018330379688
1456.3056,205.66788874046517
1458.13,193.6979333248549
1459.9536,176.33027623963812
1461.7766,167.56487473050817
1463.5987,141.6016842798556
1465.4202,124.54065869442258
1467.2409,101.48175036493433
1469.0608,85.27491043670994
1470.88,68.12008904025117
1472.6984,62.467235453310764
1474.5161,43.466298272440895
1476.3331,42.6672254695211
1478.1493,33.16996458176828
1479.9648,32.12446271972743
1481.7795,37.13066666224404
1483.5935,37.938522866919186
1485.4067,42.19797742004755
1487.2192,46.55897602853855
1489.031,44.62146397732192
1490.842,45.33538608573798
1492.6522,39.650686726912625
1494.4618,42.76730982061781
1496.2705,42.035198890119034
1498.0785,47.20429703100888
1499.8858,33.57454691852803
1501.6924,32.695890755874416
1503.4981,30.76827041050069
1505.3032,34.99162742290093
1507.1075,24.065903025886996
1508.911,24.791038102354605
1510.7138,29.21697329454082
1512.5159,26.643648996772413
1514.3172,11.121005311206488
1516.1178,12.998982073563695
1517.9176,14.177519008354693
1519.7166,9.906555710100577
1521.515,16.436031631547166
1523.3126,5.415886126374971
1525.1094,6.146058383904574
1526.9055,5.026487539297648
1528.7008,5.907112666255443
1530.4954,0.23787278821356495
1532.2893,3.9687068695368453
1534.0824,5.699553872211595
1535.8747,5.230352718537176
1537.6663,8.961042273817611
1539.4572,2.0915613510538265
1541.2473,10.22184867363626
1543.0367,8.35184294404013
1544.8253,6.931482762522137
1546.6132,14.06070664582063
1548.4003,15.28945304135948
1550.1867,23.96766025595531
1551.9723,28.245266443530568
1553.7572,39.322209518331135
1555.5414,43.59842711215066
1557.3247,63.02385646356072
1559.1074,80.74843437514892
1560.8893,100.32209701926439
1562.6705,117.89477976077211
1564.4509,132.66641696131632
1566.2305,144.18694180359347
1568.0094,145.356286143636
1569.7876,138.92438039560733
1571.565,135.891153520108
1573.3417,142.15653308849477
1575.1176,142.27044531321303
1576.8928,150.08281498514293
1578.6672,165.09356547246028
1580.4409,173.10261864251294
1582.2138,193.85989471171314
1583.986,212.81531216544704
1585.7575,233.61878755050196
1587.5282,253.22023528551233
1589.2981,268.0695674529246
1591.0673,270.6666936029832
1592.8358,281.06152060523675
1594.6035,276.60395262256736
1596.3704,274.94389100724203
1598.1366,265.5312343454882
1599.9021,255.81587847409457
1601.6668,238.6477165745381
1603.4308,237.67663927013672
1605.194,239.80253479773148
1606.9564,257.225289017397
1608.7182,286.994785391183
1610.4791,321.51090480888575
1612.2394,372.9735252903546
1613.9988,426.8325216403295
1615.7576,449.3377649338157
1617.5156,470.989121977493
1619.2728,457.23645508466427
1621.0293,403.5296218587406
1622.785,357.2684753307689
1624.54,290.90286449650023
1626.2942,248.88263477900043
1628.0477,192.90762869230744
1629.8005,157.32768626163264
1631.5525,128.19264558311139
1633.3037,103.05234317960225
1635.0542,91.0066142920374
1636.804,77.20529313082557
1638.553,62.99821299630935
1640.3013,53.23520641677868
1642.0488,42.91610529054128
1643.7955,43.24074098355317
1645.5416,41.45894443260903
1647.2868,33.4205461420967
1649.0313,33.02537620181448
1650.7751,28.323264367355506
1652.5181,30.11404006405931
1654.2604,27.09753243403287
1656.0019,26.973570318242935
1657.7427,38.09198228668103
1659.4828,50.60259663960312
1661.222,61.50524129634542
1662.9606,80.59974367021812
1664.6984,93.4359305594792
1666.4354,101.71362795638925
1668.1717,87.03266091884964
1669.9072,69.34285348762572
1671.642,54.544028833156005
1673.3761,38.78600943245078
1675.1094,30.91861721707997
1676.8419,15.441673730753507
1678.5737,16.655000207995386
1680.3048,10.308417728912872
1682.0351,1.2017472070632493
1683.7646,5.434809452919836
1685.4934,-4.0425747350615495
1687.2215,-1.580584612773123
1688.9488,-0.37935905078541055
1690.6754,-2.3890211296289863
1692.4012,2.290309859962406
1694.1263,0.6085384935759919
1695.8506,0.4655693238961476
1697.5742,1.711306897521979
1699.297,-2.704344243603032
1701.0191,-1.231479574648347
1702.7404,-2.3701675543846363
1704.461,-0.5204643391015793
1706.1808,-1.6824024071152053
1707.8999,0.14399096269701772
1709.6182,0.7587052986576452
1711.3358,-3.688269872350645
1713.0527,1.9030549689676945
1714.7688,2.0327061877242727
1716.4841,-0.04928986999991025
1718.1987,1.8070931215492578
1719.9126,-1.798118019468376
1721.6257,2.1851035070361036
1723.338,2.8568024643507215
1725.0496,1.4670235939124439
1726.7605,-1.384188391409623
1728.4706,-1.4967887934165844
1730.18,1.6792809141325051
1731.8886,2.7440942103986004
1733.5964,4.547724557749859
1735.3036,5.940245391113649
1737.0099,6.8217300999400265
1738.7156,9.042252014276897
1740.4204,8.001884395954875
1742.1246,4.300700416382085
1743.8279,6.088773166948016
1745.5306,13.366175696035214
1747.2325,5.132980991138368
1748.9336,11.489261906090434
1750.634,6.53509124339493
1752.3336,11.720541690662486
1754.0325,10.19568587015317
1755.7307,7.510596286921725
1757.4281,12.765345344066475
1759.1247,13.360005369580023
1760.8206,14.794648563801672
1762.5158,13.419346993470782
1764.2102,13.184172577380224
1765.9039,17.989197100129473
1767.5968,18.684492214476364
1769.289,16.62012939328676
1770.9804,16.396179922581837
1772.6711,17.262714922181374
1774.361,20.06980534794343
1776.0502,16.117521983099095
1777.7386,23.45593541018144
1779.4263,18.83511605054838
1781.1132,16.60513409099852
1782.7994,23.566059529979327
1784.4849,18.517962199887023
1786.1696,20.310911697457385
1787.8535,22.444977434246567
1789.5367,21.770228618701566
1791.2192,20.886734234819784
1792.9009,19.29456304889638
1794.5818,22.64378361835918
1796.2621,21.634464307690564
1797.9415,18.66667325493512
1799.6202,25.690478381792815
1801.2982,25.10594742329694
1802.9755,22.713147857576104
1804.6519,23.21214691169945
1806.3277,25.653011585604716
1808.0027,25.135808647108206
1809.6769,23.910604607496197
1811.3504,23.627465726697025
1813.0231,26.886458025532917
1814.6951,24.28764728855154
1816.3664,22.78109903143607
1818.0369,25.666878526993344
1819.7067,28.845050820219242
1821.3757,26.265680699440864
1823.044,28.528832664534974
1824.7115,18.734570952721512
1826.3783,23.282959515932205
1828.0443,23.674062118753085
1829.7096,26.657942292940774
1831.3741,24.384663333511256
1833.0379,25.854288268901172
1834.701,27.7168798837006
1836.3633,24.12250070395686
1838.0248,28.571212978548402
1839.6856,23.51307871512884
1841.3457,28.498159635639624
1843.005,23.37651722689141
1844.6636,25.948212690713376
1846.3214,22.013306995169586
1847.9785,23.971860848841928
1849.6349,27.823934740179425
1851.2904,26.619588917912424
1852.9453,26.508883352532123
1854.5994,31.29187774833379
1856.2528,32.16863154452385
1857.9054,30.589203867390182
1859.5572,30.85365352153427
1861.2083,27.962039005665744
1862.8587,29.664418509957642
1864.5084,28.760849944962715
1866.1572,27.25139092458963
1867.8054,27.83609877513851
1869.4528,28.015030550395778
1871.0994,32.58824302578675
1872.7453,27.555792696586508
1874.3905,29.867735732187725
1876.0349,30.67412802642521
1877.6786,31.875025174456553
1879.3215,27.970482464697994
1880.9637,31.160554866815687
1882.6051,30.095297070770926
1884.2458,27.97476345491954
1885.8858,26.44900809666447
1887.525,29.618084793661026
1889.1634,30.98204707907459
1890.8011,25.94094818988971
1892.4381,32.5948410532705
1894.0743,28.193778336971675
1895.7098,31.98781238279959
1897.3446,29.0769952506228
1898.9786,30.261378680431946
1900.6118,28.74101412144762
1902.2443,29.415952720276806
1903.8761,26.23624533611634
1905.5071,32.101942534003626
1907.1374,29.66309461661372
1908.7669,32.26975156560222
1910.3957,28.471963065993904
1912.0237,26.26977848011603
1913.651,29.913246885576314
1915.2776,27.3524170972847
1916.9034,28.937337631018693
1918.5285,33.018056729031755
1920.1528,26.094622344203984
1921.7764,26.267082099234997
1923.3992,26.68548335587819
1925.0213,23.749873213216247
1926.6427,26.61029850347701
1928.2633,28.4168058213897
1929.8832,28.56944149558059
1931.5023,28.91825157050789
1933.1207,25.663281804935494
1934.7383,31.204577668444827
1936.3552,31.192184373984517
1937.9714,28.826146822457503
1939.5868,24.70650960284489
1941.2015,27.883317015866353
1942.8154,23.506613115176577
1944.4286,23.62644167559708
1946.041,26.74284623688331
1947.6528,24.205870102526305
1949.2637,23.865556308588666
1950.8739,30.571947649074332
1952.4834,26.87508667933173
1954.0921,27.92501564898984
1955.7001,29.371776538926795
1957.3074,28.965411050770655
1958.9139,26.505960592431776
1960.5197,23.943466282166384
1962.1247,25.227968973171173
1963.729,26.90950927920821
1965.3325,22.788127561759893
1966.9353,27.763863913213584
1968.5374,29.036758198075404
1970.1387,26.35685000321284
1971.7393,27.87417862512592
1973.3392,26.538783096746144
1974.9383,26.400702172263266
1976.5366,22.109974340479255
1978.1342,24.366637826189077
1979.7311,22.120730633088016
1981.3273,19.672290521205014
1982.9227,24.17135502936175
1984.5173,23.317961499657088
1986.1112,21.212147032476366
1987.7044,27.353948495025364
1989.2968,21.1434025423884
1990.8885,25.38054555611032
1992.4795,29.215413706302016
1994.0697,20.348042909268912
1995.6592,25.978468789162363
1997.2479,21.2567267666533
1998.8359,25.48285200262798
2000.4232,25.10687944540547
2002.0097,21.928843788476357
2003.5955,21.24877947426252
2005.1805,25.61672072589745
2006.7648,25.632701554026895
2008.3484,21.946755713129477
2009.9312,25.558916701356807
2011.5133,20.76921779739297
2013.0946,20.42769202433287
2014.6752,22.984372197579347
2016.2551,21.589290928258336
2017.8342,23.84248059765207
2019.4126,21.34397337114997
2020.9902,24.993801175716655
2022.5672,20.59199572487705
2024.1433,22.68858848221808
2025.7188,24.03361070540673
2027.2935,20.577093425224135
2028.8674,17.469067432115338
2030.4406,21.359563310754467
2032.0131,21.49861147112499
2033.5849,23.33624210961476
2035.1559,23.072485207625505
2036.7261,23.957370513196565
2038.2957,25.2409275436425
2039.8645,16.22318557670421
2041.4325,22.4041736377134
2042.9998,20.88392058977
2044.5664,20.512455071932195
2046.1323,24.339805514419027
2047.6974,23.566000142325038
2049.2617,22.04106693734677
2050.8254,23.465033645520734
2052.3883,21.637927792472865
2053.9504,27.709776669178737
2055.5118,24.180607350234695
2057.0725,21.300446633139373
2058.6325,19.56932107358533
2060.1917,22.78725701426076
2061.7502,20.60428060216067
2063.3079,23.520417756407525
2064.8649,24.23569419008102
2066.4212,22.950135381056654
2067.9767,25.863766564853037
2069.5315,26.126612747487513
2071.0856,19.488698676339723
2072.6389,22.400048837523258
2074.1915,20.91068752226478
2075.7433,17.770638797790454
2077.2945,24.97992652221963
2078.8448,20.338574375965266
2080.3945,21.19660578964114
2081.9434,23.304043990475293
2083.4916,23.760911993729735
2085.039,20.517232581626104
2086.5857,22.423028298776913
2088.1317,20.028321484622438
2089.677,21.183134254372632
2091.2215,22.58748852295433
2092.7652,21.341405993463084
2094.3083,19.594908143119582
2095.8506,18.848016235730483
2097.3921,19.200751339153356
2098.933,20.103134332765634
2100.4731,21.355185903937283
2102.0124,21.30692653900695
2103.5511,20.308376510761462
2105.089,21.109555878918428
2106.6261,20.360484500111724
2108.1626,22.611182019879678
2109.6983,24.761667880155755
2111.2332,22.76196129676157
2112.7675,21.262081237902166
2114.301,20.812046444162917
2115.8337,22.81187544350847
2117.3657,22.761586555783026
2118.897,18.461197872712077
2120.4276,19.11072725840532
2121.9575,23.910192392360457
2123.4866,22.00961076296801
2125.0149,20.95899961951656
2126.5426,24.308375991198716
2128.0695,21.907756697617046
2129.5956,19.507158315290454
2131.1211,17.356597201660264
2132.6458,16.95608951909631
2134.1698,19.80565125640244
2135.693,21.855298232821667
2137.2155,24.355046069540506
2138.7373,19.154910169192604
2140.2584,23.05490569086112
2141.7787,17.90504760208013
2143.2983,22.455350639834748
2144.8171,22.605829362059595
2146.3353,18.506498102135907
2147.8527,18.80737096738659
2149.3693,16.3084618800696
2150.8853,23.159784574369183
2152.4005,19.06135262138504
2153.9149,17.313179360619102
2155.4287,20.665277940959754
2156.9417,18.91766133816367
2158.454,18.570342321334735
2159.9655,22.773333470400274
2161.4764,25.726647179584276
2162.9865,19.18029561537743
2164.4958,18.38429068700404
2166.0045,18.788644111885418
2167.5124,19.84336742360003
2169.0195,21.548471967839916
2170.526,20.75396889186348
2172.0317,19.359869127444497
2173.5367,21.166183398817026
2175.0409,20.822922236616506
2176.5445,18.63009595981663
2178.0473,19.53771467916185
2179.5494,17.44578831909577
2181.0507,21.254326608684792
2182.5513,19.71333910253749
2184.0512,18.02283514271923
2185.5504,21.93282387416201
2187.0488,20.59331426156949
2188.5465,14.504315050317203
2190.0435,20.115834779847532
2191.5397,17.077881844559826
2193.0353,19.84046443769519
2194.5301,18.853590581715892
2196.0241,16.067268100679584
2197.5175,17.981504630108034
2199.0101,18.746307644850376
2200.502,21.21168443994064
2201.9931,15.427642122949834
2203.4835,15.844187589332122
2204.9733,17.26132758026536
2206.4622,15.779068678485501
2207.9505,14.847417294115317
2209.438,18.716379679486877
2210.9248,15.985961938458132
2212.4109,18.156169987723246
2213.8962,15.527009584116811
2215.3809,12.548486302911726
2216.8648,19.92060556411083
2218.3479,16.293372662232173
2219.8304,12.116792692587751
2221.3121,18.340870587555855
2222.7931,13.565611158346869
2224.2733,15.041019032762506
2225.7529,14.417098702948465
2227.2317,16.94385451064028
2228.7098,11.421290653402522
2230.1872,13.299411159361199
2231.6638,15.928219942429521
2233.1397,12.35772078352663
2234.6149,17.587917304289476
2236.0894,16.118813002777912
2237.5632,13.000411201172597
2239.0362,10.532715060466103
2240.5085,14.215727611646926
2241.9801,15.94945178037645
2243.4509,12.133890350158765
2244.921,7.769045945003498
2246.3904,13.104921067581401
2247.8591,7.5415181428728175
2249.3271,12.878839464808962
2250.7943,10.716887251905874
2252.2608,10.355663593891265
2253.7266,12.545170473323964
2255.1917,10.085409769206194
2256.656,9.926383235088537
2258.1197,12.56809252366756
2259.5826,11.160539188376035
2261.0447,13.203724656965832
2262.5062,11.047650245583483
2263.9669,11.242317138338294
2265.4269,13.98772640886311
2266.8862,11.53387901836767
2268.3448,9.030775788184513
2269.8026,9.42841742430744
2271.2598,15.376804542422533
2272.7162,9.12593766393175
2274.1719,7.225817156468963
2275.6268,8.176443296408664
2277.0811,5.477816287867313
2278.5346,9.879936253196888
2279.9874,8.982803259971206
2281.4395,11.836417276964738
2282.8908,9.140778183124013
2284.3414,7.045885739031434
2285.7914,10.801739613861685
2287.2406,6.558339406330589
2288.689,4.665684607136626
2290.1368,11.623774641394945
2291.5838,9.832608887563893
2293.0302,9.292186607864053
2294.4758,10.152506966189947
2295.9206,10.263569033514258
2297.3648,11.325371779284666
2298.8082,10.337914070313175
2300.251,11.951194660158095
2301.693,11.065212198998665
2303.1343,8.829965217502178
2304.5748,7.595452135683772
2306.0147,7.811671285259024
2307.4538,8.978620921988878
2308.8922,8.396299223517659
2310.3299,7.264704277703515
2311.7669,5.783834088441594
2313.2031,10.6536865869801
2314.6387,8.624259646728945
2316.0735,7.59555103456124
2317.5076,10.467558431107463
2318.941,9.990279441042674
2320.3737,13.063711564366372
2321.8056,7.987852201175357
2323.2369,12.162698620929376
2324.6674,13.688248013209702
2326.0972,14.414497445970554
2327.5263,15.54144385028377
2328.9547,18.76908401307621
2330.3823,18.047414565860322
2331.8092,9.476431952457773
2333.2355,7.706132436215981
2334.661,9.736512185718198
2336.0858,5.717567292486237
2337.5098,6.699293750676887
2338.9332,9.931687497271312
2340.3558,6.614744402257742
2341.7778,3.4984602363075084
2343.199,6.732830703944501
2344.6195,7.617851474708019
2346.0393,4.953518150809117
2347.4583,5.939826258280377
2348.8767,11.276771273619232
2350.2943,6.314348613924935
2351.7113,6.502553583529007
2353.1275,7.741381423619558
2354.543,5.530827310359172
2355.9578,8.520886342496752
2357.3718,9.661553563472836
2358.7852,4.352823931519211
2360.1978,6.694692308252158
2361.6098,5.287153511759726
2363.021,5.98020229318314
2364.4315,7.02383335079206
2365.8413,7.468041323054244
2367.2504,8.512820778199092
2368.6587,9.658166209775615
2370.0664,7.054072026204629
2371.4733,9.350532539325314
2372.8795,8.047541990436173
2374.285,8.845094527330403
2375.6899,3.5431842173258374
2377.0939,8.041805039289315
2378.4973,2.740950936655942
2379.9,5.440615772442776
2381.3019,7.040793382257377
2382.7032,6.241477547301166
2384.1037,5.792661978367704
2385.5035,3.6443403238357917
2386.9027,6.99650617415768
2388.3011,8.849153083342244
2389.6987,6.552274535433384
2391.0957,2.405863925983425
2392.492,4.559914585022021
2393.8876,3.0644198185202214
2395.2824,3.919372886849942
2396.6765,1.974767019738934
2398.07,3.4805954077212604
2399.4627,3.986851221583329
2400.8547,2.893527597305642
2402.246,1.0006176310002388
2403.6366,3.358114389843877
2405.0265,4.116010931007189
2406.4156,2.7743002780796715
2407.8041,5.282975413490725
2409.1918,3.8920292919267965
2410.5789,4.2514548152445855
2411.9652,6.911244846380484
2413.3508,0.5213922057563778
2414.7358,1.731889644681715
2416.12,0.9927299092520343
2417.5035,0.4039057282439842
2418.8863,6.2154098205069275
2420.2684,5.227234900851222
2421.6497,4.139373621933174
2423.0304,4.301818584136775
2424.4104,4.064562346452284
2425.7896,0.7775974248518338
2427.1682,5.690916294661953
2428.546,2.2545114234332075
2429.9232,4.46837522180703
2431.2996,2.832500077879743
2432.6753,2.3468783350639626
2434.0503,1.3115023084473165
2435.4246,1.576364289648673
2436.7982,3.7914565571719336
2438.1711,4.956771373757384
2439.5433,2.02230096423078
2440.9148,6.538037503850184
2442.2856,4.603973147650663
2443.6557,4.620099985286956
2445.025,7.0364100603740525
2446.3937,2.4028953703259788
2447.7617,3.0695478421926836
2449.1289,2.336359378995162
2450.4955,3.1033218530589934
2451.8613,4.120427113346196
2453.2265,6.237666977785601
2454.5909,2.055033223101759
2455.9546,2.222517563642583
2457.3177,5.240111693205655
2458.68,1.507807283363384
2460.0416,1.3255959532870776
2461.4025,4.043469307069998
2462.7627,2.511418935549429
2464.1222,6.129436389128038
2465.4811,1.5475131930942965
2466.8392,2.415640811442323
2468.1966,6.783810692691169
2469.5533,4.95201426120348
2470.9093,1.8202428735038012
2472.2645,5.688487836596586
2473.6191,3.6067404392838824
2474.973,7.924991913482913
2476.3262,2.34323345504351
2477.6787,2.161456180565615
2479.0305,0.2296511832168875
2480.3816,5.797809534550439
2481.7319,5.565922303822916
2483.0816,3.633980502312866
2484.4306,1.8519750856396655
2485.7789,3.9198969730829134
2487.1264,4.2877370654024745
2488.4733,6.355486224159243
2489.8195,0.2731352680367749
2491.165,4.890674952163785
2492.5097,5.908096028937642
2493.8538,2.775389201848988
2495.1972,5.492545115307543
2496.5398,4.959554385969113
2497.8818,5.126407575564102
2499.2231,3.343095196227381
2500.5637,4.05960770882978
2501.9035,5.225935540811179
2503.2427,2.842069079015431
2504.5812,2.2079986580270585
2505.919,4.123714584009882
2507.256,6.589207141047801
2508.5924,3.2544665719875994
2509.9281,3.669483053783992
2511.2631,4.384246730847039
2512.5974,5.898747710891982
2513.9309,4.56297605779163
2515.2638,5.776921776431344
2516.596,4.740574826066741
2517.9275,3.203925108184272
2519.2583,4.816962476864639
2520.5884,0.02967675414934945
2521.9178,1.2920577139102676
2523.2465,2.3040948335484757
2524.5745,6.91577757754451
2525.9018,2.7270953873379327
2527.2284,5.288037635210571
2528.5543,3.6985936661733305
2529.8796,4.158752772356763
2531.2041,2.268504208905462
2532.5279,2.977837189376551
2533.851,6.186740904642107
2535.1735,3.2452045157958906
2536.4952,-1.1467828779357347
2537.8163,0.5607677902215542
2539.1366,4.117857043403035
2540.4562,5.12448539913629
2541.7752,5.6806533337703655
2543.0935,8.736361272409454
2544.411,5.54160958335126
2545.7279,4.996398547529878
2547.0441,3.6007283904633525
2548.3596,1.8545992877057458
2549.6744,4.258011378803886
2550.9885,3.5609647847586317
2552.3019,2.8634595839907604
2553.6146,6.315495819311401
2554.9266,4.267073504897091
2556.2379,4.118192591769464
2557.5485,5.668852988279397
2558.8585,7.81905456159587
2560.1677,5.318797122199335
2561.4762,2.418080402379722
2562.7841,3.5169040812390335
2564.0913,4.315267813698476
2565.3977,4.363171219510235
2566.7035,2.3106138752738445
2568.0086,4.657595313957096
2569.313,4.154115045421719
2570.6167,2.1501725329534622
2571.9197,5.595767198296976
2573.222,5.340898441695231
2574.5236,4.135565607433527
2575.8246,3.1297679863882166
2577.1248,5.723504828079989
2578.4244,6.016775350731876
2579.7232,5.159578715331882
2581.0214,3.101914022700285
2582.3189,9.043780322061593
2583.6157,7.385176631621171
2584.9118,6.626101879146631
2586.2072,4.76655491855378
2587.5019,2.5565345374974484
2588.7959,6.996039475966917
2590.0893,5.435068448386119
2591.3819,6.873620099218613
2592.6739,6.76169301857729
2593.9652,5.1992857278388485
2595.2557,8.236396680763043
2596.5456,3.6230242791168408
2597.8348,6.209166842303254
2599.1234,7.2448226534950635
2600.4112,6.829989933773383
2601.6983,7.414666831771157
2602.9848,4.748851427821414
2604.2705,8.482541728110547
2605.5556,9.515735691336467
2606.84,7.498431191371637
2608.1237,8.230626006931239
2609.4067,7.862317841746162
2610.689,4.74350431724104
2611.9707,3.8741829762173623
2613.2516,6.004351314041585
2614.5319,5.634006787338343
2615.8115,5.413146792688757
2617.0903,4.89176867033391
2618.3685,9.569869706383429
2619.6461,10.647447138029243
2620.9229,4.874498106764641
2622.199,6.601019647608432
2623.4745,5.877008746834463
2624.7493,5.402462324706384
2626.0234,5.127377242717785
2627.2968,2.951750308337644
2628.5695,1.4255782777611756
2629.8415,4.998857877666133
2631.1128,6.271585820474513
2632.3835,5.59375876861975
2633.6535,4.1153733218194475
2634.9228,4.88642602385363
2636.1914,4.406913377348623
2637.4593,9.176831836066505
2638.7265,3.096177809700208
2639.9931,5.214947616174406
2641.259,7.783137542451989
2642.5242,6.550743823346387
2643.7887,2.1177626158396876
2645.0525,1.3841900114065666
2646.3156,4.150022080344051
2647.5781,6.415254879107312
2648.8398,3.079884422651304
2650.1009,5.243906661778478
2651.3613,3.507317516492435
2652.6211,3.4201128543577255
2653.8801,4.982288507865746
2655.1385,3.893840275306758
2656.3961,6.254763905148177
2657.6531,3.66505510691902
2658.9094,5.724709527600659
2660.1651,4.733722777523969
2661.42,2.4920904097727288
2662.6743,4.449807930093506
2663.9279,6.106870819311961
2665.1808,7.263274513755718
2666.433,6.119014388683702
2667.6846,5.124085746722109
2668.9354,7.428483829306995
2670.1856,9.282203826633594
2671.4351,6.985240854612304
2672.6839,4.287589936331482
2673.9321,7.389246025027099
2675.1795,6.490204031059246
2676.4263,6.640458790895572
2677.6724,10.340005076101704
2678.9179,9.988837591838685
2680.1626,5.88695093986755
2681.4067,2.384339622060949
2682.6501,4.430998081422061
2683.8928,8.526920737110693
2685.1348,6.322101963976678
2686.3761,5.166536051600662
2687.6168,4.210217226342291
2688.8568,6.903139662895843
2690.0961,4.745297493853474
2691.3348,3.786684782775943
2692.5727,5.477295545771032
2693.81,2.717123761079691
2695.0466,7.4061633521699335
2696.2826,5.244408215338542
2697.5178,7.581852172820696
2698.7524,4.818488994407513
2699.9863,0.4043123740715977
2701.2195,7.439315957600677
2702.452,8.223493386739353
2703.6839,7.906838228839106
2704.9151,5.13934396901648
2706.1456,6.221004013319671
2707.3755,8.301811716403453
2708.6046,9.781760370712558
2709.8331,8.460843185673628
2711.0609,7.489053272895706
2712.2881,7.316383659379422
2713.5145,7.042827297234872
2714.7403,8.218377065408351
2715.9654,7.79302577241787
2717.1899,8.966766144597695
2718.4136,11.789590830351827
2719.6367,9.71149238841663
2720.8591,10.332463259632597
2722.0809,9.452495787725272
2723.3019,10.921582213095608
2724.5223,12.989714681619596
2725.7421,11.956885229957404
2726.9611,11.573085764872047
2728.1795,11.188308073557728
2729.3972,10.102543827477799
2730.6142,9.21578458621254
2731.8306,7.378021808316799
2733.0462,7.289246860187635
2734.2612,7.049451034441869
2735.4756,7.308625550803878
2736.6892,6.466761558503553
2737.9022,6.77385013368453
2739.1145,4.479882287822846
2740.3262,7.234848964656042
2741.5372,5.088741063122839
2742.7475,3.391549409813475
2743.9571,6.493264780430799
2745.1661,6.04387791676217
2746.3744,5.443379495662317
2747.582,2.7417601335471957
2748.7889,1.5390103923989784
2749.9952,7.335120806782246
2751.2008,4.180081895871481
2752.4057,2.4238841054899822
2753.61,2.5165178396602386
2754.8136,0.8579734781659134
2756.0165,2.798241375625498
2757.2188,6.1373118780777745
2758.4204,0.2751753035791147
2759.6213,2.4618219088127766
2760.8215,5.59724194771028
2762.0211,0.03142564958492855
2763.22,1.3143631877776158
2764.4182,0.19604473531500943
2765.6158,3.6764604520801356
2766.8127,3.10560049599561
2768.009,3.183454988219445
2769.2045,2.760014018853667
2770.3994,1.8852676461657687
2771.5936,1.1092059008231239
2772.7872,0.23181879464043575
2773.9801,0.7530963283403693
2775.1723,2.7230285003274126
2776.3639,-2.1083946985248936
2777.5548,1.9588166954267052
2778.745,2.6246737086885013
2779.9346,1.4391873481786313
2781.1235,-0.19763140543150826
2782.3117,0.264228414137623
2783.4992,0.12477974750328613
2784.6861,1.3340355326404847
2785.8723,-0.15799129372357612
2787.0579,3.6487121917979692
2788.2428,0.054160490925006854
2789.427,0.5083680688902987
2790.6106,0.3613493903850227
2791.7935,1.413118915016696
2792.9757,-1.086308901220658
2794.1573,2.763080383535808
2795.3382,-0.8386879366251456
2796.5184,0.4084114047544567
2797.698,1.5544120526250609
2798.8769,3.2993476478530077
2800.0551,-0.6567481842394685
2801.2327,4.336158148676404
2802.4096,2.828106799843752
2803.5859,4.469137879144139
2804.7615,1.2092914681780655
2805.9364,2.298607603854677
2807.1106,1.8371263109902252
2808.2842,4.274887591414892
2809.4572,1.36193142858761
2810.6294,2.3482977632184365
2811.801,4.034026522398133
2812.972,4.919157609734505
2814.1423,6.003730888495095
2815.3119,8.437786172755896
2816.4808,7.471363216555602
2817.6491,9.354501689555057
2818.8167,11.387241186701491
2819.9837,11.019621209397126
2821.15,15.801681145171788
2822.3157,16.83346027135908
2823.4807,16.614997707275847
2824.645,26.69633240390432
2825.8086,26.77750314607677
2826.9716,28.50854845166212
2828.134,38.2895065707543
2829.2957,38.870415468361756
2830.4567,39.551312726597935
2831.617,39.832235538872084
2832.7767,44.06322070308036
2833.9358,44.44430461879659
2835.0941,46.425523244962356
2836.2519,44.85691209607624
2837.4089,42.588506222381596
2838.5653,37.37034022555265
2839.7211,37.2024482813786
2840.8761,34.33486419194526
2842.0306,35.967621387313926
2843.1843,34.40075295419733
2844.3374,33.63429161963197
2845.4899,31.668269766646837
2846.6417,38.952719441928
2847.7928,38.587672375478874
2848.9433,35.22315990777568
2850.0931,38.10921299341791
2851.2422,37.595862234773485
2852.3907,40.6331378531182
2853.5385,38.22106969376922
2854.6857,41.30968719571234
2855.8323,41.19901941572272
2856.9781,43.43909499747856
2858.1233,41.829942172668
2859.2679,44.52158873858813
2860.4118,46.96406207423671
2861.555,46.95738911339558
2862.6976,49.801596320206016
2863.8395,53.19670968923538
2864.9808,46.79275471703512
2866.1214,49.889756368189595
2867.2614,49.03773913935564
2868.4007,51.3367270282925
2869.5393,53.08674354238207
2870.6773,51.387811675638964
2871.8146,58.2399538912104
2872.9513,52.49319213836549
2874.0874,53.14754778397379
2875.2227,55.70304166997299
2876.3574,62.309694106825255
2877.4915,60.167524847962355
2878.6249,59.02655302371914
2879.7577,57.386797162755215
2880.8898,58.94827520346463
2882.0212,63.161004510373516
2883.152,66.5250018585252
2884.2821,67.99028339135305
2885.4116,70.30686458704034
2886.5405,69.87476024386756
2887.6686,68.24398445704658
2888.7962,64.81455062304163
2889.923,67.18647145587715
2891.0493,66.55975902143207
2892.1748,68.4844247137206
2893.2997,65.16047926115938
2894.424,67.3879327073208
2895.5476,68.96679444417245
2896.6706,65.49707318980263
2897.7929,65.57877697263174
2898.9145,63.211913166109426
2900.0355,67.59648848789759
2901.1559,69.33250902353902
2902.2756,63.41998018261165
2903.3946,63.00890668136833
2904.513,67.89929260186207
2905.6308,64.79114139605687
2906.7479,64.0344558369238
2907.8643,68.77923804952255
2908.9801,65.72548951856822
2910.0953,63.42321104098365
2911.2098,65.7224027564367
2912.3236,61.323064170363125
2913.4368,69.57519413097474
2914.5494,63.67879087325265
2915.6613,61.88385193642608
2916.7725,62.64037422293632
2917.8831,59.9983540163862
2918.9931,60.20778697397475
2920.1024,58.41866815291755
2921.211,59.180992008352256
2922.319,58.04475241122988
2923.4264,55.75994264069151
2924.5331,53.67655539543075
2925.6391,54.894582816541714
2926.7445,56.66401650835305
2927.8493,54.03484752624754
2928.9534,56.75706635896785
2930.0569,59.53066295490815
2931.1597,62.05562669489197
2932.2619,58.43194636443621
2933.3634,58.059610128501525
2934.4643,61.83860556772913
2935.5645,60.21891968216411
2936.6641,63.45053885346555
2937.763,60.433448861103294
2938.8613,59.06763485004186
2939.959,64.70308136091128
2941.056,57.98977234366519
2942.1523,53.227691101226526
2943.248,55.16682035662042
2944.3431,51.757142300595156
2945.4375,47.59863857223079
2946.5313,40.291290293036
2947.6244,39.285078108533035
2948.7169,37.079982261331295
2949.8087,33.52598260118938
2950.8999,32.57305860706608
2951.9904,28.57118942266038
2953.0803,29.570353865940696
2954.1696,24.970530469163545
2955.2582,26.22169746888191
2956.3462,23.27383285194348
2957.4335,23.02691434297899
2958.5202,24.030919433880822
2959.6062,24.885825386272245
2960.6916,21.64160922146733
2961.7764,21.598247711921907
2962.8605,22.00571741367571
2963.9439,24.61399466678603
2965.0267,22.12305559125297
2966.1089,21.082876060936716
2967.1905,23.643431728466908
2968.2714,22.054698035644414
2969.3516,22.166650187835813
2970.4312,24.52926316986069
2971.5102,19.49251174487215
2972.5885,21.40637043073066
2973.6662,17.070813550371604
2974.7432,20.23581521266664
2975.8196,22.45134935577933
2976.8954,22.667389715515075
2977.9705,21.83390980316579
2979.045,26.400882903349515
2980.1188,21.618282082345186
2981.192,20.73608014242292
2982.2645,23.954249669670016
2983.3364,20.872763042812995
2984.4077,21.391592401035854
2985.4783,19.41070967479498
2986.5483,17.480086580630854
2987.6177,18.199694640976848
2988.6864,16.16950520346549
2989.7545,14.939489433732401
2990.8219,15.109618335718114
2991.8887,11.779862763968318
2992.9548,9.900193421932503
2994.0204,13.720580895261556
2995.0852,9.64099567060444
2996.1495,8.211408097404313
2997.2131,8.03178842869439
2998.276,7.702106835393824
2999.3383,4.822333408103891
3000.4,4.5924381604048
3001.4611,4.012391057653442
3002.5215,5.282162019282337
3003.5812,4.201720924600098
3004.6404,1.7710376000937291
3005.6989,4.990081830233018
3006.7567,4.508823381777395
3007.8139,-0.8727680284145336
3008.8705,5.69527727142763
3009.9264,1.1629376720268692
3010.9818,3.280191507153413
3012.0364,1.4970170989481169
3013.0905,0.41339273674992505
3014.1439,4.52929669492762
3015.1966,-0.15529275628392725
3016.2487,3.059602608057192
3017.3002,-0.3760374357324956
3018.3511,2.937766858067521
3019.4013,-0.2990010082082808
3020.4509,-0.18635756160307793
3021.4998,-0.7743163421399881
3022.5481,1.6871109718699167
3023.5958,0.8979204375358023
3024.6428,1.0581080950957364
3025.6892,1.167669975808586
3026.735,2.5766021003521438
3027.7802,-0.8150995222724919
3028.8247,2.5925610911697774
3029.8685,0.14958806675826608
3030.9118,2.6059855046466858
3031.9544,0.3117575034928741
3032.9963,2.1669081358948183
3034.0376,1.52144147133294
3035.0783,2.7253615576185837
3036.1184,0.8786724273486826
3037.1578,2.881378085866567
3038.1966,3.533482529728847
3039.2348,2.984989726678357
3040.2723,-0.06409639087688745
3041.3092,1.2862280796212442
3042.3455,2.7859676810538243
3043.3811,4.985126943439651
3044.4161,4.883710368937848
3045.4505,3.881722409856275
3046.4842,2.7291674696657093
3047.5173,1.2760499130197136
3048.5498,3.072374077280175
3049.5816,1.8681442870484908
3050.6128,5.013364836202314
3051.6434,4.308039999937863
3052.6734,3.3521740033177085
3053.7027,6.495771028324029
3054.7314,4.788835223417269
3055.7594,6.581370672100167
3056.7868,2.8233814099871175
3057.8136,2.8148714068788117
3058.8398,6.905844604342132
3059.8653,5.79630491579525
3060.8902,5.836256185597897
3061.9145,5.275702200146755
3062.9381,2.914646687475953
3063.9612,3.253093322862595
3064.9835,7.391045752437327
3066.0053,5.678507589799873
3067.0264,5.7654823746394985
3068.0469,5.351973589860405
3069.0668,5.737984660711973
3070.086,6.9735189589238615
3071.1046,8.45857979884588
3072.1226,6.543170425092667
3073.1399,6.377293997693055
3074.1567,8.260953611244181
3075.1727,5.444152296570241
3076.1882,3.5768930018858978
3077.203,5.959178620964298
3078.2173,3.59101201180966
3079.2308,3.3723959728344113
3080.2438,3.95333326654087
3081.2561,3.5338266217073944
3082.2678,6.363878727579017
3083.2789,2.8934922380625103
3084.2893,4.122669743425861
3085.2991,2.8014138050021344
3086.3083,2.3297269428977057
3087.3169,6.707611649204803
3088.3248,2.5850703927183956
3089.3321,5.612105575157337
3090.3388,2.4387195723897817
3091.3449,3.2149147041628323
3092.3503,5.240693265836402
3093.3551,2.566057520621266
3094.3593,3.5410096793212658
3095.3629,3.6155519270796734
3096.3658,1.489686413629669
3097.3681,2.8634152525489176
3098.3698,1.3867405425182247
3099.3708,4.509664353584237
3100.3713,3.53218874192621
3101.3711,3.1543157186267488
3102.3702,2.276047259446588
3103.3688,2.6973853086033
3104.3667,2.3683317875539895
3105.364,4.43888859078191
3106.3607,2.259057589086999
3107.3568,5.328840608880308
3108.3522,3.598239453982318
3109.347,1.4172558749250985
3110.3412,7.685891586258335
3111.3348,1.4541482883591534
3112.3277,3.5220276047457677
3113.32,3.3895311443949163
3114.3117,3.106660481063054
3115.3028,4.123417154611329
3116.2932,3.6898026738342864
3117.2831,4.155818506292304
3118.2723,2.371466082647732
3119.2608,0.13674679200473516
3120.2488,2.5016619997528267
3121.2361,2.5162130699140484
3122.2229,3.6804013414938304
3123.209,2.6942281283354728
3124.1944,1.2576947074782616
3125.1793,4.320802329019209
3126.1635,3.98355223047838
3127.1471,4.695945606167816
3128.1301,3.8579836105640393
3129.1125,0.4696673511841185
3130.0942,5.430997896965289
3131.0753,3.5419763121481163
3132.0558,4.4026036066631855
3133.0357,4.812880755021321
3134.015,3.522808687707313
3134.9936,5.482388287077143
3135.9716,1.6416204002587147
3136.949,3.7005058195560467
3137.9258,1.3090453208569555
3138.902,1.7672396430442099
3139.8775,3.2750895119101235
3140.8524,1.0825956355746147
3141.8267,1.339758689406711
3142.8004,4.196579337949482
3143.7735,1.7030582323484151
3144.7459,3.8591959817832033
3145.7178,5.314993178402959
3146.689,1.7204503757648388
3147.6596,0.37556807427606786
3148.6295,3.0303467571393727
3149.5989,5.184786903801799
3150.5676,5.438888963406924
3151.5357,0.4426533332504645
3152.5032,3.2460803562392417
3153.4701,3.749170370853547
3154.4364,4.55192368311287
3155.402,3.254340561544998
3156.367,0.5064212291584846
3157.3315,-0.4918341235815231
3158.2952,2.7595746887259103
3159.2584,5.560652764904614
3160.221,2.3114051761826695
3161.1829,0.6118369381816393
3162.1442,2.1119530434090272
3163.105,1.0617584782539735
3164.065,2.1612582079860876
3165.0245,2.510457187257396
3165.9834,3.509360349107344
3166.9416,4.207972601470806
3167.8993,3.7562988171890543
3168.8563,3.5543438270236347
3169.8127,2.7021124241731083
3170.7684,2.1996093662925995
3171.7236,7.846839384016109
3172.6782,3.3938071859815393
3173.6321,6.09051740235841
3174.5854,5.836974629378164
3175.5381,2.2831834023670736
3176.4902,4.079148198281666
3177.4417,2.8248734712466343
3178.3926,6.120363634595191
3179.3428,3.415623073411814
3180.2924,5.2106561115773475
3181.2415,1.305467038816404
3182.1899,5.4000600927470375
3183.1377,4.444439497932631
3184.0848,6.838609424935969
3185.0314,3.9325739998754425
3185.9773,3.8263372804833473
3186.9227,0.5199032851662428
3187.8674,3.1632759940673143
3188.8115,2.456459382130718
3189.755,5.549457392667849
3190.6979,4.442273944425507
3191.6402,1.9349129006559207
3192.5818,3.3273780801885797
3193.5229,3.7696732825038453
3194.4633,7.761802273808299
3195.4031,3.453768782611789
3196.3423,5.395576459806145
3197.2809,1.2372289217455084
3198.2189,3.9287297308282563
3199.1563,4.270082437080477
3200.0931,5.111290551240966
3201.0292,2.752357541347691
3201.9648,5.393286824325716
3202.8997,4.9340817895765285
3203.834,3.7747457725687483
3204.7677,6.065282059430178
3205.7008,3.855693898541162
3206.6333,2.3459844776292256
3207.5652,2.786156945864955
3208.4964,5.626214428959091
3209.4271,3.366160024760807
3210.3571,1.5559967748571322
3211.2865,1.845727687173494
3212.2154,4.235355754075354
3213.1436,0.7248839494708984
3214.0712,6.014315204914753
3214.9982,5.753652444712706
3215.9246,4.2928985330273965
3216.8503,5.532056276484934
3217.7755,1.8711284387824485
3218.7001,1.3101177282965029
3219.624,3.649026834692378
3220.5473,7.037858434534176
3221.4701,3.926615167895734
3222.3922,6.815299604472303
3223.3137,4.053914274692982
3224.2346,4.492461640833873
3225.1549,2.430944124631938
3226.0746,5.919364102899521
3226.9937,6.457723928139526
3227.9121,3.346025893661215
3228.83,5.684272228196613
3229.7473,4.172465127017485
3230.6639,3.1106067285528742
3231.5799,3.598699129507171
3232.4954,5.336744395478701
3233.4102,2.0747445560787954
3234.3244,3.012701587551343
3235.238,4.800617445392786
3236.151,5.488494054972552
3237.0634,5.726333293653895
3237.9752,3.5641369839151267
3238.8864,2.9019068909712242
3239.797,4.539644744395796
3240.7069,6.02735224474338
3241.6163,4.565031047172063
3242.5251,4.502682746566413
3243.4332,4.840308892160687
3244.3408,4.77791098816231
3245.2477,5.615490490375621
3246.154,2.7530488068258467
3247.0598,2.9905872893833076
3247.9649,3.528107262387839
3248.8694,3.8656100202734023
3249.7733,3.703096822192884
3250.6766,2.99056888864307
3251.5793,5.0280274030897765
3252.4814,4.265473519093133
3253.3829,9.102908339932991
3254.2838,3.54033292623447
3255.1841,4.477748247593602
3256.0838,5.065155238203092
3256.9829,3.00255478747816
3257.8814,5.689947734182477
3258.7792,7.3273348870541595
3259.6765,5.764716997931854
3260.5731,5.152094745380852
3261.4692,3.339468750319277
3262.3647,4.676839582144302
3263.2595,7.564207776858414
3264.1538,4.601573823695702
3265.0474,3.4889381362481786
3265.9404,6.576301082092116
3266.8329,1.7636629939144055
3267.7247,5.301024138638926
3268.616,5.688384765552927
3269.5066,2.275745070933412
3270.3966,5.113105194173539
3271.286,6.550465251909014
