RamanShift,CorrectedData
30.1047,156.10258286504694
32.3739,142.6422655016402
34.6426,133.1819465772076
36.9109,125.77162310430069
39.1787,111.46129076365143
41.4461,99.65094397827554
43.7131,87.44057605657582
45.9796,75.73017931044552
48.2456,64.01974517737214
50.5112,51.95926433754138
52.7764,44.9487268309414
55.0411,31.03812217796778
57.3054,18.42743944952876
59.5692,11.366667406151386
61.8326,0.25579462408830267
64.0955,-11.705190434074513
66.3579,-24.366299308309042
68.6199,-32.87742660373482
70.8815,-38.888223506141316
73.1426,-39.59801275582627
75.4032,-20.905728599734616
77.6634,26.340090299336126
79.9231,164.59111412681705
82.1824,468.29901280473854
84.4412,999.1154546092196
86.6995,1680.5921031333899
88.9574,2361.9306119792236
91.2148,2843.1326179427742
93.4717,3061.99973420079
95.7282,3104.433545498692
97.9842,3109.685605961905
100.2398,3057.0574386715166
102.4949,3016.000535611761
104.7495,2961.0663581962954
107.0036,2934.4563376787737
109.2573,2868.321875702187
111.5105,2792.76434456496
113.7632,2712.6850878823025
116.0154,2633.885421341778
118.2672,2545.3666335041016
120.5185,2462.1799865911325
122.7693,2362.726717371065
125.0197,2290.3080379902926
127.2696,2202.6751369679428
129.519,2148.429179920062
131.7679,2122.3213104359447
134.0163,2093.9526506205966
136.2642,2057.924301355807
138.5117,2042.937342583842
140.7587,2027.892833667722
143.0052,1977.7918135410966
145.2512,1934.685300858686
147.4967,1889.9742944972938
149.7417,1820.1597739868694
151.9863,1789.1426999576202
154.2304,1759.9740148381552
156.4739,1726.1546431656577
158.717,1715.8854918775705
160.9596,1714.1174506497898
163.2017,1728.5013919993585
165.4433,1741.4381713021435
167.6844,1731.8286266489981
169.925,1693.5235787163956
172.1651,1636.123830862522
174.4047,1596.0301695103274
176.6439,1541.643364721524
178.8825,1507.014170597523
181.1206,1474.5933258233013
183.3582,1443.4815540136956
185.5954,1435.979564037608
187.832,1417.2380503291267
190.0681,1397.9576929625432
192.3037,1394.7891578397698
194.5388,1379.2830968831408
196.7734,1370.9401480671004
199.0075,1374.9609355732605
201.2411,1366.8960698738329
203.4742,1380.14614769142
205.7068,1392.611752079664
207.9389,1390.5434522907462
210.1704,1391.4418036507302
212.4015,1379.7573475802446
214.632,1383.9406115855022
216.862,1366.2921093751406
219.0915,1343.7123408183934
221.3205,1355.3017921215724
223.549,1352.210936053867
225.777,1336.8402318314493
228.0044,1311.9401251483835
230.2314,1307.71104833033
232.4578,1287.2534205835498
234.6837,1279.9676480371932
236.909,1244.0041239478778
239.1339,1213.6632287725438
241.3582,1213.245330528092
243.582,1187.450785094791
245.8053,1191.179936220456
248.0281,1182.4331157783954
250.2503,1177.0106437301192
252.472,1159.6128282128057
254.6932,1157.0899655935277
256.9139,1144.0923406432303
259.134,1139.5702265619582
261.3536,1150.9238851088348
263.5727,1159.70356664728
265.7912,1185.8595100314765
268.0092,1222.6919425185715
270.2267,1259.1510795071174
272.4436,1278.6371241687475
274.6601,1304.8002670835854
276.8759,1292.890686045383
279.0913,1313.508545799892
281.3061,1315.3539981639562
283.5204,1321.127181819335
285.7341,1336.028222294248
287.9473,1343.307231905643
290.16,1336.464309610187
292.3721,1282.3995409314746
294.5837,1233.0629980284584
296.7947,1186.0047402360956
299.0052,1168.474814558714
301.2152,1147.9732561405938
303.4246,1139.0500884412686
305.6334,1112.8553234405397
307.8418,1100.5889617277078
310.0495,1092.2009927635197
312.2568,1063.0413950028358
314.4635,999.7101359785047
316.6696,950.207172592962
318.8752,902.9324517515429
321.0802,882.1859108575109
323.2847,874.0674782848052
325.4887,856.5770735855072
327.692,849.4646075710232
329.8949,881.3299824869907
332.0972,901.8230920844012
334.2989,930.993821300947
336.5001,930.9420460560905
338.7007,903.0176329593558
340.9008,867.2204393108491
343.1003,787.3003133804996
345.2992,749.7570947660333
347.4976,710.6406151921735
349.6955,671.7506988860728
351.8927,653.6871629684781
354.0895,618.2998178426308
356.2856,604.9384673749
358.4812,598.0529092486584
360.6763,580.9429350978937
362.8707,566.4583305760664
365.0646,559.9488755272075
367.258,559.2143441307655
369.4508,574.5545049667007
371.643,577.21912102283
373.8346,581.9079495414258
376.0257,615.3207419925704
378.2162,647.8572440272676
380.4062,643.217195143314
382.5956,619.6503283599352
384.7844,591.8563702641841
386.9726,539.6350412466115
389.1603,499.8860557792066
391.3474,473.95912293760716
393.5339,478.3039467985925
395.7199,464.82022669935054
397.9052,490.65765719403066
400.09,517.2659281885806
402.2743,542.1947246823722
404.4579,574.6937265021184
406.641,597.1126080525858
408.8235,633.9010379916044
411.0054,677.458679005879
413.1868,718.7351874431049
415.3675,790.7302128763915
417.5477,810.2933976914962
419.7273,750.4243763668758
421.9064,652.1727752780535
424.0848,576.2382132963085
426.2627,524.7703027711937
428.4399,459.7186502898801
430.6166,409.73285719183673
432.7928,366.6125202193466
434.9683,335.4072320173648
437.1432,299.7165815647227
439.3176,291.19015448617824
441.4914,275.6775334093261
443.6645,265.82829804985863
445.8371,253.0920253666941
448.0091,262.2682896604681
450.1806,244.40666270089605
452.3514,218.25671363501237
454.5216,226.71800916578445
456.6913,223.49011381361333
458.8603,223.6725898317211
461.0288,228.61499723842894
463.1967,225.71689381533315
465.3639,221.6278350578807
467.5306,204.74737420434985
469.6967,203.02506227674166
471.8622,185.31044824958417
474.0271,176.7530790671542
476.1914,182.35249982062487
478.3551,181.5082538336385
480.5182,176.16988260631297
482.6807,176.28692582368421
484.8426,179.40892140908977
487.0039,217.68540552299942
489.1647,252.66591253179354
491.3248,306.34997462499973
493.4843,305.7371214654879
495.6432,298.82687965262835
497.8015,270.018772728421
499.9592,218.06232124659823
502.1163,182.65704306070506
504.2728,146.60245384366362
506.4287,133.99806744182752
508.5839,111.19339623552605
510.7386,106.03795126510818
512.8927,106.63124245899053
515.0461,112.67277868520978
517.199,123.11206774549123
519.3512,161.14861631483268
521.5029,212.08192983711092
523.6539,257.4115121447185
525.8043,264.3368649492286
527.9541,224.90748738810044
530.1033,169.97287595542548
532.2519,127.68252489622091
534.3999,112.43592675577588
536.5472,86.53257280255434
538.694,95.72195318066247
540.8401,102.70355716888025
542.9856,119.77687308876898
545.1305,130.39138823485587
547.2748,144.346588703899
549.4185,149.49195928874315
551.5615,151.376983338768
553.704,158.85114270843337
555.8458,177.81391773843097
557.987,184.26478718094017
560.1276,220.60322801000325
562.2675,257.128715357014
564.4069,338.540722147334
566.5456,368.13871873503945
568.6837,355.2221720887983
570.8212,281.54054549589296
572.958,218.94329869138414
575.0942,172.17988859492743
577.2299,148.999769936745
579.3648,113.10239572526211
581.4992,94.48721747890568
583.6329,101.2536855850799
585.766,119.10124948631733
587.8985,155.27935761261483
590.0304,178.1374572029572
592.1616,218.22499394353554
594.2922,227.74141173916723
596.4222,207.03615231242065
598.5515,162.80865510845047
600.6802,106.80835750205028
602.8083,66.53469523992749
604.9358,61.68710300070666
607.0626,44.165014797666345
609.1888,61.367864027213955
611.3144,76.14508364410813
613.4393,106.39610598942909
615.5636,151.87036264280687
617.6873,188.01728411991076
619.8103,220.38629941770796
621.9327,223.62683565299267
624.0544,214.28831773869774
626.1756,162.82016835148897
628.2961,118.0218080251484
630.4159,96.19265566525723
632.5351,82.83212899717955
634.6537,74.93964478435328
636.7716,69.66461896189617
638.8889,53.50646671553045
641.0056,79.56460253433329
643.1216,85.18844037231815
645.237,101.32739338785268
647.3518,84.93087388741992
649.4659,60.998293164229835
651.5793,40.9290616621829
653.6922,37.42258921519783
655.8043,18.828285247903068
657.9159,14.845558810702641
660.0268,11.323818765717533
662.137,1.6124738266139502
664.2466,15.210932593819962
666.3556,10.418587559149955
668.4639,5.384831062308649
670.5716,17.509055338817006
672.6786,-3.809401170267847
674.785,-7.471200198977613
676.8907,-8.376965425427443
678.9958,-15.077245890442782
681.1002,-7.572506948965383
683.204,2.036936665748044
685.3072,7.050845869785235
687.4097,-0.9310387697648821
689.5115,-1.8589767563207715
691.6127,-5.283218292224092
693.7132,-11.753995008640231
695.8131,-2.421485757384744
697.9123,-8.135751967863598
700.0109,-0.9968308788402283
702.1089,14.995321547083677
704.2061,29.640759305646043
706.3028,48.68953624263236
708.3987,61.541705907421374
710.4941,69.497321362496
712.5887,86.7564350549244
714.6827,84.96909873679988
716.7761,79.18536329265362
718.8688,82.55527875732628
720.9608,71.62889437380477
723.0522,74.95625855952426
725.1429,85.1874190156309
727.233,131.77242269370936
729.3224,186.96131569346994
731.4112,219.9541427968975
733.4993,239.5509469163644
735.5867,221.75176876470118
737.6735,178.05664665922973
739.7596,126.41561669975522
741.845,95.52871320551617
743.9298,101.59596923159643
746.014,103.667416877792
748.0974,122.29308722793962
750.1802,121.32301032920168
752.2624,112.65721500581003
754.3439,104.19572886876745
756.4247,98.28857840250475
758.5048,82.88578904949622
760.5843,100.98738526933153
762.6631,122.2933906927426
764.7413,173.30382794058823
766.8188,234.31871841079374
768.8956,293.13808176824637
770.9718,342.7119353346475
773.0473,344.54029350031806
775.1221,322.3731672284605
777.1962,291.46056403687453
779.2697,346.90248821962996
781.3426,435.8489411561918
783.4147,501.3499207570003
785.4862,511.65542057400603
787.557,452.31542914566216
789.6271,325.87992989386817
791.6966,233.5489017173693
793.7654,152.82232025611165
795.8335,97.40015881455315
797.901,75.63238916892897
799.9678,59.168982121473164
802.0339,63.15990771809652
804.0993,62.60513541302112
806.1641,79.00463402886953
808.2282,54.65837176221362
810.2916,50.21631601958006
812.3544,27.228433660911605
814.4164,23.144691043987905
816.4778,31.965054254305187
818.5385,38.18948914591351
820.5986,73.56796125321284
822.658,107.45043572870804
824.7166,168.28687698922522
826.7747,241.87724837708606
828.832,295.1215115517441
830.8886,346.81962575388025
832.9446,385.72154727296106
834.9999,366.62722893025716
837.0545,306.03661968982397
839.1085,240.6996648494453
841.1618,185.6663066465394
843.2143,131.73648491152812
845.2662,101.21013761817085
847.3175,92.23720142286243
849.368,83.31761196989646
851.4179,84.30130398119604
853.467,77.83821134550817
855.5155,87.32826710856739
857.5633,90.62140353772725
859.6105,82.01755202705885
861.6569,78.06664306442008
863.7027,67.11860631749369
865.7478,60.47337067329772
867.7922,53.78086434766328
869.8359,51.0910149516892
871.8789,48.053749558665686
873.9212,41.968994730973236
875.9629,45.03667655045547
878.0039,53.20672067926648
880.0441,67.12905232919456
882.0837,85.053596179961
884.1226,100.48027623999678
886.1609,145.95901566719726
888.1984,184.83973661465552
890.2352,219.02235977587497
892.2714,241.80680399596213
894.3069,228.74298592980062
896.3416,173.48081981420546
898.3757,138.02021759856257
900.4091,113.96108949745008
902.4418,123.75334434524507
904.4739,146.0468898367144
906.5052,170.29163242909135
908.5358,167.98747711914166
910.5658,154.98432720071582
912.595,126.73208428778935
914.6236,95.030648444495
916.6515,65.92991846764437
918.6786,48.92979220374377
920.7051,51.78016684000079
922.7309,43.58093907432544
924.756,51.33200508682785
926.7804,61.63326062180897
928.8041,58.63460091025013
930.8272,84.83592056680038
932.8495,87.28711361976275
934.8711,98.83807324908184
936.892,105.4386917618317
938.9123,124.88886047670644
940.9318,152.38846965801304
942.9506,170.33740832117098
944.9688,166.48556395771504
946.9862,143.83282235580737
949.003,114.77906763875387
951.019,98.27418249153368
953.0344,93.51804845133563
955.0491,74.96054607260658
957.063,79.80155497461396
959.0763,67.14095402701935
961.0888,62.028621301469684
963.1007,64.71443419820207
965.1119,59.94826949716855
967.1223,52.93000333117766
969.1321,55.95951123355542
971.1412,48.886668208327706
973.1495,47.66134869992641
975.1572,43.53342666391677
977.1641,62.902775579251056
979.1704,53.86926848954772
981.1759,51.43277780939775
983.1808,41.09317541469966
985.1849,35.30033266702469
987.1884,39.80412051701262
989.1911,47.40440956229986
991.1932,41.4510700024822
993.1945,58.743971563111245
995.1951,56.7829835552285
997.1951,50.81797470243646
999.1943,49.14881316050764
1001.1928,56.42536657703556
1003.1906,67.19750210812549
1005.1877,84.36508634562983
1007.1841,108.57798520942663
1009.1798,127.43606377574395
1011.1748,118.23918603503046
1013.1691,95.03721470337496
1015.1627,72.78001131447456
1017.1556,48.81743645165443
1019.1477,26.499349970440676
1021.1392,17.325611238185388
1023.1299,8.796079357248118
1025.12,0.710613256732131
1027.1093,19.519071777779914
1029.0979,22.071313754428388
1031.0859,53.01719782552368
1033.0731,64.75658240919915
1035.0596,70.53932539341702
1037.0454,61.365284018574016
1039.0304,55.18431481967389
1041.0148,35.79627371806828
1042.9985,19.001016083265768
1044.9814,3.3983969268126657
1046.9636,-5.811728929754395
1048.9452,13.970493301117585
1050.926,31.144918465099295
1052.9061,42.51140126815676
1054.8855,46.66979610480678
1056.8642,47.069956944453224
1058.8421,50.51173728980234
1060.8194,37.89499017286096
1062.7959,50.51956812051901
1064.7717,46.085323280717034
1066.7469,48.69210729619999
1068.7213,52.189771348860745
1070.695,58.028166133670766
1072.6679,72.60714182370486
1074.6402,100.17654801175627
1076.6117,114.0362335645475
1078.5826,100.28604634703618
1080.5527,62.17583308381779
1082.5221,38.15543949662742
1084.4908,16.12471068544255
1086.4587,3.63349136868635
1088.426,0.6816261035349953
1090.3925,-9.73104058916988
1092.3584,4.445335804598017
1094.3235,6.610697011959587
1096.2879,24.71498471558266
1098.2515,37.35814053202921
1100.2145,64.64010583071149
1102.1767,88.06082160746064
1104.1382,111.57022821170699
1106.099,169.81826511227302
1108.0591,205.15487066227934
1110.0185,244.6299815166641
1111.9771,272.59353227881763
1113.9351,301.5954551058303
1115.8923,365.53567942885684
1117.8488,406.8641316630983
1119.8045,383.18073456839966
1121.7596,307.8354068359638
1123.7139,204.82806332518737
1125.6675,153.85861581711345
1127.6204,151.12697404450375
1129.5726,174.93304620153447
1131.524,179.9267389711125
1133.4748,147.15795728681428
1135.4248,93.22660428294898
1137.3741,55.182581622246744
1139.3226,33.37579003517192
1141.2705,25.00612970036309
1143.2176,42.77350046270101
1145.164,44.927801917005354
1147.1097,56.11893323036145
1149.0546,41.4467931205769
1150.9989,29.061279744270223
1152.9424,5.762290843592382
1154.8852,-1.2002761299182794
1156.8272,-5.9765237823462485
1158.7686,-17.266542729017488
1160.7092,-4.820363879785646
1162.6491,-7.237845651743214
1164.5883,-0.6687983065476146
1166.5267,4.637040200221122
1168.4644,24.029938594278065
1170.4014,48.96016555496851
1172.3377,79.07798952133828
1174.2732,112.48367844283234
1176.2081,182.57749947811567
1178.1421,263.909718661017
1180.0755,388.68060019959023
1182.0082,461.2904056627931
1183.9401,456.03939273277695
1185.8713,391.4278144787894
1187.8017,282.8559194096848
1189.7315,188.37395212003867
1191.6605,123.28215437586755
1193.5888,78.53076605944943
1195.5163,55.37002582024047
1197.4432,39.500171522389905
1199.3693,15.77144047634647
1201.2947,2.9340695975575954
1203.2193,4.838295643756396
1205.1432,4.684355343335255
1207.0664,-7.727514623695811
1208.9889,-2.147077624169924
1210.9106,-0.6740198270488236
1212.8316,2.6919940480105424
1214.7519,5.301306014809029
1216.6715,21.804258060227767
1218.5903,31.151192118135327
1220.5084,26.69244990435834
1222.4257,42.37837282321152
1224.3424,45.75930201208541
1226.2583,61.635578184587416
1228.1735,84.25754159673193
1230.0879,108.17553188817749
1232.0016,147.68988785600766
1233.9146,168.7509472155515
1235.8269,188.65904620523884
1237.7384,190.61451937599065
1239.6492,188.56769939213757
1241.5592,190.66891701186591
1243.4686,219.4185011076844
1245.3772,283.9167786454135
1247.285,341.8640743966888
1249.1922,404.0107102939786
1251.0986,463.50700485111076
1253.0042,524.2032725418067
1254.9092,582.8498232047185
1256.8134,662.9469614364654
1258.7169,731.6949860051689
1260.6196,799.694189049481
1262.5216,840.9448553911039
1264.4229,842.3472618547994
1266.3234,827.3516768558793
1268.2232,790.1583603861837
1270.1223,718.9675641640362
1272.0207,702.3295320061769
1273.9183,674.9445005396711
1275.8151,675.8626993682886
1277.7113,694.334351346355
1279.6067,763.9596725695684
1281.5014,862.4388721902842
1283.3953,1017.2721517212603
1285.2885,1188.059704050867
1287.181,1329.0517118947523
1289.0727,1406.148346087969
1290.9637,1370.3497641750505
1292.854,1273.6561096390492
1294.7435,1156.0675122595203
1296.6323,1044.4840890794562
1298.5204,947.4559455811768
1300.4077,878.8331768021606
1302.2943,828.1658683053265
1304.1802,802.9540968652628
1306.0653,758.4479309748991
1307.9497,733.9974310976248
1309.8333,729.7526501123499
1311.7162,708.9636335580108
1313.5984,669.2304196760175
1315.4798,672.0030396181435
1317.3605,675.081517843859
1319.2405,695.5158720926039
1321.1197,704.6561133530031
1322.9982,675.9022456585238
1324.876,639.6542659960713
1326.753,579.6121645935292
1328.6293,496.77592528223863
1330.5048,417.945526097419
1332.3796,347.0709401065318
1334.2537,280.70213619758283
1336.127,257.43907978786933
1337.9996,222.98173348766738
1339.8714,216.6300573328623
1341.7426,198.0340091295226
1343.6129,182.2935445174163
1345.4826,172.05861715597177
1347.3515,152.32917888168186
1349.2196,148.25517981045346
1351.087,145.13656853490215
1352.9537,137.42329216509142
1354.8197,141.91529635971983
1356.6849,146.31252540325306
1358.5493,155.76492216100428
1360.4131,173.57242803516135
1362.276,206.3349828702635
1364.1383,236.4525247751261
1365.9998,256.3249897952144
1367.8606,246.60231161146942
1369.7206,242.73442134158233
1371.5799,247.8712476372217
1373.4384,246.66271672271205
1375.2962,239.05875234366533
1377.1533,193.90927577906712
1379.0096,151.86420591731553
1380.8652,121.52345970771626
1382.7201,106.08695258093292
1384.5742,88.05459875239524
1386.4275,74.92631137666353
1388.2802,57.65200272775269
1390.132,42.23158433041442
1391.9832,39.364967132881134
1393.8336,30.752061661069206
1395.6832,37.34277804724559
1397.5322,25.987026116156358
1399.3803,29.984715319120482
1401.2278,9.935754847586736
1403.0745,1.290053593157154
1404.9204,3.147520348076341
1406.7656,0.7580638916889484
1408.6101,-5.628407028135371
1410.4538,-2.361983671107396
1412.2968,-4.942701069151553
1414.139,5.279429342024059
1415.9805,9.05444550429479
1417.8213,17.482385306742117
1419.6613,24.363286547903044
1421.5006,52.34718685149153
1423.3391,73.78412359758875
1425.1769,118.42413364280424
1427.0139,186.5172531059069
1428.8502,253.8135169214246
1430.6858,310.91295815871285
1432.5206,336.96560734899276
1434.3547,327.42149191435556
1436.188,320.2806359072365
1438.0206,305.3930601058563
1439.8524,306.3587820856295
1441.6835,296.57781636804043
1443.5139,299.80017441098585
1445.3435,301.4758647065845
1447.1724,297.60489274895417
1449.0005,301.13726101745374
1450.8279,298.0229690153933
1452.6545,301.0120132347108
1454.4804,301.55438718711486
1456.3056,292.1000813741943
1458.13,278.19908328199415
1459.9536,268.651377475559
1461.7766,239.00694573794317
1463.5987,205.36576716568692
1465.4202,178.92781846526123
1467.2409,153.34307428947977
1469.0608,135.91150750187848
1470.88,107.03308943256258
1472.6984,85.25779005252252
1474.5161,63.9855782624183
1476.3331,67.36642211033188
1478.1493,45.95028900448972
1479.9648,40.78714567945411
1481.7795,50.27695841028486
1483.5935,46.41969306417025
1485.4067,53.515315005529374
1487.2192,59.71378913458483
1489.031,65.8150798164063
1490.842,57.01915081892554
1492.6522,57.92596525192408
1494.4618,58.83548565499183
1496.2705,56.69767398845943
1498.0785,52.81249162430305
1499.8858,56.429899367522125
1501.6924,52.849857494991284
1503.4981,46.42232571928645
1505.3032,47.947263224485255
1507.1075,38.2746287304422
1508.911,37.10438047753928
1510.7138,36.53647632341233
1512.5159,35.22087375465344
1514.3172,30.507529892490027
1516.1178,26.646401505941242
1517.9176,22.73744505895087
1519.7166,20.980616748998898
1521.515,15.025872546191295
1523.3126,9.67316821082784
1525.1094,7.32245935294992
1526.9055,13.72370148586731
1528.7008,8.026850049665313
1530.4954,4.931860347192469
1532.2893,8.838687601028937
1534.0824,-0.7527130155632449
1535.8747,7.607613582291208
1537.6663,12.819629999070514
1539.4572,5.783298763177072
1541.2473,10.348582274817261
1543.0367,12.91544287636458
1544.8253,11.483842806707287
1546.6132,20.403744175579334
1548.4003,16.17510897787622
1550.1867,26.79789900445627
1551.9723,34.62207588442675
1553.7572,42.49760097891618
1555.5414,62.074435302832455
1557.3247,81.05253944610746
1559.1074,108.48187337792939
1560.8893,136.16239625696113
1562.6705,166.79406615704738
1564.4509,193.9268397904088
1566.2305,206.11067220132588
1568.0094,210.84551649481068
1569.7876,210.4813237147688
1571.565,200.76804279665123
1573.3417,209.35562057109564
1575.1176,219.09400186105944
1576.8928,234.23312939594365
1578.6672,255.6229437142096
1580.4409,270.7133830119876
1582.2138,301.50438292917863
1583.986,336.2458763985501
1585.7575,366.9877933378257
1587.5282,401.98006030227054
1589.2981,418.1226001772724
1591.0673,431.1153318284181
1592.8358,448.0581699400689
1594.6035,440.7510248854326
1596.3704,427.19380255713594
1598.1366,413.3864044402956
1599.9021,388.8787277480902
1601.6668,367.9706655598347
1603.4308,349.4621070660571
1605.194,348.45293777757865
1606.9564,361.49303971059965
1608.7182,404.8322913967914
1610.4791,468.1205677528948
1612.2394,548.007739647328
1613.9988,640.9936732673038
1615.7576,710.7782293199574
1617.5156,756.3612621024881
1619.2728,748.5426188043127
1621.0293,691.1221390512358
1622.785,603.999654983636
1624.54,507.17499183067076
1626.2942,417.297968781501
1628.0477,337.568399953538
1629.8005,269.9860952912134
1631.5525,223.90086136327528
1633.3037,175.86250203861056
1635.0542,151.72081894709822
1636.804,133.9756119599922
1638.553,102.22667943133831
1640.3013,86.92381837542672
1642.0488,76.1668247842806
1643.7955,64.80549378068542
1645.5416,56.93961972575829
1647.2868,46.56899633256137
1649.0313,50.34341674476099
1650.7751,42.612673640333355
1652.5181,44.42655919382071
1654.2604,47.68486515363861
1656.0019,50.23738282393714
1657.7427,58.78390303201803
1659.4828,67.6742161028094
1661.222,93.10811177340054
1662.9606,121.78537910413883
1664.6984,148.20580622429077
1666.4354,169.51918004526885
1668.1717,165.02528599642784
1669.9072,139.82390781193078
1671.642,107.56482757568818
1673.3761,77.24782597337156
1675.1094,55.12268261500401
1676.8419,38.03917633813086
1678.5737,33.89708542907056
1680.3048,18.596187793749948
1682.0351,15.08626099912533
1683.7646,10.41708242619137
1685.4934,4.48842930507999
1687.2215,9.20007876175282
1688.9488,3.401807877286899
1690.6754,1.6433936407587453
1692.4012,5.374613007227026
1694.1263,2.4452429153164417
1695.8506,-0.14493975009412452
1697.5742,-0.19615812857824722
1699.297,0.8413660882384875
1701.0191,-6.832586831649792
1702.7404,-2.6682366286625268
1704.461,4.3842652143230225
1706.1808,0.27479387011339895
1707.8999,-2.346775532327598
1709.6182,1.5694321332161394
1711.3358,2.0233154372479873
1713.0527,-3.2852270654228732
1714.7688,-2.456296840220432
1716.4841,-4.539962533150202
1718.1987,3.313731748187564
1719.9126,-1.9952127495818672
1721.6257,-2.21679481297042
1723.338,5.14900670368533
1725.0496,2.0522350918288907
1726.7605,4.142933591413822
1728.4706,6.621145421871546
1730.18,0.13691376120414134
1731.8886,-2.3597182787976863
1733.5964,-1.1687075877122766
1735.3036,7.260012518467562
1737.0099,4.276520399137723
1738.7156,8.23089434109417
1740.4204,7.773212588367812
1742.1246,-0.1464466973193339
1743.8279,3.721994568022808
1745.5306,2.7786159313865824
1747.2325,11.12349690254436
1748.9336,6.256716963482546
1750.634,8.278355484952868
1752.3336,8.538491775139988
1754.0325,12.787205059445114
1755.7307,16.224574477884573
1757.4281,13.550679042602923
1759.1247,11.465597603499049
1760.8206,11.76940887496508
1762.5158,19.212191456737372
1764.2102,15.644023830858174
1765.9039,11.464984287247859
1767.5968,15.075150959386661
1769.289,16.174601866105206
1770.9804,16.063414875482664
1772.6711,20.341667693852344
1774.361,16.709437866913447
1776.0502,19.91680273694857
1777.7386,16.81383947914614
1779.4263,23.50062506952648
1781.1132,23.427236315971726
1782.7994,23.393749791357692
1784.4849,18.050241834288016
1786.1696,15.996788549428913
1787.8535,21.98346586094428
1789.5367,21.310349533030177
1791.2192,23.62751511004808
1792.9009,19.58503792325618
1794.5818,18.6329930676375
1796.2621,25.171455442324884
1797.9415,17.70049976012112
1799.6202,18.92020048211461
1801.2982,21.33063189238885
1802.9755,24.83186808582539
1804.6519,24.473982943999488
1806.3277,27.807050100167856
1808.0027,20.781142942847396
1809.6769,19.946334582484525
1811.3504,27.15269792171435
1813.0231,24.90030566370882
1814.6951,25.68923024011292
1816.3664,27.26954383356866
1818.0369,25.841318369825842
1819.7067,26.004625501938932
1821.3757,31.359536624549236
1823.044,25.306122872251848
1824.7115,32.4944550660467
1826.3783,27.774603773872514
1828.0443,27.596639238723583
1829.7096,25.110631425848283
1831.3741,31.316650024528656
1833.0379,25.314764472940453
1834.701,28.305043896093025
1836.3633,29.58755716584824
1838.0248,28.662372871017595
1839.6856,27.779559304537116
1841.3457,28.889184472719165
1843.005,24.441316104080585
1844.6636,33.68602163824664
1846.3214,32.22336827042929
1847.9785,27.803422858980525
1849.6349,28.426251940018602
1851.2904,28.691921771627705
1852.9453,31.200498327629532
1854.5994,27.852047294926507
1856.2528,34.496634048416325
1857.9054,31.034323684476277
1859.5572,32.71518095451745
1861.2083,31.83927029960776
1862.8587,31.856655833663524
1864.5084,35.16740135220837
1866.1572,38.57157033219954
1867.8054,34.46922589892017
1869.4528,36.91043079193793
1871.0994,35.445247406128146
1872.7453,31.423737767261912
1874.3905,35.59596354665803
1876.0349,35.711986101398026
1877.6786,36.771866432603815
1879.3215,36.87566518427752
1880.9637,30.223442632702756
1882.6051,39.06525868540646
1884.2458,35.7511729476814
1885.8858,31.731244634167723
1887.525,33.75553260199388
1889.1634,33.22409539097595
1890.8011,37.586991203374794
1892.4381,36.24427790921038
1894.0743,36.34601300263287
1895.7098,33.74225361534974
1897.3446,36.23305651560847
1898.9786,35.91847813423405
1900.6118,36.64857453972107
1902.2443,28.623401441379286
1903.8761,39.34301418203279
1905.5071,34.70746781827168
1907.1374,35.36681701325594
1908.7669,35.571116083070876
1910.3957,36.820418990133675
1912.0237,31.414779341150506
1913.651,38.7042503746232
1915.2776,31.488885014905946
1916.9034,28.66873579931041
1918.5285,32.04385495025957
1920.1528,34.864294403489026
1921.7764,30.180105774295953
1923.3992,34.141340329334696
1925.0213,33.398049033458534
1926.6427,32.550282510107394
1928.2633,30.798091048740815
1929.8832,33.14152461331565
1931.5023,31.880632859807804
1933.1207,32.61546511277814
1934.7383,31.64607037798129
1936.3552,31.222497335017238
1937.9714,30.194794347025436
1939.5868,31.063009464920242
1941.2015,30.4271904376682
1942.8154,30.987384703605812
1944.4286,31.093639396797727
1946.041,27.59600134143477
1947.6528,30.094517050771373
1949.2637,33.339232762102085
1950.8739,29.430194411776313
1952.4834,28.86744760275127
1954.0921,30.35103764368216
1955.7001,30.831009554549922
1957.3074,33.10740805182513
1958.9139,27.98027754366828
1960.5197,24.049662107165915
1962.1247,30.265605539601836
1963.729,31.578151397763236
1965.3325,24.387342935781277
1966.9353,25.0932230920057
1968.5374,26.895834560912903
1970.1387,29.395219786047164
1971.7393,25.841420941994613
1973.3392,29.384479909389114
1974.9383,27.374438310450557
1976.5366,29.81133747355406
1978.1342,27.145218453330443
1979.7311,25.52612200629727
1981.3273,30.854088617520063
1982.9227,29.07915851680312
1984.5173,29.05137162540997
1986.1112,26.52076757381259
1987.7044,26.187385701969205
1989.2968,26.351265084630427
1990.8885,27.012444534673207
1992.4795,28.22096260146185
1994.0697,27.476857564236155
1995.6592,23.73016742002642
1997.2479,27.58092989109437
1998.8359,24.379182462400095
2000.4232,27.374962343094396
2002.0097,25.868306498536313
2003.5955,23.559251620335317
2005.1805,30.6978341414179
2006.7648,29.88409025911814
2008.3484,25.568055863791926
2009.9312,28.79976654695436
2011.5133,24.129257644440045
2013.0946,20.106564204085885
2014.6752,26.531721032436266
2016.2551,25.15476273497005
2017.8342,22.275723651848892
2019.4126,27.094637871686842
2020.9902,21.711539260340743
2022.5672,25.776461412721147
2024.1433,25.289437706623303
2025.7188,24.300501262077958
2027.2935,22.059684946221424
2028.8674,24.217021383185028
2030.4406,25.622542976503354
2032.0131,23.97628188754085
2033.5849,22.728270021436572
2035.1559,26.128539043566818
2036.7261,25.627120392025347
2038.2957,22.074045243620546
2039.8645,24.569344518889707
2041.4325,23.613048917629726
2042.9998,21.805188893944035
2044.5664,28.045794665805644
2046.1323,24.534896233135896
2047.6974,20.97252331539805
2049.2617,30.058705386706535
2050.8254,25.49347171145061
2052.3883,26.126851253432562
2053.9504,30.558872721520075
2055.5118,24.339564563312393
2057.0725,24.46895492082008
2058.6325,23.547071692658037
2060.1917,23.023942532751747
2061.7502,22.799594859555967
2063.3079,26.574055861286084
2064.8649,23.347352498161527
2066.4212,24.76951146466112
2067.9767,25.640559221790355
2069.5315,25.410521982859706
2071.0856,23.929425704774104
2072.6389,24.79729609033329
2074.1915,21.714158603042776
2075.7433,24.980038458435132
2077.2945,25.244960654901377
2078.8448,25.808949941032182
2080.3945,22.322030812968706
2081.9434,25.13422750876272
2083.4916,22.14556404324567
2085.039,23.706064179906818
2086.5857,22.315751460779822
2088.1317,20.87464919083783
2089.677,21.2827804518964
2091.2215,21.690168117024697
2092.7652,23.496834846464083
2094.3083,25.102803083554292
2095.8506,22.508095036666774
2097.3921,21.862732663144953
2098.933,17.416737695251342
2100.4731,21.270131646621195
2102.0124,20.772935856722484
2103.5511,23.925171452321862
2105.089,21.176859352456688
2106.6261,25.178020236912687
2108.1626,25.828674573706962
2109.6983,25.528842579076525
2111.2332,22.47854421097172
2112.7675,23.5277991720545
2114.301,21.57662694020142
2115.8337,21.77504675801117
2117.3657,22.47307765231615
2118.897,24.920738432198334
2120.4276,24.71804768200903
2121.9575,21.66502373689218
2123.4866,21.56168468481131
2125.0149,24.908048397079767
2126.5426,16.454132529394144
2128.0695,28.149954488370582
2129.5956,21.74553151608403
2131.1211,22.5908805731099
2132.6458,22.386018402568453
2134.1698,25.530961521671088
2135.693,24.175726223769104
2137.2155,25.270328546904253
2138.7373,23.914784287361073
2140.2584,23.409108988720973
2141.7787,23.55331795541747
2143.2983,20.44742625779311
2144.8171,19.241448730657282
2146.3353,25.43540000434527
2147.8527,24.629294516777833
2149.3693,20.72314645152177
2150.8853,22.716969745851003
2152.4005,21.360778129807997
2153.9149,18.854585106265546
2155.4287,23.34840396448871
2156.9417,17.84224780519675
2158.454,24.136129495624957
2159.9655,24.48006172458622
2161.4764,22.2740569395322
2162.9865,18.618127343113898
2164.4958,17.662284915241898
2166.0045,22.056541449645493
2167.5124,17.850908563431204
2169.0195,18.395397653140265
2170.526,24.540019936804896
2172.0317,21.284786448503255
2173.5367,16.979707976913375
2175.0409,23.52479509786545
2176.5445,15.520058217392688
2178.0473,19.265507506280343
2179.5494,18.561152980113263
2181.0507,17.907004461821202
2182.5513,24.30307158872246
2184.0512,22.999363819065394
2185.5504,20.795890368067703
2187.0488,22.442660220953485
2188.5465,14.789682154988014
2190.0435,18.18696472300995
2191.5397,17.33451632996116
2193.0353,18.032345198913944
2194.5301,18.130459379595436
2196.0241,20.728866741409348
2197.5175,20.82757497245484
2199.0101,25.176591553542437
2200.502,19.725923757207
2201.9931,19.97557860421749
2203.4835,15.825562918083563
2204.9733,21.82588332255922
2206.4622,20.02654628314285
2207.9505,14.22755804707404
2209.438,19.77892466132694
2210.9248,18.08065203060012
2212.4109,16.482745861803068
2213.8962,17.13521168103877
2215.3809,16.98805484958281
2216.8648,17.041280557358732
2218.3479,15.794893824409556
2219.8304,15.798899500365579
2221.3121,15.153302276908164
2222.7931,16.30810668772976
2224.2733,20.913317114989894
2225.7529,11.768937777767079
2227.2317,15.424972686006768
2228.7098,14.881425731965095
2230.1872,12.138300653648457
2231.6638,11.495601040248985
2233.1397,15.003330359575926
2234.6149,16.511491964482516
2236.0894,12.270089057788837
2237.5632,12.179124677200065
2239.0362,12.988601737720629
2240.5085,14.348523032563776
2241.9801,12.058891225056769
2243.4509,14.219708835041715
2244.921,14.28097826177185
2246.3904,8.842701762303292
2247.8591,14.054881450882448
2249.3271,10.417519353328672
2250.7943,11.430617354912613
2252.2608,11.894177236729718
2253.7266,15.70820066556935
2255.1917,6.822689189279075
2256.656,7.037644198624562
2258.1197,9.903067016144576
2259.5826,8.368958894001594
2261.0447,13.8353209853274
2262.5062,11.802154359564312
2263.9669,10.419459947801457
2265.4269,12.337238563106482
2266.8862,11.15549091435247
2268.3448,10.274217587040212
2269.8026,9.043419055115692
2271.2598,14.363095689782739
2272.7162,10.283247771811148
2274.1719,10.553875438339773
2275.6268,11.27497872367509
2277.0811,8.396557556584895
2278.5346,12.068611753087268
2279.9874,7.091141045234664
2281.4395,15.264145044393516
2282.8908,10.837623291018843
2284.3414,10.911575172924302
2285.7914,8.335999969547359
2287.2406,8.510896851209822
2288.689,9.6362649048735
2290.1368,12.812103132391258
2291.5838,12.188410439253346
2293.0302,12.615185602829072
2294.4758,9.942427278603674
2295.9206,10.87013399591062
2297.3648,11.498304184659148
2298.8082,14.326936166057152
2300.251,13.856028146329507
2301.693,11.335578188431754
2303.1343,10.265584216759208
2304.5748,9.246044042351485
2306.0147,10.726955373592276
2307.4538,6.55831582640505
2308.8922,10.140122909443804
2310.3299,14.872374065779297
2311.7669,10.85506663708108
2313.2031,11.83819781629505
2314.6387,7.621764687816409
2316.0735,8.655764217658515
2317.5076,7.540193295617101
2318.941,7.975048724930289
2320.3737,11.460327233434441
2321.8056,12.846025469215377
2323.2369,10.482139965755621
2324.6674,10.918667128077402
2326.0972,13.305603256381545
2327.5263,18.49294454168222
2328.9547,16.28068704193764
2330.3823,15.91882663017661
2331.8092,12.307359016621092
2333.2355,15.846279752304866
2334.661,11.485584265188209
2336.0858,8.775267824768576
2337.5098,5.365325585687657
2338.9332,7.205752614834481
2340.3558,8.14654392544486
2341.7778,9.387694458697169
2343.199,10.279199074304387
2344.6195,9.121052538102546
2346.0393,8.913249513135753
2347.4583,7.105784571237635
2348.8767,2.148652195109335
2350.2943,10.541846796394253
2351.7113,8.885362765249312
2353.1275,7.079194386413022
2354.543,9.723335855770273
2355.9578,8.867781298414087
2357.3718,6.612524742204144
2358.7852,3.9075601263223803
2360.1978,8.502881323825434
2361.6098,7.198482168694483
2363.021,5.694356409881877
2364.4315,8.240497724355194
2365.8413,8.186899732138485
2367.2504,6.28355597085087
2368.6587,11.430459896242553
2370.0664,8.67760490122815
2371.4733,6.774984264417739
2372.8795,4.872591177645347
2374.285,7.720418764995188
2375.6899,9.218460101825627
2377.0939,6.666708186290876
2378.4973,7.51515592436057
2379.9,5.41379615533728
2381.3019,8.962621643372046
2382.7032,5.261625098478021
2384.1037,7.410799141042119
2385.5035,5.910136338835116
2386.9027,5.009629185519756
2388.3011,8.109270115657537
2389.6987,4.209051513713661
2391.0957,3.60896568306066
2392.492,5.85900488498055
2393.8876,7.90916134466579
2395.2824,6.559427228718818
2396.6765,6.809794624650465
2398.07,4.960255554377312
2399.4627,5.810801971718021
2400.8547,5.0114257808887
2402.246,5.112118827997506
2403.6366,8.812872909038376
2405.0265,5.86367976888414
2406.4156,6.414531064278947
2407.8041,9.465418393330168
2409.1918,5.9663332899999375
2410.5789,5.11726719359622
2411.9652,5.618211483763659
2413.3508,5.219157488974275
2414.7358,3.3700964815180043
2416.12,6.121019681493252
2417.5035,5.57191827529752
2418.8863,7.12278338811808
2420.2684,7.073606089423123
2421.6497,3.8743773774530155
2423.0304,5.025088179712071
2424.4104,4.175729384960874
2425.7896,-0.9237081682908155
2427.1682,5.426766316709447
2428.546,4.727152864558676
2429.9232,2.6274514455863027
2431.2996,4.9276619828502675
2432.6753,5.67778437313406
2434.0503,4.727818463944558
2435.4246,7.377764046010853
2436.7982,1.1276208627838855
2438.1711,4.427388583936988
2439.5433,4.077066867867373
2440.9148,4.176655328698374
2442.2856,3.126153539782692
2443.6557,4.22556103270648
2445.025,4.574877307794395
2446.3937,5.224101823115475
2447.7617,0.8732339909899878
2449.1289,5.97227317149725
2450.4955,3.9712187159842642
2451.8613,2.32006991607534
2453.2265,4.668826023682584
2454.5909,3.867486267517492
2455.9546,8.216049829603321
2457.3177,2.714515853288461
2458.68,2.9628833997608695
2460.0416,4.211151503063405
2461.4025,6.409319167610036
2462.7627,2.1073853557032862
2464.1222,3.5553489655525254
2465.4811,4.053208874293347
2466.8392,9.150963923507888
2468.1966,3.2986129142462772
2469.5533,3.996154556048964
2470.9093,7.393587525470394
2472.2645,5.790910459103458
2473.6191,7.38812191960524
2474.973,3.1852204117237903
2476.3262,5.282204366325942
2477.6787,4.0790721824264295
2479.0305,6.2758222062179385
2480.3816,8.272452743102491
2481.7319,6.368962035723925
2483.0816,6.26534824400153
2484.4306,4.611609464165085
2485.7789,3.407743729790795
2487.1264,7.453749028338905
2488.4733,6.149623313192151
2489.8195,5.945364463195858
2491.165,8.49097029569917
2492.5097,5.236438568597578
2493.8538,3.2817669548769715
2495.1972,5.626953075158909
2496.5398,5.471994517247268
2497.8818,4.166888812676447
2499.2231,2.6116334382609097
2500.5637,8.206225829146305
2501.9035,3.450663394361939
2503.2427,5.194943460874924
2504.5812,6.539063321145754
2505.919,4.033020215685504
2507.256,3.4768113196146473
2508.5924,8.120433767723505
2509.9281,2.563884660034269
2511.2631,10.057161015364834
2512.5974,4.700259826894261
2513.9309,4.6931779872300154
2515.2638,2.585912341977
2516.596,5.4284596898083635
2517.9275,3.6208168035380908
2519.2583,1.8629804016956442
2520.5884,2.6049471666023294
2521.9178,5.996713761949678
2523.2465,4.138276825379755
2524.5745,5.229632934567505
2525.9018,1.0707786258051755
2527.2284,5.761710383088662
2528.5543,5.202424679706155
2529.8796,7.0429179313287165
2531.2041,4.4331865016031955
2532.5279,2.5232266837472395
2533.851,5.563034726646663
2535.1735,3.002606853955079
2536.4952,4.99193923369576
2537.8163,2.0810280038659386
2539.1366,3.419869252543485
2540.4562,4.3084590469960276
2541.7752,6.296793420292495
2543.0935,3.484868362417224
2544.411,7.072679800386695
2545.7279,5.260223626368678
2547.0441,4.847495661804224
2548.3596,5.934491675532136
2549.6744,2.5712073879163455
2550.9885,3.757638459975894
2552.3019,7.593780527017799
2553.6146,6.479629186772705
2554.9266,4.165179961033566
2556.2379,5.700428306797079
2557.5485,7.235369639408212
2558.8585,4.019999317207599
2560.1677,0.9543126261821726
2561.4762,3.588304812118814
2562.7841,9.421971111261321
2564.0913,6.205306723970494
2565.3977,3.9883067563874377
2566.7035,7.270966252600246
2568.0086,4.80328021681396
2569.313,4.985243580523985
2570.6167,7.866851227192967
2571.9197,5.948097990431137
2573.222,5.628978625180238
2574.5236,10.25948782690108
2575.8246,4.789620234764698
2577.1248,4.569370385347284
2578.4244,7.798732767328836
2579.7232,8.927701823695692
2581.0214,6.456271919446863
2582.3189,6.3344373303043895
2583.6157,6.762192267427594
2584.9118,8.53953087863146
2586.2072,7.366447244109061
2587.5019,4.8429353586582025
2588.7959,7.468989143412244
2590.0893,7.34460247107522
2591.3819,10.419769139661298
2592.6739,9.244482873738654
2593.9652,7.118737293677789
2595.2557,5.192525927404375
2596.5456,7.265842231656748
2597.8348,8.738679611248017
2599.1234,9.01103139833289
2600.4112,10.732890837679271
2601.6983,10.904251083944793
2602.9848,8.025105184458226
2604.2705,11.64544607750581
2605.5556,11.11526662112275
2606.84,11.23455955688982
2608.1237,8.203317515235135
2609.4067,10.571533014241282
2610.689,8.139198489957678
2611.9707,3.9563062727184217
2613.2516,8.972848611465665
2614.5319,4.988817715578499
2615.8115,8.404205704707564
2617.0903,6.419004648615335
2618.3685,7.883206533022246
2619.6461,7.396803279458737
2620.9229,7.509786730623212
2622.199,7.122148655246086
2623.4745,9.983880746959898
2624.7493,9.044974628175744
2626.0234,9.655421821465943
2627.2968,7.315213758953071
2628.5695,10.824341776205529
2629.8415,9.832797135639574
2631.1128,6.690570991428039
2632.3835,7.747654399415829
2633.6535,6.804038348542186
2634.9228,8.409713750269837
2636.1914,4.014671448021133
2637.4593,8.168902201121348
2638.7265,6.9723967287490325
2639.9931,9.775145668393748
2641.259,10.77713958782109
2642.5242,8.328368957045257
2643.7887,7.07882413830901
2645.0525,7.428495410571486
2646.3156,6.327372982003581
2647.5781,6.625446986491262
2648.8398,6.972707494646777
2650.1009,10.919144510827905
2651.3613,8.41474796966537
2652.6211,7.559507696598452
2653.8801,6.053413432918994
2655.1385,6.496454844323743
2656.3961,4.338621535975356
2657.6531,8.629903048071931
2658.9094,5.220288877425411
2660.1651,5.309768434548708
2661.42,7.448331077751888
2662.6743,9.985966112247354
2663.9279,6.022662768764221
2665.1808,5.70841017817196
2666.433,8.793197411113425
2667.6846,9.627013481147365
2668.9354,2.959847313900596
2670.1856,8.441687738729776
2671.4351,8.322523555393118
2672.6839,9.752343479231975
2673.9321,7.281136142362463
2675.1795,10.95889007937729
2676.4263,11.435593752057805
2677.6724,10.961235512596481
2678.9179,8.835803598829855
2680.1626,9.05928613898213
2681.4067,10.481671172919519
2682.6501,10.85294664991536
2683.8928,10.373100414426325
2685.1348,10.89212020237963
2686.3761,7.309993645971495
2687.6168,10.57670826847695
2688.8568,6.9922515200711
2690.0961,12.656610745161998
2691.3348,8.369773218235167
2692.5727,5.2817260872100675
2693.81,9.592456416308394
2695.0466,8.00195121693465
2696.2826,9.310197404568761
2697.5178,9.267181814671204
2698.7524,7.9228911896004846
2699.9863,7.727312179043317
2701.2195,5.180431353457543
2702.452,6.832235206027882
2703.6839,7.5327101781347565
2704.9151,6.9318426428362585
2706.1456,8.729618897863375
2707.3755,10.526025171628724
2708.6046,10.37104760524874
2709.8331,10.16467223457962
2711.0609,8.056884991767134
2712.2881,10.797671707310343
2713.5145,11.037018131139455
2714.7403,13.874909905207979
2715.9654,11.211332561099255
2717.1899,7.596271491647556
2718.4136,13.829711977573808
2719.6367,16.36163922363624
2720.8591,14.74203829629598
2722.0809,16.970894098397757
2723.3019,17.598191385365936
2724.5223,18.223914742915987
2725.7421,15.398048580781463
2726.9611,16.92057712645679
2728.1795,15.241484453455953
2729.3972,13.310754466087154
2730.6142,12.928370916243772
2731.8306,12.994317422711632
2733.0462,9.108577474992877
2734.2612,9.571134432646488
2735.4756,12.181971564145698
2736.6892,10.991072042252384
2737.9022,8.99841891790873
2739.1145,9.903995132146235
2740.3262,8.807783536012202
2741.5372,6.609766881514005
2742.7475,9.90992783258121
2743.9571,9.208248987045728
2745.1661,8.204712843640195
2746.3744,6.599301809014804
2747.582,5.391998207772609
2748.7889,5.632784298523667
2749.9952,4.6216422859580675
2751.2008,0.558554318438091
2752.4057,5.493502498109571
2753.61,4.976468921532849
2754.8136,0.9574356303332578
2756.0165,5.486384616371431
2757.2188,4.863297861933695
2758.4204,3.3381572944425315
2759.6213,1.0109447926874608
2760.8215,3.581642202076452
2762.0211,6.200231357908045
2763.22,4.816694059664378
2764.4182,2.181012044825273
2765.6158,3.0931670027036873
2766.8127,4.853140600802426
2768.009,0.9109144756926497
2769.2045,2.8664702154141466
2770.3994,1.2197893988975537
2771.5936,-2.3291464235911334
2772.7872,-1.9303557139838148
2773.9801,3.8161663339603606
2775.1723,3.260443810735829
2776.3639,2.5525007686753867
2777.5548,4.292361227507399
2778.745,-0.669950818564736
2779.9346,2.81558858173878
2781.1235,1.2990100725064195
2782.3117,1.330344269670782
2783.4992,-0.8903782238256142
2784.6861,-0.6131268183436873
2785.8723,3.112137970634059
2787.0579,0.08546175276203627
2788.2428,3.1568901065733
2789.427,0.07646860974629277
2790.6106,1.6942428083906051
2791.7935,2.510258247851155
2792.9757,0.17456045653044328
2794.1573,-0.8128050622716074
2795.3382,1.0982071929993538
2796.5184,0.1576508438202211
2797.698,-0.8844204993141673
2798.8769,1.8720467725145227
2800.0551,2.327115103585406
2801.2327,2.930846919457146
2802.4096,1.8333046224172733
2803.5859,1.134550585444856
2804.7615,-0.06535283681409965
2805.9364,2.033656698940966
2807.1106,6.531642188885371
2808.2842,3.778666608857897
2809.4572,4.624792869380926
2810.6294,4.320083843190176
2811.801,7.814602356773463
2812.972,7.358411193417794
2814.1423,7.2515730582640785
2815.3119,10.194150582869185
2816.4808,9.486206326274228
2817.6491,13.027802745578832
2818.8167,12.219002203020622
2819.9837,17.559866930559167
2821.15,20.95045903796403
2822.3157,28.640840459406135
2823.4807,33.03107291955186
2824.645,40.17121785665917
2825.8086,41.4113363786753
2826.9716,50.00148919183536
2828.134,50.541736588261074
2829.2957,58.58213836005933
2830.4567,63.42275379391961
2831.617,67.11364159071009
2832.7767,67.90485981707141
2833.9358,69.74646586850778
2835.0941,69.5385164614749
2836.2519,63.08106761496375
2837.4089,66.32417465258025
2838.5653,62.367892267119636
2839.7211,59.11227448813538
2840.8761,56.807374721502086
2842.0306,56.203245781971624
2843.1843,53.849939916222134
2844.3374,56.347508808899356
2845.4899,55.79600360614958
2846.6417,56.995474890644076
2847.7928,54.14597268709404
2848.9433,59.19754645025596
2850.0931,59.05024509342657
2851.2422,60.60411693792718
2852.3907,62.85920971457663
2853.5385,61.36557054815262
2854.6857,65.32324593484078
2855.8323,61.83228175717104
2856.9781,63.942723244440884
2858.1233,63.654615007625
2859.2679,66.26800101827088
2860.4118,70.5829246113799
2861.555,73.6494284592734
2862.6976,76.76755452844353
2863.8395,78.8873440488882
2864.9808,81.90883748292973
2866.1214,82.73207450401708
2867.2614,82.25709396651087
2868.4007,86.93393389745097
2869.5393,86.81263150130636
2870.6773,93.24322311320664
2871.8146,87.57574420015513
2872.9513,91.31022929672295
2874.0874,91.34671206172385
2875.2227,93.08522524086919
2876.3574,98.62580066640331
2877.4915,95.31846923971835
2878.6249,97.71326087594836
2879.7577,95.81020453704286
2880.8898,98.90932820781862
2882.0212,102.51065891499047
2883.152,99.66422269617999
2884.2821,106.37004456390216
2885.4116,104.12814853402975
2886.5405,110.38855755873512
2887.6686,109.05129354890911
2888.7962,112.81637731155708
2889.923,109.78382856317137
2891.0493,111.90366589208067
2892.1748,109.22590678877525
2893.2997,105.90056762470887
2894.424,111.47766367907616
2895.5476,108.0072091720661
2896.6706,110.98921720909107
2897.7929,107.67369981549137
2898.9145,113.31066790671517
2900.0355,110.95013132147363
2901.1559,106.19209876537133
2902.2756,106.18657783451144
2903.3946,103.98357506307627
2904.513,105.48309592338234
2905.6308,105.23514484791045
2906.7479,106.33972521431042
2907.8643,106.59683934788066
2908.9801,105.70648851052229
2910.0953,106.56867289816816
2911.2098,109.53339164968614
2912.3236,100.50064283825736
2913.4368,105.57042344172918
2914.5494,101.2927294329424
2915.6613,100.91755572903375
2916.7725,105.44489623421256
2917.8831,95.82474384351272
2918.9931,97.20709039751912
2920.1024,96.89192677856926
2921.211,93.57924289692971
2922.319,96.16902769394785
2923.4264,91.21126917517864
2924.5331,92.00595438448677
2925.6391,88.80306945362419
2926.7445,91.35259959428342
2927.8493,91.55452913012616
2928.9534,92.10884147128823
2930.0569,98.46551911236017
2931.1597,87.87454362684409
2932.2619,94.58589560358689
2933.3634,95.39955475269014
2934.4643,95.46549983839645
2935.5645,99.68370867095288
2936.6641,99.20415810595155
2937.763,98.67682400214747
2938.8613,100.50168122625414
2939.959,94.57870365821682
2941.056,95.15786417296394
2942.1523,91.98913469963699
2943.248,91.57248621579876
2944.3431,84.50788877912075
2945.4375,68.3453115315496
2946.5313,70.58472276995309
2947.6244,63.67609010774591
2948.7169,59.11938045249553
2949.8087,53.11456007500855
2950.8999,51.311594654897746
2951.9904,46.91044934063036
2953.0803,46.311088767557656
2954.1696,38.513477101926455
2955.2582,39.71757804687271
2956.3462,36.97335492039763
2957.4335,37.83077064332662
2958.5202,35.53978776675162
2959.6062,34.65036846345678
2960.6916,35.11247455082847
2961.7764,33.32606749974933
2962.8605,32.74110842997731
2963.9439,35.90755812800971
2965.0267,35.675377052932745
2966.1089,38.19452530475708
2967.1905,36.964962626739556
2968.2714,35.236648380191845
2969.3516,31.75954155677598
2970.4312,34.13360079578751
2971.5102,32.05878441892658
2972.5885,34.48505040655738
2973.6662,32.56235641845623
2974.7432,34.040659769549
2975.8196,38.369917449137986
2976.8954,35.350086106118894
2977.9705,33.781122005688275
2979.045,35.812981059541876
2980.1188,37.14561884156417
2981.192,35.628990567509916
2982.2645,37.063051081677685
2983.3364,32.54775487207612
2984.4077,33.9830560560834
2985.4783,32.16890842560014
2986.5483,26.40526543269644
2987.6177,25.842080207753305
2988.6864,23.829305617099113
2989.7545,24.216894268641465
2990.8219,24.554798531994894
2991.8887,21.492970534605014
2992.9548,22.33136215836946
2994.0204,20.419925070256163
2995.0852,17.25861071391945
2996.1495,14.747370328814405
2997.2131,13.586154981810012
2998.276,10.07491559230158
2999.3383,9.663602943822895
3000.4,8.502167719158578
3001.4611,9.990560504457257
3002.5215,5.628731800845909
3003.5812,4.266632009545887
3004.6404,5.054211475491247
3005.6989,2.6414205009497387
3006.7567,3.678209337647001
3007.8139,2.9145282108944954
3008.8705,2.6003273092215977
3009.9264,-0.21444320798757133
3010.9818,1.8201667926478535
3012.0364,1.154109586796359
3013.0905,0.5373374319247795
3014.1439,-0.9801974260411548
3015.1966,-1.1485427465490545
3016.2487,0.1322635031257242
3017.3002,0.7621948296498608
3018.3511,-0.7587752616325858
3019.4013,1.0693267270004903
3020.4509,2.7464818734360463
3021.4998,-2.0273287551321957
3022.5481,1.7478758810246866
3023.5958,0.422097074649848
3024.6428,0.6453361010077039
3025.6892,2.067594231141708
3026.735,-0.21112727035804824
3027.7802,1.059172840422594
3028.8247,-0.17150208344077456
3029.8685,0.0968513005357039
3030.9118,2.7642380481417135
3031.9544,3.8806632141984245
3032.9963,0.8961318258846305
3034.0376,2.7606488715725135
3035.0783,0.9742193306729447
3036.1184,0.5368481549903272
3037.1578,-0.05145971341313427
3038.1966,0.9093006621563049
3039.2348,3.5691347324749216
3040.2723,4.428047939225991
3041.3092,3.3860456884014454
3042.3455,3.8931333417127547
3043.3811,4.949316227010939
3044.4161,3.0045996332157188
3045.4505,3.4089887997536543
3046.4842,5.162488936005328
3047.5173,4.515105217261446
3048.5498,3.6668427671878163
3049.5816,2.5677066642992052
3050.6128,2.9677019504419704
3051.6434,6.516833641785404
3052.6734,6.8651067248217785
3053.7027,5.312526120875059
3054.7314,6.2590966826181464
3055.7594,6.004823209598687
3056.7868,4.799710438773374
3057.8136,5.593763047050675
3058.8398,4.2869856633419765
3059.8653,8.379382860621025
3060.8902,5.77095916899173
3061.9145,2.7617190347641802
3062.9381,6.601666846538876
3063.9612,6.090806965299144
3064.9835,5.3291436860116335
3066.0053,6.666681242734949
3067.0264,10.253423816236257
3068.0469,11.189375520615911
3069.0668,7.174540367440056
3070.086,8.908922256381079
3071.1046,8.442525015365977
3072.1226,7.825352383232543
3073.1399,8.657408014393317
3074.1567,6.688695485007328
3075.1727,8.119218284659516
3076.1882,6.748979836047887
3077.203,7.82798348067827
3078.2173,6.606232492566686
3079.2308,6.983730067449352
3080.2438,6.260479335000159
3081.2561,4.986483355055718
3082.2678,5.211745124847846
3083.2789,4.036267591743535
3084.2893,4.510053650992335
3085.2991,4.8331061574811365
3086.3083,2.605427920996286
3087.3169,4.027021702993093
3088.3248,6.047890238872583
3089.3321,1.818036223765576
3090.3388,2.9374622923239944
3091.3449,5.806171061019411
3092.3503,4.074165116948768
3093.3551,4.891446989147321
3094.3593,5.508019165908671
3095.3629,2.523884086611959
3096.3658,1.5890441355561276
3097.3681,6.5535016718012855
3098.3698,2.8172590385171166
3099.3708,0.7803185133382708
3100.3713,2.8926823457268274
3101.3711,3.554352777341677
3102.3702,0.4653320209149019
3103.3688,2.27562225363506
3104.3667,4.135225648037395
3105.364,6.194144353900931
3106.3607,1.3023804796524505
3107.3568,4.5599360717772885
3108.3522,1.7668131637369893
3109.347,5.973013743393736
3110.3412,2.228539780941585
3111.3348,5.033393186844455
3112.3277,2.1875758492808774
3113.32,2.791089606095449
3114.3117,-0.5060637267429886
3115.3028,4.196117638823516
3116.2932,3.09764054642954
3117.2831,3.7485117977484848
3118.2723,2.148738163477356
3119.2608,1.6483263768280434
3120.2488,3.8972831495250535
3121.2361,1.7956151768096387
3122.2229,3.343329114950226
3123.209,1.6904316022590855
3124.1944,1.936929243615209
3125.1793,2.382828626993275
3126.1635,0.4781363209986722
3127.1471,0.9228588704085077
3128.1301,1.4670028152185317
3129.1125,3.7605746861959126
3130.0942,5.253580999437791
3131.0753,3.946028233435568
3132.0558,1.7879228141448333
3133.0357,3.0292711280609055
3134.015,4.270079543799879
3134.9936,1.8603543996851304
3135.9716,4.350101991339255
3136.949,1.5893285957813035
3137.9258,1.4280404465293195
3138.902,3.3162437612080637
3139.8775,4.003944743161897
3140.8524,1.3911495625727444
3141.8267,3.3778643495830947
3142.8004,1.1140952204239376
3143.7735,3.999848257547625
3144.7459,0.48512953226556466
3145.7178,1.869945075890679
3146.689,3.604300914884603
3147.6596,1.738203057009522
3148.6295,2.9216574739846175
3149.5989,4.004670120147043
3150.5676,4.587246920617378
3151.5357,2.1193937604695083
3152.5032,1.751116478904848
3153.4701,2.8324208939308857
3154.4364,0.7633128060439462
3155.402,2.5437979874161503
3156.367,1.623882202586497
3157.3315,5.603571190656007
3158.2952,4.8828706744868775
3159.2584,3.761786320905597
3160.221,4.99032374790995
3161.1829,0.6684885358798622
3162.1442,3.2462862152920273
3163.105,3.6737223099382543
3164.065,0.7008023111474975
3165.0245,2.2775316735114908
3165.9834,2.953915844613949
3166.9416,0.7799602492632722
3167.8993,3.2056702827287094
3168.8563,1.8310513324799036
3169.8127,5.106108753929806
3170.7684,1.5808478841808524
3171.7236,3.805274009274397
3172.6782,3.9293923994433193
3173.6321,2.8532082868677566
3174.5854,2.5767268644339323
3175.5381,4.0499532964959855
3176.4902,4.322892721640789
3177.4417,4.195550237955687
3178.3926,5.017930900299091
3179.3428,5.490039721573917
3180.2924,2.711881664503773
3181.2415,0.3334616369118688
3182.1899,2.6047845195026023
3183.1377,4.975855189645759
3184.0848,6.346678498663282
3185.0314,5.417259248118561
3185.9773,3.187602176108201
3186.9227,2.2577119665562146
3187.8674,3.527593271510596
3188.8115,4.247250720442221
3189.755,2.1666889075460394
3190.6979,1.2359123845444917
3191.6402,2.7549256814931344
3192.5818,5.473733316088402
3193.5229,8.092339778477472
3194.4633,5.260749504070198
3195.4031,7.028966847353033
3196.3423,3.346996110204936
3197.2809,1.1648415242152037
3198.2189,6.13250728750317
3199.1563,2.7499975865397537
3200.0931,5.417316546470804
3201.0292,5.8344682649421955
3201.9648,5.351456785426634
3202.8997,5.718286093052155
3203.834,3.2849601194322253
3204.7677,3.1514827389974553
3205.7008,5.017857793328854
3206.6333,2.9340890924926066
3207.5652,4.000180396376322
3208.4964,6.416135435526723
3209.4271,2.7319579004887253
3210.3571,4.147651417645897
3211.2865,3.9632195860622255
3212.2154,5.478665963325186
3213.1436,4.04399406739006
3214.0712,3.90920736142547
3214.9982,5.924309268160096
3215.9246,0.7893031712305416
3216.8503,4.804192395030323
3217.7755,5.81898025605992
3218.7001,5.283670022777897
3219.624,6.44826490545301
3220.5473,3.3627680615173188
3221.4701,6.577182583920234
3222.3922,8.091511531983485
3223.3137,5.005757899256975
3224.2346,3.9699245983754894
3225.1549,5.2340144919162395
3226.0746,2.4480304027571886
3226.9937,4.511975101436157
3227.9121,3.7758513340106594
3228.83,6.339661801418462
3229.7473,4.553409166838811
3230.6639,7.86709603005434
3231.5799,6.43072494531359
3232.4954,4.294298388194141
3233.4102,4.457818769966327
3234.3244,3.2712884589574953
3235.238,4.0347097789168105
3236.151,5.148085020880553
3237.0634,5.911416435537898
3237.9752,5.874706222097178
3238.8864,6.2879565206525525
3239.797,4.901169412551129
3240.7069,2.5143469162604424
3241.6163,8.177491001236344
3242.5251,5.390603611791209
3243.4332,6.103686610462509
3244.3408,6.3167418058816684
3245.2477,6.67977094564325
3246.154,4.942775714174399
3247.0598,5.955757729104541
3247.9649,6.61871855863535
3248.8694,5.681659711410923
3249.7733,6.794582629888165
3250.6766,4.507488699707389
3251.5793,3.0703792385630813
3252.4814,5.333255519074843
3253.3829,6.546118783158481
3254.2838,5.858970219397253
3255.1841,6.12181095091322
3256.0838,5.384642042238737
3256.9829,4.047464496688051
3257.8814,3.6602792637289974
3258.7792,6.0230872523547605
3259.6765,8.185889334955732
3260.5731,4.398686323691434
3261.4692,6.061478948862487
3262.3647,6.074267896782656
3263.2595,6.787053793150914
3264.1538,7.14983720292356
3265.0474,3.912618623186362
3265.9404,5.775398479526713
3266.8329,5.038177158405815
3267.7247,5.100954988530886
3268.616,6.813732248227373
3269.5066,4.176509164811172
3270.3966,5.089285897460858
3271.286,6.652062563589918
