RamanShift,CorrectedData
30.1047,1202.9286805926197
32.3739,1117.2900222230019
34.6426,1028.051351824097
36.9109,938.4626461937182
39.1787,855.1238718491645
41.4461,768.834985923108
43.7131,684.2959369969819
45.9796,600.8066659638694
48.2456,515.1671068738935
50.5112,426.27718776911104
52.7764,340.53683153990704
55.0411,256.7459568138949
57.3054,171.70447881331944
59.5692,91.26231019296603
61.8326,10.119361890575036
64.0955,-72.82445606873608
66.3579,-156.46923376104348
68.6199,-231.4143337461073
70.8815,-293.3075554560426
73.1426,-317.1943864937706
75.4032,-228.61738431973333
77.6634,128.2340623775475
79.9231,1101.7728487972195
82.1824,3362.0618688560908
84.4412,7599.66400545324
86.6995,13608.642107867126
88.9574,19711.50894937958
91.2148,24072.127167185987
93.4717,26175.409201366674
95.7282,26615.31725128067
97.9842,26562.263254532932
100.2398,26004.258882575235
102.4949,25343.565541236723
104.7495,24526.494376303945
107.0036,23637.106280127817
109.2573,22734.01189979429
111.5105,21833.371646018266
113.7632,20940.695702174522
116.0154,20116.444033304128
118.2672,19485.42639504119
120.5185,18866.05234185538
122.7693,18339.3812333621
125.0197,17906.272240516235
127.2696,17507.534350878865
129.519,17263.176372948335
131.7679,16999.106940147652
134.0163,16790.88451326807
136.2642,16516.017383109756
138.5117,16305.463672564045
140.7587,16017.581339362114
143.0052,15756.178178180475
145.2512,15491.361823519856
147.4967,15172.48975231919
149.7417,14939.2692866038
151.9863,14742.907596674104
154.2304,14569.011703437838
156.4739,14358.23848037366
158.717,14164.744655270108
160.9596,13945.736812333345
163.2017,13615.071394122084
165.4433,13222.304703737667
167.6844,12760.39290813074
169.925,12371.442042028877
172.1651,11890.358012555751
174.4047,11450.696603120596
176.6439,11104.813478229076
178.8825,10749.464187879887
181.1206,10456.104171023593
183.3582,10201.53875911612
185.5954,9982.52317905235
187.832,9787.162555711782
190.0681,9612.361914148683
192.3037,9543.426181545698
194.5388,9443.86018896185
196.7734,9384.118672021903
199.0075,9360.85627191202
201.2411,9421.977535977181
203.4742,9390.786917953805
205.7068,9414.738777358538
207.9389,9455.937379800162
210.1704,9485.386896740067
212.4015,9552.641405080278
214.632,9666.454886868945
216.862,9785.331228627816
219.0915,9923.524220214085
221.3205,10073.387553631643
223.549,10327.67482164914
225.777,10616.789516301356
228.0044,11003.63502634633
230.2314,11525.964634374206
232.4578,11992.281512938778
234.6837,12358.588719334204
236.909,12542.889190931823
239.1339,12373.985741517099
241.3582,12032.081059446602
243.582,11546.327709337056
245.8053,11030.578135484362
248.0281,10525.784666721167
250.2503,10104.099521574328
252.472,9762.874813312863
254.6932,9555.762554164801
256.9139,9346.714658729416
259.134,9196.432946048368
261.3536,9014.569141696167
263.5727,8909.674879283
265.7912,8681.401702273371
268.0092,8542.451065035028
270.2267,8348.274335121718
272.4436,8227.77279466267
274.6601,8129.897642304378
276.8759,7960.799994415614
279.0913,7915.980886066175
281.3061,7866.241272717869
283.5204,7926.48203067269
285.7341,8039.4039575702245
287.9473,8161.307771785245
290.16,8392.144111298483
292.3721,8690.813532477605
294.5837,9110.016507768833
296.7947,9451.60342271026
299.0052,9644.824571739813
301.2152,9427.580154779389
303.4246,8943.970275302656
305.6334,8294.894942507466
307.8418,7690.804076151982
310.0495,7168.247513045419
312.2568,6790.375013088951
314.4635,6507.836264501289
316.6696,6393.73088759739
318.8752,6326.358437613853
321.0802,6345.118405849975
323.2847,6424.910220341462
325.4887,6441.183245672853
327.692,6342.836782179582
329.8949,6148.320065785259
332.0972,5811.682268985131
334.2989,5447.622502791248
336.5001,5132.339820098845
338.7007,4869.9332193269365
340.9008,4700.101647571148
343.1003,4505.344003227774
345.2992,4391.509137692101
347.4976,4348.995857305978
349.6955,4279.902924496166
351.8927,4314.229058199469
354.0895,4260.7229345536725
356.2856,4279.083186554266
358.4812,4198.558404589527
360.6763,4222.097136256894
362.8707,4130.297887168239
365.0646,4128.259120714458
367.258,4049.4292589834804
369.4508,4017.156682780642
371.643,4039.539732416988
373.8346,3948.826708032
376.0257,3878.165869369772
378.2162,3750.6554366861437
380.4062,3587.74359145529
382.5956,3405.928477644842
384.7844,3264.0082033449926
386.9726,3099.3808425866628
389.1603,3042.294436760698
391.3474,2893.696996264134
393.5339,2884.136501071076
395.7199,2805.110902218661
397.9052,2792.068121902661
400.09,2725.95605426775
402.2743,2766.122565537922
404.4579,2794.665494677618
406.641,2909.1326529900543
408.8235,3102.721823831802
411.0054,3441.6807614681093
413.1868,3907.607189137014
415.3675,4304.948795659748
417.5477,4513.003230781485
419.7273,4562.868101197908
421.9064,4449.69096847467
424.0848,4251.21934854875
426.2627,3985.9507128602236
428.4399,3646.5324903369783
430.6166,3248.9620700473934
432.7928,2805.436804594534
434.9683,2473.7540140918536
437.1432,2200.6109905984376
439.3176,1983.9050014358345
441.4914,1853.3832919194901
443.6645,1785.943087525804
445.8371,1714.9815951973505
448.0091,1614.7960040172675
450.1806,1545.7834859188915
452.3514,1482.0411966875963
454.5216,1424.4162766509326
456.6913,1330.8558513160388
458.8603,1335.907031945897
461.0288,1375.666916494938
463.1967,1432.582589558524
465.3639,1552.551121975357
467.5306,1656.6695702583165
469.6967,1814.3849753947725
471.8622,1979.5443618054087
474.0271,2150.1447357670568
476.1914,2235.983083761108
478.3551,2204.7563707675054
480.5182,2157.761539406363
482.6807,2062.2955102502438
484.8426,2101.6551822940964
487.0039,2332.037433909916
489.1647,2711.6891224531555
491.3248,3212.7570819589
493.4843,3441.2381193453493
495.6432,3447.5290094031407
497.8015,3375.1264925105334
499.9592,3396.1772745705002
502.1163,3368.6780277347625
504.2728,3180.0753901932676
506.4287,2845.515966449191
508.5839,2373.4463292049622
510.7386,1981.8130227078527
512.8927,1697.4625674706767
515.0461,1522.8414641881282
517.199,1395.3961965802682
519.3512,1307.4732331387513
521.5029,1302.0190284012733
523.6539,1254.5300238308064
525.8043,1279.6526478701307
527.9541,1327.9833164167376
530.1033,1372.3684325715985
532.2519,1449.6043861558555
534.3999,1627.7875532669696
536.5472,1963.2142955063664
538.694,2491.8309581975955
540.8401,3163.083867032068
542.9856,3783.7193227828902
545.1305,4028.833594592339
547.2748,3833.322913765496
549.4185,3423.3834713191154
551.5615,2988.6114199367184
553.704,2755.3028780679997
555.8458,2666.5039342765467
557.987,2607.910649572914
560.1276,2433.719058302626
562.2675,2320.9251687321103
564.4069,2169.024964790591
566.5456,2032.8644071980543
568.6837,1892.0894349842383
570.8212,1660.7459668502415
572.958,1405.2799025762706
575.0942,1245.7371253350739
577.2299,1152.8135042466038
579.3648,1186.2548959734468
581.4992,1305.207145650058
583.6329,1526.8660865483434
585.766,1760.6775388881506
587.8985,1936.787307620667
590.0304,1955.3911800903152
592.1616,1895.8849242736396
594.2922,1812.2142885932808
596.4222,1690.8750025130357
598.5515,1490.31277737456
600.6802,1300.9233076107666
602.8083,1142.8522727514446
604.9358,1071.6453393171469
607.0626,953.1981623999181
609.1888,907.5063863753494
611.3144,779.8656460870534
613.4393,594.6215673035877
615.5636,430.81976799485165
617.6873,307.5558601845423
619.8103,249.87545158815738
621.9327,239.57414684564174
624.0544,201.8975480982008
626.1756,221.39125509129917
628.2961,235.3008655514277
630.4159,172.87197499117246
632.5351,135.55017657011558
634.6537,58.081061719120044
636.7716,39.310220513558306
638.8889,29.08324244799769
641.0056,62.49571662391645
643.1216,73.69323185196117
645.237,134.3713763178257
647.3518,106.22573747027127
649.4659,166.65190141434505
651.5793,169.69545319284225
653.6922,172.15197618204002
655.8043,140.21705206126535
657.9159,137.38626078833477
660.0268,82.70518091889971
662.137,-0.6306103652532329
664.2466,-23.375536709389053
666.3556,-46.08401545896959
668.4639,-29.560230437855353
670.5716,43.24209490940302
672.6786,125.36953244495453
674.785,224.56865359853873
676.8907,320.13602854619785
678.9958,434.2682252182949
681.1002,418.0118083438283
683.204,389.8133383091299
685.3072,338.419371320404
687.4097,264.42645968572833
689.5115,215.28115232898926
691.6127,142.17999552981382
693.7132,58.769533415019396
695.8131,10.246308689631405
697.9123,-27.393136529013645
700.0109,-77.05236248421534
702.1089,-94.93465576183553
704.2061,-76.64253319464478
706.3028,-40.877563218211435
708.3987,22.55945139080177
710.4941,140.91811622257956
712.5887,358.94803664172105
714.6827,701.7988166036448
716.7761,1122.0200564742881
718.8688,1539.7613496016165
720.9608,1784.0722781133936
723.0522,1796.5024087397724
725.1429,1563.3512903701903
727.233,1181.318453929065
729.3224,856.4034147073035
731.4112,480.6556761826323
733.4993,270.9247332687446
735.5867,135.46007607278625
737.6735,59.56119199265959
739.7596,21.027567071669182
741.845,9.258686757517353
743.9298,-8.09596371236512
746.014,21.013100806863804
748.0974,45.33544633872589
750.1802,70.02063869661106
752.2624,58.918243240559605
754.3439,111.27782463040785
756.4247,169.8989469368098
758.5048,264.9811731176469
760.5843,431.3740644318077
762.6631,707.9771794883764
764.7413,1177.3900725827007
766.8188,1739.2622909303573
768.8956,2233.2933699730293
770.9718,2603.7828277597728
773.0473,2514.880160006722
775.1221,2207.2348363921883
777.1962,1851.4463014456833
779.2697,1657.1639776243755
781.3426,1695.9872688709747
783.4147,2021.6655625565581
785.4862,2385.198229092328
787.557,2428.68461867284
789.6271,2093.1740576406664
791.6966,1547.7658480515493
793.7654,1043.559271029486
795.8335,740.4535922208215
797.901,518.5480668363143
799.9678,494.99194268218343
802.0339,509.8344623791854
804.0993,588.9248635981494
806.1641,577.9123789115729
808.2282,556.4462350027061
810.2916,447.82565277567846
812.3544,379.09984757016355
814.4164,284.1180302475768
816.4778,258.6294078783376
818.5385,266.03318469169244
820.5986,313.4285623305932
822.658,369.26473977766545
824.7166,415.84091288125273
826.7747,546.1062737970569
828.832,662.1100105223741
830.8886,764.8013055934371
832.9446,950.4793349253905
834.9999,1087.4932667853654
837.0545,1183.2922599357062
839.1085,1265.3254622638215
841.1618,1323.0920098242077
843.2143,1326.3410260181045
845.2662,1288.321621015838
847.3175,1221.4828917243303
849.368,1129.5239221672891
851.4179,1020.2437841535884
853.467,862.9415381968793
855.5155,783.8662346083693
857.5633,667.8169150698559
859.6105,558.7926134244808
861.6569,513.5923568372136
863.7027,461.01516688510947
865.7478,431.61006000929683
867.7922,455.1260480407673
869.8359,525.8121384944106
871.8789,654.8173343338658
873.9212,842.9906332646524
875.9629,1052.7810264441196
878.0039,1268.437496599713
880.0441,1376.3590159310752
882.0837,1389.844543953469
884.1226,1270.0930264185736
886.1609,1140.5533951796233
888.1984,983.874569388925
890.2352,912.8554567932542
892.2714,865.9449553006343
894.3069,829.0919536905503
896.3416,791.2453320830309
898.3757,791.8039623071945
900.4091,797.2667082797079
902.4418,804.9824259992065
904.4739,834.3499634916698
906.5052,835.6681607332484
908.5358,718.1358493566031
910.5658,602.5018526377135
912.595,464.51498667120904
914.6236,355.12406152670064
916.6515,322.3278826286514
918.6786,331.6252518502888
920.7051,417.8149678415675
922.7309,528.44582593619
924.756,622.3166172897145
926.7804,722.726127773245
928.8041,704.9731370347217
930.8272,747.7564174948247
932.8495,705.8247345245018
934.8711,649.3768460171405
936.892,483.66150280788406
938.9123,310.22744923810933
940.9318,182.02342481258347
942.9506,58.398165933800556
944.9688,-20.94959281597403
946.9862,-49.1211174384498
949.003,-84.96746464890293
951.019,-61.48920044265469
953.0344,-17.236041990057856
955.0491,32.84290781564232
957.063,106.79871826925955
959.0763,240.03245833717574
961.0888,295.19519591779044
963.1007,406.6379965091792
965.1119,441.31192265747086
967.1223,504.2680328424103
969.1321,532.0073811306274
971.1412,594.8810165460745
973.1495,634.5399827926312
975.1572,669.5353176253666
977.1641,725.8680524539541
979.1704,731.4392119927097
981.1759,725.699813697277
983.1808,790.2508677089099
985.1849,932.9933769118679
987.1884,1126.9283362879032
989.1911,1338.3567314888405
991.1932,1486.779536897221
993.1945,1570.597713512022
995.1951,1546.412207464432
997.1951,1544.4739491796663
999.1943,1454.3838536188232
1001.1928,1426.8428202982668
1003.1906,1428.2517341905232
1005.1877,1466.0114659996952
1007.1841,1424.022872147374
1009.1798,1332.7867943950341
1011.1748,1158.2040602639272
1013.1691,959.6754839474388
1015.1627,759.8018680569121
1017.1556,588.6340056069403
1019.1477,478.2726820140997
1021.1392,423.0186768086314
1023.1299,440.27276473805887
1025.12,501.8357163197197
1027.1093,545.7582976682324
1029.0979,637.0412698798582
1031.0859,705.3353885932802
1033.0731,715.5414030767743
1035.0596,651.060055545262
1037.0454,533.0420810582582
1039.0304,442.18820816467723
1041.0148,317.3491600830166
1042.9985,253.4256556098917
1044.9814,215.41841036843107
1046.9636,171.6281374475111
1048.9452,166.85554778182996
1050.926,186.05135058980431
1052.9061,167.31625342129882
1054.8855,173.600961965667
1056.8642,205.25618023910465
1058.8421,293.3326105217975
1060.8194,323.3809530413764
1062.7959,357.0019050921501
1064.7717,379.54616073461875
1066.7469,381.6644104592651
1068.7213,360.65734096111555
1070.695,335.7256351185497
1072.6679,276.4199722033836
1074.6402,255.79102813017562
1076.6117,241.68947604928871
1078.5826,262.4659865531803
1080.5527,343.52122781741673
1082.5221,512.7058653929053
1084.4908,748.7705613953431
1086.4587,984.6159728133671
1088.426,1177.3927491479117
1090.3925,1208.3015300537527
1092.3584,1144.69294341174
1094.3235,982.0176050197106
1096.2879,861.8261192285772
1098.2515,828.119080569074
1100.2145,862.7970749536844
1102.1767,941.4106800137033
1104.1382,1063.8104647524578
1106.099,1302.0469887591717
1108.0591,1526.7708009849703
1110.0185,1669.782437360509
1111.9771,1683.6824185487367
1113.9351,1479.0212485147867
1115.8923,1176.1494143869686
1117.8488,837.7173885033799
1119.8045,559.3256314406262
1121.7596,432.1745953981417
1123.7139,364.364726982104
1125.6675,360.0964684769524
1127.6204,455.77025852348015
1129.5726,471.33653216151833
1131.524,513.0957198731985
1133.4748,568.4982474272902
1135.4248,635.3945354616108
1137.3741,671.1349989289993
1139.3226,650.4200464283513
1141.2705,637.1000798472169
1143.2176,576.3754945689461
1145.164,622.3966796058894
1147.1097,677.7640182066461
1149.0546,656.4278873958492
1150.9989,564.1886574204909
1152.9424,394.3466919632874
1154.8852,214.2023490650672
1156.8272,86.25598282319334
1158.7686,11.157945193009255
1160.7092,-11.791412732698518
1162.6491,-0.5917399727213706
1164.5883,66.25743225035785
1166.5267,132.75657862543903
1168.4644,294.6561731788497
1170.4014,471.80668860935475
1172.3377,716.2585946691624
1174.2732,940.1123563924184
1176.2081,1158.7184316506819
1178.1421,1326.727268914392
1180.0755,1480.0393050668035
1182.0082,1492.104963723903
1183.9401,1453.6746537012832
1185.8713,1259.9487688934914
1187.8017,1021.87768865833
1189.7315,778.6117797541156
1191.6605,533.0513987203949
1193.5888,366.8968943105956
1195.5163,261.6986099476326
1197.4432,174.75688538545546
1199.3693,103.8220577610291
1201.2947,57.694462463748096
1203.2193,64.27443384479557
1205.1432,74.21230567840666
1207.0664,145.80841109607718
1208.9889,249.06308248718324
1210.9106,326.22665078301725
1212.8316,458.44944442424
1214.7519,554.6317885892522
1216.6715,574.924003871959
1218.5903,591.8264053199473
1220.5084,560.2893022315675
1222.4257,536.5629979869109
1224.3424,498.7977903631754
1226.2583,541.593971771932
1228.1735,662.1018296367774
1230.0879,818.6216459653688
1232.0016,968.6036961443469
1233.9146,1003.1482473741371
1235.8269,939.8555571691304
1237.7384,814.9258730122347
1239.6492,663.1094329878078
1241.5592,555.3064670309486
1243.4686,489.06719844566214
1245.3772,409.74184498289196
1247.285,375.6306195029101
1249.1922,341.0837307685706
1251.0986,350.5513837864264
1253.0042,372.8337801521948
1254.9092,453.38111795607983
1256.8134,569.893591559955
1258.7169,707.6213907918846
1260.6196,897.464699780995
1262.5216,1066.323695580205
1264.4229,1225.298546267787
1266.3234,1359.6394092587834
1268.2232,1379.3964297152515
1270.1223,1384.6697392028582
1272.0207,1384.9094554933063
1273.9183,1351.7656825116082
1275.8151,1287.4885103336774
1277.7113,1204.9280155177757
1279.6067,1070.7842617472834
1281.5014,928.1573006563021
1283.3953,795.0471731710959
1285.2885,690.3039109363544
1287.181,634.9775376463022
1289.0727,667.3180700921257
1290.9637,702.3755187152392
1292.854,822.6498872838774
1294.7435,1015.2411725425254
1296.6323,1228.5493630091714
1298.5204,1488.8744370493932
1300.4077,1785.9663607432803
1302.2943,1988.2250852821771
1304.1802,2088.4505439977675
1306.0653,2057.142650339488
1307.9497,1932.15129687227
1309.8333,1913.9763555896234
1311.7162,1925.567679163545
1313.5984,2027.5251011262708
1315.4798,2174.448435754358
1317.3605,2347.53747704912
1319.2405,2532.391997267385
1321.1197,2603.9117451906104
1322.9982,2608.1964442763338
1324.876,2606.6957919429815
1326.753,2587.1094595270115
1328.6293,2636.187092297926
1330.5048,2660.3283096541336
1332.3796,2631.132704632176
1334.2537,2613.9998436653104
1336.127,2602.6292668754713
1337.9996,2559.3704882445945
1339.8714,2505.8229957283265
1341.7426,2462.0362516886125
1343.6129,2438.40969342917
1345.4826,2356.4427336333565
1347.3515,2309.684760600433
1349.2196,2286.4351390652373
1351.087,2298.093210665763
1352.9537,2362.5082941756536
1354.8197,2503.1296853876265
1356.6849,2647.8066564693145
1358.5493,2737.738454557054
1360.4131,2733.4243003091206
1362.276,2681.2133870064063
1364.1383,2546.0548805955623
1365.9998,2340.8479202111057
1367.8606,2079.6916195270096
1369.7206,1862.23506880877
1371.5799,1718.4773375249706
1373.4384,1639.117476521843
1375.2962,1519.1545194608489
1377.1533,1286.2874836122774
1379.0096,1043.3653710548706
1380.8652,787.2871710044983
1382.7201,575.7018622433807
1384.5742,395.7084156808669
1386.4275,270.75579646929236
1388.2802,199.34296580391037
1390.132,109.9688821724194
1391.9832,62.58250206909133
1393.8336,-7.0672191114908856
1395.6832,-19.081326600563443
1397.5322,-20.91079502784396
1399.3803,-29.156408400599958
1401.2278,-20.41874182725678
1403.0745,0.2519208562780477
1404.9204,-12.544500202674044
1406.7656,27.591915140692436
1408.6101,48.51121235073697
1410.4538,105.96343661590163
1412.2968,151.74863263952057
1414.139,216.2168440652954
1415.9805,301.5681130194457
1417.8213,411.05247946602185
1419.6613,561.9699803533981
1421.5006,771.470648519422
1423.3391,1050.3045111822444
1425.1769,1435.3715878453131
1427.0139,1943.771887509029
1428.8502,2581.4554048200803
1430.6858,3228.772114987437
1432.5206,3685.321967405518
1434.3547,3964.454879181021
1436.188,4056.670730567428
1438.0206,4004.269362173675
1439.8524,3884.200574041991
1441.6835,3802.8641261719126
1443.5139,3718.5597397209717
1445.3435,3656.3870978180626
1447.1724,3639.245846406478
1449.0005,3577.635594865645
1450.8279,3495.055916182532
1452.6545,3470.5563475677545
1454.4804,3507.8863912813686
1456.3056,3515.695514877872
1458.13,3440.8331508328956
1459.9536,3224.44869646512
1461.7766,2880.2915146848945
1463.5987,2461.5609361580864
1465.4202,2099.9562627476485
1467.2409,1733.5767717009276
1469.0608,1470.0717192657066
1470.88,1218.3903443540034
1472.6984,1026.1818711771166
1474.5161,830.795511762447
1476.3331,698.6304678755782
1478.1493,567.1859329741383
1479.9648,480.36109352945414
1481.7795,410.5051303409941
1483.5935,346.2172194046161
1485.4067,287.39653261112926
1487.2192,264.44223838917105
1489.031,224.05350229341775
1490.842,211.7294872341231
1492.6522,183.219353881007
1494.4618,159.92226078649492
1496.2705,161.03736467082126
1498.0785,165.36382065500084
1499.8858,156.50078224967774
1501.6924,137.49740131185854
1503.4981,140.40282813354452
1505.3032,127.26621163176469
1507.1075,136.08669931951817
1508.911,120.31343743714478
1510.7138,88.19557086411942
1512.5159,76.28224327678572
1514.3172,46.57259746953332
1516.1178,30.11577547392926
1517.9176,24.66091885581818
1519.7166,26.857168879887922
1521.515,17.70366656421993
1523.3126,13.39955265832441
1525.1094,-9.406032265320846
1526.9055,-14.013947768233265
1528.7008,-26.07495944566608
1530.4954,-12.18969289353754
1532.2893,-18.20851321892178
1534.0824,-28.331663753861903
1535.8747,-7.359205927355561
1537.6663,-11.240918135080392
1539.4572,-15.776505254250424
1541.2473,1.0344401346928862
1543.0367,17.442483058594462
1544.8253,20.898188533954453
1546.6132,34.302121402850844
1548.4003,44.35484629838038
1550.1867,71.05692751062179
1551.9723,95.25892888610542
1553.7572,128.91141356079606
1555.5414,141.01494371806712
1557.3247,206.8200802521792
1559.1074,266.0773826472441
1560.8893,306.9374083191756
1562.6705,377.95071202311647
1564.4509,475.7178454448358
1566.2305,561.0393564905985
1568.0094,660.2157883094937
1569.7876,759.8976784402194
1571.565,834.9355578193181
1573.3417,894.279949784358
1575.1176,924.6813693235531
1576.8928,906.9403224823209
1578.6672,844.1073060592666
1580.4409,755.1828077835949
1582.2138,645.5673069434397
1583.986,550.6112752751083
1585.7575,450.9651780592362
1587.5282,386.87947507034687
1589.2981,343.50462157331276
1591.0673,298.3910689642112
1592.8358,297.0392652040764
1594.6035,291.4496552700307
1596.3704,305.8226811688064
1598.1366,321.7087819926387
1599.9021,369.75839377553984
1601.6668,381.0219493344348
1603.4308,435.0498777886646
1605.194,516.7426044473541
1606.9564,617.6505502691307
1608.7182,726.7741310451961
1610.4791,843.0137563902476
1612.2394,1001.1698286512446
1613.9988,1204.7427417450099
1615.7576,1449.4328795766687
1617.5156,1696.0406140039217
1619.2728,1942.6163023901404
1621.0293,2122.910285138293
1622.785,2242.1728832251843
1624.54,2206.554396398517
1626.2942,2084.1551019842664
1628.0477,1863.475255242864
1629.8005,1629.8150905931907
1631.5525,1395.82482381938
1633.3037,1203.8546544074115
1635.0542,1071.5047678850215
1636.804,932.7753377413974
1638.553,842.7165267506825
1640.3013,819.0284883592644
1642.0488,783.3113675863692
1643.7955,763.0653012609378
1645.5416,793.3904183787986
1647.2868,869.2868403051289
1649.0313,934.2046804712008
1650.7751,1076.6940436154182
1652.5181,1268.7050251341407
1654.2604,1514.0377096567872
1656.0019,1848.142169125727
1657.7427,2204.4684603429546
1659.4828,2563.166621629043
1661.222,2827.6866692598824
1662.9606,2889.4285938796966
1664.6984,2727.692357855844
1666.4354,2434.3278946613977
1668.1717,2013.68511049251
1669.9072,1608.063887202055
1671.642,1237.1640865060554
1673.3761,962.9855540398958
1675.1094,726.1781230673228
1676.8419,566.4416172222254
1678.5737,445.1258528767107
1680.3048,379.0806407384721
1682.0351,308.50578706394435
1683.7646,265.5010943187576
1685.4934,225.8663618834862
1687.2215,193.4513864836954
1688.9488,178.30596258628793
1690.6754,150.0798827236522
1692.4012,143.92293764511714
1694.1263,134.334916599214
1695.8506,116.26560739524439
1697.5742,106.91479649916118
1699.297,90.93226921426276
1701.0191,87.86780977470107
1702.7404,59.971201505302815
1704.461,51.192226852220756
1706.1808,59.38066766189468
1707.8999,45.93630526884499
1709.6182,45.508920413786655
1711.3358,43.24829337807114
1713.0527,38.25420398796314
1714.7688,24.87643163724624
1716.4841,24.06475533716275
1718.1987,27.01895385019361
1719.9126,20.938805698171564
1721.6257,20.67408913274221
1723.338,12.624582196163374
1725.0496,-2.4599372760449114
1726.7605,-0.12969157460838687
1728.4706,8.465121584519693
1730.18,7.324305781003659
1731.8886,-8.052335490141786
1733.5964,3.5850011928557706
1735.3036,-3.8638003054002183
1737.0099,2.751143843845057
1738.7156,-2.8702439312885417
1740.4204,0.47195876980913454
1742.1246,-4.422296978517579
1743.8279,4.246939893357194
1745.5306,-0.2703353661959227
1747.2325,2.125872448725886
1748.9336,7.635561244675046
1750.634,5.958728906946135
1752.3336,-6.004626755520576
1754.0325,-7.504507993371817
1755.7307,4.609142928966094
1757.4281,10.48645871710005
1759.1247,-1.5224279694521101
1760.8206,-4.517384576037557
1762.5158,15.201736661053246
1764.2102,14.185128634199373
1765.9039,24.182984083763813
1767.5968,12.945495608258398
1769.289,14.572855564366591
1770.9804,16.16525617931802
1772.6711,7.672889534613887
1774.361,17.295947550103392
1776.0502,19.084622068908402
1777.7386,15.589104761192175
1779.4263,15.20958710627292
1781.1132,25.146260427578227
1782.7994,11.549315896440476
1784.4849,29.51894443272954
1786.1696,20.60533684082202
1787.8535,29.158683629906363
1789.5367,34.829175103119724
1791.2192,22.517001272012294
1792.9009,22.27235179984359
1794.5818,38.445416124704025
1796.2621,38.386383461959895
1797.9415,34.89544264252572
1799.6202,33.72278211345201
1801.2982,42.31858997283575
1802.9755,49.53305398154794
1804.6519,56.566361477273176
1806.3277,36.61869930236708
1808.0027,35.690253733521786
1809.6769,42.53121068124392
1811.3504,44.491755699137
1813.0231,33.87207391549509
1814.6951,44.87235001369504
1816.3664,54.442768338394444
1818.0369,53.133512785528865
1819.7067,57.54476670660756
1821.3757,53.37671292180539
1823.044,56.52953367584905
1824.7115,52.003410679698845
1826.3783,71.5485250790216
1828.0443,52.06505749944995
1829.7096,58.253187851132225
1831.3741,57.51309552356747
1833.0379,64.54495932372447
1834.701,58.09895748344229
1836.3633,65.42526758911094
1838.0248,71.32406664613313
1839.6856,65.19553100565918
1841.3457,74.73983630560019
1843.005,74.15715753191216
1844.6636,83.39766892315288
1846.3214,85.7615439763108
1847.9785,69.74895535439714
1849.6349,79.71007486280882
1851.2904,90.69507360945363
1852.9453,81.05412190514039
1854.5994,83.98738915372724
1856.2528,97.1450439485318
1857.9054,98.27725404299736
1859.5572,97.63418621911796
1861.2083,92.0660062761151
1862.8587,90.12287903687024
1864.5084,94.20496840360556
1866.1572,86.51243737731534
1867.8054,87.99544801694492
1869.4528,84.35416151631603
1871.0994,86.88873818929733
1872.7453,90.79933750621626
1874.3905,91.78611806851495
1876.0349,98.69923756964226
1877.6786,92.58885278518665
1879.3215,104.25511950374403
1880.9637,93.84819258802213
1882.6051,95.96822585817813
1884.2458,100.41537219588758
1885.8858,106.33978352314512
1887.525,83.9916107577933
1889.1634,96.82100375427649
1890.8011,94.72811152712347
1892.4381,92.71308212265399
1894.0743,93.92606263990706
1895.7098,108.0171992507926
1897.3446,95.63663718796079
1898.9786,96.9845206038899
1900.6118,94.96099269469414
1902.2443,91.71619568664232
1903.8761,91.50027085639385
1905.5071,91.5633585634464
1907.1374,90.85559825229552
1908.7669,97.42712845180245
1910.3957,98.62808678227339
1912.0237,81.40860988974327
1913.651,96.11883343396698
1915.2776,104.2588922606135
1916.9034,98.17892025416472
1918.5285,100.92905025651407
1920.1528,92.25941412776638
1921.7764,95.8201427187364
1923.3992,99.16136595764578
1925.0213,85.58321281451435
1926.6427,79.0358112677493
1928.2633,76.11928843992655
1929.8832,99.88377066326484
1931.5023,89.92938350879035
1933.1207,88.05625154869404
1934.7383,91.86449845587208
1936.3552,73.9542470226595
1937.9714,87.275619122747
1939.5868,82.77873589028263
1941.2015,79.36371758665905
1942.8154,75.63068364548303
1944.4286,74.67975270672332
1946.041,76.46104265404324
1947.6528,74.17467062431024
1949.2637,73.2707529897807
1950.8739,71.1494053809663
1952.4834,69.66074269567048
1954.0921,77.45487912020485
1955.7001,66.53192814427439
1957.3074,71.0420024830355
1958.9139,61.43521418632554
1960.5197,70.71167459356275
1962.1247,53.221494429814356
1963.729,50.614783713030874
1965.3325,57.14165192894757
1966.9353,59.752208057152984
1968.5374,53.646560505819934
1970.1387,66.37481708559858
1971.7393,65.03708507067495
1973.3392,50.63347107148638
1974.9383,60.21408104810075
1976.5366,52.579020454250895
1978.1342,48.528394141529816
1979.7311,53.56230643574099
1981.3273,55.03086117740418
1982.9227,47.034161671416314
1984.5173,52.72231067236612
1986.1112,51.895410464502675
1987.7044,55.35356280485121
1989.2968,52.596868931484096
1990.8885,53.77542952893873
1992.4795,56.13934475578549
1994.0697,53.93871423284031
1995.6592,48.97363701952645
1997.2479,52.24421163588045
1998.8359,48.45053611220442
2000.4232,39.5927079563578
2002.0097,48.920824191695374
2003.5955,40.5849814456451
2005.1805,54.83527585642673
2006.7648,52.37180315641035
2008.3484,56.694658529614344
2009.9312,54.203936636339904
2011.5133,52.29973156994242
2013.0946,55.28213688173878
2014.6752,50.001245600048605
2016.2551,47.15715020037169
2017.8342,41.04994265819528
2019.4126,39.72971447743589
2020.9902,45.746556751511434
2022.5672,37.75056017654174
2024.1433,48.99181499118231
2025.7188,44.72041105658309
2027.2935,44.68643774397606
2028.8674,47.78998397738974
2030.4406,54.48113823398921
2032.0131,48.009988513040526
2033.5849,36.726622268998426
2035.1559,53.03112647621924
2036.7261,47.17358774179252
2038.2957,47.65409214249735
2039.8645,35.322725283377395
2041.4325,49.6295722929367
2042.9998,46.974717946452074
2044.5664,54.75824652290521
2046.1323,54.48024183153075
2047.6974,49.24078713398217
2049.2617,40.03996514711025
2050.8254,43.07785809535858
2052.3883,45.35454780277223
2053.9504,49.4701156626179
2055.5118,48.27464261461682
2057.0725,55.518209103790014
2058.6325,50.600895092412884
2060.1917,37.622779987578724
2061.7502,47.983942690372714
2063.3079,31.334461725652545
2064.8649,42.27441513843701
2066.4212,39.40388066040168
2067.9767,38.122935600477604
2069.5315,36.73165687355822
2071.0856,34.780121013307735
2072.6389,37.968404186074395
2074.1915,37.646582210405086
2075.7433,36.31473052516435
2077.2945,38.52292419275068
2078.8448,30.721237912415063
2080.3945,29.95974599817987
2081.9434,36.688522456855935
2083.4916,31.707640995656675
2085.039,28.467174954910888
2086.5857,27.967197357871555
2088.1317,24.007780943120224
2089.677,29.088998169566594
2091.2215,29.510921256043048
2092.7652,35.773622130492186
2094.3083,27.97717242574879
2095.8506,34.97164341691109
2097.3921,36.557106099306566
2098.933,25.48363111854644
2100.4731,33.85128875467103
2102.0124,33.910149032885556
2103.5511,36.710281639881714
2105.089,37.05175592325077
2106.6261,31.384640863481764
2108.1626,33.45900507054603
2109.6983,37.37491684056897
2111.2332,32.23244413508655
2112.7675,34.531654541885814
2114.301,30.5226153264299
2115.8337,40.355393408865666
2117.3657,35.680055404114455
2118.897,38.5966675235444
2120.4276,28.10529562172394
2121.9575,33.806005167254625
2123.4866,38.898861347685965
2125.0149,34.83392901250761
2126.5426,25.661272622221077
2128.0695,29.630956288988614
2129.5956,33.79304386836077
2131.1211,29.19759891957824
2132.6458,41.59468466395185
2134.1698,38.43436403081694
2135.693,34.16669953356268
2137.2155,42.59175330123526
2138.7373,39.459587121214554
2140.2584,35.6702623549628
2141.7787,33.17383996934734
2143.2983,32.720380574533465
2144.8171,25.75994444894809
2146.3353,30.192591543814956
2147.8527,29.568381552758638
2149.3693,43.33737386747839
2150.8853,34.049627583989604
2152.4005,27.70520136493485
2153.9149,25.154153532460327
2155.4287,19.34654213166027
2156.9417,26.73242495608781
2158.454,27.31185960583116
2159.9655,38.08490341365405
2161.4764,34.901613439202265
2162.9865,36.362046361273315
2164.4958,32.41625850964874
2166.0045,31.264305850490246
2167.5124,31.656244025797264
2169.0195,33.09212836492691
2170.526,28.02201388067374
2172.0317,32.345955254911246
2173.5367,36.514006889293114
2175.0409,33.87622286201372
2176.5445,34.38265688612819
2178.0473,29.583362335929223
2179.5494,30.62839224188383
2181.0507,41.11779933862556
2182.5513,33.40163605450448
2184.0512,31.329954406693105
2185.5504,31.952806078347407
2187.0488,39.92024243932383
2188.5465,25.23231453995197
2190.0435,25.58907303135902
2191.5397,31.140568312350524
2193.0353,30.686850525841237
2194.5301,23.927969503341274
2196.0241,31.863974769492188
2197.5175,22.194915609656505
2199.0101,29.1208409905571
2200.502,26.84179965696842
2201.9931,27.707840062456057
2203.4835,17.319010392168593
2204.9733,23.42535855417657
2206.4622,24.37693228336093
2207.9505,14.173779080349618
2209.438,16.815946202000873
2210.9248,15.75348076343596
2212.4109,25.836429711616915
2213.8962,11.914839835971634
2215.3809,21.738757667563732
2216.8648,21.05822961830893
2218.3479,28.523301882736178
2219.8304,19.18402044479251
2221.3121,22.090431003192293
2222.7931,16.09257906481014
2224.2733,20.290509915616894
2225.7529,20.98426868065792
2227.2317,16.67390028207444
2228.7098,14.159449432165047
2230.1872,7.940960676489567
2231.6638,8.3684784190134
2233.1397,16.09204698429278
2234.6149,15.711710613199898
2236.0894,18.027513385686802
2237.5632,15.689499224589213
2239.0362,17.947711872468176
2240.5085,13.152194914990673
2241.9801,16.80299175834682
2243.4509,4.300145677205137
2244.921,5.893699778204564
2246.3904,9.58369712498245
2247.8591,-1.079819277760521
2249.3271,13.65319347883974
2250.7943,3.632789091041559
2252.2608,4.659021118571559
2253.7266,6.181943084828731
2255.1917,10.401608466622633
2256.656,6.068070678944082
2258.1197,1.1313830327679852
2259.5826,7.991598778389061
2261.0447,3.1487711547886192
2262.5062,1.8029533210321915
2263.9669,3.4541984046981042
2265.4269,5.452559515335906
2266.8862,7.398089727952993
2268.3448,8.540842063031505
2269.8026,9.53086946707299
2271.2598,4.618224801170868
2272.7162,9.802960831110681
2274.1719,7.485130276495852
2275.6268,3.064785758900939
2277.0811,5.5919798250495205
2278.5346,13.066764991017067
2279.9874,14.139193716960108
2281.4395,10.259318332367343
2282.8908,4.627191025336629
2284.3414,3.5928638813734324
2285.7914,14.856388939711337
2287.2406,6.567818203655747
2288.689,8.577203527948654
2290.1368,10.934596701654073
2291.5838,21.14004942806457
2293.0302,7.3936133011266065
2294.4758,15.395339703386753
2295.9206,3.8452799434558074
2297.3648,8.19348517599144
2298.8082,9.140006517199367
2300.251,17.98489500135031
2301.693,9.128201571315458
2303.1343,12.66997699011722
2304.5748,9.810271929496366
2306.0147,11.699136934493595
2307.4538,8.58662245204789
2308.8922,12.272778812107049
2310.3299,9.957656258753559
2311.7669,7.441304913342606
2313.2031,8.173774797653664
2314.6387,10.405115859053353
2316.0735,14.535377963170617
2317.5076,3.214610871584
2318.941,5.4428642005182155
2320.3737,8.07015545223544
2321.8056,11.646502074569412
2323.2369,11.2219214346527
2324.6674,15.94643078315346
2326.0972,6.670047258520526
2327.5263,15.442787839739026
2328.9547,13.264669439094291
2330.3823,10.085708814443251
2331.8092,17.8059225909966
2333.2355,4.125327293108626
2334.661,11.443939267074484
2336.0858,13.011733647169194
2337.5098,11.5786854532289
2338.9332,8.14476957497277
2340.3558,10.259960786333409
2341.7778,11.124233779796555
2343.199,16.687563145248646
2344.6195,15.299923361334663
2346.0393,25.11128873982409
2347.4583,18.371633439487255
2348.8767,19.18093136798211
2350.2943,20.039156249250595
2351.7113,17.096281615426165
2353.1275,25.00228079825058
2354.543,18.95712695850341
2355.9578,29.06079300694148
2357.3718,20.363251664751147
2358.7852,21.364475362511143
2360.1978,14.364436327168278
2361.6098,22.56310657202448
2363.021,26.860457966737727
2364.4315,26.506462155335498
2365.8413,21.60109051324048
2367.2504,23.994314150811533
2368.6587,15.236103962396669
2370.0664,18.57643060240116
2371.4733,18.215264572869273
2372.8795,24.7525761900813
2374.285,19.138335588164864
2375.6899,15.57251265372281
2377.0939,19.855077081974855
2378.4973,18.285998412416006
2379.9,18.865245985990555
2381.3019,17.942788960783105
2382.7032,16.968596306226004
2384.1037,26.392636812324895
2385.5035,30.46487909939924
2386.9027,23.88529152384251
2388.3011,16.903842137399693
2389.6987,20.970498752963408
2391.0957,19.78522901438714
2392.492,21.698000355820113
2393.8876,14.508780013559317
2395.2824,18.417535006922094
2396.6765,27.924232210138825
2398.07,13.278838313264032
2399.4627,18.381319727110622
2400.8547,20.281642729702867
2402.246,16.279773415252293
2403.6366,19.125677675153952
2405.0265,22.619321238005796
2406.4156,27.06066964114916
2407.8041,26.449688195731937
2409.1918,18.636341942295985
2410.5789,26.77059565688637
2411.9652,21.35241392918465
2413.3508,24.58176108116686
2414.7358,28.908601221285835
2416.12,27.082898212176246
2417.5035,29.804615627387307
2418.8863,25.02371676963969
2420.2684,27.640164643607932
2421.6497,26.30392200372978
2423.0304,21.31495132804173
2424.4104,25.573214831541122
2425.7896,27.378674516076217
2427.1682,29.281292127763322
2428.546,25.23102913893183
2429.9232,26.427846729098746
2431.2996,31.47170582547119
2432.6753,29.562567090977495
2434.0503,26.100390873829383
2435.4246,26.135137226613097
2436.7982,32.66676594091143
2438.1711,23.545236546955834
2439.5433,27.67050824831074
2440.9148,30.19254001308809
2442.2856,29.311290532695352
2443.6557,25.52671819661458
2445.025,24.78878110121542
2446.3937,33.49743708760076
2447.7617,33.65264374898533
2449.1289,39.20435834361024
2450.4955,32.90253779318982
2451.8613,33.24713862739486
2453.2265,36.538117046871264
2454.5909,32.17542891979383
2455.9546,32.809029748956334
2457.3177,34.83887471539879
2458.68,37.3149186720712
2460.0416,43.687116123535134
2461.4025,40.55542120120322
2462.7627,41.21978759961729
2464.1222,49.03016860776495
2465.4811,50.03651710243622
2466.8392,46.08878547011966
2468.1966,40.786925596938374
2469.5533,54.78088890812836
2470.9093,52.520626421056306
2472.2645,50.00608860528018
2473.6191,47.63722540515181
2474.973,48.36398626496191
2476.3262,58.38632015262954
2477.6787,49.054175552434174
2479.0305,46.86750036479208
2480.3816,46.82624199957826
2481.7319,54.230347397993
2483.0816,46.279763032974415
2484.4306,54.2244348351573
2485.7789,47.56430827237887
2487.1264,49.29932827023248
2488.4733,50.92943927866855
2489.8195,58.85458525464446
2491.165,48.52470964582335
2492.5097,61.23975531132294
2493.8538,50.849664625013816
2495.1972,54.60437934836915
2496.5398,54.55384073436585
2497.8818,52.297989489937265
2499.2231,51.43676577647864
2500.5637,47.17010923240542
2501.9035,53.24795898176569
2503.2427,49.570253676906475
2504.5812,50.18693143769525
2505.919,45.1479298882972
2507.256,61.60318615100823
2508.5924,56.65263689664539
2509.9281,56.39621817999404
2511.2631,51.43386548931312
2512.5974,59.065513748899775
2513.9309,51.8410973687125
2515.2638,56.56055016805476
2516.596,59.473805447819245
2517.9275,57.0307959432933
2519.2583,55.33145379502662
2520.5884,58.17571057326097
2521.9178,58.11349729492372
2523.2465,59.444744395185296
2524.5745,57.26938172808133
2525.9018,65.33733855320025
2527.2284,59.19854355743672
2528.5543,61.40292477431217
2529.8796,62.25040964536299
2531.2041,69.69092499809659
2532.5279,63.37439703751653
2533.851,69.05075127171733
2535.1735,68.36991257504963
2536.4952,66.23180513135702
2537.8163,69.58635244078386
2539.1366,62.03347734115687
2540.4562,66.42310197443948
2541.7752,68.35514786226065
2543.0935,64.12953586201837
2544.411,69.79618614755947
2545.7279,62.45501825143589
2547.0441,67.25595100823801
2548.3596,77.84890262800644
2549.6744,72.23379064822257
2550.9885,64.31053182787889
2552.3019,67.57904220363014
2553.6146,68.63923716902616
2554.9266,61.09103144182632
2556.2379,72.23433905339766
2557.5485,69.8690734241971
2558.8585,65.99514725233837
2560.1677,72.6124725372444
2561.4762,71.4709606183871
2562.7841,70.32052210911371
2564.0913,72.51106690806205
2565.3977,70.09250421066531
2566.7035,68.06474248724572
2568.0086,73.32768950720083
2569.313,71.78125235928087
2570.6167,71.77533739895927
2571.9197,71.10985026389716
2573.222,77.08469587400248
2574.5236,78.59977843808491
2575.8246,75.75500139410724
2577.1248,79.30026739403473
2578.4244,85.48547833228281
2579.7232,83.8105353102643
2581.0214,85.82533857453723
2582.3189,90.72978753355494
2583.6157,85.12378073751722
2584.9118,91.80721582932631
2586.2072,90.57998960064697
2587.5019,96.89199792507202
2588.7959,91.54313577039488
2590.0893,99.58329713548903
2591.3819,101.01237510379661
2592.6739,110.53026176292724
2593.9652,109.38684819036649
2595.2557,107.48202435829785
2596.5456,109.66567914503645
2597.8348,110.88770035407731
2599.1234,118.09797469225896
2600.4112,110.1963877575431
2601.6983,112.28282396691174
2602.9848,122.25716663538327
2604.2705,117.21929795514797
2605.5556,123.96909889582469
2606.84,123.70644925483964
2608.1237,119.03122758992788
2609.4067,121.49331122176034
2610.689,123.14257628069583
2611.9707,122.87889768216019
2613.2516,124.10214911015362
2614.5319,121.61220301988777
2615.8115,117.60893062555277
2617.0903,115.3422019252173
2618.3685,116.6118857408606
2619.6461,118.36784974104
2620.9229,125.65996042819438
2622.199,125.58808312108408
2623.4745,124.80208188187027
2624.7493,123.50181951683322
2626.0234,123.68715758423252
2627.2968,127.10795640730964
2628.5695,128.51407507243454
2629.8415,126.85537139489782
2631.1128,122.18170190484926
2632.3835,128.9429218638855
2633.6535,127.08888531178604
2634.9228,133.76944499890158
2636.1914,129.08445240469416
2637.4593,130.18375767093136
2638.7265,126.91720964853641
2639.9931,130.63465588659523
2641.259,125.33594266502172
2642.5242,125.52091495738335
2643.7887,123.88941648388845
2645.0525,130.24128970953603
2646.3156,123.82637586043143
2647.5781,115.2445148602672
2648.8398,127.74554539447229
2650.1009,118.62930499603067
2651.3613,127.59562992047114
2652.6211,122.29435523702944
2653.8801,119.47531473898533
2655.1385,118.33834099667507
2656.3961,119.78326538568194
2657.6531,124.85991809820592
2658.9094,129.3681281286145
2660.1651,123.20772322267618
2661.42,121.47852983247816
2662.6743,131.13037317803065
2663.9279,131.81307726455861
2665.1808,137.8764647859834
2666.433,141.1203571180958
2667.6846,141.1445742579221
2668.9354,142.59893479128522
2670.1856,140.0332558925624
2671.4351,144.84735331014184
2672.6839,145.44104139207917
2673.9321,150.56413303795688
2675.1795,151.71643969294718
2676.4263,157.797771296581
2677.6724,151.05793627122483
2678.9179,156.2967414612678
2680.1626,159.4639922005199
2681.4067,156.35949225982375
2682.6501,160.83304381538244
2683.8928,157.73444747980415
2685.1348,151.16350225736699
2686.3761,157.6700055750046
2687.6168,149.45375334801616
2688.8568,145.06453991500075
2690.0961,146.05215812002012
2691.3348,141.8663993564909
2692.5727,128.35705355730823
2693.81,137.02390923670356
2695.0466,137.21675362533801
2696.2826,130.18537258363364
2697.5178,126.37955059984517
2698.7524,129.89907086037385
2699.9863,133.34371528782538
2701.2195,140.3132645058148
2702.452,138.75749780452014
2703.6839,147.6261930709867
2704.9151,148.9191268046851
2706.1456,152.48607402882436
2707.3755,156.4768082774226
2708.6046,161.2911015596374
2709.8331,177.1287243198583
2711.0609,171.68944538956373
2712.2881,186.42303182894506
2713.5145,199.2792489812993
2714.7403,198.60786032569325
2715.9654,208.95862734840154
2717.1899,224.4313095496202
2718.4136,232.87566433995926
2719.6367,241.39144688571554
2720.8591,251.2784100244292
2722.0809,264.5863041797265
2723.3019,279.7648772624497
2724.5223,283.3638745375782
2725.7421,296.28303847244257
2726.9611,291.1721087007348
2728.1795,285.0308218933168
2729.3972,278.40891180932954
2730.6142,266.0061093576057
2731.8306,255.87214266288913
2733.0462,245.9567371898628
2734.2612,224.70961584448816
2735.4756,206.1304990731594
2736.6892,189.91910507517508
2737.9022,173.82514998852855
2739.1145,162.3983480520227
2740.3262,147.2884117662087
2741.5372,132.44505200765445
2742.7475,124.81797818004395
2743.9571,111.00689836261097
2745.1661,98.66151938640945
2746.3744,85.88154697242464
2747.582,81.31668585502683
2748.7889,68.81663990977086
2749.9952,68.13111219904505
2751.2008,61.9098050970714
2752.4057,45.75242029676093
2753.61,39.30865887192664
2754.8136,37.828221438857554
2756.0165,41.26080822075647
2757.2188,43.05611906254393
2758.4204,38.013853396532795
2759.6213,35.78371022447476
2760.8215,28.815388167983315
2762.0211,34.20858549083499
2763.22,26.86300016865266
2764.4182,28.3283298349736
2765.6158,18.30427185470512
2766.8127,13.540523309471382
2768.009,11.836781097854214
2769.2045,10.992741983030214
2770.3994,-5.0418973901915365
2771.5936,-8.36744048692941
2772.7872,-5.934140403747108
2773.9801,-6.6421666464779605
2775.1723,-14.291629438893324
2776.3639,-12.532572649519636
2777.5548,-18.214897373505494
2778.745,-20.78837950559887
2779.9346,-23.002612973723274
2781.1235,-15.206984029890918
2782.3117,-9.950649130010504
2783.4992,-6.932612812220555
2784.6861,-10.701780207674801
2785.8723,-5.7569871907251695
2787.0579,-5.6469627249392715
2788.2428,1.9796217384169381
2789.427,16.024151161234897
2790.6106,19.938010485609766
2791.7935,19.32258449339554
2792.9757,30.379257767066576
2794.1573,49.2094146958712
2795.3382,61.814439365265685
2796.5184,66.44571536861235
2797.698,92.95462568112947
2798.8769,99.1925526135783
2800.0551,121.16087754717375
2801.2327,136.76098087120545
2802.4096,146.44424176335434
2803.5859,169.61203803369204
2804.7615,182.26574602784768
2805.9364,215.75674039533044
2807.1106,233.93639396299244
2808.2842,263.00607740011856
2809.4572,293.9171590366299
2810.6294,324.17100457238683
2811.801,357.0689767680782
2812.972,402.3124351426828
2814.1423,437.8527356444904
2815.3119,490.7912301986664
2816.4808,528.7792663518487
2817.6491,579.5181867427631
2818.8167,625.8593287223423
2819.9837,674.454023846338
2821.15,716.3035974119082
2822.3157,758.1593679716711
2823.4807,793.1726469152101
2824.645,848.394738050514
2825.8086,878.976937253846
2826.9716,922.6205319175225
2828.134,956.3768006440903
2829.2957,981.4470128098915
2830.4567,1015.1824282275003
2831.617,1021.2342968950217
2832.7767,1022.5038586587359
2833.9358,1030.1923431525804
2835.0941,1028.7009697854544
2836.2519,1019.0809476643336
2837.4089,997.1334756091843
2838.5653,984.2597422491638
2839.7211,980.2609262420941
2840.8761,985.7381964032011
2842.0306,1010.4927117451008
2843.1843,1032.525621423028
2844.3374,1084.2880644872907
2845.4899,1123.0311696629406
2846.6417,1217.6060548321493
2847.7928,1285.5138266467764
2848.9433,1367.5555795826212
2850.0931,1447.2323952603463
2851.2422,1520.4453416250574
2852.3907,1601.295472149537
2853.5385,1659.1338251021145
2854.6857,1721.1614227381647
2855.8323,1773.8292707217242
2856.9781,1818.438357505216
2858.1233,1864.4396538027704
2859.2679,1914.6841121441362
2860.4118,1953.7726664146635
2861.555,1986.2062313528636
2862.6976,2024.535702159521
2863.8395,2064.511954173357
2864.9808,2085.135842487739
2866.1214,2096.5582015509117
2867.2614,2113.9798449597643
2868.4007,2104.2515653456035
2869.5393,2128.424134199937
2870.6773,2141.6983019717572
2871.8146,2151.3247978258173
2872.9513,2155.5043295098853
2874.0874,2143.187583258483
2875.2227,2154.875223751088
2876.3574,2119.217894235305
2877.4915,2101.9662164099823
2878.6249,2067.4207907817936
2879.7577,2053.0821968377486
2880.8898,2028.400993390649
2882.0212,2033.3777187224757
2883.152,1996.1128908311994
2884.2821,1985.7570073810134
2885.4116,1972.9605460749826
2886.5405,1983.573964758602
2887.6686,1990.5477015477609
2888.7962,1997.7321747226108
2889.923,2012.4277826578248
2891.0493,2007.784903750756
2892.1748,2027.6038962744792
2893.2997,2016.4350984242203
2894.424,2042.4788281191668
2895.5476,2065.085383114155
2896.6706,2097.805040739234
2897.7929,2100.3880576735983
2898.9145,2147.5846696183935
2900.0355,2170.6950912708844
2901.1559,2198.2195158524896
2902.2756,2253.958114877677
2903.3946,2281.0610378787205
2904.513,2303.1284118483104
2905.6308,2334.01034096853
2906.7479,2355.3069063901758
2907.8643,2376.718165923943
2908.9801,2396.294153827458
2910.0953,2406.6848805911645
2911.2098,2402.490332742566
2912.3236,2417.260472742316
2913.4368,2401.7452390261674
2914.5494,2381.2445458572665
2915.6613,2352.408283481309
2916.7725,2327.686318331544
2917.8831,2310.0784933171394
2918.9931,2283.9846280703987
2920.1024,2250.254519122842
2921.211,2239.8379401661423
2922.319,2210.834642389428
2923.4264,2192.144354583449
2924.5331,2176.8667834306093
2925.6391,2176.551613691869
2926.7445,2172.298508359521
2927.8493,2171.307108660342
2928.9534,2158.4270340981257
2930.0569,2141.0578824635923
2931.1597,2142.3992299631955
2932.2619,2131.350631392808
2933.3634,2127.1616201243105
2934.4643,2103.0817082160797
2935.5645,2091.760386454874
2936.6641,2052.2971245966364
2937.763,2016.3413714797066
2938.8613,1973.7425554194515
2939.959,1917.400084567826
2941.056,1842.763347339359
2942.1523,1771.231712974579
2943.248,1684.6045322863815
2944.3431,1594.8311383753457
2945.4375,1485.0608474960045
2946.5313,1387.6929599545815
2947.6244,1285.026761206691
2948.7169,1181.7115228310167
2949.8087,1073.9965035559776
2950.8999,995.6309502928762
2951.9904,918.1640992130501
2953.0803,846.3451765315284
2954.1696,787.5733992816986
2955.2582,736.9979760334968
2956.3462,674.8181074811259
2957.4335,644.4829869488086
2958.5202,613.341801012587
2959.6062,581.2937298036737
2960.6916,557.4879473198637
2961.7764,546.1736217460152
2962.8605,539.7499156921064
2963.9439,525.3659863063803
2965.0267,522.8709853395801
2966.1089,512.5140592887901
2967.1905,507.2443494223845
2968.2714,512.5609918835971
2969.3516,509.31311774321864
2970.4312,519.3498529464302
2971.5102,520.2703183452819
2972.5885,532.323629598326
2973.6662,531.4588971614119
2974.7432,531.2252261671525
2975.8196,530.1717164335724
2976.8954,526.4974624664436
2977.9705,515.6515534698214
2979.045,508.68307338278646
2980.1188,489.8911009879048
2981.192,471.87470998091135
2982.2645,462.88296915863043
2983.3364,435.2149425991396
2984.4077,410.1196897516867
2985.4783,389.0462657133703
2986.5483,354.39372148009255
2987.6177,328.9111041572925
2988.6864,292.0474573064727
2989.7545,273.7018212000243
2990.8219,222.67323318986485
2991.8887,205.46072789089345
2992.9548,175.06333769127747
2994.0204,160.13009292457673
2995.0852,127.160022173718
2996.1495,113.35215242032717
2997.2131,91.70550937443016
2998.276,75.86911761253162
2999.3383,60.44200079408165
3000.4,41.02318181983907
3001.4611,33.36168298614314
3002.5215,22.206526179101616
3003.5812,11.606732951205515
3004.6404,8.511324632880815
3005.6989,4.169322438486347
3006.7567,-1.0202525027318643
3007.8139,-7.6583791032207955
3008.8705,-13.046026083105176
3009.9264,-8.584085655302658
3010.9818,-6.673319702930883
3012.0364,-9.81440435409155
3013.0905,-9.857949070422876
3014.1439,-4.654465267663568
3015.1966,-11.754365880641728
3016.2487,-4.408017346077372
3017.3002,2.3343313254241025
3018.3511,1.822475159350347
3019.4013,13.406209157846149
3020.4509,9.88532830483149
3021.4998,14.209627450164419
3022.5481,22.428901344850146
3023.5958,25.342944597797327
3024.6428,31.15155159362598
3025.6892,37.45451646352683
3026.735,43.20163302717509
3027.7802,55.09269472970118
3028.8247,55.37749458421865
3029.8685,67.10582505291478
3030.9118,80.57747804420183
3031.9544,80.39224479543418
3032.9963,88.24991573819148
3034.0376,96.65028050013109
3035.0783,105.59312782641143
3036.1184,115.72824549568816
3037.1578,120.5554202306862
3038.1966,131.92443759684784
3039.2348,133.78508195406158
3040.2723,135.73713634297178
3041.3092,142.1803824663719
3042.3455,141.76460066968423
3043.3811,137.4895698765274
3044.4161,137.15506759287433
3045.4505,138.06086994980217
3046.4842,141.85675170683777
3047.5173,134.9924862428992
3048.5498,129.56784551833704
3049.5816,133.48260014357732
3050.6128,125.98651943336762
3051.6434,122.17937136762959
3052.6734,122.76092266641979
3053.7027,119.63093882800109
3054.7314,117.38918412302746
3055.7594,109.78542162584341
3056.7868,109.61941323690195
3057.8136,114.04091975880175
3058.8398,107.64970089794764
3059.8653,103.34551522033522
3060.8902,98.42812021546314
3061.9145,99.14727233937506
3062.9381,99.3027270638336
3063.9612,100.34423886912862
3064.9835,94.52156124252292
3066.0053,90.08444666783689
3067.0264,87.23264668367543
3068.0469,86.66591192779887
3069.0668,80.5839921656414
3070.086,82.28663629597807
3071.1046,73.72359241174391
3072.1226,62.09460778300789
3073.1399,59.699428942603106
3074.1567,52.08780180241655
3075.1727,52.25947167734108
3076.1882,42.61418336139144
3077.203,42.251681125987915
3078.2173,33.721708816409034
3079.2308,26.674009855416557
3080.2438,25.858327328555276
3081.2561,15.824404054629866
3082.2678,17.32198259386186
3083.2789,7.5508053482286925
3084.2893,10.91061454648812
3085.2991,7.451152341890065
3086.3083,0.12216077857826235
3087.3169,12.023381826185101
3088.3248,-0.04544376604351896
3089.3321,-2.934575369095313
3090.3388,-2.694271899974865
3091.3449,-1.0247629592788314
3092.3503,-3.5262512318277572
3093.3551,-2.3489291650603263
3094.3593,-4.892953979165384
3095.3629,-2.6584594285294827
3096.3658,-6.99553038692892
3097.3681,-3.954225170130428
3098.3698,-0.684532208552298
3099.3708,-5.486400429903313
3100.3713,-0.8597719234156784
3101.3711,-2.4545339691812416
3102.3702,-1.7205652581704527
3103.3688,-1.8077199605594814
3104.3667,0.28416494192232733
3105.364,1.0552705266678828
3106.3607,2.505775032262278
3107.3568,2.6358566867380375
3108.3522,4.845693693069904
3109.347,12.035464227874144
3110.3412,5.605346419310166
3111.3348,8.355518275182718
3112.3277,9.736157747243155
3113.32,7.047442703687722
3114.3117,16.039550915351157
3115.3028,17.76266008259381
3116.2932,13.566947745380688
3117.2831,16.452591266050206
3118.2723,20.919767871271404
3119.2608,22.56865462318737
3120.2488,17.149428374743636
3121.2361,23.712265753199162
3122.2229,22.157343214318715
3123.209,25.134836976744467
3124.1944,26.444923037545266
3125.1793,26.987777142441445
3126.1635,28.513574772704217
3127.1471,30.422491139727043
3128.1301,31.56470116976768
3129.1125,31.840379484859014
3130.0942,35.69970039138692
3131.0753,32.24283787733351
3132.0558,37.369965573683885
3133.0357,34.7812567889948
3134.015,41.8268844581234
3134.9936,37.557021168114254
3135.9716,42.571839087743115
3136.949,39.621510010215566
3137.9258,43.85620530301882
3138.902,44.27609593742499
3139.8775,45.88135244614416
3140.8524,43.17214491912545
3141.8267,46.59864298750448
3142.8004,48.76101585069544
3143.7735,47.85943224212611
3144.7459,49.14406040761412
3145.7178,54.715068114382746
3146.689,49.572622638214746
3147.6596,49.36689070774216
3148.6295,53.298038555870804
3149.5989,61.316231921837584
3150.5676,55.52163601189908
3151.5357,57.414415419149535
3152.5032,62.794734181466836
3153.4701,57.06275576258471
3154.4364,58.31864299828956
3155.402,60.512558153740244
3156.367,62.34466291090918
3157.3315,60.76511834664322
3158.2952,66.72408491434257
3159.2584,65.57172245975626
3160.221,68.6081901613925
3161.1829,68.58364654204223
3162.1442,75.14824943841454
3163.105,71.55215600138199
3164.065,70.4955226303347
3165.0245,70.6785050091412
3165.9834,73.20125811671481
3166.9416,75.21393622518377
3167.8993,79.11669287466373
3168.8563,74.50968085313099
3169.8127,79.39305215739489
3170.7684,79.51695803916796
3171.7236,83.23154895623225
3172.6782,80.88697457120014
3173.6321,82.28338371436858
3174.5854,83.02092440716471
3175.5381,83.29974384818186
3176.4902,84.36998840580411
3177.4417,84.83180361541804
3178.3926,88.1353341687104
3179.3428,89.48072390904983
3180.2924,92.76811579845162
3181.2415,94.74765190412381
3182.1899,91.16947336559323
3183.1377,93.08372037491017
3184.0848,96.49053221243022
3185.0314,97.4400472276717
3185.9773,98.73240280524755
3186.9227,100.91773535537027
3187.8674,101.09618030092832
3188.8115,98.21787205563277
3189.755,101.38294402223289
3190.6979,101.49152862129921
3191.6402,104.09375725957283
3192.5818,103.13976032887953
3193.5229,108.77966718010751
3194.4633,106.7636061327473
3195.4031,107.44170441849278
3196.3423,108.3140882014017
3197.2809,109.5808825711147
3198.2189,109.69221153413153
3199.1563,112.5481980011431
3200.0931,116.1489637859182
3201.0292,116.34462957674359
3201.9648,114.08531490041636
3202.8997,117.37113812028727
3203.834,119.80221645885383
3204.7677,121.47866596490218
3205.7008,119.85060148919624
3206.6333,121.91813666771323
3207.5652,121.58138393792429
3208.4964,124.24045451811924
3209.4271,120.44545841077395
3210.3571,121.79650437595976
3211.2865,125.84369996929334
3212.2154,126.33715152842635
3213.1436,126.32696413257334
3214.0712,129.31324159757733
3214.9982,128.19608647601166
3215.9246,130.02560002731727
3216.8503,129.35188222897415
3217.7755,133.37503175820626
3218.7001,132.44514599871877
3219.624,136.41232100046642
3220.5473,135.72665148895254
3221.4701,143.43823082555713
3222.3922,137.84715101439366
3223.3137,140.85350262519327
3224.2346,140.75737484921555
3225.1549,140.70885546918498
3226.0746,141.30803086025233
3226.9937,140.65498599047967
3227.9121,144.3498044148488
3228.83,148.94256828179147
3229.7473,147.58335829624156
3230.6639,145.82225367370708
3231.5799,150.15933215386258
3232.4954,150.09467001815992
3233.4102,157.0783420464576
3234.3244,154.06042151766746
3235.238,153.6409801399178
3236.151,157.42008808073268
3237.0634,157.69781397122645
3237.9752,155.97422486831243
3238.8864,155.14938625192576
3239.797,158.17336204225919
3240.7069,158.04621460801164
3241.6163,159.21800473614834
3242.5251,162.43879163317231
3243.4332,162.5586329134065
3244.3408,159.17758456678592
3245.2477,164.3457009576591
3246.154,162.56303485859866
3247.0598,165.8296373987201
3247.9649,168.49555808150865
3248.8694,165.61084475215299
3249.7733,168.4255435708862
3250.6766,167.9396990418327
3251.5793,173.1033539848617
3252.4814,170.26654954044525
3253.3829,170.57932511802173
3254.2838,172.8917184243641
3255.1841,174.9037654604519
3256.0838,172.76550049834742
3256.9829,175.87695606107525
3257.8814,177.28816294400494
3258.7792,178.5491501837364
3259.6765,177.10994504398786
3260.5731,178.22057300298587
3261.4692,179.63105776785767
3262.3647,179.44142126352455
3263.2595,180.00168361859733
3264.1538,184.81186316727246
3265.0474,181.62197644372955
3265.9404,182.4320381340293
3266.8329,185.79206110801275
3267.7247,183.10205641120038
3268.616,181.112033231192
3269.5066,183.12199892456684
3270.3966,184.73195903678365
3271.286,186.69191728208128
