RamanShift,CorrectedData
30.1047,1611.5701745484143
32.3739,1500.3134499688583
34.6426,1382.2567092736003
36.9109,1269.949921343804
39.1787,1158.0930412380656
41.4461,1042.4860113154812
43.7131,931.028762354217
45.9796,815.6712147075775
48.2456,701.8132794185798
50.5112,588.6548593735287
52.7764,478.2458504405955
55.0411,365.18614260140333
57.3054,250.52562105511618
59.5692,141.71416734903673
61.8326,33.55166052521153
64.0955,-72.51202179145466
66.3579,-178.92700231157355
68.6199,-279.44267935065926
70.8815,-367.8066637434731
73.1426,-397.0137746924098
75.4032,-301.30515701129343
77.6634,119.33201065366052
79.9231,1334.5135596947548
82.1824,4104.555320310972
84.4412,9269.623109356162
86.6995,16570.18270263862
88.9574,23829.94978327041
91.2148,28859.339868661773
93.4717,31090.21823792345
95.7282,31451.399881572783
97.9842,31200.74947922493
100.2398,30414.931395981053
102.4949,29524.059684934833
104.7495,28462.498095030613
107.0036,27458.96007997216
109.2573,26489.95880883825
111.5105,25597.857176118072
113.7632,24804.167811401217
116.0154,24143.65308829871
118.2672,23641.9751323799
120.5185,23061.395827777604
122.7693,22615.026822204894
125.0197,22286.27953276088
127.2696,21901.9151503944
129.519,21590.39464319151
131.7679,21227.37876021911
134.0163,20866.478034640157
136.2642,20411.752787343812
138.5117,19957.263130554467
140.7587,19483.11897237899
143.0052,19057.280021351624
145.2512,18593.605791175414
147.4967,18196.605604980614
149.7417,17850.388599961414
151.9863,17519.41373134596
154.2304,17333.789775858517
156.4739,17023.275335029193
158.717,16859.97883705022
160.9596,16572.158539881075
163.2017,16181.772532881441
165.4433,15754.378739689433
167.6844,15310.13492212542
169.925,14840.548684466
172.1651,14341.427477886431
174.4047,13958.878605156457
176.6439,13593.259225631582
178.8825,13238.176359078498
181.1206,12988.886889331327
183.3582,12716.797567842417
185.5954,12507.565016175256
187.832,12310.345728725359
190.0681,12185.146074812581
192.3037,12101.07230065334
194.5388,11939.63053061258
196.7734,11843.276768044529
199.0075,11798.566896907103
201.2411,11851.156682725468
203.4742,11813.801773039117
205.7068,11894.807696875978
207.9389,11911.129865125962
210.1704,11973.523569730922
212.4015,11989.89398352139
214.632,12048.596159592678
216.862,12085.235031141166
219.0915,12092.165410877267
221.3205,12155.441990659061
223.549,12177.419341422961
225.777,12229.001912550983
228.0044,12282.54403165095
230.2314,12436.949904040666
232.4578,12536.473612212505
234.6837,12644.11911428934
236.909,12670.090243029315
239.1339,12535.040704749397
241.3582,12356.774079065643
243.582,12081.193820243714
245.8053,11852.203258981532
248.0281,11636.605605165098
250.2503,11478.203950158362
252.472,11401.651268959247
254.6932,11414.400421783625
256.9139,11359.404154830865
259.134,11439.51510015633
261.3536,11516.28577622135
263.5727,11680.968587092106
265.7912,11788.515821671928
268.0092,11934.47965205447
270.2267,12002.562132448214
272.4436,11989.415197716873
274.6601,11865.240662698528
276.8759,11718.390222337124
279.0913,11521.115452924198
281.3061,11328.467813567391
283.5204,11224.0486481632
285.7341,11109.759187323445
287.9473,11075.500549419463
290.16,11097.773741724994
292.3721,11192.279660758795
294.5837,11362.369092061888
296.7947,11526.992709252494
299.0052,11668.35107232515
301.2152,11510.094626004473
303.4246,11263.773698331574
305.6334,10746.13850224662
307.8418,10184.58913805205
310.0495,9642.975598588919
312.2568,9182.5477748524
314.4635,8697.90546140791
316.6696,8414.198360995395
318.8752,8122.726089375747
321.0802,8022.288178167884
323.2847,7971.5840777634585
325.4887,7942.313158331261
327.692,7833.674710324238
329.8949,7744.567944772212
332.0972,7435.491994368271
334.2989,7139.495914359826
336.5001,6778.828685639375
338.7007,6518.339217704468
340.9008,6323.976352264373
343.1003,6116.138865844981
345.2992,5960.3754717324155
347.4976,5790.634822051423
349.6955,5643.165509322995
351.8927,5590.616068161789
354.0895,5435.584976750797
356.2856,5365.970657366874
358.4812,5257.57147793102
360.6763,5241.335752704543
362.8707,5138.761743373039
365.0646,5157.047659208758
367.258,5126.6416580963305
369.4508,5097.891846349927
371.643,5188.196279017287
373.8346,5150.15296016725
376.0257,5146.809841986698
378.2162,5089.814825160993
380.4062,5018.11575890741
382.5956,4835.760441545066
384.7844,4668.996621211942
386.9726,4466.821997688414
389.1603,4330.884224064905
391.3474,4190.980908763622
393.5339,4141.909616897941
395.7199,4037.517871671427
397.9052,4048.6531548685707
400.09,4027.16290789867
402.2743,4098.794531684511
404.4579,4212.295386877258
406.641,4404.71279314013
408.8235,4495.344028013398
411.0054,4649.886324990228
413.1868,4896.686872610337
415.3675,4957.692812914596
417.5477,4977.80123897701
419.7273,4958.309194294663
421.9064,4797.113672586631
424.0848,4683.2116179889035
426.2627,4428.299926666345
428.4399,4133.725447951701
430.6166,3754.284986894727
432.7928,3386.4253072079373
434.9683,3002.093135061001
437.1432,2736.035162759341
439.3176,2499.2480525874525
441.4914,2345.5284394694863
443.6645,2258.3229333371237
445.8371,2188.92812066676
448.0091,2052.740565351569
450.1806,2002.6568093954447
452.3514,1918.8233742748907
454.5216,1958.5367614398456
456.6913,1889.7934531520186
458.8603,1892.5899120877602
461.0288,1919.3225820254938
463.1967,1888.8878878177493
465.3639,1894.9322351238388
467.5306,1841.4520107141998
469.6967,1892.5935824099597
471.8622,1887.3032996177244
474.0271,1960.1774928181694
476.1914,1957.3124736189366
478.3551,1927.3545340259006
480.5182,1947.2999464718087
482.6807,2021.3949641158724
484.8426,2203.435820644314
487.0039,2460.8187295294047
489.1647,2838.3398822090785
491.3248,3173.145445513077
493.4843,3330.481557887764
495.6432,3270.14432604805
497.8015,3089.8298234040412
499.9592,2984.9340906644047
502.1163,2815.803137639521
504.2728,2476.8829442904353
506.4287,2152.919462420168
508.5839,1749.8586190629285
510.7386,1523.7963197237204
512.8927,1405.0284524089857
515.0461,1325.8508898872024
517.199,1332.709490876563
519.3512,1442.750100836758
521.5029,1668.2185519003906
523.6539,1870.2106617725694
525.8043,1949.5722314762243
527.9541,1878.549043332183
530.1033,1704.7368601655671
532.2519,1623.981426016011
534.3999,1568.9784678757842
536.5472,1676.623696497356
538.694,1948.562806943406
540.8401,2278.8414775103865
542.9856,2574.705367009128
545.1305,2610.350111462054
547.2748,2530.721321144545
549.4185,2296.11458022847
551.5615,2033.8754475785026
553.704,1989.1994590981667
555.8458,1997.532130352245
557.987,2142.318957013522
560.1276,2320.7554147794763
562.2675,2625.786957924396
564.4069,3042.0090175150162
566.5456,3379.5169983602063
568.6837,3514.106274848762
570.8212,3124.172187574304
572.958,2486.110041989392
575.0942,1897.1151123048785
577.2299,1444.6826478705061
579.3648,1301.1578790648782
581.4992,1245.3360218197795
583.6329,1346.9122790554175
585.766,1530.2818412386496
587.8985,1713.8398853672225
590.0304,1705.3815731360646
592.1616,1682.2520491017112
594.2922,1532.8464407668853
596.4222,1306.1098588118002
598.5515,1107.4373985882103
600.6802,952.0241423867737
602.8083,780.0651614237813
604.9358,729.5055173952842
607.0626,729.440264196699
609.1888,792.1644484283825
611.3144,953.5231093963012
613.4393,994.8112784847817
615.5636,1069.1739775429287
617.6873,1010.7562184717317
619.8103,1015.8030024804575
621.9327,807.2093206708159
624.0544,629.5201539864975
626.1756,504.0304752991069
628.2961,350.9352511850557
630.4159,274.77944318044865
632.5351,274.3080093120534
634.6537,223.01590485884117
636.7716,232.29808235672317
638.8889,253.9994921114485
641.0056,294.01508210581414
643.1216,263.6897977826193
645.237,273.5685816445184
647.3518,196.24637355726918
649.4659,158.76811065094262
651.5793,106.52872809314613
653.6922,94.12315946381932
655.8043,68.29633727761393
657.9159,80.19319310796163
660.0268,13.50797624788538
662.137,39.08493518847354
664.2466,44.268183476131526
666.3556,61.20144419875214
668.4639,0.7779982050760736
670.5716,7.141125731834109
672.6786,-4.715900756453266
674.785,-47.74988013512666
676.8907,-26.36756416768003
678.9958,19.374772403691168
681.1002,-9.628881751250447
683.204,2.3652684832686646
685.3072,-23.34888558444254
687.4097,-60.527476275119625
689.5115,-89.12640265414302
691.6127,-86.90095911741082
693.7132,-79.85554968806719
695.8131,-86.14371024867978
697.9123,-60.06817892487925
700.0109,-61.880833266634
702.1089,-35.582950742820685
704.2061,6.624809367216585
706.3028,54.742143257788484
708.3987,99.21868094136335
710.4941,158.75405188298282
712.5887,259.2978845555135
714.6827,387.5498058442845
716.7761,589.2594400416456
718.8688,847.0764075644674
720.9608,995.5003229370304
723.0522,1148.030792212854
725.1429,1177.5174114904657
727.233,1161.509765388093
729.3224,1161.7574267487944
731.4112,1017.6599568005349
733.4993,856.9169051537192
735.5867,661.8278112421485
737.6735,456.54220593046557
739.7596,307.45961346503645
741.845,208.3295535268171
743.9298,113.75154272217696
746.014,82.6750955741918
748.0974,32.09972546843528
750.1802,94.6249449637271
752.2624,154.40026629790373
754.3439,188.77520076254223
756.4247,281.8992581052371
758.5048,438.42194618583017
760.5843,765.942770045187
762.6631,1165.811230339954
764.7413,1743.776820067369
766.8188,2464.639020566554
768.8956,3049.497295738871
770.9718,3439.8010848393005
773.0473,3390.499796627859
775.1221,3128.3928054665557
777.1962,2833.679451812408
779.2697,2677.609044838511
781.3426,2753.8808653811648
783.4147,2933.5941675005906
785.4862,3067.0481777181976
787.557,2931.592093219462
789.6271,2507.1750805193788
791.6966,1880.396276817035
793.7654,1263.1547942397683
795.8335,871.4497261109664
797.901,583.1801531224719
799.9678,408.7951472516379
802.0339,356.34377464402314
804.0993,329.27509735724016
806.1641,334.33817388546777
808.2282,279.13205943015055
810.2916,181.6558058493465
812.3544,124.1084622098042
814.4164,47.23907576172496
816.4778,88.5466925142282
818.5385,154.23035800404432
820.5986,295.78911688244807
822.658,505.27201225841236
824.7166,811.978084283026
826.7747,1281.4063680546587
828.832,1793.2058905519116
830.8886,2144.825665939323
832.9446,2297.064690449375
834.9999,2217.5719388663
837.0545,2014.9963630036837
839.1085,1777.2868924993963
841.1618,1517.242436841345
843.2143,1291.8118877445813
845.2662,1099.4941217517262
847.3175,996.2880024872884
849.368,890.4423825808462
851.4179,810.7061046990893
853.467,676.6780026042998
855.5155,624.0069019516959
857.5633,583.1416216297221
859.6105,451.530974286763
861.6569,385.423766739792
863.7027,306.91880129047786
865.7478,291.8648763862493
867.7922,290.3107874053567
869.8359,293.90532680740216
871.8789,358.79728414889905
873.9212,448.03544604730814
875.9629,578.3685955321289
878.0039,723.8455111525163
880.0441,843.3649656739399
882.0837,921.4757246234167
884.1226,913.876545094321
886.1609,967.8661749652674
888.1984,1023.8933529761143
890.2352,1137.3068081880629
892.2714,1144.7052594233883
894.3069,1114.6374141313026
896.3416,956.8019683139682
898.3757,867.3476068271739
900.4091,791.2730049586935
902.4418,805.6768293228324
904.4739,854.6077386211728
906.5052,911.0643834985349
908.5358,861.8954060536616
910.5658,751.9994392746685
912.595,576.3251075307162
914.6236,347.4210276709746
916.6515,276.9358107813714
918.6786,180.61806447362324
920.7051,214.61639359010223
922.7309,267.4294011669954
924.756,300.50568809433753
926.7804,424.8938525878657
928.8041,403.19248985826925
930.8272,477.800190867305
932.8495,424.21554254480907
934.8711,446.83712704262143
936.892,378.66352227043535
938.9123,340.14330166958825
940.9318,357.37503489477785
942.9506,319.60728819928045
944.9688,269.7386242626253
946.9862,212.36760256827256
949.003,88.39277990230767
951.019,9.912710927143053
953.0344,-25.774050578727838
955.0491,-23.06895093593812
957.063,43.176821017646944
959.0763,147.8123069029716
961.0888,186.38654790921282
963.1007,267.44858374742944
965.1119,320.2474522648208
967.1223,318.43218863410584
969.1321,318.9018248255343
971.1412,337.0553896250294
973.1495,325.6919086295002
975.1572,354.260404065315
977.1641,426.60989490192514
979.1704,383.7893965661915
981.1759,383.0479202188708
983.1808,417.88447318283215
985.1849,453.94805895046557
987.1884,545.1876768353268
989.1911,710.1523216114911
991.1932,802.7409826011681
993.1945,835.9526420250386
995.1951,802.2362740763783
997.1951,768.0408445889425
999.1943,743.1653113741213
1001.1928,761.3586245629067
1003.1906,778.0697268546373
1005.1877,926.1975533350724
1007.1841,1009.8910313092802
1009.1798,1029.5490788203642
1011.1748,917.5206038125198
1013.1691,773.5045039344641
1015.1627,565.7996676597104
1017.1556,362.4049757267294
1019.1477,258.869303215999
1021.1392,158.94152158394718
1023.1299,140.97049969831278
1025.12,134.20510483741964
1027.1093,209.79420286989625
1029.0979,355.4366583223182
1031.0859,442.3313336233259
1033.0731,493.12708764719537
1035.0596,471.07277484488986
1037.0454,331.61724473610593
1039.0304,237.70934212981774
1041.0148,143.697908518825
1042.9985,41.931783018844726
1044.9814,-26.890196691385427
1046.9636,-79.71919335243001
1048.9452,-79.40610107180146
1050.926,-51.8010175622785
1052.9061,17.696752730311346
1054.8855,27.68842285229948
1056.8642,84.62520567305728
1058.8421,143.85831378507646
1060.8194,204.43895893460285
1062.7959,257.16835142929995
1064.7717,297.09769953245086
1066.7469,385.87820893566095
1068.7213,452.761082359566
1070.695,540.1475186660191
1072.6679,569.0387121892763
1074.6402,565.1858518621193
1076.6117,520.940120926949
1078.5826,467.5526969743205
1080.5527,382.22475238538755
1082.5221,340.85745486577616
1084.4908,379.9019682988801
1086.4587,425.05945315951794
1088.426,505.0310661234944
1090.3925,525.1179596160291
1092.3584,555.521281012032
1094.3235,509.4421724352378
1096.2879,557.2817704541776
1098.2515,684.9412065429606
1100.2145,863.8716066028828
1102.1767,1033.4740896858348
1104.1382,1258.3497662049904
1106.099,1527.9497362387883
1108.0591,1763.3750872821693
1110.0185,1927.7268915505883
1111.9771,2042.906203625742
1113.9351,1931.8140588120696
1115.8923,1775.2014719849467
1117.8488,1605.9194387016087
1119.8045,1412.9689367672927
1121.7596,1260.7009279280355
1123.7139,1146.9163598001905
1125.6675,1129.2661673931088
1127.6204,1136.8012742469764
1129.5726,1103.372592609323
1131.524,1063.9810233596745
1133.4748,943.2274563438241
1135.4248,801.7127707677646
1137.3741,678.137836405218
1139.3226,596.7035150127867
1141.2705,535.2606615656969
1143.2176,417.4601250721389
1145.164,401.0027491877081
1147.1097,377.88937339340373
1149.0546,304.02083316020435
1150.9989,209.04796018019442
1152.9424,109.47158310524901
1154.8852,-11.607471503231864
1156.8272,-56.28837817855674
1158.7686,-58.72019549539618
1160.7092,-29.051419707526293
1162.6491,8.920039546021144
1164.5883,118.24656284990124
1166.5267,247.7305306995695
1168.4644,423.97432240801936
1170.4014,602.1803148109393
1172.3377,889.9008805042831
1174.2732,1214.438386062202
1176.2081,1610.5451891598404
1178.1421,2044.6236353279655
1180.0755,2582.326053991901
1182.0082,2911.004754130734
1183.9401,3087.9620189002944
1185.8713,3002.2501023463756
1187.8017,2675.921227635148
1189.7315,2299.177587910286
1191.6605,1906.8713495562497
1193.5888,1647.4046559657181
1195.5163,1468.129631462667
1197.4432,1390.0483838970267
1199.3693,1361.2630064374353
1201.2947,1322.3755783520573
1203.2193,1335.4881652964286
1205.1432,1333.2028197023374
1207.0664,1314.3215806466887
1208.9889,1297.4964738743602
1210.9106,1294.8295119870209
1212.8316,1312.272694611378
1214.7519,1352.0780084258458
1216.6715,1415.097426986119
1218.5903,1464.1329103271137
1220.5084,1553.8364043327756
1222.4257,1666.509840245726
1224.3424,1702.5051337702253
1226.2583,1819.3241839454386
1228.1735,1980.6688727854762
1230.0879,2138.2410641112156
1232.0016,2284.2426019368377
1233.9146,2420.52530889413
1235.8269,2433.390984772458
1237.7384,2373.641405155935
1239.6492,2203.6783212947685
1241.5592,2183.503460702763
1243.4686,2181.26852885694
1245.3772,2326.5252093992967
1247.285,2512.97516415915
1249.1922,2663.2700317005665
1251.0986,2796.861425457869
1253.0042,2851.3009322326807
1254.9092,2992.340110858023
1256.8134,3082.930491653905
1258.7169,3254.2735750169395
1260.6196,3421.2708305144406
1262.5216,3671.173695170988
1264.4229,3876.9335717984577
1266.3234,4109.40182649699
1268.2232,4219.679786597401
1270.1223,4267.7687383364855
1272.0207,4342.369925754245
1273.9183,4313.134550213
1275.8151,4267.713769651372
1277.7113,4275.558698876639
1279.6067,4281.920410018952
1281.5014,4471.549932452866
1283.3953,4809.69825273375
1285.2885,5256.816312701466
1287.181,5698.3050060989035
1289.0727,6146.015174100792
1290.9637,6441.547600898813
1292.854,6657.903009224501
1294.7435,6670.232057393925
1296.6323,6653.785337144129
1298.5204,6571.113373509839
1300.4077,6455.166624987938
1302.2943,6279.445484364172
1304.1802,6055.150279872635
1306.0653,5633.981276952963
1307.9497,5191.938680493305
1309.8333,4857.272639041988
1311.7162,4579.4832492279675
1313.5984,4440.270559107467
1315.4798,4359.284570941888
1317.3605,4277.72524258993
1319.2405,4266.842488317452
1321.1197,4064.486179613068
1322.9982,3807.106145296968
1324.876,3561.1021735444856
1326.753,3336.274014459893
1328.6293,3136.321382536442
1330.5048,3048.093958904651
1332.3796,2903.391393331819
1334.2537,2814.963305104311
1336.127,2775.6092844745863
1337.9996,2746.0788935454666
1339.8714,2747.671666663693
1341.7426,2779.7871107152187
1343.6129,2821.8747051092796
1345.4826,2828.2839014572473
1347.3515,2840.864123151744
1349.2196,2818.814765302559
1351.087,2854.335194610838
1352.9537,2943.1247495895823
1354.8197,3091.43274020844
1356.6849,3258.4084470058197
1358.5493,3441.751119605804
1360.4131,3638.2099750483976
1362.276,3796.9841959560936
1364.1383,3776.422928569289
1365.9998,3620.4752811585367
1367.8606,3284.1403242301667
1369.7206,2920.9670920857598
1371.5799,2597.754586185494
1373.4384,2344.9017787798766
1375.2962,2111.4576161418818
1377.1533,1827.8710210954641
1379.0096,1480.240895350008
1380.8652,1165.666122336189
1382.7201,872.3455706822751
1384.5742,616.6280973598823
1386.4275,448.06255061717184
1388.2802,307.59777253602715
1390.132,225.73260071770528
1391.9832,169.26586968749052
1393.8336,109.49641171334315
1395.6832,93.77305737056759
1397.5322,53.64463613951011
1399.3803,53.95997656279178
1401.2278,49.51790664658802
1403.0745,48.11725385748014
1404.9204,32.90684516687088
1406.7656,74.635507064997
1408.6101,106.1020657130257
1410.4538,145.1553465257739
1412.2968,235.1441738570402
1414.139,322.917370609076
1415.9805,407.3237573326951
1417.8213,518.1621513495365
1419.6613,646.1313659080051
1421.5006,815.3302090748857
1423.3391,1043.3074824556552
1425.1769,1349.8119795024932
1427.0139,1818.242483234504
1428.8502,2393.8477631726773
1430.6858,2983.4265706555725
1432.5206,3394.827633083284
1434.3547,3660.5996480216463
1436.188,3727.641279088215
1438.0206,3660.451153294558
1439.8524,3492.6778603758275
1441.6835,3361.919953462675
1443.5139,3310.4759507589742
1445.3435,3267.894336849403
1447.1724,3240.0735632138794
1449.0005,3192.1620486533893
1450.8279,3157.55817956818
1452.6545,3150.9103104368887
1454.4804,3187.86676416257
1456.3056,3221.9758321391764
1458.13,3170.8357738819986
1459.9536,3023.444816686577
1461.7766,2751.451156140087
1463.5987,2422.1029575952653
1465.4202,2119.4483588903413
1467.2409,1774.6354736425146
1469.0608,1489.7623942745022
1470.88,1212.627195462669
1472.6984,1035.5779369857564
1474.5161,834.962666496237
1476.3331,684.4794212908037
1478.1493,596.4762303165289
1479.9648,511.6011156756922
1481.7795,464.102093505815
1483.5935,402.6271748284116
1485.4067,378.82436602397956
1487.2192,363.34166944674416
1489.031,326.17708366268926
1490.842,319.228603604387
1492.6522,262.444220942637
1494.4618,241.5219241559571
1496.2705,229.70969909842643
1498.0785,210.5055292089055
1499.8858,212.50739562915896
1501.6924,180.26327739590124
1503.4981,162.37115142078073
1505.3032,150.92899281280825
1507.1075,128.93477505729152
1508.911,95.28647013024693
1510.7138,78.43204871834405
1512.5159,59.81948055539124
1514.3172,36.24673459087535
1516.1178,35.61177917609257
1517.9176,31.612582299871974
1519.7166,-13.902888405074918
1521.515,-23.98666562215749
1523.3126,-9.690643144935166
1525.1094,-17.41647514017768
1526.9055,-22.46571896513069
1528.7008,-25.939757986457153
1530.4954,-52.639751138287465
1532.2893,-45.16659821657595
1534.0824,-59.5706731461587
1535.8747,-23.051898637559134
1537.6663,-14.809602290277326
1539.4572,-14.292881415347438
1541.2473,15.149314624117324
1543.0367,28.818179250888534
1544.8253,39.86490573624815
1546.6132,86.44068706330017
1548.4003,102.59671581649854
1550.1867,184.63418371589705
1551.9723,255.65428145558053
1553.7572,362.958197883293
1555.5414,483.1471192902436
1557.3247,609.4722283380579
1559.1074,787.0847028568933
1560.8893,964.4357145821932
1562.6705,1123.7264273785513
1564.4509,1301.807995466207
1566.2305,1364.0815618281358
1568.0094,1449.5482564292315
1569.7876,1465.7091955935803
1571.565,1466.4154811497847
1573.3417,1466.768200269359
1575.1176,1465.9184254596667
1576.8928,1486.3672145603932
1578.6672,1489.3656107520455
1580.4409,1496.6646423514521
1582.2138,1504.765322781791
1583.986,1533.2186504996007
1585.7575,1615.2256089137645
1587.5282,1682.6871661009845
1589.2981,1783.254273985708
1591.0673,1860.2278676655133
1592.8358,1975.7088644054365
1594.6035,2080.998162868238
1596.3704,2182.9966419595876
1598.1366,2283.955159775177
1599.9021,2379.1745525807373
1601.6668,2477.255633802448
1603.4308,2620.849193074744
1605.194,2793.7559952595093
1606.9564,3014.3267790101345
1608.7182,3243.862255042457
1610.4791,3570.463103929048
1612.2394,3901.2299738038564
1613.9988,4222.063477096202
1615.7576,4502.864187223113
1617.5156,4743.4326353809765
1619.2728,4871.019307737544
1621.0293,4859.724643026243
1622.785,4723.699031270306
1624.54,4449.842813895721
1626.2942,4151.806285091491
1628.0477,3774.189694548184
1629.8005,3438.693250438313
1631.5525,3171.9171231924975
1633.3037,2908.761448854425
1635.0542,2740.1763317486148
1636.804,2539.1618471119727
1638.553,2435.0680427796433
1640.3013,2391.7449411951557
1642.0488,2374.142540451362
1643.7955,2419.2108147236668
1645.5416,2496.3997144460527
1647.2868,2599.359165860391
1649.0313,2722.389070244562
1650.7751,2903.2393028828556
1652.5181,3076.359711835671
1654.2604,3258.600116131021
1656.0019,3499.4603040333195
1657.7427,3788.340031220984
1659.4828,4058.289018377832
1661.222,4245.556948304279
1662.9606,4254.5934632178605
1664.6984,4050.098162880541
1666.4354,3642.3206045083534
1668.1717,3085.360304816353
1669.9072,2525.216744096394
1671.642,2041.0393717867241
1673.3761,1675.077612073428
1675.1094,1347.1808687321977
1676.8419,1130.4985287879513
1678.5737,956.5799657937982
1680.3048,798.0745419978671
1682.0351,681.4816100824823
1683.7646,580.3505147492265
1685.4934,515.7805938848692
1687.2215,456.0711795726752
1688.9488,405.8715987381047
1690.6754,365.1311737459123
1692.4012,333.34922290213626
1694.1263,308.3750608615046
1695.8506,285.6579989452548
1697.5742,268.7973453908744
1699.297,213.94240557927333
1701.0191,187.09248220338804
1702.7404,182.99687581673015
1704.461,153.30488510188843
1706.1808,145.16580691148647
1707.8999,118.12893656509777
1709.6182,111.09356793064171
1711.3358,97.00899369474882
1713.0527,89.87450543311661
1714.7688,81.38939375135442
1716.4841,75.9529483563283
1718.1987,60.36445814100989
1719.9126,70.9232112388454
1721.6257,59.82849517963541
1723.338,66.97959678395227
1725.0496,48.62580227408762
1726.7605,41.016397202535245
1728.4706,63.60066663553698
1730.18,49.87789522917046
1731.8886,50.397367003511135
1733.5964,55.60836547985673
1735.3036,53.46017367553168
1737.0099,52.252074051780255
1738.7156,19.48334853524466
1740.4204,10.85327853004992
1742.1246,18.161145245489024
1743.8279,9.656229782323862
1745.5306,-12.962186940293122
1747.2325,-19.694824099768994
1748.9336,-23.392271381265346
1750.634,-5.10492171865144
1752.3336,3.4670656429893825
1754.0325,-11.626417543256139
1755.7307,-11.535479558974203
1757.4281,1.0398874621614596
1759.1247,2.149806625915062
1760.8206,12.894401027654112
1762.5158,1.723793741247846
1764.2102,7.688107711622706
1765.9039,-11.412534133531608
1767.5968,-3.4780089434057118
1769.289,-0.5080798559752111
1770.9804,-3.9024752639074904
1772.6711,5.98908151584601
1774.361,-4.683093847937471
1776.0502,25.731314253629535
1777.7386,23.382668213540455
1779.4263,18.171330167478573
1781.1132,22.897662017300263
1782.7994,34.4620254831525
1784.4849,32.764782056204695
1786.1696,28.906292883008064
1787.8535,22.386918782468
1789.5367,22.60702028442438
1791.2192,37.41695769485068
1792.9009,27.617091093649833
1794.5818,42.257780186554555
1796.2621,41.63938440313086
1797.9415,49.41226275036661
1799.6202,54.72677381885751
1801.2982,46.98327570507536
1802.9755,55.6821259582257
1804.6519,62.723681657682846
1806.3277,52.45829932600509
1808.0027,58.5363348585156
1809.6769,59.70814362595502
1811.3504,63.32408041370263
1813.0231,65.43449941005883
1814.6951,77.03975417008314
1816.3664,71.54019759449193
1818.0369,67.63618181360334
1819.7067,81.87805824233646
1821.3757,72.01617761924808
1823.044,87.15088986411592
1824.7115,84.13254417655753
1826.3783,92.86148888468506
1828.0443,83.08807147528478
1829.7096,100.91263850653195
1831.3741,104.03553570572012
1833.0379,104.85710779101919
1834.701,103.12769844024251
1836.3633,112.197650282636
1838.0248,113.81730491616781
1839.6856,126.3370028168315
1841.3457,116.3570833224494
1843.005,116.17788450747503
1844.6636,123.39974328279004
1846.3214,126.77299539749856
1847.9785,150.89797536670676
1849.6349,149.97501643779287
1851.2904,145.9044503491582
1852.9453,134.88660733945244
1854.5994,142.5718161882828
1856.2528,156.96040432638938
1857.9054,155.9526977587966
1859.5572,154.19902092092525
1861.2083,157.44969668866997
1862.8587,160.5550463959371
1864.5084,158.4653898021361
1866.1572,164.03104506112868
1867.8054,166.00232874212088
1869.4528,169.12955577401135
1871.0994,170.76303942567665
1872.7453,161.50309127469882
1874.3905,160.00002119103146
1876.0349,156.85413742959736
1877.6786,177.51574664532245
1879.3215,189.98515392459058
1880.9637,172.112662578631
1882.6051,180.64857401882136
1884.2458,177.0931879354157
1885.8858,179.39680221218305
1887.525,188.15971296196312
1889.1634,174.73221450362598
1890.8011,180.1145992744482
1892.4381,178.45715796438344
1894.0743,178.11017946224183
1895.7098,176.8739508722624
1897.3446,184.39875751758382
1898.9786,185.4848829526086
1900.6118,203.18260888775058
1902.2443,182.9422151785766
1903.8761,178.51397964882608
1905.5071,158.04817829282
1907.1374,175.49508531973743
1908.7669,170.4549733582794
1910.3957,182.57811328219623
1912.0237,181.31477426068886
1913.651,182.11522363718132
1915.2776,182.62972694194787
1916.9034,194.00854788411334
1918.5285,168.90194834650583
1920.1528,173.81018827186972
1921.7764,167.33352591393032
1923.3992,183.52221778831472
1925.0213,176.02651873731338
1926.6427,164.04668176799896
1928.2633,159.03295812718034
1929.8832,174.8355974211995
1931.5023,161.75484766606996
1933.1207,166.29095512945105
1934.7383,179.24416446145324
1936.3552,164.81471864927926
1937.9714,166.85285888769067
1939.5868,155.30882472330404
1941.2015,172.08285403420678
1942.8154,169.0751831454004
1944.4286,144.4860466610562
1946.041,140.9156774945959
1947.6528,140.36430711458252
1949.2637,153.7821655804214
1950.8739,137.76948154787578
1952.4834,137.77648213488828
1954.0921,142.25339308170896
1955.7001,145.75043875082292
1957.3074,152.0178420821817
1958.9139,149.6558245582355
1960.5197,147.21460614125635
1962.1247,136.84440529695848
1963.729,122.14543901891102
1965.3325,119.21792293224007
1966.9353,134.36207144061746
1968.5374,138.27809775553715
1970.1387,132.9662137448713
1971.7393,136.92662989371183
1973.3392,130.4595553574909
1974.9383,134.41519792237432
1976.5366,106.44376406993342
1978.1342,127.09545893758832
1979.7311,125.62048659832317
1981.3273,123.31904985416895
1982.9227,118.44135025095193
1984.5173,122.3375881013094
1986.1112,118.30796253346443
1987.7044,127.95267145226853
1989.2968,116.17191157949333
1990.8885,121.81587835738515
1992.4795,129.784766066472
1994.0697,120.3287677691244
1995.6592,130.14807522986575
1997.2479,114.69287900993413
1998.8359,121.26336836908604
2000.4232,119.709731420151
2002.0097,110.88215506332563
2003.5955,115.9308250017109
2005.1805,109.45592582958625
2006.7648,116.55764098192412
2008.3484,104.53615279913924
2009.9312,127.89164245606958
2011.5133,122.0742900821931
2013.0946,119.28427452807114
2014.6752,122.72177342352347
2016.2551,110.13696320552731
2017.8342,119.23001908384504
2019.4126,106.8011151668693
2020.9902,114.25042437069396
2022.5672,109.02811854340189
2024.1433,113.23436839057331
2025.7188,124.61934352750768
2027.2935,127.53321243716186
2028.8674,111.42614235630049
2030.4406,109.79829924635669
2032.0131,110.99984795450268
2033.5849,95.88095222992797
2035.1559,112.79177471182447
2036.7261,119.88247708057611
2038.2957,108.80321988864875
2039.8645,121.20416248968468
2041.4325,118.43546314929426
2042.9998,110.59727892104706
2044.5664,116.53976567415725
2046.1323,108.86307817186821
2047.6974,108.66737001202591
2049.2617,107.90279370384565
2050.8254,106.2195006698696
2052.3883,119.96764125361278
2053.9504,108.54736473639628
2055.5118,125.85881919986582
2057.0725,111.90215164019378
2058.6325,104.67750779496646
2060.1917,110.38503228274931
2061.7502,108.47486867533371
2063.3079,105.19715944066093
2064.8649,111.40204596192439
2066.4212,112.68966857034684
2067.9767,110.3101664831313
2069.5315,106.31367779058496
2071.0856,102.1003394799136
2072.6389,93.77028747518648
2074.1915,100.17365667946933
2075.7433,98.51058105812695
2077.2945,97.48119357478686
2078.8448,98.28562620797197
2080.3945,97.52400996139409
2081.9434,95.44647485591031
2083.4916,92.25314993713755
2085.039,88.19416329622891
2086.5857,81.71964210180795
2088.1317,86.77971264055759
2089.677,90.22450038196575
2091.2215,97.45412992772458
2092.7652,81.61872497728132
2094.3083,86.46840825554364
2095.8506,92.40330167123284
2097.3921,83.62352626838697
2098.933,98.82920216701245
2100.4731,85.17044865088292
2102.0124,100.6973840154792
2103.5511,103.0601257045796
2105.089,85.70879015498872
2106.6261,111.64349277291171
2108.1626,105.16434810746591
2109.6983,98.97146959133352
2111.2332,94.01496960555505
2112.7675,97.24495954145596
2114.301,105.51154985021367
2115.8337,103.86485001055576
2117.3657,105.90496844609493
2118.897,100.63201254179603
2120.4276,101.44608862357563
2121.9575,101.09730201103025
2123.4866,100.38575700929641
2125.0149,104.41155691253857
2126.5426,94.9748040110644
2128.0695,99.32559955106672
2129.5956,97.0140438289909
2131.1211,98.0902361480264
2132.6458,93.8042748412231
2134.1698,91.4562572607299
2135.693,100.04627982065381
2137.2155,99.27443802054017
2138.7373,94.04082635947202
2140.2584,91.7955383437884
2141.7787,90.93866653942086
2143.2983,84.42030259434614
2144.8171,87.09053724715591
2146.3353,75.94946039223942
2147.8527,76.99716105308107
2149.3693,94.58372749367254
2150.8853,82.45924720803441
2152.4005,86.02380674435085
2153.9149,92.9774918262151
2155.4287,87.92038731698403
2156.9417,80.15257715023995
2158.454,89.7241443803623
2159.9655,83.58517126020547
2161.4764,86.28573914538333
2162.9865,93.87592855565777
2164.4958,90.60581914793534
2166.0045,73.77548964036396
2167.5124,79.98501784503401
2169.0195,86.2344808362825
2170.526,87.1739548885962
2172.0317,93.10351541411751
2173.5367,79.72323695325076
2175.0409,91.98319311536534
2176.5445,91.8834567125989
2178.0473,86.67409963725822
2179.5494,77.60519286281601
2181.0507,93.42680649600516
2182.5513,87.88900986750741
2184.0512,77.84187137373647
2185.5504,86.18545853221758
2187.0488,70.2198380820571
2188.5465,81.29507590050707
2190.0435,72.96123716262218
2191.5397,76.8183862305068
2193.0353,72.41658673665438
2194.5301,75.50590154537394
2196.0241,78.18639279680951
2197.5175,88.70812187604656
2199.0101,80.37114938630702
2200.502,79.02553504373168
2201.9931,69.77133776075084
2203.4835,71.05861565954092
2204.9733,77.88742616456557
2206.4622,81.35782598970263
2207.9505,71.66987106995566
2209.438,69.87361652675008
2210.9248,62.66911676481368
2212.4109,64.90642549013842
2213.8962,65.23559578202503
2215.3809,68.50668007070999
2216.8648,69.16973013407573
2218.3479,72.97479706493846
2219.8304,55.77193126441739
2221.3121,63.41118240388528
2222.7931,57.692599596995706
2224.2733,50.46623132329114
2225.7529,55.13212548538877
2227.2317,52.94032948124368
2228.7098,56.89089015749005
2230.1872,54.683853831359556
2231.6638,53.619266251175304
2233.1397,55.847172618423656
2234.6149,60.11761759839783
2236.0894,64.43064529792036
2237.5632,43.036299222638036
2239.0362,46.484622233892196
2240.5085,60.325656762662675
2241.9801,42.559444775082966
2243.4509,60.63602763403105
2244.921,39.10544627679087
2246.3904,34.86774103428752
2247.8591,49.322951846392016
2249.3271,45.971118304299125
2250.7943,43.762279505974675
2252.2608,35.79647408967412
2253.7266,38.27374025603103
2255.1917,41.94411584771501
2256.656,42.50763832465873
2258.1197,39.914344727354546
2259.5826,51.96427167121942
2261.0447,37.85745537252683
2262.5062,37.843931527909035
2263.9669,47.973735455423366
2265.4269,36.196902094688994
2266.8862,37.91346590558692
2268.3448,37.073460986030796
2269.8026,38.57692105479964
2271.2598,37.92387945993846
2272.7162,39.064369163723086
2274.1719,48.29842274919133
2275.6268,39.22607240873913
2277.0811,36.29734985177811
2278.5346,48.862286395460615
2279.9874,42.420912993964976
2281.4395,39.47326011284804
2282.8908,45.56935779345781
2284.3414,48.80923568240996
2285.7914,46.59292297062734
2287.2406,38.87044836094128
2288.689,48.99184009025498
2290.1368,42.70712600676757
2291.5838,52.266333468760195
2293.0302,55.46948940744369
2294.4758,42.16662023136564
2295.9206,46.25775179437869
2297.3648,43.1929095286705
2298.8082,47.87211840385089
2300.251,56.84540295760189
2301.693,41.462787248884524
2303.1343,57.8242947682063
2304.5748,45.87994859144828
2306.0147,42.529771216248264
2307.4538,49.92378468144511
2308.8922,46.51201060058111
2310.3299,46.34447008796019
2311.7669,37.17118379276735
2313.2031,43.992171900742505
2314.6387,41.85745422591549
2316.0735,37.96705014239501
2317.5076,40.02097860571644
2318.941,52.769258191744484
2320.3737,40.61190707613537
2321.8056,40.39894290685402
2323.2369,36.63038292574561
2324.6674,38.00624397066713
2326.0972,45.47654251317249
2327.5263,48.14129464475377
2328.9547,37.800516002139375
2330.3823,44.30422174064438
2331.8092,39.15242663757931
2333.2355,37.445145027212675
2334.661,40.732390852288745
2336.0858,46.71417768110177
2337.5098,43.240518674621626
2338.9332,47.261426526677496
2340.3558,42.17691349869301
2341.7778,33.53699137947865
2343.199,45.691671536075546
2344.6195,41.74096500015571
2346.0393,52.13488234647434
2347.4583,45.62343373237786
2348.8767,56.10662879386359
2350.2943,34.63447671069525
2351.7113,47.60698610157124
2353.1275,46.524165238844944
2354.543,46.186021918801316
2355.9578,57.79256347248315
2357.3718,54.843796769072696
2358.7852,58.13972809982715
2360.1978,45.880363207566006
2361.6098,49.715707253711685
2363.021,52.59576494088412
2364.4315,43.620540474547056
2365.8413,49.090037534206544
2367.2504,47.304259363163396
2368.6587,48.91320871381822
2370.0664,48.81688786552991
2371.4733,56.01529860852497
2372.8795,47.70844224486143
2374.285,49.746319516444714
2375.6899,42.92893068809667
2377.0939,40.75627552717583
2378.4973,45.328353371752996
2379.9,43.5451631523365
2381.3019,35.45670334615147
2382.7032,43.462971994971895
2384.1037,51.313966786005494
2385.5035,42.55968497182994
2386.9027,49.70012329188398
2388.3011,43.535278060010455
2389.6987,47.91514509305148
2391.0957,54.389719772498665
2392.492,31.708997000692193
2393.8876,37.27297113607483
2395.2824,44.88163622000002
2396.6765,36.934985921092334
2398.07,37.6830134591595
2399.4627,39.22571168465993
2400.8547,25.36307307122206
2402.246,39.39508970021757
2403.6366,36.42175339938785
2405.0265,34.7930556025251
2406.4156,37.80898737920381
2407.8041,41.16953945106911
2409.1918,32.674702161676464
2410.5789,38.47446544288721
2411.9652,38.16881889981562
2413.3508,33.60775175283209
2414.7358,43.741252840619495
2416.12,36.2193106657827
2417.5035,44.49191329351402
2418.8863,38.45904842681432
2420.2684,40.42070332376602
2421.6497,37.12686485786139
2423.0304,40.32751949838598
2424.4104,48.022653343356865
2425.7896,35.81225208751562
2427.1682,49.04630094537811
2428.546,35.87478477333843
2429.9232,49.597687937327464
2431.2996,42.46499444452911
2432.6753,50.3266878061504
2434.0503,38.732751108748744
2435.4246,34.133166935614554
2436.7982,41.3779174827107
2438.1711,38.66698460466944
2439.5433,36.45034974234375
2440.9148,42.02799394991723
2442.2856,38.149897917070575
2443.6557,30.96604191320523
2445.025,35.52640582622405
2446.3937,43.08096923437006
2447.7617,31.72971136062324
2449.1289,37.02261099715383
2450.4955,38.75964661883563
2451.8613,42.04079633031631
2453.2265,29.416037848647875
2454.5909,47.68534847047431
2455.9546,49.69870519828055
2457.3177,40.55608455769766
2458.68,47.1074625773698
2460.0416,41.35281488038072
2461.4025,45.24211661873994
2462.7627,47.025342530929606
2464.1222,52.252466903011396
2465.4811,57.27346355079385
2466.8392,58.688305767561474
2468.1966,48.096966273864496
2469.5533,51.049417203370126
2470.9093,51.99563020877656
2472.2645,51.08557643228846
2473.6191,54.36922649615451
2474.973,51.89655051176737
2476.3262,54.71751804682822
2477.6787,62.88209815007269
2479.0305,53.34025932306224
2480.3816,55.34196943853658
2481.7319,52.137195835833836
2483.0816,50.12590530087243
2484.4306,47.65806409819902
2485.7789,55.38363799110198
2487.1264,46.052592266289935
2488.4733,50.26489165663463
2489.8195,53.670500434483074
2491.165,54.41938236953365
2492.5097,51.76150069478001
2493.8538,43.69681809902238
2495.1972,53.025296753446696
2496.5398,47.64689839227128
2497.8818,45.861584219461974
2499.2231,52.76931496251564
2500.5637,51.02005089031377
2501.9035,44.963751744044544
2503.2427,49.40037675469671
2504.5812,60.42988470362195
2505.919,47.75223387816868
2507.256,48.46738196138631
2508.5924,57.425286158802805
2509.9281,49.97590319127198
2511.2631,53.769189205395605
2512.5974,52.20509984801629
2513.9309,50.08359022828529
2515.2638,51.304614933303014
2516.596,60.66812804933443
2517.9275,45.07408314959878
2519.2583,53.67243320063437
2520.5884,61.113130718239404
2521.9178,53.19612768148818
2523.2465,49.12137545832354
2524.5745,59.48882488472759
2525.9018,60.79842630546875
2527.2284,53.05012947042792
2528.5543,54.89388352150195
2529.8796,62.77963707008632
2531.2041,54.30733817863813
2532.5279,54.076934281818126
2533.851,58.43837227121435
2535.1735,67.44159849764549
2536.4952,64.33655872754684
2537.8163,74.72319805293807
2539.1366,58.90146092247335
2540.4562,63.621291037575816
2541.7752,67.48263151065385
2543.0935,67.735424817904
2544.411,63.529612760696295
2545.7279,65.01513646304727
2547.0441,67.74193641367742
2548.3596,65.55995245115628
2549.6744,76.01912373663401
2550.9885,67.46938877566186
2552.3019,69.5106853136001
2553.6146,73.24295042111521
2554.9266,79.1661204737677
2556.2379,68.08013111468836
2557.5485,75.43491719534757
2558.8585,68.48041288641446
2560.1677,75.41655160420942
2561.4762,75.54326608024917
2562.7841,75.56048829188535
2564.0913,77.26814946103707
2565.3977,73.16618005401938
2566.7035,75.85450976446623
2568.0086,87.18306755435015
2569.313,75.85178162709894
2570.6167,81.46057931430971
2571.9197,85.25938718906184
2573.222,82.14813100982929
2574.5236,84.22673568249263
2575.8246,83.145125291451
2577.1248,95.2532230788371
2578.4244,92.85095145533228
2579.7232,85.08823187908604
2581.0214,89.0149848797389
2582.3189,93.18113013604909
2583.6157,87.93658643662502
2584.9118,95.3312716382643
2586.2072,100.61510271839916
2587.5019,95.18799570114936
2588.7959,101.44986560448365
2590.0893,107.80062649449144
2591.3819,111.14019142276356
2592.6739,105.81847236288468
2593.9652,105.38538017703775
2595.2557,116.1408246692215
2596.5456,113.33471458958093
2597.8348,117.61695752685307
2599.1234,123.43745993642824
2600.4112,116.84612709752719
2601.6983,116.09286305499688
2602.9848,119.62757068522296
2604.2705,116.80015170366278
2605.5556,121.81050662949758
2606.84,115.55853481390784
2608.1237,112.8941343899686
2609.4067,119.0672023351699
2610.689,117.07763449806077
2611.9707,107.77532553651838
2613.2516,111.66016893764424
2614.5319,116.03205711078658
2615.8115,117.69088134869207
2617.0903,113.73653178378697
2618.3685,113.31889737158929
2619.6461,99.88786593025213
2620.9229,107.64332414473961
2622.199,110.5851577011374
2623.4745,109.01325120909837
2624.7493,106.47748817242416
2626.0234,115.8277510047842
2627.2968,113.11392105507332
2628.5695,119.18587851390953
2629.8415,109.14350244077184
2631.1128,111.08667070328033
2632.3835,112.36526007762063
2633.6535,112.67914622911178
2634.9228,113.3782036994204
2636.1914,113.26230590342254
2637.4593,113.88132512221205
2638.7265,111.78513250426033
2639.9931,111.87359805922529
2641.259,112.79659067891407
2642.5242,113.0539781363982
2643.7887,122.74562707678297
2645.0525,106.87140301463444
2646.3156,111.7811702370625
2647.5781,106.07479196246356
2648.8398,106.25213029142276
2650.1009,108.66304626377769
2651.3613,104.4073998568449
2652.6211,101.33504996131114
2653.8801,105.54585442378925
2655.1385,102.08967007754165
2656.3961,106.51635270037264
2657.6531,103.92575704919
2658.9094,110.46773681573791
2660.1651,105.24214465250338
2661.42,108.59883210729606
2662.6743,109.3876496755048
2663.9279,115.90844676653023
2665.1808,120.96107169589675
2666.433,121.19537162004451
2667.6846,117.01119248580324
2668.9354,126.90837902804947
2670.1856,134.2867748115479
2671.4351,137.64622213197953
2672.6839,131.98656194215835
2673.9321,140.7076338184359
2675.1795,143.1592760172984
2676.4263,143.6913253881562
2677.6724,149.0536173488266
2678.9179,153.3459858802142
2680.1626,151.31826347268736
2681.4067,141.72028108315442
2682.6501,141.35186815534172
2683.8928,141.662852715773
2685.1348,136.5530613774534
2686.3761,141.2223193367596
2687.6168,127.5204504245379
2688.8568,123.84727705941162
2690.0961,126.35262038479965
2691.3348,125.13630030564866
2692.5727,120.5481354633796
2693.81,118.33794324805012
2695.0466,118.35553984423694
2696.2826,123.45074025313772
2697.5178,122.87335829239493
2698.7524,122.27320654514375
2699.9863,123.05009636578649
2701.2195,123.65383788599331
2702.452,125.88424000693362
2703.6839,129.59111039323903
2704.9151,141.72425545069865
2706.1456,142.83348028919062
2707.3755,150.51858860135104
2708.6046,153.02938265148111
2709.8331,161.1156631986961
2711.0609,159.8272294718181
2712.2881,165.8638790885127
2713.5145,178.4254080681734
2714.7403,192.21161077155512
2715.9654,197.87227977515892
2717.1899,208.2572057333698
2718.4136,222.21617732185058
2719.6367,226.44898113369214
2720.8591,237.8054015398235
2722.0809,256.3352206466841
2723.3019,258.48821818266
2724.5223,271.764171312785
2725.7421,278.1628546172116
2726.9611,277.0840399584508
2728.1795,275.27749641738507
2729.3972,281.4429903040573
2730.6142,257.6802851757356
2731.8306,252.23914177525825
2733.0462,230.9693182686613
2734.2612,211.97057029958978
2735.4756,198.59265120199547
2736.6892,186.08531219012525
2737.9022,163.54830249229923
2739.1145,156.98136947598465
2740.3262,142.38425887316583
2741.5372,125.65671484601353
2742.7475,115.8984801328561
2743.9571,100.30929621545482
2745.1661,96.63890341658646
2746.3744,88.88704105593496
2747.582,79.40344748679496
2748.7889,70.88786017359132
2749.9952,61.79001578671398
2751.2008,52.90965028767528
2752.4057,51.44649902008712
2753.61,53.0502967984649
2754.8136,38.22077792285944
2756.0165,47.20767616281887
2757.2188,49.3107249056838
2758.4204,35.97965706671852
2759.6213,33.66420506808055
2760.8215,32.71410097213072
2762.0211,35.22907650458836
2763.22,26.408863064032005
2764.4182,30.20319169674991
2765.6158,23.261793184941666
2766.8127,18.984398008775543
2768.009,12.970736415802037
2769.2045,8.270538463727462
2770.3994,-0.6664659194489104
2771.5936,9.409453111566904
2772.7872,-4.15196793993664
2773.9801,-10.100992664765556
2775.1723,-6.3878431755659335
2776.3639,-5.712640676067508
2777.5548,-11.875442555447137
2778.745,-16.576249133601266
2779.9346,-17.764942094755668
2781.1235,-8.091237526407781
2782.3117,-10.004674044283547
2783.4992,-20.654709432646257
2784.6861,-11.240701529065632
2785.8723,-9.711801830564582
2787.0579,-10.567049539557502
2788.2428,-7.955386837559558
2789.427,-0.8756503412607799
2790.6106,1.7734028069631904
2791.7935,0.043024212483487645
2792.9757,4.684465462937396
2794.1573,23.998978145532078
2795.3382,14.237813800630533
2796.5184,29.752223728606168
2797.698,43.09345908745479
2798.8769,50.71277073764986
2800.0551,60.46140910873066
2801.2327,80.89062412310864
2802.4096,89.00166509858104
2803.5859,90.54578054403942
2804.7615,101.47421807835826
2805.9364,124.4382244149549
2807.1106,151.7890452525046
2808.2842,172.52792504530055
2809.4572,202.60610672974576
2810.6294,231.77483151696504
2811.801,271.5853385920217
2812.972,293.9388648222316
2814.1423,328.5366443590573
2815.3119,379.029908414573
2816.4808,408.5198849154872
2817.6491,463.9077979982087
2818.8167,519.7948677139483
2819.9837,560.282309474838
2821.15,618.2713334950621
2822.3157,672.0131443859813
2823.4807,716.0089405762434
2824.645,778.8099137743652
2825.8086,823.1672485287745
2826.9716,875.0821215997998
2828.134,930.155701516098
2829.2957,968.7391480555051
2830.4567,1017.8836116942995
2831.617,1037.8402332213695
2832.7767,1042.3101432467674
2833.9358,1040.5944620021437
2835.0941,1034.044299296047
2836.2519,1014.6607545310821
2837.4089,991.7449167694112
2838.5653,970.5478649265889
2839.7211,956.8206680007206
2840.8761,948.3143852844339
2842.0306,961.2800665021495
2843.1843,977.3687518951447
2844.3374,1004.2314720918957
2845.4899,1052.8192479471927
2846.6417,1097.1330902735103
2847.7928,1153.8239993551326
2848.9433,1224.6429645050114
2850.0931,1281.39096349786
2851.2422,1343.0689618619617
2852.3907,1416.627912311692
2853.5385,1475.3187541307357
2854.6857,1513.142412436498
2855.8323,1556.9997975931992
2856.9781,1590.6418048336327
2858.1233,1647.5693138205968
2859.2679,1699.78318831047
2860.4118,1748.034275583939
2861.555,1786.2234059238594
2862.6976,1843.7013921327434
2863.8395,1881.21902915087
2864.9808,1921.9270934815052
2866.1214,1931.6763428157233
2867.2614,1944.8675156253294
2868.4007,1964.3513310653652
2869.5393,1970.3284888421967
2870.6773,1982.3996690186787
2871.8146,1997.615531954379
2872.9513,1997.876718184871
2874.0874,1982.4338482695712
2875.2227,1980.1875227891314
2876.3574,1961.588322499864
2877.4915,1931.2368083562071
2878.6249,1911.6335216967152
2879.7577,1877.9289845475753
2880.8898,1857.5736998186399
2882.0212,1847.3681516404708
2883.152,1831.8128055678944
2884.2821,1818.258108682055
2885.4116,1803.4544897459696
2886.5405,1802.3523593400746
2887.6686,1810.652110010261
2888.7962,1811.704116278897
2889.923,1824.6087345618298
2891.0493,1823.9663031578664
2892.1748,1845.7771421197272
2893.2997,1852.3415532604686
2894.424,1860.859819935377
2895.5476,1886.9322069763225
2896.6706,1915.2089606065792
2897.7929,1914.9403081800988
2898.9145,1940.2264578987429
2900.0355,1974.5675988149712
2901.1559,2007.0139005789802
2902.2756,2032.5655130952891
2903.3946,2077.8225661982788
2904.513,2101.8851693966767
2905.6308,2118.753411420982
2906.7479,2139.827359982845
2907.8643,2171.907061606382
2908.9801,2192.392541417434
2910.0953,2190.9838028227755
2911.2098,2200.7308273052536
2912.3236,2194.3335744378774
2913.4368,2170.2419817863497
2914.5494,2162.8059649730367
2915.6613,2126.775417917886
2916.7725,2105.6002129127855
2917.8831,2077.0302009818697
2918.9931,2039.51521209327
2920.1024,2023.0550554448175
2921.211,2015.949519839191
2922.319,1979.6483738485197
2923.4264,1980.101365885437
2924.5331,1958.6082245660946
2925.6391,1955.9186587056297
2926.7445,1955.8323575330976
2927.8493,1950.8989907183677
2928.9534,1968.7682083729853
2930.0569,1958.139641099507
2931.1597,1972.4128998128072
2932.2619,1978.9875758463652
2933.3634,1967.5632408095307
2934.4643,1968.239446521778
2935.5645,1968.46572512695
2936.6641,1950.5915890864953
2937.763,1915.116531177206
2938.8613,1879.9400246699583
2939.959,1855.3615236844628
2941.056,1789.4804635410308
2942.1523,1731.0462610063585
2943.248,1641.0083149523375
2944.3431,1551.316006940397
2945.4375,1463.668702121884
2946.5313,1381.9657501349839
2947.6244,1279.656485981197
2948.7169,1180.2902308423656
2949.8087,1085.6662931037677
2950.8999,1001.033969347779
2951.9904,916.6925453001128
2953.0803,849.991296676143
2954.1696,800.5294900243185
2955.2582,746.4563833931763
2956.3462,699.8212268259585
2957.4335,664.7232629013437
2958.5202,626.6117271997986
2959.6062,608.3358486545569
2960.6916,575.5948499327366
2961.7764,565.7379476180964
2962.8605,555.5643525384471
2963.9439,548.62326986422
2965.0267,533.7638992102036
2966.1089,521.8354347049533
2967.1905,523.2870651393862
2968.2714,526.2179740860657
2969.3516,526.5773398846837
2970.4312,530.6643356127532
2971.5102,544.8781290820134
2972.5885,548.7678827975606
2973.6662,548.1827538157094
2974.7432,554.0218937050965
2975.8196,558.6844485525304
2976.8954,548.0695589046018
2977.9705,544.6263597210566
2979.045,541.7539804809461
2980.1188,528.401545217058
2981.192,521.3681725446409
2982.2645,503.8029757949273
2983.3364,484.25506308546903
2984.4077,457.87353749578847
2985.4783,447.45749726285703
2986.5483,416.10603604491143
2987.6177,388.9182430256134
2988.6864,355.3932032275644
2989.7545,325.52999778418393
2990.8219,296.8277042749597
2991.8887,274.08539702407916
2992.9548,226.7521473874536
2994.0204,206.6770239801403
2995.0852,183.25909314967566
2996.1495,170.54741917682594
2997.2131,141.59106450976674
2998.276,118.63908989119972
2999.3383,102.24055464791581
3000.4,81.1945169203156
3001.4611,68.50003382639409
3002.5215,55.2561616722013
3003.5812,41.361956078786875
3004.6404,31.616472114639294
3005.6989,24.61876443462745
3006.7567,15.617887377456043
3007.8139,6.512895035642259
3008.8705,9.502841345524303
3009.9264,1.0367801783118011
3010.9818,-6.786234689814137
3012.0364,-6.067149493039722
3013.0905,-8.4068426710665
3014.1439,-10.956132052772944
3015.1966,-5.665751482679184
3016.2487,-12.736325353546704
3017.3002,-10.21842145727959
3018.3511,-5.512480349891916
3019.4013,-7.4688405053674956
3020.4509,-7.637785328011603
3021.4998,-5.519523608413351
3022.5481,-4.614187835686209
3023.5958,-2.2718553589034514
3024.6428,2.6574425685980714
3025.6892,11.973697389316442
3026.735,6.62690051917582
3027.7802,11.01704325436367
3028.8247,14.344116824798618
3029.8685,13.008112350228942
3030.9118,18.10902080696195
3031.9544,28.396833041223942
3032.9963,33.97153971815146
3034.0376,41.73313121891266
3035.0783,45.13159758496022
3036.1184,56.01692844041571
3037.1578,59.8391129580848
3038.1966,61.04813975060421
3039.2348,67.84399683221955
3040.2723,74.82667160669536
3041.3092,76.39615079935629
3042.3455,78.70242038726042
3043.3811,81.54546558350432
3044.4161,87.02527081416082
3045.4505,78.44181968984833
3046.4842,76.29509495093276
3047.5173,79.13507855336218
3048.5498,80.06175169013386
3049.5816,77.67509476289422
3050.6128,82.47508737267242
3051.6434,80.71170834374664
3052.6734,77.33493567564454
3053.7027,76.99474656077683
3054.7314,75.49111741820485
3055.7594,80.97402389704285
3056.7868,75.74344089149378
3057.8136,76.2493424860204
3058.8398,81.34170200765135
3059.8653,75.22049202092182
3060.8902,82.28568427695018
3061.9145,79.7872497746502
3062.9381,79.67515869007883
3063.9612,79.7993804014207
3064.9835,80.40988349010911
3066.0053,76.40663573958341
3067.0264,73.5896041291843
3068.0469,76.20875487418618
3069.0668,77.31405345396752
3070.086,66.10546458581945
3071.1046,73.4829522138927
3072.1226,56.09647962128358
3073.1399,56.59600935625869
3074.1567,54.33150340612019
3075.1727,53.002923192210204
3076.1882,40.310229592556055
3077.203,42.30338295515571
3078.2173,38.13234322490513
3079.2308,29.39706992366635
3080.2438,32.3475221919783
3081.2561,22.433658876409226
3082.2678,21.205438500052395
3083.2789,19.81281936166465
3084.2893,18.60575954794848
3085.2991,12.884216947478478
3086.3083,15.048149262771886
3087.3169,5.047514067503698
3088.3248,5.7322687848675855
3089.3321,3.752370787582066
3090.3388,8.507777391043078
3091.3449,2.9484458731228926
3092.3503,-2.3256665733839554
3093.3551,-2.264602785167341
3094.3593,1.1316176344918745
3095.3629,0.7629977056944881
3096.3658,1.9795404372252108
3097.3681,1.8312488302388772
3098.3698,1.1681258660951244
3099.3708,-3.6098254921589614
3100.3713,0.647397706842554
3101.3711,-1.7601655233777933
3102.3702,0.6675238242285957
3103.3688,1.5805223407637925
3104.3667,0.12888661065466067
3105.364,-1.637326797477101
3106.3607,1.7319373974129917
3107.3568,-1.9632491667361478
3108.3522,-0.6728148693048013
3109.347,3.5033315231856363
3110.3412,-1.4347120343656456
3111.3348,2.563152377907244
3112.3277,0.9470370126433636
3113.32,-0.3829459031495901
3114.3117,3.5233158480656357
3115.3028,-0.1340616905441152
3116.2932,2.29503748895479
3117.2831,4.260730733772334
3118.2723,-0.3868646318318838
3119.2608,1.7523686737945638
3120.2488,8.228551797081764
3121.2361,9.841805866936113
3122.2229,2.8922519299785847
3123.209,8.680010934412223
3124.1944,7.805203799517642
3125.1793,7.7179513577754335
3126.1635,9.218374363614103
3127.1471,8.4565934942828
3128.1301,7.232729334846923
3129.1125,11.44690238580607
3130.0942,10.199233075332529
3131.0753,13.239841717129636
3132.0558,15.11884852290845
3133.0357,10.736373571981702
3134.015,18.992536792473686
3134.9936,18.087458005145024
3135.9716,15.171256840830964
3136.949,16.7440527494921
3137.9258,15.755965029376611
3138.902,19.75711281129196
3139.8775,21.897615068485976
3140.8524,20.77759057663539
3141.8267,20.297157892440893
3142.8004,25.256435364827283
3143.7735,24.805541139747916
3144.7459,26.994593110591737
3145.7178,27.1237089226924
3146.689,28.443005951437684
3147.6596,18.802601300978225
3148.6295,27.70261179103474
3149.5989,28.19315405330194
3150.5676,31.72434444244847
3151.5357,32.44629903121148
3152.5032,23.559133575084658
3153.4701,28.712963505098756
3154.4364,36.25790401669319
3155.402,33.794070018177734
3156.367,38.621576055283256
3157.3315,33.34053633579991
3158.2952,37.801064681302165
3159.2584,41.153274579959174
3160.221,39.397279141929474
3161.1829,36.93319106583894
3162.1442,38.36112265634061
3163.105,38.03118584875566
3164.065,43.19349219479407
3165.0245,40.548152865854
3165.9834,42.145278601398736
3166.9416,43.23497973541006
3167.8993,46.91736618041702
3168.8563,44.992547416598875
3169.8127,41.91063245496125
3170.7684,47.371729856584324
3171.7236,54.07594776344191
3172.6782,50.72339384379062
3173.6321,52.11417522512752
3174.5854,52.19839852771581
3175.5381,55.97616985067693
3176.4902,54.54759477114833
3177.4417,53.86277830650577
3178.3926,56.17182492864909
3179.3428,55.07483857085038
3180.2924,60.321922604663484
3181.2415,58.213179850893845
3182.1899,56.598712527127745
3183.1377,60.92862226881961
3184.0848,61.35301014543677
3185.0314,63.17197661716034
3185.9773,64.98562153064137
3186.9227,63.29404410081108
3187.8674,64.94734289274459
3188.8115,65.8456158385765
3189.755,64.08896022096808
3190.6979,64.37747266412435
3191.6402,71.31124915136083
3192.5818,67.94038502221827
3193.5229,72.46497490312495
3194.4633,71.93511274110527
3195.4031,70.00089175853394
3196.3423,74.66240445843452
3197.2809,75.41974264382166
3198.2189,77.82299737108596
3199.1563,73.62225894242059
3200.0931,74.36761688178878
3201.0292,77.8091599769311
3201.9648,76.19697627191205
3202.8997,78.48115303270446
3203.834,82.0617767633114
3204.7677,84.68893318292446
3205.7008,84.71270719011741
3206.6333,82.88318283657472
3207.5652,83.00044332685373
3208.4964,90.81457103668001
3209.4271,84.82564751177465
3210.3571,84.78375338971303
3211.2865,88.38896845981407
3212.2154,86.39137166355916
3213.1436,91.24104105853996
3214.0712,92.48805383843442
3214.9982,94.2824862845101
3215.9246,94.82441375315398
3216.8503,92.81391065792813
3217.7755,93.80105046415058
3218.7001,98.3859057090001
3219.624,95.06854799164506
3220.5473,97.89904792739472
3221.4701,99.4774751808728
3222.3922,95.65389843771266
3223.3137,99.62838538877273
3224.2346,100.25100276837257
3225.1549,104.47181631454781
3226.0746,99.74089076282405
3226.9937,105.10828980400868
3227.9121,104.27407613150021
3228.83,105.23831138761423
3229.7473,110.40105617192556
3230.6639,107.76237003162588
3231.5799,109.72231140989629
3232.4954,113.13093767229424
3233.4102,112.03830508715394
3234.3244,116.74446879150031
3235.238,113.7994828019751
3236.151,113.00339996777542
3237.0634,114.65627200010351
3237.9752,116.3581494801276
3238.8864,116.70908184245316
3239.797,119.85911735810416
3240.7069,119.20830313101371
3241.6163,121.55668506652377
3242.5251,118.10430787789319
3243.4332,119.30121506281397
3244.3408,123.09744893793496
3245.2477,123.29305062689286
3246.154,125.58806002234991
3247.0598,123.53251578403773
3247.9649,126.07645531580734
3248.8694,128.06991478618457
3249.7733,126.6129291029307
3250.6766,126.20553189310785
3251.5793,124.5477555176488
3252.4814,130.58963107543107
3253.3829,129.43118841985452
3254.2838,130.7724560984227
3255.1841,132.76346136432727
3256.0838,133.20423016303516
3256.9829,133.3947871123787
3257.8814,133.83515549814786
3258.7792,131.6253572721847
3259.6765,137.4154130479796
3260.5731,133.9053421227694
3261.4692,132.69516241963686
3262.3647,135.03489052261114
3263.2595,134.22454168876976
3264.1538,138.51412982484138
3265.0474,137.2036674953091
3265.9404,139.6931658795148
3266.8329,138.63263478476352
3267.7247,140.9220826214288
3268.616,141.51151641355767
3269.5066,138.1509417759762
3270.3966,140.64036290839545
3271.286,141.1797826290168
