RamanShift,CorrectedData
30.1047,147.84486589717923
32.3739,136.1030195627265
34.6426,126.36117174982508
36.9109,116.61931961899609
39.1787,105.12745906714898
41.4461,95.13558482499982
43.7131,82.49369057199017
45.9796,71.50176903620562
48.2456,60.35981212079484
50.5112,51.11781101388882
52.7764,39.42575630002037
55.0411,27.083638052544188
57.3054,21.69144595055741
59.5692,10.949169402320779
61.8326,-1.8932024008194244
64.0955,-13.685680377008605
66.3579,-22.678256531300192
68.6199,-29.12078614880068
70.8815,-38.11289795883381
73.1426,-33.953929774069735
75.4032,-19.392838659328035
77.6634,21.371757520330092
79.9231,148.2414346343016
82.1824,425.967768338266
84.4412,914.8023328054885
86.6995,1551.0466979495563
88.9574,2166.802424536034
91.2148,2609.1210578200185
93.4717,2813.2541213885834
95.7282,2855.3031127375916
97.9842,2855.1195012303638
100.2398,2810.4047276771907
102.4949,2769.660204337168
104.7495,2735.137315365345
107.0036,2700.237417220166
109.2573,2650.0118390087073
111.5105,2570.9118828356654
113.7632,2516.988824305624
116.0154,2454.3439133140428
118.2672,2361.428374586498
120.5185,2308.243408305124
122.7693,2226.540191037773
125.0197,2163.2198762698627
127.2696,2097.233595221408
129.519,2061.032457480228
131.7679,2008.467551661803
134.0163,1989.539945771291
136.2642,1961.6006877291732
138.5117,1951.4508055605315
140.7587,1925.9913076744422
143.0052,1882.5731829654728
145.2512,1838.197401068278
147.4967,1783.3149127917816
149.7417,1754.3266505629317
151.9863,1715.4835289755301
154.2304,1685.4364450801104
156.4739,1666.5362787723714
158.717,1654.2838930936482
160.9596,1657.3801344199137
163.2017,1656.5258325843008
165.4433,1660.8218008461417
167.6844,1657.2188358995106
169.925,1623.4177178302648
172.1651,1573.3192101520717
174.4047,1522.2240601444234
176.6439,1496.232999353619
178.8825,1451.6967441037177
181.1206,1444.0159957564492
183.3582,1406.691441156575
185.5954,1380.6737527086975
187.832,1381.3135887505057
190.0681,1348.2615938129497
192.3037,1358.4183986138446
194.5388,1348.1846203883897
196.7734,1336.2608627876002
199.0075,1329.047715980646
201.2411,1332.045756774088
203.4742,1340.255548684011
205.7068,1349.8276419060426
207.9389,1342.2125732332552
210.1704,1352.6108659604456
212.4015,1335.823029960284
214.632,1325.849561579334
216.862,1304.1909438059274
219.0915,1311.1476463699023
221.3205,1298.2201259591861
223.549,1305.9588261502313
225.777,1291.3141775372883
228.0044,1274.736597655021
230.2314,1255.276491124951
232.4578,1237.6342498212352
234.6837,1216.6602530652651
236.909,1201.1548678020908
239.1339,1179.01844881016
241.3582,1163.6513388563717
243.582,1150.2538689174417
245.8053,1138.5263583335718
248.0281,1146.1191149424253
250.2503,1130.1324351964026
252.472,1118.4166040867144
254.6932,1118.7218953032457
256.9139,1099.0485713517155
259.134,1092.1468835506257
261.3536,1115.067072227992
263.5727,1109.1593667903617
265.7912,1128.0739854936114
268.0092,1160.3611355020257
270.2267,1184.9210126991493
272.4436,1202.4538013649158
274.6601,1214.7096739300491
276.8759,1218.338790800736
279.0913,1228.391300236067
281.3061,1208.7173383117467
283.5204,1215.5670288195658
285.7341,1225.540483464143
287.9473,1237.6878017944264
290.16,1219.05907110396
292.3721,1196.0543663094095
294.5837,1146.0737501368508
296.7947,1125.8172733518156
299.0052,1099.7849752590992
301.2152,1082.026883905325
303.4246,1071.7430163392671
305.6334,1044.4833787894318
307.8418,1022.2479667668956
310.0495,1000.8867653379025
312.2568,979.499749346216
314.4635,939.0868836267327
316.6696,899.5481232193522
318.8752,853.9834137731059
321.0802,834.1926919415439
323.2847,821.0758858383829
325.4887,805.4829152354134
327.692,809.3136916936674
329.8949,822.9181187193471
332.0972,835.7960917255195
334.2989,861.0974978960696
336.5001,856.9722160569227
338.7007,827.9701164230287
340.9008,803.8910606396171
343.1003,737.3349020722155
345.2992,708.9514860474414
347.4976,669.5406505185647
349.6955,633.1522263493398
351.8927,612.4360377081157
354.0895,597.0919024317195
356.2856,590.8696322326184
358.4812,573.1690328523605
360.6763,574.5899041237994
362.8707,543.5820401480978
365.0646,540.745229280521
367.258,537.6792544405148
369.4508,542.1338931400726
371.643,551.7589175143967
373.8346,559.2540942773503
376.0257,585.8191846252082
378.2162,608.0539441617045
380.4062,610.8581226323831
382.5956,587.3314637022477
384.7844,557.2237049277221
386.9726,511.48457799191556
389.1603,483.5138090057005
391.3474,457.21111896510433
393.5339,451.2262240310163
395.7199,445.6088357922156
397.9052,459.55866132521896
400.09,475.57540325045557
402.2743,513.9087595927685
404.4579,521.6084236212473
406.641,552.1740834658949
408.8235,574.8554220406304
411.0054,606.7021167376331
413.1868,662.7138392005284
415.3675,730.3902550059208
417.5477,754.5310231032781
419.7273,689.1857951381655
421.9064,586.1042152108389
424.0848,532.0359205296963
426.2627,479.48054244209493
428.4399,424.6377069750324
430.6166,376.95703536070255
432.7928,346.93814458492193
434.9683,310.08064786393766
437.1432,293.9341549446158
439.3176,267.6982724730167
441.4914,263.17260415585906
443.6645,238.7067510228801
445.8371,247.2503114720912
448.0091,250.152881514437
450.1806,243.36405468835937
452.3514,218.23342203077232
454.5216,214.81057214494945
456.6913,219.09509145183029
458.8603,215.2865642242498
461.0288,225.68457254409213
463.1967,204.63869634037633
465.3639,212.44851328527716
467.5306,200.66359900458224
469.6967,180.383526999595
471.8622,185.00786876498387
474.0271,179.0361939915815
476.1914,166.9180705201436
478.3551,167.60306440106456
480.5182,163.29074001555887
482.6807,162.38066006881172
484.8426,175.32238563310125
487.0039,197.21547615689883
489.1647,244.65948933545405
491.3248,258.4039808918617
493.4843,267.99850410262184
495.6432,266.74260966019574
497.8015,234.9358455770598
499.9592,212.57775719826418
502.1163,168.8178875195017
504.2728,144.10577741068823
506.4287,132.9409660535605
508.5839,105.12299118879878
510.7386,99.15138922767392
512.8927,97.52569553022727
515.0461,108.04544446498835
517.199,127.71016942522988
519.3512,144.16940272377042
521.5029,188.47267539632753
523.6539,230.16951703692553
525.8043,221.2594553548638
527.9541,199.14201575774564
530.1033,136.91672144058134
532.2519,113.38309360696167
534.3999,89.39065209130945
536.5472,89.68891559421832
538.694,89.3774019223763
540.8401,91.55562798558208
542.9856,109.37310979986205
545.1305,115.67936246568661
547.2748,121.77389998979675
549.4185,125.80623522213955
551.5615,134.72587979492482
553.704,141.7323440822995
555.8458,154.12513711115275
557.987,166.6037664910507
560.1276,182.8677382903088
562.2675,229.7165569112051
564.4069,270.74972492734173
566.5456,297.31674261515514
568.6837,282.91710754358473
570.8212,243.6503143084028
572.958,185.6158546762117
575.0942,151.21321797710948
577.2299,138.0418916850365
579.3648,103.10136176180231
581.4992,91.441112788797
583.6329,76.21062831639847
585.766,105.80939098057456
587.8985,126.98688265518717
590.0304,160.2425841560041
592.1616,190.575975028926
594.2922,188.23653321742768
596.4222,170.92373475922545
598.5515,133.48705380967
600.6802,101.77596281487581
602.8083,60.23993288608676
604.9358,52.32843411678891
607.0626,30.640935998068244
609.1888,46.97690749772801
611.3144,61.73581727716282
613.4393,87.26713352799925
615.5636,116.97032382450539
617.6873,159.24485486827848
619.8103,179.79019219121324
621.9327,172.15579973275567
624.0544,170.3911396344506
626.1756,133.69567231628503
628.2961,89.86885649433361
630.4159,74.21014954771545
632.5351,60.269007956860605
634.6537,61.59488746009856
636.7716,59.28724319306866
638.8889,54.39552967546206
641.0056,63.26920083409823
643.1216,71.6577100518416
645.237,81.41051007886472
647.3518,67.92705294876464
649.4659,47.10678988103359
651.5793,33.199171415893716
653.6922,29.103647622500603
655.8043,24.869668238017994
657.9159,6.146682708573735
660.0268,2.1841402315994856
662.137,3.581489943059978
664.2466,0.8381591593590656
666.3556,14.303575161085973
668.4639,2.1771568556189322
670.5716,-5.491676992698785
672.6786,1.0964706306776861
674.785,-11.30894839785401
676.8907,6.941506844361811
678.9958,-8.602609743625408
681.1002,1.7082556678187757
683.204,-3.3262571516008848
685.3072,4.493491550738099
687.4097,-3.282825243232992
689.5115,-3.255534596517691
691.6127,-6.024930776694873
693.7132,-17.991275528554524
695.8131,-6.654770407828892
697.9123,4.334562762591986
700.0109,1.3767686409735234
702.1089,7.271891842235618
704.2061,14.269976967531875
706.3028,34.22106854529693
708.3987,56.07521096126652
710.4941,64.93244825896636
712.5887,67.94282392116929
714.6827,63.1563807813252
716.7761,68.0231609934558
718.8688,64.39320608002004
720.9608,66.01655688324581
723.0522,73.0932536014293
725.1429,82.67333577270142
727.233,105.2068422042621
729.3224,156.4438108765778
731.4112,194.5342787180473
733.4993,205.42828109263132
735.5867,177.37585141894965
737.6735,141.72702106133897
739.7596,106.63181961037753
741.845,75.29027523937452
743.9298,86.15241505532094
746.014,108.41826541230557
748.0974,117.73785180289406
750.1802,122.96119863546937
752.2624,98.83832914103618
754.3439,85.11926532098778
756.4247,85.3540281883345
758.5048,79.89263790489417
760.5843,80.78511377894438
762.6631,99.23147431983784
764.7413,142.83173722907623
766.8188,188.43591921584675
768.8956,237.29403556101988
770.9718,283.3560996611084
773.0473,284.8721225396839
775.1221,258.3421123867588
777.1962,242.26607454362397
779.2697,287.9940117681497
781.3426,359.1259243955458
783.4147,397.3618098810823
785.4862,413.70166208877095
787.557,350.09547090900537
789.6271,277.9932220951641
791.6966,186.0448978996708
793.7654,120.60047779501815
795.8335,77.50993939325076
797.901,56.97325910040831
799.9678,46.84041254743215
802.0339,49.21137479553204
804.0993,53.086120437513955
806.1641,55.31462357406963
808.2282,46.7968577750305
810.2916,32.08279605708253
812.3544,28.422410968943268
814.4164,24.265674738502412
816.4778,22.86255930942707
818.5385,33.06303638272834
820.5986,58.01707743079169
822.658,106.92465359537368
824.7166,142.03573543805965
826.7747,197.25029245118913
828.832,244.1182927067448
830.8886,290.68970230420655
832.9446,310.41448490187236
834.9999,298.5926012511436
837.0545,250.47400899927698
839.1085,194.15866280760383
841.1618,141.69651483271593
843.2143,107.83751528961875
845.2662,82.6316129763535
847.3175,79.17875561258563
849.368,59.27889009166552
851.4179,61.08196251515619
853.467,60.33791839183243
855.5155,74.39670261965011
857.5633,70.65825949318628
859.6105,61.472532563051004
861.6569,70.4394646732726
863.7027,49.658998053153596
865.7478,47.53107422760297
867.7922,50.60563422493988
869.8359,41.18261859817301
871.8789,34.91196739425527
873.9212,36.49362024831419
875.9629,42.32751644635812
878.0039,49.513594909459584
880.0441,59.801794135416685
882.0837,73.69205212689121
884.1226,94.78430628852834
886.1609,108.22849328805376
888.1984,148.97454884534886
890.2352,186.97240759801173
892.2714,192.5220026938955
894.3069,180.3232654111291
896.3416,143.02612510262225
898.3757,117.68050931805271
900.4091,94.23634417683706
902.4418,103.39355462158801
904.4739,125.45206465255478
906.5052,141.71179723605167
908.5358,134.82267408387304
910.5658,127.18461549069548
912.595,105.69754040296937
914.6236,80.56136649529947
916.6515,56.32601038531527
918.6786,44.54138788503269
920.7051,42.10741424320793
922.7309,39.92400426318409
924.756,39.591072327230336
926.7804,42.55853241837622
928.8041,50.72629812374112
930.8272,62.54428260485997
932.8495,76.81239851600503
934.8711,74.3805578860065
936.892,88.94867197557028
938.9123,101.61665130159815
940.9318,115.13440549150516
942.9506,143.10184315654044
944.9688,126.31887175660984
946.9862,115.6853973206006
949.003,94.00132461421117
951.019,81.61655724628702
953.0344,74.08099788566051
955.0491,57.84454838499914
957.063,57.80710985616099
959.0763,56.368582832559014
961.0888,54.67886726953543
963.1007,50.68786255874704
965.1119,52.945467545062456
967.1223,48.10158056647276
969.1321,41.15609943151435
971.1412,49.958921467708024
973.1495,42.35994359101494
975.1572,33.209062217806604
977.1641,50.756173340856435
979.1704,43.051172620846955
981.1759,46.59395521089937
983.1808,51.48441583362364
985.1849,40.62244874568978
987.1884,45.30794768892497
989.1911,39.89080599893225
991.1932,43.17091655823606
993.1945,53.04817185045306
995.1951,42.87246392749091
997.1951,45.79368431077569
999.1943,40.3117240930095
1001.1928,47.52647390895777
1003.1906,52.787823990268976
1005.1877,71.99566409332749
1007.1841,87.74988344663961
1009.1798,97.8003705587555
1011.1748,91.74701306072654
1013.1691,79.38969760560121
1015.1627,64.07830992895799
1017.1556,36.56273497247889
1019.1477,28.992857037063573
1021.1392,15.518560057984246
1023.1299,12.489727680584792
1025.12,12.206243395024558
1027.1093,14.267990566565913
1029.0979,27.874852438408993
1031.0859,39.22671211107456
1033.0731,51.72345240633433
1035.0596,55.964955753693744
1037.0454,49.701104065423806
1039.0304,37.93177869414649
1041.0148,30.70686049547362
1042.9985,15.926229945699333
1044.9814,6.589767214049402
1046.9636,0.447352310488327
1048.9452,9.048865179082895
1050.926,21.49418575942707
1052.9061,39.18319390062675
1054.8855,43.11576923684618
1056.8642,39.94179101041857
1058.8421,36.61113803251919
1060.8194,45.77368871490546
1062.7959,30.42932110322431
1064.7717,36.97791278538568
1066.7469,41.619341045006536
1068.7213,37.25348279592549
1070.695,48.030214535787536
1072.6679,55.449412389703184
1074.6402,74.56095200248126
1076.6117,84.06470846443688
1078.5826,79.81055612027569
1080.5527,54.99836847405686
1082.5221,36.728018231734836
1084.4908,17.749377549280325
1086.4587,6.562318215384721
1088.426,0.816711841245592
1090.3925,-3.5375700275619693
1092.3584,0.049344146369776354
1094.3235,4.727361240773007
1096.2879,26.94638764043168
1098.2515,29.1563296828557
1100.2145,46.857093436091986
1102.1767,77.34858467662445
1104.1382,106.08070871236612
1106.099,137.05337007774483
1108.0591,168.3164722463813
1110.0185,194.96991732136325
1111.9771,219.513605722614
1113.9351,247.8474359203584
1115.8923,296.021304189685
1117.8488,333.88510432720875
1119.8045,309.4387271693316
1121.7596,234.28206021360484
1123.7139,165.3149878631923
1125.6675,127.98739217843774
1127.6204,114.04915356653532
1129.5726,140.85015115480553
1131.524,140.64026293007828
1133.4748,113.86936547068194
1135.4248,83.73733394854264
1137.3741,48.94404239689311
1139.3226,29.689364011593057
1141.2705,24.373171499062096
1143.2176,36.745337268826574
1145.164,41.20573348668154
1147.1097,45.55423195096887
1149.0546,34.34070404797353
1150.9989,22.315020708438396
1152.9424,15.4770525196991
1154.8852,-1.873330154058408
1156.8272,-9.436257103418257
1158.7686,-1.0118394043964827
1160.7092,-10.650093864800624
1162.6491,-7.6510271841627855
1164.5883,0.585460332421917
1166.5267,12.909544813620073
1168.4644,14.771396539348984
1170.4014,45.6211856604308
1172.3377,65.20908217997385
1174.2732,98.33525564487502
1176.2081,147.4998749499407
1178.1421,220.95310800662548
1180.0755,313.04512125138626
1182.0082,362.476078911149
1183.9401,364.24614208238904
1185.8713,307.7554682368209
1187.8017,216.05421120369851
1189.7315,158.34252173472134
1191.6605,92.12054842104726
1193.5888,66.23843827040957
1195.5163,49.39633736933638
1197.4432,32.99439114197196
1199.3693,15.882744518497134
1201.2947,6.211542099149483
1203.2193,11.280928325339119
1205.1432,-0.6589524236388797
1207.0664,-1.3079558812978576
1208.9889,-3.9659311982169356
1210.9106,1.5172855415044069
1212.8316,-10.158102126581639
1214.7519,2.308109317905064
1216.6715,16.816224874784666
1218.5903,29.016549520795934
1220.5084,28.009388064515974
1222.4257,44.79504502435634
1224.3424,47.02382463863523
1226.2583,58.79603069772031
1228.1735,67.21196652174149
1230.0879,99.07193484286802
1232.0016,117.52623772115032
1233.9146,147.27517622591938
1235.8269,160.1190502512444
1237.7384,147.40815821844296
1239.6492,151.69279694764282
1241.5592,158.87326178489002
1243.4686,180.54984655930332
1245.3772,225.82284351126907
1247.285,287.0925430756754
1249.1922,338.20923342918184
1251.0986,385.07319987752317
1253.0042,421.68472434434204
1254.9092,475.7440849025496
1256.8134,542.5515554082099
1258.7169,593.307404959946
1260.6196,648.2118972308657
1262.5216,674.6652899610035
1264.4229,677.3178344082748
1266.3234,656.8197750839431
1268.2232,624.2213497260929
1270.1223,583.6227895046121
1272.0207,553.1743193471752
1273.9183,536.9761583452291
1275.8151,535.0285200584776
1277.7113,560.4316126768632
1279.6067,605.2356390400437
1281.5014,695.4907963833607
1283.3953,808.1972758898002
1285.2885,953.1052617874398
1287.181,1057.9149302223855
1289.0727,1104.1764478096902
1290.9637,1073.8399705852578
1292.854,1013.0556435432283
1294.7435,908.973600939341
1296.6323,823.7439668987803
1298.5204,748.9668564569939
1300.4077,699.5423764119902
1302.2943,663.8706260721093
1304.1802,639.9016977502675
1306.0653,617.4356771206758
1307.9497,590.5726434585276
1309.8333,590.9126698646605
1311.7162,567.1058235341856
1313.5984,554.4521657530869
1315.4798,546.451752136291
1317.3605,540.5046327542037
1319.2405,564.3608522127126
1321.1197,561.82044971266
1322.9982,538.2834588112788
1324.876,502.64990744759893
1326.753,445.16981817781505
1328.6293,390.2432085316236
1330.5048,334.0700915870224
1332.3796,270.7004765195776
1334.2537,229.53436916415478
1336.127,200.4217726486146
1337.9996,178.46268780547462
1339.8714,177.3071134630353
1341.7426,154.95504666497027
1343.6129,153.80648268188224
1345.4826,126.26141523482409
1347.3515,136.3698365067837
1349.2196,121.78173741813544
1351.087,113.7971075255557
1352.9537,109.86593516790344
1354.8197,113.28820754606716
1356.6849,130.76391076227628
1358.5493,130.29302978587805
1360.4131,151.92554827858112
1362.276,170.81144859916424
1364.1383,191.30071158715054
1365.9998,202.74331637394926
1367.8606,209.48924017796264
1369.7206,195.78845819015982
1371.5799,201.29094350661808
1373.4384,200.04666726552978
1375.2962,184.25559859217844
1377.1533,154.21770461138084
1379.0096,120.53295060539801
1380.8652,105.4513003143141
1382.7201,91.97271627288387
1384.5742,69.64715996134964
1386.4275,63.674591940226605
1388.2802,40.754972073558804
1390.132,42.38825958864413
1391.9832,35.174413305231326
1393.8336,34.46339161918689
1395.6832,31.805152574633098
1397.5322,26.84965387105865
1399.3803,18.49685288990071
1401.2278,21.696706744099913
1403.0745,14.949172361628314
1404.9204,3.254206453491463
1406.7656,-3.5882344187968442
1408.6101,0.9218062737350579
1410.4538,-3.0656790934795026
1412.2968,11.249301845775278
1414.139,1.466772083848923
1415.9805,3.1867545005982265
1417.8213,11.80927196121246
1419.6613,32.73434729901362
1421.5006,49.96200322923124
1423.3391,67.94226213975134
1425.1769,95.7251459188405
1427.0139,146.31067577534293
1428.8502,210.19887196085153
1430.6858,256.7397532638533
1432.5206,276.4833363708463
1434.3547,264.3296354009312
1436.188,254.62866170837538
1438.0206,241.78042400414995
1439.8524,237.33492845293944
1441.6835,245.74217880162456
1443.5139,237.05217642373668
1445.3435,240.1149202353858
1447.1724,244.08040678216025
1449.0005,245.69863020849948
1450.8279,231.4695822180388
1452.6545,248.29325205742782
1454.4804,236.11962665862046
1456.3056,234.39869047063831
1458.13,219.98042558130692
1459.9536,218.51481173446513
1461.7766,196.3018264741479
1463.5987,170.54144515924202
1465.4202,147.73364118561636
1467.2409,122.12838624372523
1469.0608,102.42565054668711
1470.88,91.07540308633651
1472.6984,71.1776118302518
1474.5161,57.082243835256975
1476.3331,45.63926544640054
1478.1493,39.99864243790938
1479.9648,46.31034012761745
1481.7795,44.97432343337255
1483.5935,43.090556809919235
1485.4067,43.45900426225916
1487.2192,46.079629364488824
1489.031,50.60239525611479
1490.842,53.377264615847764
1492.6522,50.954199616374694
1494.4618,47.78316189661007
1496.2705,52.31411258592675
1498.0785,41.547012335865986
1499.8858,50.631821274828155
1501.6924,48.668499115743884
1503.4981,40.15700506522563
1505.3032,34.09729784320115
1507.1075,39.039335768028366
1508.911,36.58307681709215
1510.7138,28.628478577384442
1512.5159,26.575498270066532
1514.3172,29.72409283001531
1516.1178,21.0742189263529
1517.9176,22.17583293096027
1519.7166,15.178891004976492
1521.515,18.98334908778253
1523.3126,9.239162966970468
1525.1094,15.046288240299418
1526.9055,14.954680413136828
1528.7008,13.664294840387583
1530.4954,5.725086727409803
1532.2893,12.937011142919062
1534.0824,5.10002309838012
1535.8747,8.864077475887768
1537.6663,6.229129106536789
1539.4572,8.99513273278086
1541.2473,2.6620430347829256
1543.0367,8.679814602754561
1544.8253,18.04840200028707
1546.6132,16.217759704173886
1548.4003,17.137842010724796
1550.1867,16.808603054072137
1551.9723,24.529996796970067
1553.7572,34.75197703408696
1555.5414,44.92449731479138
1557.3247,63.64751084093217
1559.1074,84.7209703651136
1560.8893,110.94482800346435
1562.6705,132.6690350249038
1564.4509,150.2935415889034
1566.2305,157.51829652824404
1568.0094,168.04324717277171
1569.7876,164.36833927714946
1571.565,163.39351691560807
1573.3417,161.51872251869509
1575.1176,169.2938968830232
1576.8928,179.7689791900179
1578.6672,186.99390692816615
1580.4409,217.86861578826517
1582.2138,235.94303959117286
1583.986,260.6671099790615
1585.7575,281.2407562346731
1587.5282,308.76390503407833
1589.2981,328.1364802409411
1591.0673,318.7084026312859
1592.8358,337.12958969977234
1594.6035,334.8499557539764
1596.3704,327.81941173017793
1598.1366,321.8878652161575
1599.9021,299.30522052150167
1601.6668,286.1213787369186
1603.4308,277.68623796006443
1605.194,267.64969342738146
1606.9564,287.3616375984501
1608.7182,318.4219602563538
1610.4791,367.53054831055965
1612.2394,438.33728548631547
1613.9988,493.54205183356385
1615.7576,551.4947230188743
1617.5156,578.5951697733965
1619.2728,561.9432573133329
1621.0293,523.6388450689342
1622.785,441.23178685101857
1624.54,386.27193123401634
1626.2942,309.6591223800395
1628.0477,254.99320058848105
1629.8005,204.92400306214302
1631.5525,164.25136445389523
1633.3037,134.0751173673679
1635.0542,110.04509276367747
1636.804,96.71112026318951
1638.553,79.52302838581875
1640.3013,67.88064468436897
1642.0488,59.38379591641382
1643.7955,55.93230816072037
1645.5416,44.576006902218126
1647.2868,39.514717066513356
1649.0313,40.948263133452656
1650.7751,35.47646918773529
1652.5181,27.899158904578258
1654.2604,32.56615560443393
1656.0019,36.27728232876339
1657.7427,44.082361793365976
1659.4828,55.081216351268296
1661.222,69.92366791467364
1662.9606,91.50953784497318
1664.6984,115.68864680432168
1666.4354,123.66081453977847
1668.1717,124.77585964151672
1669.9072,101.53359946310144
1671.642,77.78385011033922
1673.3761,58.02642667370077
1675.1094,37.76114346581855
1676.8419,27.23781421906091
1678.5737,16.006252288185095
1680.3048,14.816270755570258
1682.0351,9.817682543533152
1683.7646,8.310300426227855
1685.4934,-0.9060629203681003
1687.2215,5.368405096619767
1688.9488,1.9335261216343724
1690.6754,-1.260878254565199
1692.4012,3.985013539444793
1694.1263,4.771035671261757
1695.8506,2.897022268633009
1697.5742,-1.8371925884043776
1699.297,-2.181774848783391
1701.0191,-0.036872107883283434
1702.7404,-0.602610165152555
1704.461,-1.0791144516875875
1706.1808,-5.016504378509325
1707.8999,-0.6648885762853922
1709.6182,-4.224325560804743
1711.3358,1.25513279438033
1713.0527,1.273476816729783
1714.7688,0.7306968211524634
1716.4841,-1.4732168901775538
1718.1987,-3.0882740223930227
1719.9126,1.7355304368099382
1721.6257,-1.1517676484075992
1723.338,0.44986756876053846
1725.0496,-2.2595165587210033
1726.7605,3.6701273176140035
1728.4706,3.9888691188020573
1730.18,6.496778729178544
1731.8886,0.6439259931902086
1733.5964,10.53038069031615
1735.3036,4.256212593596331
1737.0099,4.721491370766756
1738.7156,5.776286647001598
1740.4204,6.620668000260082
1742.1246,5.504704950738727
1743.8279,8.478466952427567
1745.5306,8.242023404269702
1747.2325,10.545443620423725
1748.9336,11.238796832628026
1750.634,12.22215216716657
1752.3336,12.64557863793533
1754.0325,9.059145136608805
1755.7307,10.112920428405687
1757.4281,11.106973187953486
1759.1247,15.991371988750387
1760.8206,11.46618529322501
1762.5158,13.431481403892349
1764.2102,13.18732850860556
1765.9039,8.68379466090309
1767.5968,16.820947782450247
1769.289,13.798855708074257
1770.9804,20.517586104393075
1772.6711,16.12720650003618
1774.361,17.927784218457333
1776.0502,19.719386421838237
1777.7386,21.05208009308285
1779.4263,18.17593201790129
1781.1132,20.241008771482996
1782.7994,20.99737674725813
1784.4849,19.495102136246942
1786.1696,14.38425091949594
1787.8535,19.814888883100565
1789.5367,19.937081669313983
1791.2192,20.750894722240474
1792.9009,19.606393286613496
1794.5818,18.453642399657667
1796.2621,21.89270690253369
1797.9415,21.673651451865993
1799.6202,13.396540485351949
1801.2982,22.011438223952553
1802.9755,21.518408754663454
1804.6519,25.267515944365954
1806.3277,19.808823444757422
1808.0027,21.5923946548601
1809.6769,20.618292775608012
1811.3504,25.836580792011432
1813.0231,21.997321482897632
1814.6951,23.45057736872829
1816.3664,19.59641074999189
1818.0369,27.484883692671247
1819.7067,23.716058066785138
1821.3757,19.289995467503473
1823.044,27.656757252835718
1824.7115,26.966404587891446
1826.3783,27.318998361212664
1828.0443,23.664599191677524
1829.7096,25.103267424974206
1831.3741,25.085063170145105
1833.0379,21.710046285199894
1834.701,25.17827637729772
1836.3633,26.639812836497356
1838.0248,25.14471480107494
1839.6856,23.493041142908538
1841.3457,30.334850482429204
1843.005,29.320201205137636
1844.6636,22.69915139318607
1846.3214,29.871758835524787
1847.9785,28.58808109411254
1849.6349,26.74817543219055
1851.2904,28.602098827119363
1852.9453,29.599907988777744
1854.5994,26.54165934102363
1856.2528,20.47740901171582
1857.9054,27.757212863296644
1859.5572,30.88112655343437
1861.2083,24.749205462225348
1862.8587,31.111504660954637
1864.5084,26.26807897341527
1866.1572,27.76898291228551
1867.8054,28.114270727562797
1869.4528,24.403996391554728
1871.0994,28.2882135954263
1872.7453,28.71697578630247
1874.3905,23.190336128426168
1876.0349,30.558347498870603
1877.6786,27.47106254280571
1879.3215,27.578533599818
1880.9637,27.08081273478352
1882.6051,27.477951736792818
1884.2458,33.77000212412855
1885.8858,28.20701514029375
1887.525,27.139041691091535
1889.1634,31.166132400254952
1890.8011,30.33833762012671
1892.4381,26.5057073913882
1894.0743,33.418291451337566
1895.7098,24.626139272215866
1897.3446,24.82929999208133
1898.9786,30.17782250273072
1900.6118,29.471755447667903
1902.2443,29.461147168618552
1903.8761,28.746045712590885
1905.5071,29.076498831981738
1907.1374,25.552553991727507
1908.7669,27.574258365999768
1910.3957,30.241658873444536
1912.0237,27.854802156965377
1913.651,29.763734557049233
1915.2776,26.71850213563512
1916.9034,29.719150657024812
1918.5285,30.11572561833512
1920.1528,28.108272219491454
1921.7764,22.746835359261965
1923.3992,27.281459655332128
1925.0213,26.512189497919223
1926.6427,26.63906900442599
1928.2633,27.61214202713336
1929.8832,28.68145215193171
1931.5023,29.14704268858999
1933.1207,24.20895666006274
1934.7383,23.817236797834084
1936.3552,25.471925591298643
1937.9714,27.723065291678765
1939.5868,30.870697895477647
1941.2015,23.46486512196776
1942.8154,29.405608381714757
1944.4286,28.24296885063559
1946.041,20.17698741059121
1947.6528,26.657704661012957
1949.2637,21.535160999562308
1950.8739,25.659396557323802
1952.4834,26.53045125003044
1954.0921,26.198364736821347
1955.7001,26.413176411531197
1957.3074,25.17492540601107
1958.9139,27.0836505879803
1960.5197,26.239390573409096
1962.1247,22.642183707431073
1963.729,22.492068072786054
1965.3325,22.039081525792113
1966.9353,29.833261697846652
1968.5374,27.32464599995636
1970.1387,24.013271544795316
1971.7393,20.499175171791208
1973.3392,24.1823934802391
1974.9383,27.512962864442343
1976.5366,24.740919476880407
1978.1342,21.916299194903246
1979.7311,20.23913764845166
1981.3273,24.359470248303637
1982.9227,24.877332202845736
1984.5173,25.942758476869983
1986.1112,23.95578378639506
1987.7044,23.466442588012242
1989.2968,21.974769098754862
1990.8885,23.380797300992
1992.4795,24.634560957345002
1994.0697,22.936093596627373
1995.6592,27.335428501306936
1997.2479,23.432598724490745
1998.8359,21.62763704593158
2000.4232,20.22057601105631
2002.0097,21.161447949015496
2003.5955,25.250284986753996
2005.1805,22.73711903960232
2006.7648,25.621981770388132
2008.3484,22.404904614567982
2009.9312,19.235918751378648
2011.5133,19.515055136007888
2013.0946,23.792344531284343
2014.6752,21.86781750488619
2016.2551,22.641504386568172
2017.8342,18.16343528740694
2019.4126,19.3336400920641
2020.9902,23.20214850356693
2022.5672,20.26899003160635
2024.1433,25.834193953851894
2025.7188,22.14778934528323
2027.2935,22.95980502253812
2028.8674,19.47026958077656
2030.4406,23.579211385560455
2032.0131,21.786658607749146
2033.5849,17.94263918240989
2035.1559,21.597180826743426
2036.7261,24.800311078524132
2038.2957,20.952057259554635
2039.8645,23.30244644363455
2041.4325,22.251505495042906
2042.9998,19.549261045034356
2044.5664,20.845739502348593
2046.1323,20.790967080232704
2047.6974,21.83496978347644
2049.2617,25.627773408959897
2050.8254,19.11940353521358
2052.3883,23.159885484490246
2053.9504,22.29924438784876
2055.5118,21.987505144749164
2057.0725,26.47469243165908
2058.6325,19.810830705171114
2060.1917,22.095944157130987
2061.7502,18.980056781276176
2063.3079,19.813192350384725
2064.8649,16.24537444743416
2066.4212,22.776626457270154
2067.9767,21.006971602284608
2069.5315,17.786432877103266
2071.0856,21.26503306628217
2072.6389,22.64279477651317
2074.1915,17.969740401837782
2075.7433,16.195892109869618
2077.2945,19.62127188852493
2078.8448,22.74590156376108
2080.3945,17.31980276532279
2081.9434,18.042996895495804
2083.4916,20.215505183367924
2085.039,17.78734867759698
2086.5857,21.65854822468583
2088.1317,19.129124493263873
2089.677,21.999097935375076
2091.2215,19.96848881177219
2092.7652,17.88731716321702
2094.3083,17.805602830786583
2095.8506,19.323365476684785
2097.3921,15.890624585059484
2098.933,19.107399446824957
2100.4731,17.92370919398924
2102.0124,23.089572767486416
2103.5511,18.005008929013528
2105.089,24.070036209371978
2106.6261,17.484672959313045
2108.1626,20.14893728888775
2109.6983,18.81284713330045
2111.2332,19.026420226266097
2112.7675,21.389674113371285
2114.301,17.002626149938422
2115.8337,21.96529347739323
2117.3657,22.72769306713522
2118.897,19.139841670911025
2120.4276,19.801755813190354
2121.9575,21.51345182704459
2123.4866,20.47494584752755
2125.0149,22.386253794558655
2126.5426,18.947391383307917
2128.0695,14.458374105082783
2129.5956,21.519217261716875
2131.1211,20.829936010460116
2132.6458,22.69054529337042
2134.1698,17.90105984420633
2135.693,18.561494169820946
2137.2155,18.521862598056856
2138.7373,17.88217927114175
2140.2584,19.792458146084755
2141.7787,20.852713001073226
2143.2983,16.96295741637006
2144.8171,23.523204763711036
2146.3353,19.633468245202465
2147.8527,19.44376082771859
2149.3693,23.754095281798982
2150.8853,17.464484183545594
2152.4005,18.424939871519513
2153.9149,17.035474509636998
2155.4287,18.546100077564972
2156.9417,19.25682838461573
2158.454,19.81767105464057
2159.9655,21.828639518922614
2161.4764,19.48974501056827
2162.9865,16.750998544397618
2164.4958,15.512410940333226
2166.0045,17.57399285078779
2167.5124,22.385754773049854
2169.0195,19.19770702866812
2170.526,19.259859715333775
2172.0317,17.97222273876092
2173.5367,17.684805812065093
2175.0409,19.29761846863967
2176.5445,15.81067006503001
2178.0473,20.173969764805264
2179.5494,19.33752657342795
2181.0507,17.551349294620906
2182.5513,17.215446538731698
2184.0512,18.12982674059448
2185.5504,18.194498162889005
2187.0488,17.95946888699673
2188.5465,17.824746812354178
2190.0435,15.640339658803228
2191.5397,16.85625496793837
2193.0353,15.722500124950713
2194.5301,15.68908234646888
2196.0241,14.056008691896508
2197.5175,14.123286063746463
2199.0101,15.740921223971526
2200.502,19.708920793291654
2201.9931,18.37729123501761
2203.4835,12.496038815371008
2204.9733,15.715169616800566
2206.4622,18.384689596794587
2207.9505,15.954604555689755
2209.438,14.67492010997583
2210.9248,14.695641716596626
2212.4109,17.516774685746753
2213.8962,10.78832418066446
2215.3809,11.010295189420361
2216.8648,16.63269259220182
2218.3479,11.855521159093328
2219.8304,12.178785493852416
2221.3121,14.802490081681398
2222.7931,9.926639285994824
2224.2733,14.601237322182357
2225.7529,15.526288306367363
2227.2317,12.151796208660855
2228.7098,12.777764843911015
2230.1872,9.904197905448143
2231.6638,14.981098958824987
2233.1397,13.858471470552303
2234.6149,9.736318757329897
2236.0894,11.864643997272921
2237.5632,14.443450271133372
2239.0362,12.772740541016844
2240.5085,12.252517624594475
2241.9801,12.232784211810056
2243.4509,9.86354287008227
2244.921,14.144796044502002
2246.3904,12.276546081524685
2247.8591,8.308795186157838
2249.3271,13.641545440643483
2250.7943,12.574798844135799
2252.2608,9.8085572593735
2253.7266,9.69282242334738
2255.1917,12.127595974962588
2256.656,5.962879456196134
2258.1197,12.198674287749114
2259.5826,10.384981830693874
2261.0447,14.471803324116038
2262.5062,10.859139903251531
2263.9669,10.096992558618155
2265.4269,8.935362172142362
2266.8862,7.3742495247807085
2268.3448,12.913655308136157
2269.8026,10.103580140069226
2271.2598,10.294024509303867
2272.7162,7.78498880352835
2274.1719,12.676473307490753
2275.6268,10.46847822808931
2277.0811,13.66100364545754
2278.5346,8.954049535044206
2279.9874,11.44761573568799
2281.4395,6.891701996687175
2282.8908,10.886307952863888
2284.3414,10.281433170123236
2285.7914,9.827077105507314
2287.2406,10.123239113243898
2288.689,11.619918449290026
2290.1368,9.667114268370426
2291.5838,9.714825609010632
2293.0302,8.413051413065148
2294.4758,9.061790525240184
2295.9206,9.611041706111479
2297.3648,7.510803625636925
2298.8082,9.411074857663948
2300.251,9.661853900932059
2301.693,7.413139160070031
2303.1343,11.114928943088174
2304.5748,10.367221483865421
2306.0147,11.17001490513141
2307.4538,7.7233072259436
2308.8922,5.92709635365928
2310.3299,7.231380118402768
2311.7669,7.686156291027373
2313.2031,10.14142257007272
2314.6387,11.197176577216922
2316.0735,9.553415832723857
2317.5076,7.660137744885759
2318.941,6.817339626460708
2320.3737,4.22501871360555
2321.8056,6.733172174303874
2323.2369,12.591797134288981
2324.6674,11.550890651962575
2326.0972,10.710449659808376
2327.5263,17.520470974801256
2328.9547,16.93095130681165
2330.3823,16.541887190505406
2331.8092,12.253274991238882
2333.2355,8.415110908949643
2334.661,11.577391021042516
2336.0858,7.690111320771322
2337.5098,7.553267685616021
2338.9332,11.316855916155504
2340.3558,9.180871737436007
2341.7778,8.195310761335222
2343.199,5.410168507922151
2344.6195,8.975440415312661
2346.0393,7.741121867521059
2347.4583,5.8572081588071825
2348.8767,5.8736945060198025
2350.2943,7.190576067435515
2351.7113,10.907847942594088
2353.1275,8.925505159129528
2354.543,5.2935426355974755
2355.9578,7.911955201298525
2357.3718,4.780737632597862
2358.7852,6.449884626741223
2360.1978,8.76939083316698
2361.6098,7.589250836814713
2363.021,5.759459134930125
2364.4315,8.530010148866495
2365.8413,6.6508982423825245
2367.2504,5.172117693936855
2368.6587,9.24366271547916
2370.0664,4.065527467237928
2371.4733,6.887706017005158
2372.8795,7.310192391917582
2374.285,7.832980550234865
2375.6899,7.506064377114811
2377.0939,2.0294376793854667
2378.4973,9.65309418881425
2379.9,4.527027616874207
2381.3019,4.901231578507492
2382.7032,8.975699643386022
2384.1037,5.550425332169382
2385.5035,6.075402075760238
2386.9027,6.20062324955704
2388.3011,8.626082168204263
2389.6987,4.201772084340135
2391.0957,4.877686164342165
2392.492,8.153817532570145
2393.8876,5.330159264607005
2395.2824,4.756704354497543
2396.6765,4.3334457429849635
2398.07,4.260376323245467
2399.4627,7.38748894512085
2400.8547,5.014776415849141
2402.246,1.8922314687935256
2403.6366,6.019846787169428
2405.0265,6.447615035270033
2406.4156,6.875528817190059
2407.8041,5.30358067254808
2409.1918,6.63176307220742
2410.5789,2.260068433995613
2411.9652,0.9884891094226163
2413.3508,3.7670174273977324
2414.7358,2.3456457069453904
2416.12,5.524366229419883
2417.5035,3.703171252719045
2418.8863,4.882052979497146
2420.2684,3.111003575376728
2421.6497,1.4400151571598485
2423.0304,1.969079810538517
2424.4104,8.348189606804688
2425.7896,1.9773365975594999
2427.1682,2.1065127509222705
2428.546,4.585710015238966
2429.9232,3.614920317790464
2431.2996,2.5441355400005605
2432.6753,4.423347527143825
2434.0503,5.352548099053543
2435.4246,2.031729031329533
2436.7982,3.410882046046197
2438.1711,7.539998844960657
2439.5433,5.619071095721253
2440.9148,3.1480903905763995
2442.2856,4.477048265583775
2443.6557,2.1559362253202465
2445.025,0.934745729592187
2446.3937,5.163468216646628
2447.7617,1.1920951153831538
2449.1289,1.620617803066743
2450.4955,2.6990276450414328
2451.8613,5.677315990445102
2453.2265,3.0554741614254226
2454.5909,8.583493423356884
2455.9546,1.011365011059283
2457.3177,4.239080073517492
2458.68,3.366629749602751
2460.0416,5.794005135795544
2461.4025,1.5711972949100783
2462.7627,2.248197231820562
2464.1222,4.724995935689265
2465.4811,3.7015843731964964
2466.8392,6.12795346377267
2468.1966,5.454094089832374
2469.5533,3.7799970725107173
2470.9093,6.1556531784018915
2472.2645,2.881053136300139
2473.6191,6.95618761344322
2474.973,4.431047248258359
2476.3262,-0.5943773903890062
2477.6787,3.3799042220560906
2479.0305,9.853888547978698
2480.3816,5.177572015964849
2481.7319,5.500950956061764
2483.0816,5.874021646540932
2484.4306,5.2967803106643885
2485.7789,4.619223112953954
2487.1264,7.041346164963649
2488.4733,1.913145532055296
2489.8195,7.834617209177267
2491.165,-0.4942428278534692
2492.5097,7.826561318433853
2493.8538,2.347030482995848
2495.1972,8.467165422523514
2496.5398,5.986966870237602
2497.8818,6.5564354746872695
2499.2231,5.375571824551969
2500.5637,4.294376442946813
2501.9035,3.312849799231202
2503.2427,7.9309923198207954
2504.5812,1.3488043980028124
2505.919,6.066286347754563
2507.256,7.033438469565304
2508.5924,6.80026100326149
2509.9281,1.9167541183351773
2511.2631,3.182917916275869
2512.5974,5.298752479405529
2513.9309,5.514257858216958
2515.2638,3.879434050215494
2516.596,5.9442809977639115
2517.9275,3.3587986044306746
2519.2583,1.972986714341502
2520.5884,6.3868451380341185
2521.9178,2.850373666316436
2523.2465,2.7635720261279317
2524.5745,4.676439915904389
2525.9018,8.788977006445897
2527.2284,6.801182921788154
2528.5543,6.0130571980770995
2529.8796,1.4245993034468754
2531.2041,3.3358086459010536
2532.5279,3.7466846191972536
2533.851,1.857226583735006
2535.1735,5.367433862447051
2536.4952,5.177305759693866
2537.8163,3.6868415261616363
2539.1366,3.09604036076351
2540.4562,7.004901425544219
2541.7752,6.413423851588107
2543.0935,3.971606699930547
2544.411,7.729448967472706
2545.7279,6.086949611399724
2547.0441,3.994107511602266
2548.3596,3.200921487101546
2549.6744,4.50739031697772
2550.9885,6.213512748301731
2552.3019,4.019287483070656
2553.6146,6.974713161146504
2554.9266,4.129788382198406
2556.2379,1.584511676148466
2557.5485,8.488881531620812
2558.8585,3.992896421394562
2560.1677,4.196554733359953
2561.4762,4.099854815478366
2562.7841,3.452794973745611
2564.0913,2.75537347315894
2565.3977,3.507588544187662
2566.7035,5.109438389747389
2568.0086,5.660921177677871
2569.313,8.112035024724499
2570.6167,2.762777991023448
2571.9197,8.36314805559072
2573.222,5.513143169814512
2574.5236,3.012761201451589
2575.8246,6.561999963127292
2577.1248,8.060857237339384
2578.4244,5.709330740965633
2579.7232,6.60741811027529
2581.0214,8.105116924444282
2582.3189,5.9024246965744
2583.6157,8.849338858716258
2584.9118,4.995856783896258
2586.2072,8.041975756647432
2587.5019,4.987693011544266
2588.7959,5.583005702741488
2590.0893,6.977910934516935
2591.3819,5.0724057553184
2592.6739,3.9664871438145752
2593.9652,5.760152027950149
2595.2557,6.053397296004945
2596.5456,9.046219778657296
2597.8348,5.138616246051576
2599.1234,8.88058337786999
2600.4112,9.572117802408592
2601.6983,7.963216059157645
2602.9848,6.2038745918862475
2604.2705,10.244089764731335
2605.5556,8.683857879791155
2606.84,6.273175136723069
2608.1237,6.2620376483458955
2609.4067,6.900441464746706
2610.689,7.788382573392212
2611.9707,7.975856892744723
2613.2516,7.262860263382727
2614.5319,6.699388446126164
2615.8115,6.0854371291663725
2617.0903,8.721001933700826
2618.3685,7.406078420072639
2619.6461,3.5406620614149418
2620.9229,7.1247482568001175
2622.199,7.208332369893974
2623.4745,6.691409693114842
2624.7493,9.173975446797755
2626.0234,4.856024784363683
2627.2968,3.337552767493854
2628.5695,3.41855440930928
2629.8415,5.899024689555489
2631.1128,5.878958553792465
2632.3835,4.6083508885899604
2633.6535,5.03719652172817
2634.9228,5.815490234903798
2636.1914,5.293226759441609
2637.4593,5.820400768511455
2638.7265,5.747006882350952
2639.9931,5.423039662993702
2641.259,5.448493615003294
2642.5242,5.073363188712925
2643.7887,4.897642779970866
2645.0525,6.97132673389175
2646.3156,3.344409346613851
2647.5781,7.7668848445621705
2648.8398,6.138747420717621
2650.1009,4.759991190392327
2651.3613,7.280610207510925
2652.6211,8.750598478398167
2653.8801,6.719949936572725
2655.1385,7.7386584280472945
2656.3961,7.006717731635092
2657.6531,6.274121548762757
2658.9094,4.440863510789761
2660.1651,4.056937186334373
2661.42,3.672336099606248
2662.6743,5.7370537342457055
2663.9279,3.9010835371697397
2665.1808,5.664418897924797
2666.433,5.0270531670465175
2667.6846,7.03897963842639
2668.9354,9.750191555685397
2670.1856,9.060682092054712
2671.4351,9.670444323263652
2672.6839,9.079471234434706
2673.9321,3.437755713985922
2675.1795,4.595290559540693
2676.4263,5.702068534344839
2677.6724,5.508082355691293
2678.9179,4.963324683852321
2680.1626,8.567788124019366
2681.4067,8.371465231750648
2682.6501,7.624348476926507
2683.8928,5.776430245712653
2685.1348,8.977702848031306
2686.3761,3.528158536040401
2687.6168,8.477789472120861
2688.8568,8.126587783372031
2690.0961,6.224545512115391
2691.3348,7.421654619406553
2692.5727,5.2679070040556795
2693.81,5.063294490656418
2695.0466,6.007808851123343
2696.2826,6.451441806738131
2697.5178,5.994185018704407
2698.7524,5.436030083711373
2699.9863,3.226968538506405
2701.2195,5.166991865476611
2702.452,5.256091514739424
2703.6839,6.644258884742378
2704.9151,6.481485321372098
2706.1456,5.917762104072665
2707.3755,7.803080447473327
2708.6046,5.337431507025684
2709.8331,7.07080636015057
2711.0609,8.7531960308945
2712.2881,6.384591472595972
2713.5145,12.814983551061513
2714.7403,8.744363068251747
2715.9654,8.622720697977503
2717.1899,10.650047026605954
2718.4136,10.226332554277132
2719.6367,10.051567674630594
2720.8591,12.875742679042592
2722.0809,11.648847758373712
2723.3019,9.370872974727114
2724.5223,12.791808273717525
2725.7421,11.611643507250935
2726.9611,10.830368399315272
2728.1795,11.747972557782038
2729.3972,13.814445482219053
2730.6142,12.579776554714446
2731.8306,8.893955019211887
2733.0462,9.256969993857307
2734.2612,5.218810507857107
2735.4756,8.729465497847993
2736.6892,7.788923848278586
2737.9022,10.247174356302878
2739.1145,4.754205741185643
2740.3262,5.560006619719903
2741.5372,10.064565561156659
2742.7475,5.667871079146849
2743.9571,2.4699115866957406
2745.1661,9.070675440129921
2746.3744,5.070150971076885
2747.582,4.718326420457355
2748.7889,6.865189978490594
2749.9952,5.210729788212582
2751.2008,1.2549339240073998
2752.4057,1.9477904081518815
2753.61,5.58928725037352
2754.8136,3.1294124409219144
2756.0165,3.018153914153796
2757.2188,0.8554995731317803
2758.4204,2.991437290736947
2759.6213,4.275954931295402
2760.8215,-0.6409596707811147
2762.0211,2.2906812761595994
2763.22,4.620871966956848
2764.4182,2.149606573543103
2765.6158,3.026879221642144
2766.8127,4.452684015481694
2768.009,5.377015029020676
2769.2045,2.4998662916912053
2770.3994,4.071231779155269
2771.5936,0.7411054420761936
2772.7872,2.5094811904049905
2773.9801,0.8763529266816477
2775.1723,1.791714528351335
2776.3639,0.50555986409573
2777.5548,0.46788278467933964
2778.745,0.6286771358111096
2779.9346,0.4879367585211618
2781.1235,-0.2043445124471397
2782.3117,-0.14817284722977675
2783.4992,0.8064476254389419
2784.6861,0.509514257071416
2785.8723,0.11102439111560969
2787.0579,3.260975365924338
2788.2428,-1.6406354812598103
2789.427,0.7061891541960179
2790.6106,-1.8985370331268925
2791.7935,-0.45480035570912136
2792.9757,1.437431840353657
2794.1573,-0.3218032475786785
2795.3382,1.1175315634794458
2796.5184,2.6054766713280415
2797.698,-0.9579275374081888
2798.8769,0.37735929784070876
2800.0551,0.011387107340759428
2801.2327,0.6442058175844352
2802.4096,1.0758653549503236
2803.5859,2.0064156393749855
2804.7615,1.4359065800363382
2805.9364,3.1643880660481543
2807.1106,1.1419099721651698
2808.2842,2.8185221414982387
2809.4572,2.494274405739148
2810.6294,2.569216568394477
2811.801,0.44339840802804176
2812.972,5.216869677511511
2814.1423,8.439680125282592
2815.3119,6.111879447610306
2816.4808,9.18351725636689
2817.6491,11.654643102305823
2818.8167,9.175306444345427
2819.9837,17.345556624857586
2821.15,17.36544289446116
2822.3157,14.785014330319424
2823.4807,22.30431983594126
2824.645,25.1734081669854
2825.8086,36.54232785606741
2826.9716,34.461127184068786
2828.134,39.779854066447754
2829.2957,47.54855607405129
2830.4567,48.517280379927826
2831.617,51.48607368164024
2832.7767,50.85498219157863
2833.9358,55.22405160727236
2835.0941,53.993327117700964
2836.2519,51.162853359603524
2837.4089,45.982674429785824
2838.5653,47.20283391342516
2839.7211,46.32337493587208
2840.8761,41.69434015044881
2842.0306,41.71577174724388
2843.1843,41.18771149940241
2844.3374,43.41020076291184
2845.4899,44.33328048188248
2846.6417,45.556991166322646
2847.7928,47.43137288290786
2848.9433,44.05646524274374
2850.0931,45.782307382622236
2851.2422,44.70893799877061
2852.3907,46.63639532959307
2853.5385,45.164717166404486
2854.6857,48.39394083415574
2855.8323,47.62410320615057
2856.9781,47.25524067175333
2858.1233,49.98738914408733
2859.2679,58.52058406372352
2860.4118,56.95486037135896
2861.555,54.990252422484886
2862.6976,57.626794003043955
2863.8395,62.91451834907627
2864.9808,61.90345812035406
2866.1214,63.09364534750436
2867.2614,61.935111442119606
2868.4007,66.27788718485584
2869.5393,69.32200273701798
2870.6773,66.86748759713207
2871.8146,71.0643705705042
2872.9513,70.51267979376553
2874.0874,68.61244269290356
2875.2227,68.61368598877901
2876.3574,73.16643571612818
2877.4915,73.92071722355053
2878.6249,75.17655512798117
2879.7577,76.8339733071481
2880.8898,80.6929948870137
2882.0212,77.3036422252007
2883.152,81.51593687240188
2884.2821,79.02989960627357
2885.4116,80.59555038931279
2886.5405,82.81290839371752
2887.6686,86.83199198573028
2888.7962,88.35281870346452
2889.923,83.92540521671377
2891.0493,84.54976731174338
2892.1748,82.62591993556464
2893.2997,86.30387718969122
2894.424,81.0836523493776
2895.5476,81.06525782683947
2896.6706,85.14870522345608
2897.7929,87.28400532995398
2898.9145,83.42116808557283
2900.0355,82.96020255671215
2901.1559,81.35111697555985
2902.2756,78.84391874470177
2903.3946,82.13861445321265
2904.513,78.48520990172804
2905.6308,79.98371006949738
2906.7479,81.88411915091797
2907.8643,76.68644054055011
2908.9801,82.04067681411287
2910.0953,81.94682978046094
2911.2098,73.65490042804223
2912.3236,83.51488892583642
2913.4368,80.97679470627416
2914.5494,78.49061636663727
2915.6613,79.35635169443961
2916.7725,78.47399769228889
2917.8831,78.09355056922938
2918.9931,76.86500574956533
2920.1024,69.08835787666553
2921.211,73.51360082524869
2922.319,69.34072777914999
2923.4264,74.31973118706861
2924.5331,68.3006028042964
2925.6391,70.43333364292805
2926.7445,73.11791403205207
2927.8493,64.20433359642377
2928.9534,69.64258122961925
2930.0569,70.38264518317136
2931.1597,68.4745130121871
2932.2619,71.11817156794706
2933.3634,75.11360701698666
2934.4643,67.91080481465968
2935.5645,71.40974966518381
2936.6641,75.81042559366871
2937.763,73.2628159111266
2938.8613,76.71690317046537
2939.959,78.37266919196486
2941.056,74.93009502873585
2942.1523,71.93916095016245
2943.248,68.24984647632783
2944.3431,61.962130407923574
2945.4375,56.77599086314281
2946.5313,56.14140534055734
2947.6244,50.408350770979126
2948.7169,46.67680352380607
2949.8087,45.046739464352584
2950.8999,37.61813399116504
2951.9904,36.79096205232244
2953.0803,30.815198219722443
2954.1696,30.440816697353103
2955.2582,32.21779138105048
2956.3462,28.296095862242513
2957.4335,27.22570341017922
2958.5202,25.606587011149706
2959.6062,32.23871937918604
2960.6916,28.57207297225444
2961.7764,27.056619925933965
2962.8605,28.892332090082938
2963.9439,25.479181043993503
2965.0267,26.317138078034493
2966.1089,29.306174227782925
2967.1905,25.996260265644477
2968.2714,27.937366670963062
2969.3516,26.47946366312002
2970.4312,24.672521182123035
2971.5102,26.266508903185144
2972.5885,24.711396254794224
2973.6662,23.65715240277303
2974.7432,28.8037462658304
2975.8196,24.651146526103663
2976.8954,26.59932157769267
2977.9705,24.048239568185846
2979.045,26.947868379178377
2980.1188,27.69817565178309
2981.192,27.94912875763415
2982.2645,24.900694791383962
2983.3364,24.452840568193647
2984.4077,24.455532654217407
2985.4783,25.60873737108103
2986.5483,22.662420795854995
2987.6177,21.316548749522408
2988.6864,21.521086826442186
2989.7545,18.276000407807775
2990.8219,17.63125465960176
2991.8887,17.836814565046726
2992.9548,15.792644931052731
2994.0204,12.24871038616169
2995.0852,14.45497540098906
2996.1495,14.211404323663228
2997.2131,9.267961357762815
2998.276,11.224610564752425
2999.3383,8.531315913417046
3000.4,7.388041260295566
3001.4611,6.0447503766137345
3002.5215,4.601406959716886
3003.5812,7.1579746465028755
3004.6404,3.214417027855472
3005.6989,1.8706976230787298
3006.7567,4.426779919332525
3007.8139,2.1826273850697717
3008.8705,5.838203444475589
3009.9264,-0.20652850009117074
3010.9818,-0.8016051046536745
3012.0364,2.052939037984604
3013.0905,4.75707734305519
3014.1439,1.9607832052602205
3015.1966,2.964029971731076
3016.2487,-0.8832090300086826
3017.3002,0.46903949792421074
3018.3511,1.5707576766712172
3019.4013,0.17192762268340545
3020.4509,2.4725314367042763
3021.4998,2.2725512177580676
3022.5481,3.6219690401437
3023.5958,4.570766955434593
3024.6428,-0.5810730210155128
3025.6892,2.1164310804394653
3026.735,1.5632670343650652
3027.7802,3.909422594162546
3028.8247,1.2048854976004808
3029.8685,-1.7003565566467582
3030.9118,2.9936841180463425
3031.9544,3.7370121948672903
3032.9963,2.5296323170667563
3034.0376,0.9215490905252963
3035.0783,3.412767095827151
3036.1184,1.3032909043410772
3037.1578,2.2431250533081606
3038.1966,3.1822740669365963
3039.2348,2.320742447003319
3040.2723,2.208534663462535
3041.3092,5.295655163061028
3042.3455,3.482108370460246
3043.3811,5.16789865736509
3044.4161,4.903030360659386
3045.4505,3.487507765547983
3046.4842,5.921335108205438
3047.5173,5.854516589931249
3048.5498,5.287056352811591
3049.5816,4.918958480387477
3050.6128,6.2002270033293705
3051.6434,5.0308659031181495
3052.6734,4.410879099232446
3053.7027,4.740270460842224
3054.7314,7.219043813008668
3055.7594,4.797202933390251
3056.7868,8.524751527455019
3057.8136,5.7516932526989955
3058.8398,5.828031681370696
3059.8653,7.753770328201712
3060.8902,5.678912649643317
3061.9145,9.203462024609092
3062.9381,7.927421775223495
3063.9612,6.400795131576359
3064.9835,5.723585244483317
3066.0053,6.795795200752044
3067.0264,7.917428029954383
3068.0469,12.288486693704222
3069.0668,6.108974074441175
3070.086,8.62889293172
3071.1046,10.898245964005715
3072.1226,8.417035783474411
3073.1399,7.285264893319733
3074.1567,9.40293571256497
3075.1727,8.02005058738077
3076.1882,8.486611769908423
3077.203,10.452621432088716
3078.2173,8.86808166099633
3079.2308,8.13299443917973
3080.2438,6.8473616605065715
3081.2561,7.361185137514571
3082.2678,7.724466614267829
3083.2789,5.7872077612186
3084.2893,5.549410171574474
3085.2991,4.811075380670971
3086.3083,8.522204868349506
3087.3169,5.382800066340748
3088.3248,8.792862321153319
3089.3321,4.052392925467842
3090.3388,4.061393084036325
3091.3449,6.719863961086851
3092.3503,5.777806680233578
3093.3551,6.485222297892025
3094.3593,3.5921118126996543
3095.3629,6.898476158441708
3096.3658,5.1543162329823184
3097.3681,5.059632865200859
3098.3698,5.714426832433546
3099.3708,6.46869886142027
3100.3713,6.3724496217566555
3101.3711,5.325679718351343
3102.3702,6.328389692388483
3103.3688,4.430580031795428
3104.3667,4.732251161215635
3105.364,4.5334034609867695
3106.3607,2.6840372641239876
3107.3568,4.084152858308412
3108.3522,6.183750504380798
3109.347,6.332830422340373
3110.3412,10.131392770348866
3111.3348,3.6294376432397
3112.3277,5.226965034532381
3113.32,4.07397490145204
3114.3117,1.2204671489541585
3115.3028,4.316441641254476
3116.2932,4.961898230364067
3117.2831,5.556836725129587
3118.2723,6.301256884778717
3119.2608,6.145158412970776
3120.2488,4.338540950352514
3121.2361,4.131404076119096
3122.2229,3.7737473260802874
3123.209,6.415570194731812
3124.1944,4.756872138831926
3125.1793,1.8976525509831843
3126.1635,4.987910776219422
3127.1471,5.3276461405979525
3128.1301,4.466857920296979
3129.1125,4.055545338218251
3130.0942,3.2437075725949374
3131.0753,3.031343761104756
3132.0558,4.118453008988355
3133.0357,4.405034391172943
3134.015,6.291086941401208
3134.9936,6.726609649365488
3135.9716,2.0616014418472597
3136.949,4.296061178361899
3137.9258,6.0299876978087745
3138.902,7.91337979612664
3139.8775,5.846236208954382
3140.8524,4.828555592797084
3141.8267,4.1603365456974775
3142.8004,6.091577617412728
3143.7735,6.022277316096641
3144.7459,4.702434088987252
3145.7178,5.282046323099815
3146.689,5.56111235842525
3147.6596,4.539630482134015
3148.6295,5.867598925785444
3149.5989,6.295015875542568
3150.5676,7.0718794588924325
3151.5357,4.748187740371921
3152.5032,4.673938713799127
3153.4701,7.449130325510269
3154.4364,5.273760475102174
3155.402,3.097826987680373
3156.367,6.221327635612791
3157.3315,-1.1057398397109137
3158.2952,4.666622240885641
3159.2584,5.238422602919835
3160.221,3.9096699252428246
3161.1829,5.080372834321546
3162.1442,6.000539917526234
3163.105,4.920179711423396
3164.065,6.639300692574138
3165.0245,5.557911288337776
3165.9834,6.526019859680613
3166.9416,5.643634711989842
3167.8993,7.310764085392461
3168.8563,3.2274161635791185
3169.8127,3.6935990571328228
3170.7684,6.559320844362423
3171.7236,5.574589566640773
3172.6782,6.589413199747526
3173.6321,8.503799663716434
3174.5854,8.067756812687119
3175.5381,5.2312924157612075
3176.4902,7.044414161362759
3177.4417,5.65712968560291
3178.3926,7.719446554148654
3179.3428,5.981372276095685
3180.2924,5.942914283345239
3181.2415,5.454079947984823
3182.1899,3.4648765826728063
3183.1377,7.325311445526753
3184.0848,6.885391760015466
3185.0314,6.795124676354631
3185.9773,7.854517275906017
3186.9227,6.913576572080146
3187.8674,6.922309499742369
3188.8115,7.2807229246222676
3189.755,7.538823643226331
3190.6979,7.646618379253817
3191.6402,5.30411378101575
3192.5818,5.2613164203569704
3193.5229,6.268232816081178
3194.4633,6.974869434378911
3195.4031,7.5812326787583775
3196.3423,7.2873288829790965
3197.2809,7.443164304988252
3198.2189,4.648745129859744
3199.1563,8.654077468235828
3200.0931,5.209167384271305
3201.0292,5.4640208555802054
3201.9648,8.218643807684881
3202.8997,9.873042111467479
3203.834,6.827221555623702
3204.7677,10.581187830118838
3205.7008,4.834946556645951
3206.6333,5.988503251086232
3207.5652,7.441863380971405
3208.4964,5.645032353948159
3209.4271,4.848015503244548
3210.3571,7.700818105638307
3211.2865,6.353445389427008
3212.2154,10.655902505900045
3213.1436,7.958194542812356
3214.0712,10.76032648135985
3214.9982,5.612303223156499
3215.9246,7.264129562213
3216.8503,7.515810236417021
3217.7755,8.467349911014937
3218.7001,6.368753176095011
3219.624,7.370024537072018
3220.5473,5.921168435673191
3221.4701,9.872189239925524
3222.3922,8.97309125864432
3223.3137,10.173878701922993
3224.2346,6.774555690124043
3225.1549,5.775126241871177
3226.0746,7.475594308042551
3226.9937,6.025963781765055
3227.9121,8.226238481409636
3228.83,9.526422165087599
3229.7473,6.076518508647865
3230.6639,10.026531092675134
3231.5799,7.526463436988914
3232.4954,7.826318961143406
3233.4102,4.526101009428174
3234.3244,7.375812847869593
3235.238,6.475457697233019
3236.151,7.775038704525688
3237.0634,7.6745589520002495
3237.9752,7.824021444158969
3238.8864,5.873429108758519
3239.797,7.972784795315354
3240.7069,9.322091294611639
3241.6163,5.67135131770169
3242.5251,7.920567482418908
3243.4332,7.119742349883181
3244.3408,8.46887840200872
3245.2477,5.817978049512314
3246.154,5.567043618421961
3247.0598,7.816077376585881
3247.9649,9.015081536181857
3248.8694,9.014058231226894
3249.7733,8.96300950558719
3250.6766,6.311937312988347
3251.5793,8.560843517525878
3252.4814,6.209729920175922
3253.3829,9.008598236306177
3254.2838,7.357450119187046
3255.1841,6.556287132002939
3256.0838,8.705110764363772
3256.9829,6.903922440316587
3257.8814,7.102723496857315
3258.7792,10.051515201942662
3259.6765,7.400298752502097
3260.5731,7.649075244949935
3261.4692,8.597845701697505
3262.3647,6.146611068665379
3263.2595,11.295372205795674
3264.1538,7.194129911564394
3265.0474,8.442884871493815
3265.9404,7.141637699164919
3266.8329,5.940388923729828
3267.7247,9.53913900292429
3268.616,7.987888335080162
3269.5066,6.986637223137903
3270.3966,8.535385890159093
3271.286,6.784134489338937
