RamanShift,CorrectedData
30.1047,1134.4614512672715
32.3739,1053.33644248525
34.6426,970.1614223586139
36.9109,892.5363690093841
39.1787,808.2112508579673
41.4461,729.6360273994057
43.7131,647.0106500466289
45.9796,566.9350629162061
48.2456,486.00920365459945
50.5112,407.1830042389203
52.7764,328.106391786188
55.0411,249.4292893415917
57.3054,169.3516166692565
59.5692,90.27329103901448
61.8326,10.74422802718172
64.0955,-64.43565769265872
66.3579,-142.466451554366
68.6199,-210.2475952795789
70.8815,-269.9771073500855
73.1426,-296.100905874197
75.4032,-217.41221188892246
77.6634,107.84871161677825
79.9231,985.4437736019423
82.1824,3021.98488194712
84.4412,6839.883934678423
86.6995,12342.802799602117
88.9574,17842.503276125626
91.2148,21787.797040228357
93.4717,23690.99558946466
95.7282,24160.710203510942
97.9842,24102.801925133637
100.2398,23625.731555492086
102.4949,23067.65965471761
104.7495,22311.796546684207
107.0036,21551.302324589295
109.2573,20694.73685851231
111.5105,19907.959803019683
113.7632,19112.88060573047
116.0154,18435.15851518412
118.2672,17885.502588791293
120.5185,17268.271699611058
122.7693,16846.724541847452
125.0197,16490.769637021815
127.2696,16122.715338188216
129.519,15912.519833493054
131.7679,15664.141149855559
134.0163,15479.337155069767
136.2642,15256.215560288303
138.5117,15058.833921870435
140.7587,14787.299643613256
143.0052,14582.36997872554
145.2512,14297.452032543059
147.4967,14026.952764577883
149.7417,13831.378991367568
151.9863,13618.537389180146
154.2304,13517.834495969855
156.4739,13314.276713505562
158.717,13171.920308377787
160.9596,12932.421414034292
163.2017,12594.686032203634
165.4433,12233.670035290152
167.6844,11857.379169751333
169.925,11458.169059707965
172.1651,11023.045210707038
174.4047,10677.563013713856
176.6439,10336.727749463276
178.8825,10034.894591914519
181.1206,9785.068611659539
183.3582,9554.754778941333
185.5954,9379.307966152224
187.832,9164.932950136988
190.0681,9042.534413947316
192.3037,8985.66694898558
194.5388,8879.685056228798
196.7734,8802.343146797328
199.0075,8772.545543014669
201.2411,8814.896479180905
203.4742,8803.200101870654
205.7068,8842.26046950958
207.9389,8850.131552491348
210.1704,8879.317232787012
212.4015,8917.621303866319
214.632,9022.297470405843
216.862,9099.899347905954
219.0915,9218.330461644036
221.3205,9415.9942458985
223.549,9597.944042764444
225.777,9860.38310017703
228.0044,10182.864570091991
230.2314,10642.141505861226
232.4578,11025.71685900799
234.6837,11334.093474634123
236.909,11488.32408758431
239.1339,11333.511319362304
241.3582,10988.107676588614
243.582,10525.565552548636
245.8053,10070.83723064671
248.0281,9642.324889031504
250.2503,9253.230605143333
252.472,8997.106359999258
254.6932,8844.404042084036
256.9139,8603.825449911365
259.134,8464.222293550909
261.3536,8321.846197034069
263.5727,8196.698699750039
265.7912,7983.931257869548
268.0092,7892.445245596343
270.2267,7746.691957294862
272.4436,7606.8726084050895
274.6601,7495.0383369001
276.8759,7397.590204684242
279.0913,7325.929198711488
281.3061,7304.906231959915
283.5204,7353.572144148302
285.7341,7391.927701946377
287.9473,7513.573598488141
290.16,7726.860452988331
292.3721,7988.488809525946
294.5837,8382.709134911389
296.7947,8678.371816070172
299.0052,8829.52715610072
301.2152,8610.525371317744
303.4246,8165.516589740692
305.6334,7570.300853283756
307.8418,6982.628122205965
310.0495,6562.298281063347
312.2568,6246.961144585646
314.4635,5977.766461879635
316.6696,5932.36391958247
318.8752,5856.803144553652
321.0802,5888.033704329039
323.2847,5950.405107876466
325.4887,5950.616805283434
327.692,5853.918187133398
329.8949,5698.158584503648
332.0972,5401.287269932302
334.2989,5059.503458975891
336.5001,4715.9563131780815
338.7007,4481.89494348751
340.9008,4332.76841369326
343.1003,4198.175742765465
345.2992,4109.865906346582
347.4976,4028.987838097313
349.6955,3998.9904305797027
351.8927,4032.072536065927
354.0895,3981.382966838255
356.2856,3971.4704948582366
358.4812,3935.183852273596
360.6763,3932.3217315173642
362.8707,3850.582785670729
365.0646,3804.9156284916717
367.258,3770.2688352323494
369.4508,3766.290943095766
371.643,3770.930451582233
373.8346,3700.2358225291646
376.0257,3628.505480064672
378.2162,3478.537811314518
380.4062,3354.0811671194097
382.5956,3179.283863534687
384.7844,3048.7441830748758
386.9726,2895.9103764616702
389.1603,2820.430663929332
391.3474,2757.753236753024
393.5339,2702.276258003605
395.7199,2623.9478631744078
397.9052,2619.2661607360005
400.09,2601.3792329194875
402.2743,2600.4351357633095
404.4579,2620.2818992921184
406.641,2708.9675275262234
408.8235,2903.639998283119
411.0054,3210.6972622906324
413.1868,3624.0872412401895
415.3675,3984.657824716256
417.5477,4181.456866062426
419.7273,4162.682178775722
421.9064,4039.1315345385974
424.0848,3838.152663406692
426.2627,3623.4432550443344
428.4399,3315.400960734327
430.6166,2955.573395525047
432.7928,2580.2081413108663
434.9683,2242.0527504304355
437.1432,2042.8047494203201
439.3176,1864.4616423965617
441.4914,1731.0209130471612
443.6645,1683.93002641551
445.8371,1609.1864302347913
448.0091,1524.2875553988906
450.1806,1460.880816709836
452.3514,1383.7136137267826
454.5216,1334.1833314000833
456.6913,1242.3373408429597
458.8603,1264.0729998268052
461.0288,1315.6876536996388
463.1967,1323.0286351687646
465.3639,1427.943263784604
467.5306,1554.878845867308
469.6967,1693.6826734575898
471.8622,1864.302023047383
474.0271,2006.3341541917944
476.1914,2040.8763078029133
478.3551,2000.9757047294843
480.5182,1940.179545411498
482.6807,1894.8850102791876
484.8426,1906.9392603610013
487.0039,2151.239437736538
489.1647,2493.3326654160064
491.3248,2905.0160448972365
493.4843,3103.8366527447324
495.6432,3086.2915364728397
497.8015,3004.2777125575485
499.9592,3032.692166611938
502.1163,2969.4318542063156
504.2728,2796.4437005840737
506.4287,2503.8746012942865
508.5839,2097.871423921604
510.7386,1749.8810110119248
512.8927,1524.1501841324534
515.0461,1380.8257473515769
517.199,1257.6544894961844
519.3512,1212.833185584912
521.5029,1161.458598059855
523.6539,1172.2774772347784
525.8043,1181.7365618088734
527.9541,1204.5325787585534
530.1033,1256.5622432428772
532.2519,1326.222258375583
534.3999,1490.6593147047915
536.5472,1796.8200895164027
538.694,2283.801245189725
540.8401,2900.0994261358737
542.9856,3427.5112539279544
545.1305,3613.5833211380814
547.2748,3430.412186063266
549.4185,3020.1943708646813
551.5615,2610.72636339939
553.704,2441.204621322504
555.8458,2313.9755761818833
557.987,2263.0856351133425
560.1276,2170.731182112948
562.2675,2066.2085785459076
564.4069,1933.1641640701218
566.5456,1787.394257681408
568.6837,1681.2951590439461
570.8212,1459.5631499479787
572.958,1261.394495370796
575.0942,1129.2854456940586
577.2299,1018.682238685491
579.3648,1082.6811008199602
581.4992,1186.1282483855139
583.6329,1393.6698868434014
585.766,1619.7522097935835
587.8985,1731.6713968993427
590.0304,1714.0736116264306
592.1616,1679.2550001238924
594.2922,1576.2616914000355
596.4222,1487.0397976706336
598.5515,1309.0354153888366
600.6802,1150.9946261374043
602.8083,979.4134984087486
604.9358,930.038089185331
607.0626,857.314445655491
609.1888,770.7886057071883
611.3144,665.6565986552396
613.4393,516.5144461065865
615.5636,389.70816301160266
617.6873,252.0337591555235
619.8103,228.23724042650792
621.9327,186.26461019238195
624.0544,187.41186953861143
626.1756,210.27501768801812
628.2961,183.9000519893052
630.4159,128.8329676884332
632.5351,102.71975819237014
634.6537,69.45641561975026
636.7716,45.98893106202195
638.8889,38.81329491608085
641.0056,69.17549711893298
643.1216,68.27152721946186
645.237,100.39737407479697
647.3518,101.69902585935415
649.4659,148.5724697435744
651.5793,161.2636918809112
653.6922,153.3186769390959
655.8043,133.33340797323035
657.9159,115.55386650523178
660.0268,56.376032723688695
662.137,12.495885661659486
664.2466,-35.4905962115663
666.3556,-43.63755926059275
668.4639,-39.59879529897444
670.5716,22.272339798946632
672.6786,119.37288575079037
674.785,211.64988205146255
676.8907,290.7503670021433
678.9958,379.57137678751496
681.1002,351.0099446847562
683.204,349.51310017534524
685.3072,314.9278692306507
687.4097,241.30127432691916
689.5115,174.08033479111873
691.6127,104.41206753721235
693.7132,61.99348773835845
695.8131,-3.928390476399727
697.9123,-8.006553597941092
700.0109,-69.74394887253584
702.1089,-80.29344356099136
704.2061,-62.80720818206282
706.3028,-31.68661112301743
708.3987,58.317606672892
710.4941,154.50502081163904
712.5887,319.8252063160362
714.6827,617.2777366638456
716.7761,1012.3621821345787
718.8688,1372.9781068349785
720.9608,1590.0750647481655
723.0522,1593.8025961274925
725.1429,1358.2602253255573
727.233,990.897460756938
729.3224,681.8137972536115
731.4112,390.2087197385845
733.4993,218.73170631672474
735.5867,105.33223119082322
737.6735,5.709766376348853
739.7596,35.91378283545964
741.845,-0.006248526780836983
743.9298,15.399142835556631
746.014,31.72942753082316
748.0974,48.084076013372396
750.1802,85.66255842027385
752.2624,62.51434440776029
754.3439,96.48890277543978
756.4247,157.68570169778468
758.5048,260.1542083843742
760.5843,429.34388846793627
762.6631,700.654204979659
764.7413,1057.434616657296
766.8188,1594.034575232059
768.8956,2023.8535218608213
770.9718,2308.74088176011
773.0473,2200.2960599079197
775.1221,1909.668438194839
777.1962,1577.4073765084986
779.2697,1415.5122156398484
781.3426,1474.282280605772
783.4147,1813.466882268035
785.4862,2134.6153167455795
787.557,2151.726862022688
789.6271,1794.450774737491
791.6966,1302.0862900108514
793.7654,845.6826250191389
795.8335,568.3889839178564
797.901,419.2045624056891
799.9678,363.3285504974283
802.0339,407.2101340158315
804.0993,513.2984951503649
806.1641,513.5428120184024
808.2282,473.6422576043351
810.2916,408.8959997571319
812.3544,308.7532015893403
814.4164,224.26302212455084
816.4778,226.9246172988187
818.5385,208.53714080557074
820.5986,274.84974406899164
822.658,300.0615764278991
824.7166,348.12178447261977
826.7747,491.7295117928661
828.832,577.6838984971373
830.8886,706.2840797766348
832.9446,828.5791850457217
834.9999,936.0683366559288
837.0545,1033.3006486729964
839.1085,1089.4252258019787
841.1618,1133.0911624149358
843.2143,1145.7975419896757
845.2662,1086.1434366731019
847.3175,1032.9279071541505
849.368,972.4000032603262
851.4179,882.9587644898538
853.467,749.0032206169699
855.5155,667.6323925863189
857.5633,566.7952938525204
859.6105,459.09093119387217
861.6569,401.3683057207236
863.7027,355.7264139525223
865.7478,359.26424839503034
867.7922,370.7807979967556
869.8359,443.37504811356393
871.8789,565.8959803935204
873.9212,755.8925720509405
875.9629,942.8137946411853
878.0039,1091.9586121606899
880.0441,1201.4259791777604
882.0837,1199.964839341118
884.1226,1114.8741242852248
886.1609,941.5527536448944
888.1984,839.6496359062048
890.2352,763.1136701397072
892.2714,735.6937470194662
894.3069,712.6387495884137
896.3416,696.4475535325473
898.3757,677.4190274114753
900.4091,681.4020328203314
902.4418,710.7454245800673
904.4739,734.0480506976164
906.5052,722.258752072461
908.5358,649.5263622636066
910.5658,511.4497076074831
912.595,373.42760794525566
914.6236,279.50887800359124
916.6515,271.2923287748845
918.6786,279.5767684564462
920.7051,338.01100253266213
922.7309,470.5938336921554
924.756,559.02406124344
926.7804,651.1504797890921
928.8041,623.0718783414568
930.8272,663.0370394013753
932.8495,602.3947392389755
934.8711,559.4437474940214
936.892,424.83282778233115
938.9123,250.56073812528757
940.9318,140.77623229595247
942.9506,44.87806156177794
944.9688,-26.48502421754347
946.9862,-38.61427563109646
949.003,-86.71067868257796
951.019,-48.17483361907489
953.0344,-13.256474447998698
955.0491,32.095146089824084
957.063,117.38090768574148
959.0763,232.551689710157
961.0888,268.6083703596678
963.1007,351.15182550535246
965.1119,392.4329283322122
967.1223,444.7025485137319
969.1321,454.06155179907
971.1412,504.71079949035993
973.1495,567.1511483491258
975.1572,587.1834500897876
977.1641,632.0085507552549
979.1704,647.2772905166057
981.1759,620.8905032248358
983.1808,720.2990162581737
985.1849,818.7536507859468
987.1884,983.45522077449
989.1911,1157.8045320026113
991.1932,1326.1523804145618
993.1945,1381.5495503765515
995.1951,1361.7968129932688
997.1951,1354.6449255539137
999.1943,1274.794631729721
1001.1928,1228.1466616454845
1003.1906,1237.2517326780535
1005.1877,1278.7605499228148
1007.1841,1253.2238061026383
1009.1798,1177.44218115279
1011.1748,976.166342476301
1013.1691,804.0969457017791
1015.1627,635.4346366961754
1017.1556,474.8300532854719
1019.1477,415.43382694130196
1021.1392,378.4465843870057
1023.1299,397.1189481915799
1025.12,430.05153713956406
1027.1093,483.99496604430533
1029.0979,553.449845418645
1031.0859,651.8167809354736
1033.0731,634.9963727331915
1035.0596,574.3392144320278
1037.0454,438.69589330225335
1039.0304,350.2669908707485
1041.0148,263.303084277436
1042.9985,187.15474715956952
1044.9814,174.72255052137461
1046.9636,135.70706349553348
1048.9452,126.05885346750347
1050.926,152.5784864656789
1052.9061,171.01652725786334
1054.8855,133.92353908608493
1056.8642,181.25008348220126
1058.8421,238.34672063883863
1060.8194,266.9140089361308
1062.7959,287.4525043707454
1064.7717,289.06276027020886
1066.7469,336.2453270875285
1068.7213,312.80075238508743
1070.695,277.0295803628205
1072.6679,234.5323520926595
1074.6402,207.2096058762445
1076.6117,191.8118776698966
1078.5826,227.28970135784493
1080.5527,306.64360890620355
1082.5221,461.4741300081878
1084.4908,685.531791290583
1086.4587,897.6671147654315
1088.426,1063.6306155894654
1090.3925,1046.9227999427467
1092.3584,977.0441633690334
1094.3235,855.4951909428555
1096.2879,750.3263579683053
1098.2515,719.7381311945283
1100.2145,744.0309698674046
1102.1767,811.2553260354407
1104.1382,944.4116443068342
1106.099,1145.600361177234
1108.0591,1321.3219036981718
1110.0185,1472.2766874651797
1111.9771,1488.0651148605757
1113.9351,1292.8375735439095
1115.8923,992.8944362940856
1117.8488,703.6360629616338
1119.8045,448.1128034681442
1121.7596,331.7750006988517
1123.7139,278.8729930578629
1125.6675,312.55711563154
1127.6204,362.67770071751875
1129.5726,418.7350774878605
1131.524,470.8295714878577
1133.4748,503.4115040754541
1135.4248,555.7311919002987
1137.3741,605.1889465779286
1139.3226,572.0350741665716
1141.2705,552.6698746725633
1143.2176,500.843642381893
1145.164,559.9066660538538
1147.1097,587.3592294393056
1149.0546,602.4516106900446
1150.9989,474.8340820842759
1152.9424,340.25690987569305
1154.8852,167.57035556965093
1156.8272,61.874677268937376
1158.7686,-0.7798685993620893
1160.7092,-16.493026226905386
1162.6491,5.885467985529431
1164.5883,57.656042402500134
1166.5267,134.11912532970655
1168.4644,283.27514449629234
1170.4014,447.0745262902101
1172.3377,659.617694266668
1174.2732,857.6550675101271
1176.2081,1063.6870585088745
1178.1421,1197.3140711746473
1180.0755,1319.9864987823157
1182.0082,1327.0547226336066
1183.9401,1276.0191108303916
1185.8713,1096.03001820399
1187.8017,875.0877868255366
1189.7315,662.4427478058715
1191.6605,455.64522350495645
1193.5888,303.24552965832936
1195.5163,218.19397744507842
1197.4432,138.4908750118384
1199.3693,74.88652832330536
1201.2947,68.38124195927139
1203.2193,60.97531975066431
1205.1432,107.21906484460214
1207.0664,152.31277977845366
1208.9889,238.4567660174016
1210.9106,326.85132350349977
1212.8316,416.6967497942369
1214.7519,496.54333917859003
1216.6715,525.1413817785751
1218.5903,518.1411627507741
1220.5084,493.84296200035897
1222.4257,443.89705425109514
1224.3424,424.50370928831853
1226.2583,475.4131924583962
1228.1735,579.8257648626613
1230.0879,736.4416828483172
1232.0016,869.0611969643123
1233.9146,896.9345503951781
1235.8269,829.6619776348389
1237.7384,710.3437042078749
1239.6492,579.9299473422479
1241.5592,502.4709171624836
1243.4686,428.9168179938106
1245.3772,371.4678491367513
1247.285,318.47420560266073
1249.1922,286.33607868821946
1251.0986,306.2036565053677
1253.0042,335.127124302684
1254.9092,406.3566642667165
1256.8134,496.2424552327393
1258.7169,643.5846719724632
1260.6196,794.6334842951755
1262.5216,955.9390555743175
1264.4229,1085.201541237001
1266.3234,1186.0710871509473
1268.2232,1266.8978283318665
1270.1223,1224.8818879347564
1272.0207,1205.1733764456421
1273.9183,1189.1223921017272
1275.8151,1156.1790210884874
1277.7113,1066.4433377001724
1279.6067,934.7154046692494
1281.5014,807.1952740637535
1283.3953,693.9829886045673
1285.2885,610.9785829406255
1287.181,563.5320847810344
1289.0727,600.4435157251164
1290.9637,648.9128917368735
1292.854,755.6902227758737
1294.7435,911.0255123125598
1296.6323,1129.4687562604768
1298.5204,1355.069941422912
1300.4077,1602.8290433084721
1302.2943,1798.8960238750642
1304.1802,1883.2708290523105
1306.0653,1820.353386780872
1307.9497,1708.0936061687098
1309.8333,1672.2413781202486
1311.7162,1676.2465764589842
1313.5984,1756.1090582859997
1315.4798,1910.9786639399108
1317.3605,2075.855216198246
1319.2405,2238.738518728752
1321.1197,2280.828354440624
1322.9982,2273.674483855677
1324.876,2268.1766446874426
1326.753,2251.984551912711
1328.6293,2284.2478978265053
1330.5048,2311.316352204003
1332.3796,2300.989561977907
1334.2537,2283.867150967756
1336.127,2256.498719983197
1337.9996,2246.683846995208
1339.8714,2218.0720874097838
1341.7426,2148.8629741660793
1343.6129,2106.9060180225297
1345.4826,2079.200708248944
1347.3515,2025.99651304607
1349.2196,1994.6928798226536
1351.087,2001.2892357274736
1352.9537,2045.8849879623863
1354.8197,2181.129523716359
1356.6849,2349.0222097195087
1358.5493,2412.412390890662
1360.4131,2418.249388658426
1362.276,2347.3325003272857
1364.1383,2230.0609990192324
1365.9998,2058.0841343829334
1367.8606,1826.6511337664497
1369.7206,1633.1612039370034
1371.5799,1505.313533395305
1373.4384,1413.4072943104557
1375.2962,1309.3416437984233
1377.1533,1123.6657248411052
1379.0096,890.6286673269828
1380.8652,696.9795899078799
1382.7201,499.8676023293383
1384.5742,333.04180736710305
1386.4275,235.8513027982467
1388.2802,146.84518306942618
1390.132,84.27254026878609
1391.9832,40.53246501602189
1393.8336,5.824047088105999
1395.6832,-14.003624143314028
1397.5322,-14.651459364829407
1399.3803,-26.470229366826516
1401.2278,-26.160558571615184
1403.0745,-22.972806963913627
1404.9204,1.4429268155381578
1406.7656,24.736773624340003
1408.6101,58.35886430566552
1410.4538,84.90932945532086
1412.2968,131.0882990855289
1414.139,213.94590235941905
1415.9805,277.83226712924125
1417.8213,388.6475191077884
1419.6613,521.1417812295304
1421.5006,687.9651725424651
1423.3391,954.317806883173
1425.1769,1289.4997912085828
1427.0139,1773.4612229324512
1428.8502,2316.1521865735344
1430.6858,2885.32274891598
1432.5206,3284.2229535824144
1434.3547,3502.0028153422363
1436.188,3575.762316122616
1438.0206,3505.551402830702
1439.8524,3400.369986616015
1441.6835,3313.1179435725676
1443.5139,3244.49511579067
1445.3435,3206.0013122294554
1447.1724,3185.7863094031104
1449.0005,3132.199851765805
1450.8279,3057.1916519138513
1452.6545,3030.811391121564
1454.4804,3063.7587200913417
1456.3056,3058.933259217471
1458.13,2993.4345982566533
1459.9536,2799.762296376258
1461.7766,2484.4158828093096
1463.5987,2130.0448587912124
1465.4202,1784.0987007132126
1467.2409,1487.2268636661083
1469.0608,1263.77878489971
1470.88,1045.8038867915625
1472.6984,859.5015790814227
1474.5161,691.8712610510102
1476.3331,581.3623233870298
1478.1493,482.77414985747555
1479.9648,402.35611841672153
1481.7795,325.2076021913999
1483.5935,286.8779702845827
1485.4067,260.716588547265
1487.2192,217.62281996166485
1489.031,214.94602490283387
1490.842,175.73556156959603
1492.6522,158.69078601131787
1494.4618,139.11105252001062
1496.2705,131.69571380077878
1498.0785,120.44412116761669
1499.8858,112.75562461756317
1501.6924,123.52957294321732
1503.4981,120.71531380962415
1505.3032,121.66219364653489
1507.1075,111.46955767654754
1508.911,99.98674990564177
1510.7138,93.31311322510282
1512.5159,69.8479895263481
1514.3172,58.84071976766836
1516.1178,25.14064420887371
1517.9176,28.147102521370925
1519.7166,11.709434125161806
1521.515,7.476978158777911
1523.3126,-5.000926356341097
1525.1094,7.875059526476434
1526.9055,-6.5456752868435615
1528.7008,-10.813741969124294
1530.4954,-19.679686301895345
1532.2893,-9.99394603740484
1534.0824,-19.85676232783726
1535.8747,-12.118276485857223
1537.6663,-15.078431455074224
1539.4572,-1.8370491175196548
1541.2473,-11.993800721692878
1543.0367,18.151660836024803
1544.8253,-2.7001975226799004
1546.6132,42.40109094236459
1548.4003,39.30601994630206
1550.1867,52.71508278026931
1551.9723,94.97877234234284
1553.7572,109.89758100345261
1555.5414,147.1220001847405
1557.3247,186.2025202083737
1559.1074,229.8896299253006
1560.8893,286.3338163244466
1562.6705,342.83556409584025
1564.4509,426.5953550661743
1566.2305,491.1636676337853
1568.0094,594.89097593106
1569.7876,685.1277491787487
1571.565,744.4244506486925
1573.3417,810.1315367614557
1575.1176,827.64945649336
1576.8928,814.228650719413
1578.6672,751.3695520381302
1580.4409,672.0725849057399
1582.2138,553.0381662647787
1583.986,446.9167063370596
1585.7575,397.5586098140143
1587.5282,330.4642769179104
1589.2981,280.33410389542905
1591.0673,259.7684836886101
1592.8358,246.06780643615275
1594.6035,263.28245967907515
1596.3704,261.91282849771824
1598.1366,282.2092953396009
1599.9021,303.97224003311476
1601.6668,344.80203958456013
1603.4308,383.7490679605148
1605.194,452.3136956795388
1606.9564,548.0962894227018
1608.7182,634.4472113479387
1610.4791,759.3168181322217
1612.2394,905.4054601080511
1613.9988,1069.963480014761
1615.7576,1288.8912115376334
1617.5156,1490.538977662317
1619.2728,1729.9070884855487
1621.0293,1874.2458391986788
1622.785,1958.9555076939878
1624.54,1922.7363531212955
1626.2942,1807.2386150408715
1628.0477,1615.06251378562
1629.8005,1418.9082516160606
1631.5525,1224.8760146420882
1633.3037,1044.415974784517
1635.0542,904.6282917154026
1636.804,797.9131146626414
1638.553,726.5205838078477
1640.3013,700.7508313535054
1642.0488,682.1039822368944
1643.7955,687.7301543877861
1645.5416,697.7294589149151
1647.2868,759.7520000497138
1649.0313,829.3978750463234
1650.7751,959.2671735613635
1652.5181,1129.9599769574756
1654.2604,1361.6763570046323
1656.0019,1657.0163741732058
1657.7427,1973.1800753168054
1659.4828,2300.5674907188777
1661.222,2502.7786309310695
1662.9606,2535.713483499353
1664.6984,2398.8220109419153
1666.4354,2108.1041504198092
1668.1717,1731.809815105869
1669.9072,1349.0888970918863
1671.642,1038.5912711515566
1673.3761,781.2667985676865
1675.1094,605.7153302371714
1676.8419,501.5367092442393
1678.5737,383.93077261596727
1680.3048,311.4473523640638
1682.0351,269.6862766609304
1683.7646,206.09737056449603
1685.4934,189.9304564358274
1687.2215,170.48535457501634
1688.9488,140.61188338285274
1690.6754,123.90985955527299
1692.4012,114.42909838209607
1694.1263,101.41941391404043
1695.8506,105.43061905753643
1697.5742,93.51252570481961
1699.297,70.1649446938211
1701.0191,62.487685927344955
1702.7404,57.73055860654699
1704.461,46.19337130770623
1706.1808,30.075932029798196
1707.8999,41.47804830986479
1709.6182,34.249527384188696
1711.3358,34.29017607427295
1713.0527,29.899800859126117
1714.7688,12.178207874856753
1716.4841,27.575202958576256
1718.1987,22.94059182561523
1719.9126,9.87417991555435
1721.6257,19.275772438568993
1723.338,13.145174506093326
1725.0496,10.282191036804761
1726.7605,15.986626817928254
1728.4706,1.0082865338686133
1730.18,4.546974709164715
1731.8886,-6.897504141725449
1733.5964,-3.5753455498145286
1735.3036,0.9633238599515153
1737.0099,-4.331586819673021
1738.7156,-9.21016850556498
1740.4204,2.577531157950034
1742.1246,12.831556536130392
1743.8279,13.751951968459025
1745.5306,8.438761666104256
1747.2325,0.642029702715945
1748.9336,0.21180006755571412
1750.634,-10.651883256533665
1752.3336,-2.498976288827862
1754.0325,5.620671363710699
1755.7307,8.907235058892638
1757.4281,8.610890098322443
1759.1247,14.48181169453369
1760.8206,16.17017497395227
1762.5158,12.626154918185648
1764.2102,9.399926347142127
1765.9039,8.49166395446764
1767.5968,10.101542339810976
1769.289,1.72973601790477
1770.9804,3.0264194024673543
1772.6711,6.941766889920018
1774.361,8.12595284642157
1776.0502,23.92915156871345
1777.7386,31.351537272279074
1779.4263,13.193283933309658
1781.1132,13.554565214482636
1782.7994,14.485554646543733
1784.4849,19.436425624693584
1786.1696,8.057351399277877
1787.8535,23.298505026278235
1789.5367,19.260059481104236
1791.2192,30.19218750618029
1792.9009,22.945061651332253
1794.5818,27.168854164464847
1796.2621,21.16373706403374
1797.9415,34.97988209680648
1799.6202,44.867460797913964
1801.2982,32.176644352689436
1802.9755,28.30760349779166
1804.6519,25.260508648113955
1806.3277,25.435529935473824
1808.0027,31.53283723908521
1809.6769,42.90260018380559
1811.3504,39.794988079165705
1813.0231,43.710169805669466
1814.6951,56.84831384587255
1816.3664,56.60958824522868
1818.0369,44.194160480709115
1819.7067,44.552197463190396
1821.3757,49.63386566160693
1823.044,54.93933109937143
1824.7115,57.068759303559546
1826.3783,47.02231525185425
1828.0443,48.70016335125115
1829.7096,50.402467538524434
1831.3741,63.32939126344763
1833.0379,59.63109747177009
1834.701,51.45774847594748
1836.3633,66.1095059921256
1838.0248,68.78653122187302
1839.6856,64.43898470566478
1841.3457,64.46702629611013
1843.005,59.770815201430196
1844.6636,71.0505099851764
1846.3214,58.50626861319347
1847.9785,76.33824834082202
1849.6349,77.09660583834034
1851.2904,67.38149701264501
1852.9453,75.39307699966639
1854.5994,82.03150026152116
1856.2528,84.44692050639514
1857.9054,78.78949062215997
1859.5572,85.60936265221858
1861.2083,83.70668785207954
1862.8587,85.63161662115795
1864.5084,78.53429852180307
1866.1572,90.01488226004903
1867.8054,77.07351575658618
1869.4528,95.41034603195794
1871.0994,74.82551933597256
1872.7453,81.01918096433565
1874.3905,85.04147546449758
1876.0349,80.84254657371912
1877.6786,83.42253717884637
1879.3215,79.4315893582991
1880.9637,81.91984435627273
1882.6051,87.43744262264681
1884.2458,76.38452378810439
1885.8858,82.86122660895376
1887.525,91.9676890776584
1889.1634,74.4540483580704
1890.8011,80.12044069436615
1892.4381,93.1670015861821
1894.0743,84.04386573195052
1895.7098,93.15116689843398
1897.3446,81.68903801195643
1898.9786,94.55761106733121
1900.6118,87.80701724248274
1902.2443,93.08738676975895
1903.8761,86.24884900343886
1905.5071,92.94153236692773
1907.1374,86.81556442114334
1908.7669,90.62107179758823
1910.3957,85.95818025961012
1912.0237,85.02701466434655
1913.651,81.32769900935364
1915.2776,85.81035644191775
1916.9034,92.07510929604928
1918.5285,91.72207904765469
1920.1528,76.15138625189024
1921.7764,86.6131505466924
1923.3992,89.25749080848414
1925.0213,73.73452504755687
1926.6427,73.64437038162737
1928.2633,65.53714319106803
1929.8832,83.76295911980719
1931.5023,81.67193315640293
1933.1207,86.36417945178414
1934.7383,77.68981134016008
1936.3552,80.14894129210052
1937.9714,66.49168100127599
1939.5868,81.96814135986938
1941.2015,56.7284325951473
1942.8154,74.22266411469468
1944.4286,68.9509447588132
1946.041,74.56338262557801
1947.6528,64.01008512355611
1949.2637,60.49115891568067
1950.8739,57.256710024784525
1952.4834,67.00684386878947
1954.0921,72.19166529304994
1955.7001,66.11127847285252
1957.3074,63.21578686156886
1958.9139,64.00529325145772
1960.5197,53.92989980262064
1962.1247,57.98970803510633
1963.729,44.78481892966556
1965.3325,52.16533288715118
1966.9353,53.53134986057012
1968.5374,47.43296928127529
1970.1387,56.07029004530705
1971.7393,53.743410574376185
1973.3392,45.05242872949111
1974.9383,41.147441834226356
1976.5366,45.9785467616332
1978.1342,49.84583997328832
1979.7311,51.19941747098369
1981.3273,48.239374758052236
1982.9227,48.9158068258339
1984.5173,44.82880818327499
1986.1112,57.92847285016455
1987.7044,46.91489439800307
1989.2968,52.93816581900796
1990.8885,59.848379636247955
1992.4795,49.59562784341142
1994.0697,57.08000183570266
1995.6592,50.551592512371144
1997.2479,48.160490201866196
1998.8359,39.156784727121476
2000.4232,45.340565429466324
2002.0097,45.161921258662915
2003.5955,46.32094071106758
2005.1805,50.817711831418364
2006.7648,44.602322201243624
2008.3484,43.62485889389609
2009.9312,57.03540853670506
2011.5133,39.93405732075257
2013.0946,38.37089086676633
2014.6752,31.79599439613412
2016.2551,43.40945274653427
2017.8342,53.8613504376865
2019.4126,45.95177155521617
2020.9902,48.03079964613596
2022.5672,45.398517797941395
2024.1433,44.955008617820795
2025.7188,55.00035425897795
2027.2935,46.23463642506715
2028.8674,54.157936269738684
2030.4406,39.22033448429761
2032.0131,41.1719112184702
2033.5849,43.46274622978001
2035.1559,48.94291886403255
2036.7261,41.36250803240557
2038.2957,40.42159215664867
2039.8645,40.87024924488617
2041.4325,43.308556901027714
2042.9998,45.98659232028092
2044.5664,43.50443226476841
2046.1323,43.96215303674762
2047.6974,38.60983050343157
2049.2617,37.69754009241228
2050.8254,39.925356845184524
2052.3883,49.843355426267635
2053.9504,43.80161010092809
2055.5118,38.60019463599917
2057.0725,36.6891823602989
2058.6325,36.568646216643174
2060.1917,47.538658780956666
2061.7502,42.44929226347779
2063.3079,35.85061839905916
2064.8649,41.19270849806048
2066.4212,41.77563351233573
2067.9767,26.39946398181246
2069.5315,41.96427002866233
2071.0856,40.47012151106276
2072.6389,35.667087867549185
2074.1915,35.655238131955684
2075.7433,31.534640981446273
2077.2945,32.95536473663287
2078.8448,30.41747740278197
2080.3945,33.42104665560646
2081.9434,25.966139866644426
2083.4916,27.70282407322395
2085.039,28.931166053012248
2086.5857,26.551232306648558
2088.1317,25.41308904546122
2089.677,29.516802215265784
2091.2215,15.962437507747495
2092.7652,22.300060319423665
2094.3083,24.979735887187417
2095.8506,35.30152922493107
2097.3921,35.11550509675044
2098.933,32.071727913726704
2100.4731,31.620261735786244
2102.0124,30.461170302138612
2103.5511,36.79451703579116
2105.089,36.82036505513986
2106.6261,42.58877711063599
2108.1626,33.09981558452762
2109.6983,37.25354243317577
2111.2332,38.40001928194408
2112.7675,33.28930738366091
2114.301,30.721467607155205
2115.8337,35.746560488363116
2117.3657,29.064646256006995
2118.897,35.375784781343555
2120.4276,26.08003564498381
2121.9575,28.377458073781213
2123.4866,28.11811103378966
2125.0149,29.902053207288873
2126.5426,30.729342995377237
2128.0695,41.450038500132905
2129.5956,33.964197516341756
2131.1211,31.721877424289573
2132.6458,38.92313526462101
2134.1698,33.56802776076211
2135.693,32.05661124690869
2137.2155,36.638941721576884
2138.7373,37.61507486271705
2140.2584,38.83506598189024
2141.7787,35.298970014507404
2143.2983,40.256841507628906
2144.8171,28.95873465532577
2146.3353,30.40470324910052
2147.8527,23.59480079086859
2149.3693,36.37908047849919
2150.8853,31.75759527391358
2152.4005,22.68039777524291
2153.9149,36.44754026304281
2155.4287,30.359074791065837
2156.9417,26.56505304858922
2158.454,26.16552642130057
2159.9655,25.61054602923707
2161.4764,33.000162730781426
2162.9865,35.384427128211314
2164.4958,34.0133894938034
2166.0045,33.88709974599067
2167.5124,38.40560746307301
2169.0195,40.36896188447906
2170.526,33.177211865582535
2172.0317,35.78040585806764
2173.5367,32.12859198184708
2175.0409,26.22181799903001
2176.5445,39.96013135043995
2178.0473,32.94357921468304
2179.5494,26.472208370764065
2181.0507,27.846065268252346
2182.5513,27.165196091996222
2184.0512,27.579646748383652
2185.5504,32.1894628721509
2187.0488,31.344689822237797
2188.5465,29.09537263569075
2190.0435,26.641556036108568
2191.5397,27.933284456137585
2193.0353,30.87060206200863
2194.5301,26.503552740620762
2196.0241,27.432180070167306
2197.5175,33.00652736380641
2199.0101,23.676637660374354
2200.502,25.29255366864254
2201.9931,19.65431786061606
2203.4835,20.811972455375212
2204.9733,19.36555947545685
2206.4622,29.365120735278765
2207.9505,26.26069785560378
2209.438,24.402332163543406
2210.9248,22.39006472360245
2212.4109,27.973936356262925
2213.8962,20.70398765810637
2215.3809,17.0802589459754
2216.8648,18.40279032967328
2218.3479,19.621621748201164
2219.8304,26.136792956532872
2221.3121,19.448343513426153
2222.7931,19.856312716271304
2224.2733,20.660739667975463
2225.7529,14.211663272883584
2227.2317,17.70912222873335
2228.7098,23.653155091146687
2230.1872,26.443800238654603
2231.6638,11.181095813256889
2233.1397,16.76507969251577
2234.6149,18.44578964218249
2236.0894,19.52326326035802
2237.5632,12.547537960685304
2239.0362,13.718650961575577
2240.5085,17.18663935596453
2241.9801,14.151540099601561
2243.4509,12.363389976370286
2244.921,11.67222562863924
2246.3904,14.47808357514316
2247.8591,12.731000217895144
2249.3271,19.481011814127896
2250.7943,8.428154493763827
2252.2608,5.622464191916265
2253.7266,9.6139767594168
2255.1917,16.252727990872813
2256.656,8.488753584752203
2258.1197,13.822089076995326
2259.5826,17.152769918655736
2261.0447,6.380831422566644
2262.5062,17.70630873003381
2263.9669,11.679236918554693
2265.4269,14.549650888564315
2266.8862,12.91758542370576
2268.3448,13.433075162125874
2269.8026,14.396154612795954
2271.2598,11.156858150356925
2272.7162,14.015220005488572
2274.1719,11.221274297301875
2275.6268,24.4750550047562
2277.0811,21.776595994597983
2278.5346,10.525930888823495
2279.9874,3.1230930916633497
2281.4395,21.968115902089153
2282.8908,17.511001419372292
2284.3414,20.95175152310287
2285.7914,12.090367917762023
2287.2406,12.47685209831377
2288.689,21.711205438818865
2290.1368,12.443429188570008
2291.5838,16.77352437974821
2293.0302,29.701491920100352
2294.4758,15.97733254963805
2295.9206,23.80104671135871
2297.3648,13.72263468848655
2298.8082,23.842096526235537
2300.251,22.409432132593338
2301.693,14.174641177127
2303.1343,24.337723105309806
2304.5748,14.848677220868922
2306.0147,25.607502584154304
2307.4538,22.2141981070298
2308.8922,11.91876244528396
2310.3299,21.471194032564313
2311.7669,13.471491183331182
2313.2031,16.51965199733354
2314.6387,16.315674439605687
2316.0735,21.35955630998592
2317.5076,17.001295245156143
2318.941,28.94088866820266
2320.3737,6.578333832199405
2321.8056,14.163627700811162
2323.2369,22.44676717191942
2324.6674,21.177749001770053
2326.0972,22.80656972214149
2327.5263,19.8332256530349
2328.9547,15.107712886386139
2330.3823,17.330027315799043
2331.8092,19.25016468380079
2333.2355,16.268120559619092
2334.661,18.18389031997981
2336.0858,21.997469178927872
2337.5098,29.408852168669682
2338.9332,18.26803410143623
2340.3558,22.77500949537091
2341.7778,20.97977268593627
2343.199,17.88231778084571
2344.6195,22.03263867801502
2346.0393,21.83072909653697
2347.4583,27.32658253517866
2348.8767,27.570192274401165
2350.2943,28.711551321399952
2351.7113,36.75065240766912
2353.1275,32.48748797758776
2354.543,24.622050108028475
2355.9578,31.654330550988675
2357.3718,28.9343208122458
2358.7852,29.312012081034254
2360.1978,32.687395257244816
2361.6098,31.01046094764888
2363.021,29.43119943214424
2364.4315,28.19960068052444
2365.8413,32.715654368270634
2367.2504,31.829349888868933
2368.6587,26.2406763086492
2370.0664,30.399622375647937
2371.4733,30.106176575495738
2372.8795,37.61032708982691
2374.285,33.91206179921414
2375.6899,31.311368208127192
2377.0939,25.708233481915727
2378.4973,34.052644472815246
2379.9,26.394587775979574
2381.3019,33.034049646036465
2382.7032,32.22101607366778
2384.1037,32.25547271921522
2385.5035,31.037404920810502
2386.9027,31.76679769403131
2388.3011,25.093635744081155
2389.6987,25.667903458496085
2391.0957,26.139584973876083
2392.492,22.508664170142083
2393.8876,25.675124665819794
2395.2824,33.48894985434828
2396.6765,28.000122872415716
2398.07,24.308626521820656
2399.4627,25.514443324361025
2400.8547,25.117555558748222
2402.246,28.317945248549677
2403.6366,27.36559416615728
2405.0265,18.110483800783697
2406.4156,22.8525953679856
2407.8041,30.54190990221508
2409.1918,23.97840820939848
2410.5789,26.81207079004332
2411.9652,28.94287790487317
2413.3508,28.120809546490875
2414.7358,31.745845418070644
2416.12,29.317964941578794
2417.5035,29.637147221523378
2418.8863,35.35337106923316
2420.2684,32.616614999665615
2421.6497,36.626857174244776
2423.0304,27.484075428228778
2424.4104,36.488247230607556
2425.7896,34.889349775530434
2427.1682,35.88735989226416
2428.546,32.732254061182175
2429.9232,25.774008403784705
2431.2996,42.71259871424991
2432.6753,35.14800052901563
2434.0503,37.03018895739399
2435.4246,37.80913875721728
2436.7982,35.78482431601594
2438.1711,34.3072196432297
2439.5433,30.1762983904498
2440.9148,32.192033866195686
2442.2856,36.40439907722407
2443.6557,29.96336670837144
2445.025,35.068909080430615
2446.3937,29.97099821456129
2447.7617,33.56960578123369
2449.1289,39.264703151208664
2450.4955,44.756261359551104
2451.8613,35.5942510486791
2453.2265,43.87864241344829
2454.5909,36.35940529277195
2455.9546,35.53650908677736
2457.3177,37.359922831997835
2458.68,39.27961520960196
2460.0416,37.895554527159106
2461.4025,39.90770869944282
2462.7627,44.01604526227135
2464.1222,42.52053135238623
2465.4811,54.071133666368496
2466.8392,49.16781847559429
2468.1966,53.710551510728294
2469.5533,49.64929801075738
2470.9093,49.334022677562984
2472.2645,53.71468971653388
2473.6191,54.04126283971857
2474.973,51.76370522201876
2476.3262,57.38197949792362
2477.6787,47.446047784285554
2479.0305,51.70587162413722
2480.3816,48.711412086051155
2481.7319,50.21262972154159
2483.0816,45.10948459500867
2484.4306,49.4019362687265
2485.7789,52.63994385387434
2487.1264,47.77346596761237
2488.4733,51.85246070070144
2489.8195,50.62688566616811
2491.165,44.04669795851436
2492.5097,50.96185416597348
2493.8538,51.67231043631193
2495.1972,44.778022407677724
2496.5398,50.87894520149604
2497.8818,49.92503349141202
2499.2231,55.916241442281546
2500.5637,52.802522719710566
2501.9035,51.18383043014285
2503.2427,49.410117151996985
2504.5812,51.38133495185349
2505.919,46.44743540219224
2507.256,54.558369561679626
2508.5924,55.61408802450802
2509.9281,51.964540839286315
2511.2631,62.80967749848253
2512.5974,60.29944697491942
2513.9309,56.43379761332318
2515.2638,60.66267715542563
2516.596,62.536032778620665
2517.9275,56.00381105367552
2519.2583,51.515957925997384
2520.5884,56.722418780955365
2521.9178,55.02313848875923
2523.2465,59.41806135239483
2524.5745,53.65713112461657
2525.9018,60.74029096399863
2527.2284,61.11748349254378
2528.5543,65.48865072485245
2529.8796,57.75373406435028
2531.2041,57.56267425957657
2532.5279,59.76541148153325
2533.851,55.41188532559573
2535.1735,57.502034789485265
2536.4952,63.235798316804505
2537.8163,67.56311377613576
2539.1366,68.23391840370374
2540.4562,59.9981487601022
2541.7752,60.155740723585836
2543.0935,61.20662957242797
2544.411,60.600749983344826
2545.7279,61.038036020986226
2547.0441,66.06842114399456
2548.3596,66.54183820063201
2549.6744,61.95821937847683
2550.9885,60.66749619968874
2552.3019,67.16959956684565
2553.6146,68.86445977585072
2554.9266,61.902006450911244
2556.2379,67.88216852758995
2557.5485,63.904874322429976
2558.8585,62.070051473152716
2560.1677,60.777626978431385
2561.4762,64.9775272162388
2562.7841,67.66967795677152
2564.0913,72.30400432045127
2565.3977,64.78043075100294
2566.7035,64.24888096911195
2568.0086,66.75927804765917
2569.313,61.56154441703711
2570.6167,70.80560184004548
2571.9197,72.09137146386888
2573.222,71.66877372763588
2574.5236,72.83772834956142
2575.8246,66.29815433117312
2577.1248,74.69996994562132
2578.4244,77.84309280307508
2579.7232,71.32743976670383
2581.0214,78.20292692124622
2582.3189,85.71946963816663
2583.6157,81.57698250690026
2584.9118,82.07537925968808
2586.2072,78.8645728130009
2587.5019,85.79447526255615
2588.7959,81.26499791542545
2590.0893,93.726051220736
2591.3819,88.87754481496506
2592.6739,93.06938739732959
2593.9652,93.80148677827094
2595.2557,96.17374983753706
2596.5456,90.68608251686078
2597.8348,95.78838979623777
2599.1234,109.53057574880285
2600.4112,109.11254348980731
2601.6983,113.13419503919664
2602.9848,114.84543132579125
2604.2705,116.99615214706944
2605.5556,113.13625615205547
2606.84,110.06564081981179
2608.1237,107.18420249803876
2609.4067,113.79183643378019
2610.689,109.088436802238
2611.9707,112.27389664069625
2613.2516,113.74810789555443
2614.5319,106.9109613904734
2615.8115,104.26234681163305
2617.0903,104.65215277610383
2618.3685,108.98026685833293
2619.6461,109.4965755862458
2620.9229,106.80096439796563
2622.199,110.0433176366497
2623.4745,112.27351857744594
2624.7493,106.2914493950691
2626.0234,111.996991141499
2627.2968,109.39002380580109
2628.5695,111.72042625707115
2629.8415,108.63807627050465
2631.1128,110.99285050409321
2632.3835,111.23462452944756
2633.6535,111.36327280825037
2634.9228,119.07866868983797
2636.1914,115.98068440991415
2637.4593,115.91919101339602
2638.7265,116.744058385394
2639.9931,114.30515525182687
2641.259,114.35234917117293
2642.5242,114.28550655885897
2643.7887,114.50449268678852
2645.0525,109.65917168401018
2646.3156,108.94940653452767
2647.5781,104.87505912575295
2648.8398,107.63599025560421
2650.1009,106.28205967324914
2651.3613,112.01312605149553
2652.6211,109.07904700033095
2653.8801,109.87967900961172
2655.1385,106.41487747840392
2656.3961,112.284496706977
2657.6531,112.28838993145172
2658.9094,113.57640926510408
2660.1651,110.84840569832613
2661.42,120.2542290857462
2662.6743,113.1437281735084
2663.9279,119.96675050521469
2665.1808,120.02314249302998
2666.433,117.21274934945166
2667.6846,123.68541508674605
2668.9354,123.6909825450519
2670.1856,134.07929332765406
2671.4351,128.95018780092755
2672.6839,132.25350499045476
2673.9321,132.23908263231618
2675.1795,138.15675714005755
2676.4263,132.50636360483355
2677.6724,140.93773573623173
2678.9179,136.75070591877596
2680.1626,144.745105127613
2681.4067,141.17076297038255
2682.6501,138.37750760727346
2683.8928,136.81516578676695
2685.1348,137.48356287356933
2686.3761,135.63252286423528
2687.6168,132.7618683804841
2688.8568,129.32142068770986
2690.0961,128.46099972368825
2691.3348,124.28042413298107
2692.5727,120.72951127554006
2693.81,115.85807726851306
2695.0466,116.41593702175271
2696.2826,120.30290428653132
2697.5178,114.76879164996149
2698.7524,112.06341049612735
2699.9863,117.08657106142482
2701.2195,121.3380824616159
2702.452,124.9177526415969
2703.6839,122.27538833288338
2704.9151,121.06079501781375
2706.1456,139.2737769559725
2707.3755,143.51413719633615
2708.6046,144.73167739514395
2709.8331,151.02619777349383
2711.0609,153.24749710516733
2712.2881,162.69537265368388
2713.5145,164.1196201500881
2714.7403,182.970033698471
2715.9654,189.04640576172744
2717.1899,193.19852697305197
2718.4136,209.22618607517535
2719.6367,213.52916987884305
2720.8591,229.3572631025388
2722.0809,237.21024832945483
2723.3019,246.13790584921082
2724.5223,251.49001357932417
2725.7421,245.9163469759332
2726.9611,255.2666789802767
2728.1795,253.14078007442987
2729.3972,250.8884181878014
2730.6142,230.75935871839198
2731.8306,217.00336455531834
2733.0462,210.42019628010388
2734.2612,193.85961230423834
2735.4756,181.2213689350096
2736.6892,166.50522054110962
2737.9022,152.9109196790169
2739.1145,142.03821724015768
2740.3262,121.43686258684914
2741.5372,116.70660366102629
2742.7475,103.99718719025566
2743.9571,86.9583587350379
2745.1661,89.9398628159019
2746.3744,76.14144308379298
2747.582,64.71284229025804
2748.7889,62.853802425429706
2749.9952,49.01406483231233
2751.2008,46.49337022537219
2752.4057,38.841458828935174
2753.61,38.85807040239371
2754.8136,34.44294431672586
2756.0165,43.04581955432906
2757.2188,32.16643475317164
2758.4204,34.65452812076376
2759.6213,35.95983754295156
2760.8215,33.2321005590361
2762.0211,28.721054348720315
2763.22,24.27643575938606
2764.4182,22.04798135120484
2765.6158,19.435427441584068
2766.8127,7.888510127451582
2768.009,6.356965311381032
2769.2045,4.440528817061136
2770.3994,0.93893640461107
2771.5936,-12.948076210255124
2772.7872,-3.9207733212127778
2773.9801,-14.729289870655919
2775.1723,-11.523721632453373
2776.3639,-6.954017234868502
2777.5548,-15.62001018418556
2778.745,-10.771464516056767
2779.9346,-11.007988222232939
2781.1235,-16.579081687534597
2782.3117,-12.73413532697981
2783.4992,-15.42237393056081
2784.6861,-9.642895074257865
2785.8723,-5.394642264535889
2787.0579,0.9235373246615382
2788.2428,3.162850411867282
2789.427,7.924503706379085
2790.6106,16.659703885866463
2791.7935,21.01965754875374
2792.9757,25.455571126868563
2794.1573,38.36865084184183
2795.3382,54.860102660749135
2796.5184,65.4311321669797
2797.698,71.23294439532197
2798.8769,87.66674372625334
2800.0551,105.13373382792201
2801.2327,118.98511749180881
2802.4096,136.52209645805755
2803.5859,145.89587127696075
2804.7615,162.25764113359037
2805.9364,191.40860375405975
2807.1106,200.299955241906
2808.2842,233.18288978658074
2809.4572,249.25859957453605
2810.6294,291.87827446039546
2811.801,330.4931018061964
2812.972,358.4042660551942
2814.1423,395.26294834571297
2815.3119,430.8703262320342
2816.4808,466.0775733158106
2817.6491,522.0358588899916
2818.8167,547.7963475867512
2819.9837,593.8101988179044
2821.15,631.428566517304
2822.3157,676.0025986806997
2823.4807,704.0334369895563
2824.645,740.2722163653129
2825.8086,768.3700646890742
2826.9716,810.4781024392232
2828.134,836.4474424104421
2829.2957,861.8791892926324
2830.4567,880.0244394112221
2831.617,892.7342804728466
2832.7767,910.4597913838977
2833.9358,896.5520421234239
2835.0941,887.7620935658764
2836.2519,881.5909976201863
2837.4089,877.3397973176636
2838.5653,863.359526873709
2839.7211,856.2512117303244
2840.8761,876.1158686959172
2842.0306,879.654506016384
2843.1843,906.3681231764606
2844.3374,954.3077108643396
2845.4899,1009.1242507045317
2846.6417,1072.118714778471
2847.7928,1132.8920650763494
2848.9433,1200.4452528671718
2850.0931,1269.3292180910228
2851.2422,1344.0948886835345
2852.3907,1392.8431798870467
2853.5385,1450.6749935029513
2854.6857,1515.1912174042084
2855.8323,1558.2927249570282
2856.9781,1592.3803743757092
2858.1233,1633.0550082916227
2859.2679,1665.5174534123362
2860.4118,1710.518520114869
2861.555,1749.909002121064
2862.6976,1779.9896760475804
2863.8395,1791.411301011988
2864.9808,1810.0246183319582
2866.1214,1820.6303514110518
2867.2614,1847.3292055525828
2868.4007,1849.7218678535621
2869.5393,1869.0090069377084
2870.6773,1879.0912729315223
2871.8146,1872.169297271414
2872.9513,1888.1436926028832
2874.0874,1882.815052849734
2875.2227,1870.883953054337
2876.3574,1858.600949430911
2877.4915,1833.5165794848353
2878.6249,1816.4813621354815
2879.7577,1800.9957979670544
2880.8898,1776.0603693989467
2882.0212,1759.4255408405922
2883.152,1748.4417589408213
2884.2821,1741.9094527542106
2885.4116,1733.6790338509186
2886.5405,1726.450896382008
2887.6686,1738.0754171617539
2888.7962,1731.502955739922
2889.923,1744.3838542855233
2891.0493,1748.6684376525413
2892.1748,1757.8570132511195
2893.2997,1771.999871004718
2894.424,1791.997283258227
2895.5476,1806.2995046365388
2896.6706,1828.1567718445717
2897.7929,1850.5693035242505
2898.9145,1877.337300035932
2900.0355,1896.66094323428
2901.1559,1931.2903962005848
2902.2756,1963.0758030495294
2903.3946,1995.5172885828915
2904.513,1999.9649579716897
2905.6308,2037.9688964317734
2906.7479,2061.279169179339
2907.8643,2085.3458210508975
2908.9801,2108.618876270167
2910.0953,2112.6483382074084
2911.2098,2086.8841891466936
2912.3236,2104.9263902456114
2913.4368,2094.924881792909
2914.5494,2073.5795830280713
2915.6613,2039.2903922413325
2916.7725,2036.6071869871334
2917.8831,2003.9298244270094
2918.9931,1980.8081413564257
2920.1024,1954.8419545315487
2921.211,1939.7310609004637
2922.319,1930.3252378628367
2923.4264,1905.724243421024
2924.5331,1898.8278162741285
2925.6391,1889.0856760640117
2926.7445,1882.2475234442572
2927.8493,1875.2130401775917
2928.9534,1865.4318892042672
2930.0569,1873.4037147124059
2931.1597,1857.1781422358108
2932.2619,1851.3547785742485
2933.3634,1850.7332119557027
2934.4643,1842.8630120946118
2935.5645,1820.1937301980815
2936.6641,1791.724899044587
2937.763,1761.3560332106667
2938.8613,1703.6366293556107
2939.959,1669.9661665251492
2941.056,1607.4941067286445
2942.1523,1528.3698952757993
2943.248,1444.4929614013745
2944.3431,1353.9627190564333
2945.4375,1280.178567747108
2946.5313,1177.5398934399054
2947.6244,1109.246069299546
2948.7169,1015.0964567153513
2949.8087,925.290405984184
2950.8999,853.7772572519406
2951.9904,781.6563414116151
2953.0803,720.9769808184292
2954.1696,674.7384900110407
2955.2582,627.7901763183381
2956.3462,584.4813403218257
2957.4335,558.3612763251053
2958.5202,527.079272786967
2959.6062,511.0346125825869
2960.6916,498.32657331634965
2961.7764,473.15442748229407
2962.8605,467.06744259119307
2963.9439,452.3148814222755
2965.0267,450.2960020840958
2966.1089,441.6100581620599
2967.1905,447.5062987386138
2968.2714,451.5839684801031
2969.3516,450.79230757781085
2970.4312,459.13055170718025
2971.5102,455.2979320357319
2972.5885,451.49367513968105
2973.6662,467.2170030422639
2974.7432,457.9671332517804
2975.8196,466.6932786043599
2976.8954,451.24464735646126
2977.9705,442.9704430976102
2979.045,447.01986490488684
2980.1188,424.79210742566676
2981.192,407.53636083712706
2982.2645,398.951811068524
2983.3364,379.9376399737504
2984.4077,356.19302541718093
2985.4783,325.6171414638142
2986.5483,309.15915861671914
2987.6177,278.3182441227929
2988.6864,249.4935621373417
2989.7545,225.9842740324894
2990.8219,201.43953868542445
2991.8887,183.15851271349294
2992.9548,148.84035071964576
2994.0204,128.63420547524868
2995.0852,109.88922826326433
2996.1495,89.15456908031342
2997.2131,76.6793768241248
2998.276,61.612799500881636
2999.3383,42.653984349973655
3000.4,32.60207799466275
3001.4611,30.50622663167104
3002.5215,21.365576131700266
3003.5812,10.37927206038978
3004.6404,4.646459769723492
3005.6989,-0.43371549210729654
3006.7567,-5.6621085233755934
3007.8139,-14.389569789536893
3008.8705,-7.066893191582778
3009.9264,-9.594728878702824
3010.9818,-10.273656401823871
3012.0364,-1.9541594605313435
3013.0905,-10.536619120583282
3014.1439,-4.271396925684769
3015.1966,0.1912508412839884
3016.2487,-2.698889431302291
3017.3002,1.5079686430188985
3018.3511,12.161638412615389
3019.4013,11.161933210775373
3020.4509,12.30866624917087
3021.4998,20.451650627854917
3022.5481,23.940699323793694
3023.5958,24.625625109437294
3024.6428,30.106240517829008
3025.6892,32.78235783575582
3026.735,42.30378904894263
3027.7802,52.42034581529066
3028.8247,47.931839369663635
3029.8685,61.58808042272199
3030.9118,69.33887920580798
3031.9544,80.08404533438329
3032.9963,82.52338773052077
3034.0376,88.5067145154531
3035.0783,91.18383298517915
3036.1184,102.80454955063078
3037.1578,106.51866971090169
3038.1966,113.82599793704037
3039.2348,113.27633763490877
3040.2723,115.86949107210916
3041.3092,123.40525938348054
3042.3455,119.53344254516708
3043.3811,126.40383929926043
3044.4161,122.01624719251811
3045.4505,120.47046250765919
3046.4842,117.61628030724043
3047.5173,117.50349444911424
3048.5498,114.93189761497027
3049.5816,112.80128131146347
3050.6128,108.1114358959297
3051.6434,113.36215059769228
3052.6734,109.40321356496017
3053.7027,98.18441181232092
3054.7314,103.9055312603301
3055.7594,103.16635684769932
3056.7868,99.21667247408493
3057.8136,94.65626100747994
3058.8398,95.68490432371073
3059.8653,95.10238335204102
3060.8902,91.40847806488568
3061.9145,90.90296748363568
3062.9381,92.38562971559728
3063.9612,88.60624195904722
3064.9835,84.16458048840616
3066.0053,79.01042069203214
3067.0264,75.64353711663762
3068.0469,71.9137035188308
3069.0668,72.17069289878475
3070.086,68.1142775375354
3071.1046,62.04422899441198
3072.1226,62.86031814760091
3073.1399,51.462315254846374
3074.1567,50.34998994528942
3075.1727,39.0231113334481
3076.1882,36.581448030340624
3077.203,31.52476825675427
3078.2173,29.05283986766179
3079.2308,25.415430402788502
3080.2438,21.762307111331268
3081.2561,14.993236988332825
3082.2678,16.657986811212908
3083.2789,8.156323207458968
3084.2893,12.638012637978647
3085.2991,3.152821482116593
3086.3083,7.0505159928372905
3087.3169,4.130862391577153
3088.3248,0.5936268292674924
3089.3321,-1.2114245844690004
3090.3388,-1.8845257459458082
3091.3449,-1.3258984493448622
3092.3503,-1.4357456624360907
3093.3551,-5.76425710726393
3094.3593,-3.211608162773601
3095.3629,-6.327916622982002
3096.3658,-0.9132681979404254
3097.3681,-5.117685381813217
3098.3698,-0.29118154521545137
3099.3708,-2.933718933085288
3100.3713,-5.245256881457351
3101.3711,-2.8757254185140226
3102.3702,5.274997827678376
3103.3688,1.1070639575505226
3104.3667,4.120624018783175
3105.364,-0.7341709520134572
3106.3607,4.442830040564658
3107.3568,6.801785326289334
3108.3522,6.842853190504172
3109.347,5.916191850534943
3110.3412,8.221959455278991
3111.3348,9.210314094471784
3112.3277,10.281413775629275
3113.32,10.285416414164288
3114.3117,13.022479822675535
3115.3028,17.542761710907598
3116.2932,15.346419658380242
3117.2831,17.183611069185645
3118.2723,19.104493193951853
3119.2608,14.909223111470794
3120.2488,19.697957709489472
3121.2361,21.82085372666274
3122.2229,21.12806770466584
3123.209,24.169755966965553
3124.1944,21.69607462574797
3125.1793,27.55717955150167
3126.1635,27.053226397754365
3127.1471,30.134370542461987
3128.1301,27.300767093048165
3129.1125,31.802570855592812
3130.0942,32.1899363631682
3131.0753,31.31301783082096
3132.0558,32.22196915169839
3133.0357,33.76694390581759
3134.015,34.49809535097603
3134.9936,32.86557640730179
3135.9716,36.419539649941974
3136.949,40.41013732538797
3137.9258,38.43752131593579
3138.902,39.10184309978008
3139.8775,42.15325377074031
3140.8524,40.19190403161751
3141.8267,44.96794416368017
3142.8004,46.88152404627782
3143.7735,42.8827931090805
3144.7459,50.87190031294303
3145.7178,47.04899418989234
3146.689,49.36422276323636
3147.6596,50.417733585793066
3148.6295,49.3596737167382
3149.5989,49.54018971107021
3150.5676,52.45942763019082
3151.5357,52.51753304009982
3152.5032,54.01465098220279
3153.4701,55.800925972729935
3154.4364,56.52650198776499
3155.402,56.791522445382405
3156.367,56.24613019839163
3157.3315,55.2404675316869
3158.2952,56.424676167701115
3159.2584,57.54889727646255
3160.221,61.26327146375266
3161.1829,61.067938759863964
3162.1442,66.26303858245626
3163.105,64.34870973850997
3164.065,63.77509037237508
3165.0245,66.74231798491452
3165.9834,63.30052943924029
3166.9416,66.5998609310412
3167.8993,68.39044802300081
3168.8563,61.57242561180397
3169.8127,70.84592791023111
3170.7684,67.06108851533838
3171.7236,74.26804031572263
3172.6782,72.81691552936982
3173.6321,70.6078456315855
3174.5854,74.59096136950605
3175.5381,77.56639278418939
3176.4902,77.58426917078378
3177.4417,78.44471904877362
3178.3926,80.6978701618005
3179.3428,77.99384946905886
3180.2924,80.48278312276437
3181.2415,85.41479649519425
3182.1899,83.0900141537978
3183.1377,84.50855981187641
3184.0848,87.37055635183128
3185.0314,87.27612581097799
3185.9773,85.52538935292651
3186.9227,84.6684672685256
3187.8674,88.20547899337004
3188.8115,86.58654311636991
3189.755,91.6117773443805
3190.6979,91.48129851839165
3191.6402,92.44522256327542
3192.5818,92.85366448909085
3193.5229,96.15673838144474
3194.4633,93.10455739740722
3195.4031,93.09723373248099
3196.3423,97.7848786511232
3197.2809,98.0676024868186
3198.2189,99.24551459520319
3199.1563,98.21872335123687
3200.0931,98.43733613742441
3201.0292,99.1014593540833
3201.9648,99.61119841715765
3202.8997,102.3666577515769
3203.834,103.36794078615851
3204.7677,110.46514992605336
3205.7008,105.55838654273283
3206.6333,109.8977509030168
3207.5652,106.83334221814125
3208.4964,111.71525860036456
3209.4271,109.34359709361168
3210.3571,113.96845362465494
3211.2865,111.08992302683066
3212.2154,111.80809899379058
3213.1436,117.1230741082872
3214.0712,114.98493983499198
3214.9982,113.5437864673456
3215.9246,115.29970314893936
3216.8503,114.0527778879266
3217.7755,117.85309753946365
3218.7001,121.200747818179
3219.624,121.69581326017013
3220.5473,120.73837718952703
3221.4701,119.92852171338157
3222.3922,124.26632773148177
3223.3137,122.75187494429038
3224.2346,123.18524180960688
3225.1549,125.06650555771199
3226.0746,127.74574218703387
3226.9937,124.9230264453357
3227.9121,125.84843180292309
3228.83,129.57203048087143
3229.7473,130.59389344177177
3230.6639,132.86409035249466
3231.5799,133.1326895739717
3232.4954,132.6997581384936
3233.4102,135.01536174702397
3234.3244,132.72956477352895
3235.238,132.7424302418209
3236.151,134.55401984841657
3237.0634,138.06439396240836
3237.9752,139.02361160734836
3238.8864,134.28173042614458
3239.797,140.18880667146897
3240.7069,138.39489525317603
3241.6163,142.90004967923224
3242.5251,141.2543220736549
3243.4332,143.05776313146086
3244.3408,142.0604221351238
3245.2477,145.7623469365396
3246.154,143.91358396700002
3247.0598,145.96417820017322
3247.9649,147.9641731705915
3248.8694,147.9136109531453
3249.7733,147.8625321430834
3250.6766,147.9109758565182
3251.5793,148.00897973093686
3252.4814,150.50657992471668
3253.3829,154.20381111614506
3254.2838,155.3007064784436
3255.1841,153.84729764279564
3256.0838,153.94361468737736
3256.9829,152.28968615189203
3257.8814,155.23553903660667
3258.7792,155.13119881889142
3259.6765,155.67668942376105
3260.5731,156.37203322491814
3261.4692,156.51725103929837
3262.3647,159.56236212011697
3263.2595,157.55738415541663
3264.1538,158.85233323761625
3265.0474,160.04722388356092
3265.9404,158.9920690215723
3266.8329,159.33687997949977
3267.7247,160.5816664952721
3268.616,165.22643671344895
3269.5066,162.27119717277347
3270.3966,165.51595275972426
3271.286,160.86070673806796
