RamanShift,CorrectedData
30.1047,151.1056209651203
32.3739,140.09548148102832
34.6426,127.38534048588008
36.9109,116.5751950676646
39.1787,107.3150410405174
41.4461,95.90487305282197
43.7131,85.3946846798114
45.9796,74.68446853767001
48.2456,61.9742163886352
50.5112,51.4139192480997
52.7764,42.85356751171403
55.0411,30.343151060989534
57.3054,19.032659348901845
59.5692,6.222081524995077
61.8326,-3.538593451513231
64.0955,-10.449376683626362
66.3579,-21.61024392379903
68.6199,-30.32106653521289
70.8815,-34.88149999471281
73.1426,-32.540896871689
75.4032,-25.84826126934678
77.6634,25.44772779266826
79.9231,149.04864951884053
82.1824,423.55608285917725
84.4412,912.8216052731991
86.6995,1538.2467899848662
88.9574,2157.3832010899227
91.2148,2600.6823873016438
93.4717,2793.545875759475
95.7282,2850.175167596036
97.9842,2853.8217360084886
100.2398,2803.537025692243
102.4949,2768.6724528044915
104.7495,2751.6294054670584
107.0036,2697.15924411504
109.2573,2641.5133016672426
111.5105,2586.5928840708766
113.7632,2510.9492708580215
116.0154,2445.533715694829
118.2672,2369.297447137955
120.5185,2294.291669288721
122.7693,2228.217562555474
125.0197,2157.9762844036436
127.2696,2085.218970016484
129.519,2061.996732997488
131.7679,2023.5606660979568
134.0163,1993.9618414492254
136.2642,1974.5013109470228
138.5117,1967.030106547459
140.7587,1933.2492404616305
143.0052,1895.7097052303345
145.2512,1842.4124740618743
147.4967,1794.5085012074571
149.7417,1769.4487224941663
151.9863,1721.984055803999
154.2304,1712.965401324466
156.4739,1685.9436420232385
158.717,1680.3696437383323
160.9596,1672.094255448329
163.2017,1675.0183093281116
165.4433,1673.6426208316225
167.6844,1661.5679886626203
169.925,1626.9951947884383
172.1651,1569.47500456073
174.4047,1541.458167061196
176.6439,1502.3454156767891
178.8825,1461.5374683798796
181.1206,1444.9350281193827
183.3582,1418.9387832288412
185.5954,1398.799407592447
187.832,1392.917560905004
190.0681,1381.6438888733223
192.3037,1348.429023275037
194.5388,1350.723582071344
196.7734,1353.5281697391486
199.0075,1340.3933772481219
201.2411,1346.0197820326525
203.4742,1348.9079481231965
205.7068,1350.1084260900122
207.9389,1354.5217530142795
210.1704,1358.5484524760932
212.4015,1344.889034510332
214.632,1337.14399556639
216.862,1322.5138186447712
219.0915,1311.3489733745396
221.3205,1304.2999161596226
223.549,1291.917090290456
225.777,1301.3009260144786
228.0044,1286.3018406599574
230.2314,1268.3202385421523
232.4578,1246.8065111133037
234.6837,1212.6610371424508
236.909,1206.484182930568
239.1339,1172.8263026520194
241.3582,1159.6877384163279
243.582,1146.5188206047535
245.8053,1162.6198680016792
248.0281,1154.8911879263
250.2503,1138.5830760716126
252.472,1131.9958165817027
254.6932,1120.9796822148244
256.9139,1095.7349344092745
259.134,1105.3618233935538
261.3536,1112.7605884388126
263.5727,1127.7314577625853
265.7912,1146.5246484547993
268.0092,1156.8903663280694
270.2267,1195.0288057297626
272.4436,1199.3401494383443
274.6601,1207.5245682819918
276.8759,1213.8822210954813
279.0913,1230.1632546383444
281.3061,1217.6178035312907
283.5204,1238.0959900933995
285.7341,1218.2479244675706
287.9473,1233.0737044157452
290.16,1213.0734155173855
292.3721,1180.9971310212159
294.5837,1143.544912045228
296.7947,1122.3668078974415
299.0052,1100.0128564504291
301.2152,1080.933084353094
303.4246,1065.727507254213
305.6334,1026.2961299932326
307.8418,1022.4889467523253
310.0495,1003.5059414507018
312.2568,986.797087782684
314.4635,930.7123494075347
316.6696,897.8516801165467
318.8752,855.8150243938892
321.0802,833.352317745215
323.2847,819.8134871180275
325.4887,802.9484511263074
327.692,810.0071201859005
329.8949,824.1893966831683
332.0972,840.3451749044023
334.2989,850.624340893999
336.5001,844.5767722929045
338.7007,826.5523382358219
340.9008,791.6008994116871
343.1003,739.6723082439125
345.2992,702.3664092399029
347.4976,666.2330395103388
349.6955,633.2220291422389
351.8927,613.1832015602906
354.0895,598.1163738569626
356.2856,588.4213569928916
358.4812,569.0479559475502
360.6763,555.8459698161992
362.8707,543.06519200362
365.0646,542.4054103561355
367.258,540.8164072894169
369.4508,536.8479597950829
371.643,546.5498394565877
373.8346,564.3218124889067
376.0257,585.4136396415176
378.2162,601.8750760206804
380.4062,598.8058708785193
382.5956,575.6557674484084
384.7844,540.8245029756636
386.9726,511.41180894904323
389.1603,486.5674114490612
391.3474,454.9410314421136
393.5339,455.98238502892286
395.7199,448.84118376080164
397.9052,470.66713462923894
400.09,485.00994013731224
402.2743,518.7192980814289
404.4579,535.8949014078964
406.641,547.2864378758316
408.8235,564.893589885402
411.0054,608.3660343639112
413.1868,667.6034425897278
415.3675,726.0054797575608
417.5477,738.3218043860854
419.7273,671.0020677339226
421.9064,573.1959136764756
424.0848,524.4029793791285
426.2627,468.77289627530536
428.4399,421.2052905544026
430.6166,379.6497837180875
432.7928,339.6559930559745
434.9683,311.37353206118155
437.1432,286.3020108302667
439.3176,280.79103634605394
441.4914,258.2402127283465
443.6645,252.69914128903838
445.8371,254.06742075762213
448.0091,249.34464733659956
450.1806,245.5304146877986
452.3514,231.57431397960113
454.5216,222.7259339250861
456.6913,212.9848609215885
458.8603,211.65067913918574
461.0288,224.72297061810582
463.1967,200.0013152820718
465.3639,204.5352908075772
467.5306,191.47447287110322
469.6967,178.91843510377817
471.8622,177.16674922198695
474.0271,176.41898515293042
476.1914,169.72471105214208
478.3551,157.03349331096774
480.5182,160.14489662350638
482.6807,156.60848411352276
484.8426,180.57381730333327
487.0039,199.1404561491704
489.1647,227.50795880152896
491.3248,259.2258814195002
493.4843,258.5937778870955
495.6432,254.011199496068
497.8015,238.52769495223424
499.9592,215.59281042129805
502.1163,175.25608968368783
504.2728,146.16707436390334
506.4287,127.22530433388442
508.5839,111.88031800390127
510.7386,107.08165251197033
512.8927,114.02884387730705
515.0461,115.57142704831017
517.199,114.75893583309221
519.3512,134.34090288405037
521.5029,174.81685970599324
523.6539,220.28633646032245
525.8043,229.69886156027064
527.9541,189.7539612162086
530.1033,146.45115934151818
532.2519,106.63997795204273
534.3999,89.61993759911388
536.5472,89.8405577676649
538.694,91.35135704643017
540.8401,84.50185312573876
542.9856,100.14156278240785
545.1305,119.47000194823636
547.2748,124.03668555360832
549.4185,121.04112733420925
551.5615,122.98283978535801
553.704,139.51133419196253
555.8458,146.4761206091025
557.987,172.7767076967457
560.1276,182.81260265009882
562.2675,208.53331093660177
564.4069,265.13833619557
566.5456,281.77717998098524
568.6837,272.1493411954468
570.8212,217.45431592378236
572.958,168.99159752932678
575.0942,165.16067720087108
577.2299,135.46104443729132
579.3648,104.94218708585709
581.4992,75.90359163922813
583.6329,80.04474354064382
585.766,90.51512747430775
587.8985,129.16422732397655
590.0304,155.2915260682562
592.1616,170.69650539411123
594.2922,182.72864543559172
596.4222,160.38742461978268
598.5515,114.27231954648369
600.6802,77.63280521162028
602.8083,51.11835546839552
604.9358,51.47844339368544
607.0626,46.86254155318261
609.1888,46.17012199779606
611.3144,63.550656309810165
613.4393,84.80361560980896
615.5636,123.97847038287046
617.6873,145.12469026603617
619.8103,159.24174365656404
621.9327,174.8790975004647
624.0544,152.83621715133245
626.1756,117.2125662139697
628.2961,85.85760676481732
630.4159,73.02079970819068
632.5351,68.65160508982876
634.6537,70.09948222526373
636.7716,53.013889743510845
638.8889,47.44428557259266
641.0056,49.990127110391995
643.1216,66.95087128034993
645.237,72.72597450600665
647.3518,64.2648925413946
649.4659,39.61708041328711
651.5793,30.081992505808785
653.6922,17.309082806914375
655.8043,15.597805003739722
657.9159,18.89761261032936
660.0268,4.05795898475094
662.137,9.028297296095161
664.2466,6.408040174443386
666.3556,11.196510057184923
668.4639,-0.15703463461113643
670.5716,11.74666440815804
672.6786,-3.7931329366290356
674.785,-13.577166908559548
676.8907,-16.106139853823834
678.9958,-2.830618482715181
681.1002,-4.3010086051906455
683.204,5.332312246671563
685.3072,-7.78099049213165
687.4097,-2.391251439925327
689.5115,1.9012725170593967
691.6127,-2.6036516188075893
693.7132,-13.306256864168063
695.8131,-12.156750225185988
697.9123,2.1447942214804243
700.0109,3.848423845107618
702.1089,11.204185993523424
704.2061,23.01212797607377
706.3028,31.422296990061568
708.3987,40.83474000266983
710.4941,65.7495036668588
712.5887,65.0666342272425
714.6827,63.93617727093874
716.7761,61.908177734401306
718.8688,65.33267991472121
720.9608,61.65972748990907
723.0522,72.83936348464908
725.1429,80.32163030702873
727.233,103.10656963674273
729.3224,143.2442223502701
731.4112,182.3846282930249
733.4993,201.87782587797983
735.5867,174.47385169426047
737.6735,131.72274031221605
739.7596,90.47452455745724
741.845,90.47923593836776
743.9298,79.53690505858663
746.014,103.84756161696146
748.0974,113.31123451696999
750.1802,115.17795162361563
752.2624,104.39773966878943
754.3439,92.27062423260327
756.4247,84.54662985119262
758.5048,70.62578013798657
760.5843,83.20809786094856
762.6631,93.29360508178479
764.7413,137.58232303012096
766.8188,177.67427200264729
768.8956,248.36947092023138
770.9718,271.2679369269986
773.0473,271.6696846833813
775.1221,250.92472613713198
777.1962,244.0330705193071
779.2697,274.8447245517168
781.3426,334.30969251584065
783.4147,387.9279759447111
785.4862,398.14957302826406
787.557,335.0244780771575
789.6271,252.20268142055284
791.6966,170.28417003736854
793.7654,106.51892838449521
795.8335,73.65693921598313
797.901,53.49818422069325
799.9678,58.742644350918226
802.0339,45.54030002396894
804.0993,60.14113106973036
806.1641,50.69511686268538
808.2282,52.20223617590614
810.2916,32.712467275513745
812.3544,30.27578790560824
814.4164,21.742175483165283
816.4778,35.46160712240385
818.5385,25.88405972012106
820.5986,62.55950981849901
822.658,98.48793370087901
824.7166,134.1193070250083
826.7747,196.6536044637553
828.832,247.59079934879492
830.8886,267.8808630452669
832.9446,294.1237644424027
834.9999,276.819469750626
837.0545,249.56794223912436
839.1085,182.56914240889012
841.1618,136.82302826523755
843.2143,98.07955598778892
845.2662,76.83868038793662
847.3175,71.40035529627892
849.368,56.91453377502705
851.4179,64.58116817238965
853.467,50.900210267430566
855.5155,67.72161119340183
857.5633,68.99532157455462
859.6105,71.42129135792368
861.6569,62.04946980059128
863.7027,53.679805445427064
865.7478,44.962246214806555
867.7922,42.046739494307076
869.8359,40.683232219884644
871.8789,31.47167090702817
873.9212,38.56200166439487
875.9629,38.75417028592585
878.0039,49.94812217994297
880.0441,62.09380236722666
882.0837,74.59115536907689
884.1226,91.04012508585572
886.1609,117.69065467201438
888.1984,149.74268637160276
890.2352,187.0961612517641
892.2714,193.2510188822156
894.3069,181.85719696171304
896.3416,134.964631256502
898.3757,110.22325571425722
900.4091,102.83300293300829
902.4418,109.04380440855266
904.4739,115.65559060835858
906.5052,129.51829090945648
908.5358,125.68183353232143
910.5658,122.54614540224543
912.595,102.91115218770278
914.6236,70.22677833170746
916.6515,61.042947248161795
918.6786,42.50958164870076
920.7051,53.57660363453067
922.7309,44.74393488176281
924.756,43.761496530742306
926.7804,46.479209274375535
928.8041,58.44699336795452
930.8272,68.56476860197927
932.8495,71.43245418248102
934.8711,84.84996862984269
936.892,88.46722975012369
938.9123,102.33415450088387
940.9318,120.00065895501143
942.9506,126.31665816205316
944.9688,125.53206597154974
946.9862,107.1967949698759
949.003,90.76075648808649
951.019,75.6738607852684
953.0344,69.03601721290158
955.0491,53.54713436572729
957.063,46.90712014812698
959.0763,53.765881929011016
961.0888,58.673326608218986
963.1007,60.2793605479319
965.1119,50.23388952359801
967.1223,45.13681870787241
969.1321,43.038052771072216
971.1412,38.48749593214643
973.1495,42.78505197966399
975.1572,34.330624317318666
977.1641,50.52411592095416
979.1704,47.565429423108185
981.1759,50.10446695107805
983.1808,38.29113015650739
985.1849,37.3253201899945
987.1884,32.956937819227164
989.1911,40.63588343863967
991.1932,53.96205711309767
993.1945,59.43535850110811
995.1951,49.25568672155737
997.1951,41.372940298979415
999.1943,49.53701726535144
1001.1928,52.39781523892145
1003.1906,51.25523134256832
1005.1877,69.65916217519316
1007.1841,81.45950382314538
1009.1798,89.20615167618269
1011.1748,90.59900030946858
1013.1691,77.98794340610527
1015.1627,54.22287374320479
1017.1556,29.753683318000185
1019.1477,20.730263585496232
1021.1392,13.402505703160273
1023.1299,3.670300621158617
1025.12,9.833539155631797
1027.1093,15.092112086018119
1029.0979,37.49591009342112
1031.0859,41.844823708023455
1033.0731,57.98874308504844
1035.0596,47.977557961272055
1037.0454,44.111157493582596
1039.0304,39.38943035909381
1041.0148,16.112264793808322
1042.9985,13.329548639835139
1044.9814,7.141169578160429
1046.9636,11.197015156475913
1048.9452,8.346972851061196
1050.926,14.390930026226215
1052.9061,43.17877396281199
1054.8855,32.26039179774966
1056.8642,34.18567023618391
1058.8421,41.35449566065597
1060.8194,26.166754111850082
1062.7959,33.57233121690615
1064.7717,32.37111234129702
1066.7469,41.962982514772534
1068.7213,32.09782644337224
1070.695,37.325528413505936
1072.6679,66.14597239060572
1074.6402,77.40904196684824
1076.6117,88.11462007295097
1078.5826,79.01258886554126
1080.5527,49.002829620101124
1082.5221,41.43522282198694
1084.4908,15.309648466526482
1086.4587,8.62598613469595
1088.426,5.084115254375661
1090.3925,0.43391516718611456
1092.3584,5.525265163907079
1094.3235,13.558044530979714
1096.2879,11.032132499592535
1098.2515,22.897408165354477
1100.2145,54.003750513553086
1102.1767,74.65103830050214
1104.1382,94.1891497424781
1106.099,132.31796230924704
1108.0591,166.83735252868405
1110.0185,187.14719560548485
1111.9771,222.24736507597174
1113.9351,241.03773260499509
1115.8923,281.61816763493186
1117.8488,314.5885371977821
1119.8045,282.84870550936455
1121.7596,229.24853363961302
1123.7139,160.43787982997412
1125.6675,124.41660002940955
1127.6204,119.53454858250257
1129.5726,131.5415785896704
1131.524,128.2375419559852
1133.4748,118.62228927110368
1135.4248,78.04566984230757
1137.3741,41.7075317906565
1139.3226,23.95772245675323
1141.2705,21.896088764125807
1143.2176,32.72247739672514
1145.164,40.93673481954181
1147.1097,37.08870717034188
1149.0546,27.32824017752432
1150.9989,15.605179198601263
1152.9424,6.569369317802739
1154.8852,-3.879344536692429
1156.8272,-8.191117502398356
1158.7686,-13.516065962178118
1160.7092,-5.9542244696311855
1162.6491,-2.255492552857959
1164.5883,0.9302897427430707
1166.5267,11.053304904143829
1168.4644,22.763735409013293
1170.4014,45.56176362448832
1172.3377,73.14757169006816
1174.2732,100.12134128963544
1176.2081,154.98325337559675
1178.1421,226.98348789914576
1180.0755,301.22222326164353
1182.0082,343.2996355946166
1183.9401,344.9158980173697
1185.8713,286.6211802162114
1187.8017,207.9156484282919
1189.7315,136.8994660245496
1191.6605,91.47279429676678
1193.5888,59.435793167731504
1195.5163,42.88862164550403
1197.4432,33.63143814378702
1199.3693,19.514400647397224
1201.2947,4.487666804837204
1203.2193,9.151394069465937
1205.1432,-5.744260150234027
1207.0664,2.6508614627067573
1208.9889,-7.663026389583365
1210.9106,1.1142909685149789
1212.8316,5.133104766254519
1214.7519,5.443706221745629
1216.6715,13.84638650176737
1218.5903,26.891436718662476
1220.5084,33.92914784630989
1222.4257,43.10981058967445
1224.3424,42.23371531442979
1226.2583,62.95115195515109
1228.1735,75.41241002407696
1230.0879,93.31777840393454
1232.0016,120.96754522332719
1233.9146,142.5619976776809
1235.8269,155.90142175274684
1237.7384,155.18610200865646
1239.6492,154.9163214465276
1241.5592,160.34236151561674
1243.4686,183.96450211601837
1245.3772,224.43302154440278
1247.285,277.8981962577959
1249.1922,345.4603004688937
1251.0986,370.96960561141043
1253.0042,423.57637966445736
1254.9092,469.68088689745025
1256.8134,520.2833873440406
1258.7169,565.884136341072
1260.6196,616.8333840225542
1262.5216,635.6813748636556
1264.4229,632.7783471712113
1266.3234,605.4745328952433
1268.2232,572.5201576579901
1270.1223,530.2654410269455
1272.0207,516.060596844402
1273.9183,499.80583364999825
1275.8151,493.8513548227678
1277.7113,522.1973587436856
1279.6067,574.7940388552131
1281.5014,659.5915833778387
1283.3953,766.0901747841104
1285.2885,884.5399889506606
1287.181,980.7911940932205
1289.0727,1025.0439495821213
1290.9637,993.5984049797822
1292.854,928.0046995981834
1294.7435,852.4129628133214
1296.6323,773.2733147211459
1298.5204,706.8358668934773
1300.4077,656.600723169403
1302.2943,627.2679803196519
1304.1802,610.5877285489462
1306.0653,580.7100517893282
1307.9497,572.035027866963
1309.8333,557.2127288009157
1311.7162,538.5932208899011
1313.5984,526.4765648605074
1315.4798,514.7128160533907
1317.3605,516.4520245444412
1319.2405,527.944235262422
1321.1197,513.2394879715752
1322.9982,496.28781715670095
1324.876,463.2892521702055
1326.753,399.2938174016166
1328.6293,356.4015326075702
1330.5048,299.96241355176437
1332.3796,243.8264724338817
1334.2537,205.29371845398094
1336.127,189.06415837385623
1337.9996,171.93779690236465
1339.8714,164.16463685772192
1341.7426,156.14467933876608
1343.6129,139.27792380268932
1345.4826,134.16436814523706
1347.3515,120.75400886937581
1349.2196,108.8968411364284
1351.087,109.09285890017787
1352.9537,99.39205502543939
1354.8197,111.0444212860994
1356.6849,115.09994846212442
1358.5493,121.60862622303705
1360.4131,152.72044308736048
1362.276,167.18538635753208
1364.1383,196.80344180878467
1365.9998,200.1245935444977
1367.8606,193.7988237000166
1369.7206,193.226112409441
1371.5799,182.6564378688825
1373.4384,186.98977634219204
1375.2962,169.0261022666557
1377.1533,140.66538820966298
1379.0096,106.50760504834182
1380.8652,98.4527222531666
1382.7201,80.85070822953571
1384.5742,65.20153039832059
1386.4275,57.50515537188596
1388.2802,43.16154911058118
1390.132,40.120676999704585
1391.9832,26.48250399293886
1393.8336,21.496994642760683
1395.6832,29.164113236821663
1397.5322,18.83382384780373
1399.3803,20.706090256747927
1401.2278,13.73087605635692
1403.0745,8.758144632272945
1404.9204,2.9878592328298055
1406.7656,-1.0800169812201261
1408.6101,-0.44552087900314064
1410.4538,-3.8586785402757755
1412.2968,6.780488405958465
1414.139,4.421996878894731
1415.9805,13.61586372992332
1417.8213,20.062105766214586
1419.6613,30.260739658780665
1421.5006,39.911781878012675
1423.3391,62.76524859169467
1425.1769,104.82115556849288
1427.0139,129.27951794942152
1428.8502,187.34034982728326
1430.6858,233.95366400208604
1432.5206,248.46947140043437
1434.3547,251.03778060939675
1436.188,237.808597731347
1438.0206,232.88192635828165
1439.8524,224.15776770411122
1441.6835,219.73612065392712
1443.5139,214.16698185124312
1445.3435,227.50034574221172
1447.1724,230.48620463131653
1449.0005,227.12454854803713
1450.8279,225.46536521699187
1452.6545,227.75864009155293
1454.4804,228.85435637043918
1456.3056,214.85249497478338
1458.13,213.3530345371745
1459.9536,197.1059515416772
1461.7766,177.86122033882543
1463.5987,153.41881330809417
1465.4202,131.1287010503463
1467.2409,113.49085263225663
1469.0608,100.15523580921308
1470.88,80.47181720169505
1472.6984,70.49056242862986
1474.5161,46.711436304226936
1476.3331,53.08440293778989
1478.1493,43.95942597150861
1479.9648,36.136468516728996
1481.7795,42.41549324520281
1483.5935,42.14646246731735
1485.4067,45.02933806930531
1487.2192,40.8640815159348
1489.031,43.20065382168082
1490.842,41.58901559237768
1492.6522,46.679127001853374
1494.4618,45.87094780804597
1496.2705,43.214437302102226
1498.0785,50.159554316459605
1499.8858,42.45625725141184
1501.6924,36.204504005656986
1503.4981,35.60425205333104
1505.3032,36.00545850652526
1507.1075,35.60808012128871
1508.911,28.16207329361589
1510.7138,33.21739406342067
1512.5159,28.023998188996472
1514.3172,25.431841096462904
1516.1178,21.940877931699788
1517.9176,26.651063586268663
1519.7166,12.962352732322358
1521.515,15.424699775503484
1523.3126,16.03805899183112
1525.1094,8.402384503077656
1526.9055,6.067630270634936
1528.7008,6.033750171871475
1530.4954,-0.3493019765206782
1532.2893,9.018427581813228
1534.0824,8.236896092754478
1535.8747,10.006060712000192
1537.6663,11.07587851287883
1539.4572,4.746306468658247
1541.2473,12.417301441847712
1543.0367,4.138820247493356
1544.8253,6.360819576468657
1546.6132,7.783256078258773
1548.4003,11.856086338741079
1550.1867,17.52926686596038
1551.9723,23.60275404940097
1553.7572,35.12650410325483
1555.5414,45.100473005686354
1557.3247,60.62461638359514
1559.1074,85.79888941287629
1560.8893,104.92324666317893
1562.6705,124.44764184616338
1564.4509,146.5220276242576
1566.2305,150.29635541541342
1568.0094,158.57057517236257
1569.7876,156.44463534487306
1571.565,153.51848279700772
1573.3417,153.69206282838314
1575.1176,161.71531920343108
1576.8928,161.3381941496629
1578.6672,182.21062827743702
1580.4409,189.58256058372996
1582.2138,211.05392824341226
1583.986,244.62466653552895
1585.7575,260.8447086285861
1587.5282,282.5139852448431
1589.2981,298.68242449811225
1591.0673,292.0999516770662
1592.8358,310.3164890835536
1594.6035,308.5319560984238
1596.3704,302.0962689993611
1598.1366,299.65934097873037
1599.9021,282.5710822079344
1601.6668,269.3313998617822
1603.4308,258.44019828937235
1605.194,263.74737914648955
1606.9564,271.60284150451685
1608.7182,299.35648179736364
1610.4791,340.20819374291096
1612.2394,396.2578680654754
1613.9988,461.00539208729174
1615.7576,513.2006491680161
1617.5156,528.6935180572509
1619.2728,512.9338723725923
1621.0293,473.2715804447009
1622.785,406.7565054748988
1624.54,347.88850593179274
1626.2942,278.5674362164245
1628.0477,227.9431472509508
1629.8005,180.21548717185436
1631.5525,154.48430183618632
1633.3037,125.19943529884316
1635.0542,105.26073006987829
1636.804,84.86802740735101
1638.553,66.22116751671336
1640.3013,65.1699897547372
1642.0488,59.16433281598256
1643.7955,45.95403474330993
1645.5416,39.6389329879365
1647.2868,38.16886454153922
1649.0313,30.59366599940597
1650.7751,30.36317357513596
1652.5181,31.727223176391988
1654.2604,33.08565040720521
1656.0019,36.988290554334526
1657.7427,37.534978573682594
1659.4828,55.02554905126911
1661.222,66.90983619776418
1662.9606,87.28767367358253
1664.6984,109.15889447004042
1666.4354,124.72333070557767
1668.1717,106.93081340704518
1669.9072,92.23117235406065
1671.642,70.92423625693388
1673.3761,52.959832903662885
1675.1094,34.68778937300331
1676.8419,21.307932214112668
1678.5737,16.270087629270733
1680.3048,14.674081607678033
1682.0351,7.969739975834472
1683.7646,3.8068884134991947
1685.4934,3.1353525207339885
1687.2215,-0.9450421404680185
1688.9488,2.91552996053278
1690.6754,-0.08309620465308853
1692.4012,2.358914306429625
1694.1263,0.2913972663672837
1695.8506,2.4641884241570438
1697.5742,-2.32287647411772
1699.297,1.930038292984591
1701.0191,1.0727916524415662
1702.7404,6.705242511930351
1704.461,-5.472750231599576
1706.1808,-3.6113277482510284
1707.8999,4.4894234646477855
1709.6182,4.929452986932887
1711.3358,0.40871035354615515
1713.0527,0.7271450501349364
1714.7688,-5.815293441740437
1716.4841,5.581344352209129
1718.1987,-1.9329339989459697
1719.9126,-2.008120981948622
1721.6257,1.5558102264687648
1723.338,-1.391093489297674
1725.0496,1.5512147395901081
1726.7605,3.5327956789940345
1728.4706,1.8537100792639194
1730.18,3.464018655421768
1731.8886,-0.7862178960474466
1733.5964,9.103061086701047
1735.3036,0.8819241198287386
1737.0099,3.500439628466694
1738.7156,5.0586760289267545
1740.4204,12.30670170251642
1742.1246,6.794584979956511
1743.8279,6.772394068900951
1745.5306,11.540197109057885
1747.2325,8.648062172411585
1748.9336,2.1460572155446584
1750.634,11.334250108559104
1752.3336,14.862708700096505
1754.0325,10.481500725455788
1755.7307,10.440693771308986
1757.4281,9.090355319512895
1759.1247,13.230552747517578
1760.8206,14.761353341869523
1762.5158,12.732824256809863
1764.2102,10.845032498966305
1765.9039,15.998044947638277
1767.5968,11.891928373674972
1769.289,12.77674938794516
1770.9804,11.80257448239837
1772.6711,17.869470021216642
1774.361,19.02750225055641
1776.0502,16.476737237879547
1777.7386,21.517240860372965
1779.4263,14.69907883045633
1781.1132,19.372316645377026
1782.7994,18.78701965539159
1784.4849,19.643253017033516
1786.1696,20.09108169896618
1787.8535,20.13057047342042
1789.5367,21.711783911716452
1791.2192,18.18478638386867
1792.9009,18.799642042773826
1794.5818,15.556414859480867
1796.2621,19.055168617042455
1797.9415,15.595966942947115
1799.6202,21.528873274131797
1801.2982,17.70395089157398
1802.9755,24.921262860962372
1804.6519,23.18087207094635
1806.3277,21.582841160962744
1808.0027,22.877232538639646
1809.6769,21.66410839577688
1811.3504,18.443530695401904
1813.0231,23.4655611839012
1814.6951,19.08026142322592
1816.3664,19.137692740671866
1818.0369,27.387916272732127
1819.7067,22.480992964522898
1821.3757,21.566983487281334
1823.044,26.195948287434703
1824.7115,28.31794759574052
1826.3783,24.08304138099686
1828.0443,26.09128932882234
1829.7096,19.092750884005312
1831.3741,19.887485230421277
1833.0379,27.12555136101824
1834.701,23.557008069869624
1836.3633,23.131913879793203
1838.0248,22.750327078036776
1839.6856,25.012305720529156
1841.3457,20.967907635695838
1843.005,25.717190401839474
1844.6636,30.110211387583533
1846.3214,21.247027704379732
1847.9785,27.927696162577746
1849.6349,27.65227336005701
1851.2904,24.270815615420176
1852.9453,27.033378970747137
1854.5994,25.290019225409793
1856.2528,23.64079190844626
1857.9054,25.735752295994573
1859.5572,24.224955427784906
1861.2083,29.308456086189963
1862.8587,26.836308811333055
1864.5084,24.408567850252908
1866.1572,26.275287181625302
1867.8054,26.586520540040397
1869.4528,25.392321397335536
1871.0994,25.192742959482857
1872.7453,27.987838178531433
1874.3905,25.177659754602942
1876.0349,30.0622601079408
1877.6786,27.541691407011896
1879.3215,31.26600551966048
1880.9637,25.08525403831402
1882.6051,30.949488242739932
1884.2458,31.058759161853203
1885.8858,26.613117515073924
1887.525,29.76261371123468
1889.1634,27.057297893036903
1890.8011,28.99721990555598
1892.4381,27.882429323294303
1894.0743,29.112975430782214
1895.7098,29.088907233725834
1897.3446,29.110273446701626
1898.9786,28.677122493396908
1900.6118,29.08950250639633
1902.2443,31.19746133151351
1903.8761,31.70104652366699
1905.5071,25.300305325800792
1907.1374,30.79528466384855
1908.7669,32.38603121074087
1910.3957,31.822591331455627
1912.0237,28.005011067110402
1913.651,29.783336140596944
1915.2776,30.0076119947568
1916.9034,24.577883774598376
1918.5285,23.344196325053915
1920.1528,24.006594245276872
1921.7764,27.415121900978804
1923.3992,28.819823417805367
1925.0213,23.17074264725106
1926.6427,24.317923152612195
1928.2633,26.31140826547778
1929.8832,27.301241074257504
1931.5023,25.687464404247052
1933.1207,31.420120807729674
1934.7383,25.949252580113992
1936.3552,25.774901702607465
1937.9714,24.097109896925105
1939.5868,24.365918627032855
1941.2015,25.63136911592568
1942.8154,23.44350234293934
1944.4286,25.552359031095975
1946.041,27.407979668982776
1947.6528,26.460404489663375
1949.2637,20.10967345212167
1950.8739,20.855826250737564
1952.4834,21.04890237879428
1954.0921,25.53894112101682
1955.7001,24.925981551641215
1957.3074,30.160062489514075
1958.9139,25.54122250422229
1960.5197,23.569499863752114
1962.1247,25.494932580677556
1963.729,22.367558431877725
1965.3325,18.837414939282368
1966.9353,26.1045394011458
1968.5374,20.7189689273482
1970.1387,28.630740366724424
1971.7393,23.189890360919634
1973.3392,26.04645526527166
1974.9383,23.250471203219433
1976.5366,24.301974037737452
1978.1342,20.30099939929555
1979.7311,21.14758267534394
1981.3273,27.591759050322892
1982.9227,21.9335634971969
1984.5173,23.923030713013034
1986.1112,19.210195175482696
1987.7044,22.845091123087087
1989.2968,22.87775260220546
1990.8885,23.35821343076634
1992.4795,18.736507197920716
1994.0697,28.3126672592375
1995.6592,21.586726782920593
1997.2479,22.05871865404724
1998.8359,21.278675541827482
2000.4232,26.346629894884188
2002.0097,23.91261394905358
2003.5955,21.12665967670553
2005.1805,22.43879881108387
2006.7648,23.74906287416586
2008.3484,19.00748316354084
2009.9312,21.464090739307537
2011.5133,26.368916471489968
2013.0946,22.271991015471244
2014.6752,24.073344762945396
2016.2551,18.773007882886645
2017.8342,25.27101030353583
2019.4126,22.717381765403758
2020.9902,19.66215175629118
2022.5672,21.80534953682509
2024.1433,19.447004171010988
2025.7188,21.137144504800972
2027.2935,23.075799189677085
2028.8674,22.012996665749966
2030.4406,22.898765142372326
2032.0131,21.683132608766897
2033.5849,19.06612682516881
2035.1559,19.94777533498194
2036.7261,17.02810549094896
2038.2957,21.857144446334843
2039.8645,23.03491918412351
2041.4325,22.71145646872756
2042.9998,19.636782834210365
2044.5664,26.010924587520833
2046.1323,22.383907839240067
2047.6974,24.105758439839974
2049.2617,22.876502015953434
2050.8254,22.646163953155764
2052.3883,20.464769408257354
2053.9504,24.432343311606957
2055.5118,22.048910388905696
2057.0725,20.11449512153129
2058.6325,20.87912177037245
2060.1917,21.642814395172977
2061.7502,20.655596846885473
2063.3079,22.2674927600344
2064.8649,20.878525562588337
2066.4212,18.188718459840956
2067.9767,21.39809444830071
2069.5315,20.956676342588935
2071.0856,25.764486743346026
2072.6389,18.62154804164568
2074.1915,17.127882370916794
2075.7433,19.98351167837278
2077.2945,21.188457739948262
2078.8448,21.34274213174278
2080.3945,23.69638621797141
2081.9434,18.649411149421866
2083.4916,21.301837839918036
2085.039,18.30368701678978
2086.5857,21.55497919434862
2088.1317,20.355734703869274
2089.677,17.105973661076717
2091.2215,23.755715978138625
2092.7652,20.604981396162927
2094.3083,25.203789418700467
2095.8506,24.902159343252336
2097.3921,19.050110215281777
2098.933,23.847660831230456
2100.4731,20.044829797038986
2102.0124,17.391635480171416
2103.5511,22.68809604764347
2105.089,21.634229492554553
2106.6261,21.830053581123124
2108.1626,19.375585863225396
2109.6983,19.97084367043712
2111.2332,16.51584414057824
2112.7675,25.010604211760338
2114.301,25.20514065693662
2115.8337,26.09946999895422
2117.3657,21.443608508608932
2118.897,24.58757219570184
2120.4276,19.531376855598026
2121.9575,21.52503803778687
2123.4866,16.618571096444
2125.0149,16.911991170494744
2126.5426,18.8053132326787
2128.0695,19.548552086615658
2129.5956,19.691722347872272
2131.1211,19.184838436529745
2132.6458,21.52791457575212
2134.1698,21.02096479685507
2135.693,17.364002915875133
2137.2155,15.507042538639283
2138.7373,20.900097097334452
2140.2584,17.59317986907722
2141.7787,19.53630392198326
2143.2983,21.52948214823654
2144.8171,17.972727244658003
2146.3353,22.81605169277384
2147.8527,19.559467794382996
2149.3693,18.15298762312389
2150.8853,22.146623057040316
2152.4005,21.54038579264619
2153.9149,22.834287304989232
2155.4287,23.72833885371338
2156.9417,16.27255147011965
2158.454,17.416935948225785
2159.9655,19.061502919323956
2161.4764,17.256262840537076
2162.9865,19.05122597837304
2164.4958,18.846402426777075
2166.0045,15.591802089182238
2167.5124,17.33743468055765
2169.0195,19.483309759954395
2170.526,20.579436713049276
2172.0317,21.92582473068606
2173.5367,17.52248279791415
2175.0409,19.419419680524797
2176.5445,18.96664396908443
2178.0473,17.26416405996528
2179.5494,17.56198815987321
2181.0507,16.810124302872467
2182.5513,22.458580347407533
2184.0512,18.007363983821634
2185.5504,16.356482677872265
2187.0488,18.555943715243345
2188.5465,17.705754218053983
2190.0435,15.305921122863879
2191.5397,22.156451189175243
2193.0353,14.957351023431087
2194.5301,15.408627010509903
2196.0241,21.26028538571677
2197.5175,19.06233223027057
2199.0101,20.564773412787318
2200.502,15.317614611259799
2201.9931,16.87086129803312
2203.4835,14.474518792276257
2204.9733,19.978592244449615
2206.4622,15.683086660268444
2207.9505,19.438006845662144
2209.438,15.193357449729262
2210.9248,18.249142927188387
2212.4109,17.155367580824517
2213.8962,16.16203553093132
2215.3809,14.219150726248785
2216.8648,13.226716953896627
2218.3479,16.034737858803126
2219.8304,10.493216953629357
2221.3121,12.452157590689083
2222.7931,12.961563017363858
2224.2733,11.821436356513772
2225.7529,14.131780601383298
2227.2317,14.19259862700261
2228.7098,12.553893167084127
2230.1872,16.86566681341432
2231.6638,12.877922032240733
2233.1397,11.540661121154272
2234.6149,13.503886248966623
2236.0894,14.56759946908295
2237.5632,14.68180269986955
2239.0362,15.096497714016778
2240.5085,15.51168613739695
2241.9801,13.77736944491744
2243.4509,12.693548956368744
2244.921,13.810225853767719
2246.3904,11.077401192195723
2247.8591,13.145075888631894
2249.3271,14.41325074928146
2250.7943,13.081926448898813
2252.2608,9.451103518105938
2253.7266,11.820782356705607
2255.1917,11.5909632699896
2256.656,6.5116464450419045
2258.1197,7.182831953036953
2259.5826,12.604519800032719
2261.0447,12.326709920258892
2262.5062,13.749402121899976
2263.9669,10.622596089873397
2265.4269,11.346291371602561
2266.8862,12.770487408284993
2268.3448,8.995183527655314
2269.8026,11.620378929743367
2271.2598,8.896072724627146
2272.7162,9.222263906180828
2274.1719,10.248951379317944
2275.6268,13.176133956729345
2277.0811,11.603810348616463
2278.5346,12.931979133419404
2279.9874,5.460638773540211
2281.4395,9.589787602061122
2282.8908,6.819423897457966
2284.3414,8.849545842308714
2285.7914,8.330151550997101
2287.2406,10.311239049411498
2288.689,9.092806280138717
2290.1368,8.47485108265326
2291.5838,10.457371205501573
2293.0302,7.490364312481631
2294.4758,10.873827962817742
2295.9206,11.707759640830588
2297.3648,8.34215672210263
2298.8082,9.227016465138718
2300.251,13.56233604502215
2301.693,6.948112544566058
2303.1343,8.234342910960223
2304.5748,7.6210240219134135
2306.0147,11.558152672790968
2307.4538,7.795725582748005
2308.8922,9.783739355358193
2310.3299,8.372190516237964
2311.7669,7.361075493166396
2313.2031,10.550390630200681
2314.6387,11.040132197787344
2316.0735,5.530296360869045
2317.5076,9.220879173987129
2318.941,8.061876636380049
2320.3737,7.203284655077496
2321.8056,7.895099056490395
2323.2369,11.237315594996858
2324.6674,18.779929946024026
2326.0972,16.87293767262598
2327.5263,17.316334150057443
2328.9547,19.210114584843865
2330.3823,17.25427401034743
2331.8092,13.648807267829199
2333.2355,10.543709026007605
2334.661,10.088973817113043
2336.0858,10.884596067938915
2337.5098,7.130570104388795
2338.9332,7.67689014352041
2340.3558,11.223550331085775
2341.7778,9.170544736068024
2343.199,9.01786731521483
2344.6195,7.515511933568419
2346.0393,6.013472365992357
2347.4583,9.861742312195148
2348.8767,9.710315411750528
2350.2943,7.959185205614887
2351.7113,8.30834513764151
2353.1275,7.857788572091906
2354.543,12.40750879014415
2355.9578,7.557498994398529
2357.3718,5.057752263380223
2358.7852,6.608261600039427
2360.1978,9.859019956748881
2361.6098,7.960020219798679
2363.021,6.011255176888767
2364.4315,6.962717536118944
2365.8413,5.714399945476458
2367.2504,9.616294983321396
2368.6587,9.76839517086988
2370.0664,7.170692933175118
2371.4733,7.223180597606415
2372.8795,11.325850419826196
2374.285,11.528694583265107
2375.6899,10.181705158095369
2377.0939,6.4348740992022755
2378.4973,6.338193259654076
2379.9,5.291654428170382
2381.3019,7.045249330088893
2382.7032,8.548969637830815
2384.1037,5.952806953364842
2385.5035,6.4567527931700255
2386.9027,6.110798614197371
2388.3011,7.764935808830359
2389.6987,4.869155708344572
2391.0957,4.923449566366266
2392.492,5.577808587830148
2393.8876,4.032223928436444
2395.2824,3.836686688107349
2396.6765,6.941187926442872
2398.07,5.295718664676137
2399.4627,5.600269854628436
2400.8547,7.154832395163879
2402.246,8.009397129143963
2403.6366,6.813954827881865
2405.0265,7.06849618259681
2406.4156,5.47301181636854
2407.8041,6.127492281591863
2409.1918,4.631928075931455
2410.5789,6.38630963577716
2411.9652,-1.0093726488005004
2413.3508,4.544871548405993
2414.7358,5.199042637236829
2416.12,5.6031409820835165
2417.5035,5.85716689534717
2418.8863,6.611120633397505
2420.2684,7.815002394032632
2421.6497,4.3188123089394495
2423.0304,4.072550431654875
2424.4104,6.026216772527718
2425.7896,8.129811301181313
2427.1682,5.183333926976857
2428.546,4.086784477977446
2429.9232,3.7401627304128695
2431.2996,1.4434684196451144
2432.6753,4.846701243634541
2434.0503,5.699860885906894
2435.4246,1.8529469815209296
2436.7982,1.255959108536807
2438.1711,0.15889682648526104
2439.5433,2.3117596823374527
2440.9148,1.2145472214755912
2442.2856,3.5672589661643173
2443.6557,6.519894426522811
2445.025,6.472453076997738
2446.3937,-0.07506567316318069
2447.7617,4.72733752056331
2449.1289,0.5796627526065166
2450.4955,7.581910070122362
2451.8613,6.734079514470196
2453.2265,4.386171051190296
2454.5909,4.538184578482181
2455.9546,4.190119950683673
2457.3177,1.2919769767507816
2458.68,2.993755423738371
2460.0416,0.7954550457815728
2461.4025,1.9970755670779923
2462.7627,6.848616703870746
2464.1222,3.550078152432185
2465.4811,4.601459540548525
2466.8392,4.252760460505215
2468.1966,5.103980458573169
2469.5533,4.405119038495691
2470.9093,5.906175652976323
2472.2645,6.3571497106674215
2473.6191,6.908040561159638
2474.973,5.508847490472085
2476.3262,3.5095697155435204
2477.6787,4.66020639822424
2479.0305,7.710756665268853
2480.3816,7.661219596829945
2481.7319,5.011594195952561
2483.0816,2.4118793890695898
2484.4306,3.9620740524979823
2485.7789,3.012177038435958
2487.1264,5.56218715946099
2488.4733,3.4621031980288137
2489.8195,4.661923880973319
2491.165,3.611647900507407
2492.5097,2.8612739022247524
2493.8538,5.210800495602605
2495.1972,0.4602262615054755
2496.5398,2.7595497286898905
2497.8818,5.258769421310127
2499.2231,4.157883835924977
2500.5637,5.7068914165055915
2501.9035,2.5557905654442834
2503.2427,7.054579628064474
2504.5812,3.453256924131722
2505.919,5.9018207028658125
2507.256,5.250269178953964
2508.5924,3.848600508065225
2509.9281,1.9468127933659432
2511.2631,3.494904099536498
2512.5974,5.742872471789163
2513.9309,3.5407159203871714
2515.2638,4.838432398165075
2516.596,5.5360198225502515
2517.9275,0.8834760625857854
2519.2583,2.180798931954577
2520.5884,2.177986235504825
2521.9178,0.975035756276732
2523.2465,5.221945255530649
2524.5745,6.268712484776593
2525.9018,6.465335143305161
2527.2284,3.2618108677198023
2528.5543,2.8581372299706445
2529.8796,1.5043117693897443
2531.2041,0.05033199672781308
2532.5279,3.84619540769247
2533.851,4.491899497488056
2535.1735,2.187441722856974
2536.4952,6.632819495622684
2537.8163,4.478030205734193
2539.1366,4.373071176812388
2540.4562,5.617939687697842
2541.7752,3.6626329735004575
2543.0935,5.807148213150747
2544.411,4.751482548952943
2545.7279,2.0456330651397963
2547.0441,4.189596798429243
2548.3596,8.133370765082887
2549.6744,5.076951939466383
2550.9885,1.8203372146116834
2552.3019,3.613523432781271
2553.6146,4.156507418034252
2554.9266,7.999285958294557
2556.2379,4.291855799921066
2557.5485,3.2842136092797958
2558.8585,5.076356009818241
2560.1677,7.118279592141761
2561.4762,2.059980896092199
2562.7841,3.901456390328626
2564.0913,-0.10729747708969484
2565.3977,2.683715702881983
2566.7035,6.574493411190161
2568.0086,4.565033101944209
2569.313,7.105332163508564
2570.6167,3.6453879385973735
2571.9197,4.485197698871509
2573.222,4.024758679537953
2574.5236,8.064068070951727
2575.8246,3.85312302322032
2577.1248,6.741920605810527
2578.4244,2.7804578496579566
2579.7232,4.468731718279017
2581.0214,1.8567391473855395
2582.3189,6.694477028002076
2583.6157,4.331942232585824
2584.9118,5.469131566649224
2586.2072,4.306041792385322
2587.5019,7.742669617295853
2588.7959,4.529011705822214
2590.0893,5.965064644979073
2591.3819,7.050824976491036
2592.6739,3.9862891824320457
2593.9652,7.771453674367862
2595.2557,3.5063148240013504
2596.5456,6.740868925320854
2597.8348,5.2751122372515695
2599.1234,8.109040951310021
2600.4112,6.292651206261624
2601.6983,3.475939059781389
2602.9848,8.358900506617864
2604.2705,5.491531506760197
2605.5556,5.373827936608556
2606.84,7.055785617647814
2608.1237,2.137400317624582
2609.4067,6.568667733727658
2610.689,3.799583541771838
2611.9707,6.080143351885269
2613.2516,3.9103427362002705
2614.5319,3.0901772060477626
2615.8115,4.819642233655237
2617.0903,4.798733260348413
2618.3685,5.277445679256637
2619.6461,7.205774835521908
2620.9229,6.483716021511775
2622.199,4.6112644575360875
2623.4745,5.18841529906755
2624.7493,2.765163655466246
2626.0234,7.541504584208113
2627.2968,5.817433115117481
2628.5695,4.642944202603644
2629.8415,4.168032742901573
2631.1128,0.3426935858168463
2632.3835,8.366921539474703
2633.6535,7.090711408573505
2634.9228,7.0640579141423885
2636.1914,8.786955706303416
2637.4593,5.759399364538076
2638.7265,5.331383380458313
2639.9931,2.352902188082119
2641.259,3.8239501681136687
2642.5242,5.494521677728102
2643.7887,5.514611035861087
2645.0525,4.884212506503069
2646.3156,5.503320298498409
2647.5781,4.571928571849362
2648.8398,4.890031431525003
2650.1009,3.0076229367751353
2651.3613,5.174697097949235
2652.6211,4.3912478953205465
2653.8801,5.407269257415386
2655.1385,1.6227550688475958
2656.3961,4.037699160158333
2657.6531,5.502095345661232
2658.9094,3.165937399292922
2660.1651,2.2292190399691236
2661.42,6.391933954946168
2662.6743,2.4540758091882253
2663.9279,6.065638203740129
2665.1808,2.8266147151059613
2666.433,5.236998859133443
2667.6846,4.9967841234041686
2668.9354,6.005963943129743
2670.1856,5.864531703553936
2671.4351,8.922480729860915
2672.6839,6.229804288589548
2673.9321,8.436495557053874
2675.1795,5.692547650269923
2676.4263,7.3479535988888
2677.6724,6.502706376636141
2678.9179,6.556798883758034
2680.1626,8.56022395547356
2681.4067,8.662974361433804
2682.6501,7.465042785687647
2683.8928,9.71642182565424
2685.1348,7.4171040041023275
2686.3761,8.167081746636423
2687.6168,2.616347404690039
2688.8568,8.414893248025866
2690.0961,3.112711520243135
2691.3348,1.7097943807921538
2692.5727,5.006133957996148
2693.81,4.851722363080416
2695.0466,3.596551657208927
2696.2826,3.640613853028448
2697.5178,4.0339009272202375
2698.7524,3.0264048200594686
2699.9863,4.518117431482285
2701.2195,5.609030631160831
2702.452,7.649136243586064
2703.6839,7.238426037158657
2704.9151,6.776891703787932
2706.1456,2.864524862998966
2707.3755,7.901317066547946
2708.6046,5.437259837545817
2709.8331,8.0223446200904
2711.0609,8.106562803906918
2712.2881,7.939905698497171
2713.5145,8.622364532297336
2714.7403,11.103930454344564
2715.9654,8.78459452745236
2717.1899,12.364347703394934
2718.4136,9.393180846100574
2719.6367,8.02108469585409
2720.8591,8.498049899008507
2722.0809,10.424067021706026
2723.3019,15.449126545108363
2724.5223,11.573218846136573
2725.7421,12.196334147220469
2726.9611,10.318462555057685
2728.1795,12.639594054382503
2729.3972,8.959718526744595
2730.6142,9.7288257272977
2731.8306,7.346905321598399
2733.0462,7.913946877915006
2734.2612,5.62993989104681
2735.4756,7.744873776653655
2736.6892,6.008737894095997
2737.9022,6.521521525285561
2739.1145,10.483213892046692
2740.3262,4.743804150988556
2741.5372,6.15328135388819
2742.7475,7.011634505084608
2743.9571,7.318852547384015
2745.1661,4.674924353476285
2746.3744,3.4298387228628044
2747.582,3.433584408295708
2748.7889,5.7861501282287655
2749.9952,3.7875245667798936
2751.2008,1.837696350205551
2752.4057,5.03665406688696
2753.61,3.584386286828394
2754.8136,3.130881529667594
2756.0165,2.5261282791984456
2757.2188,2.370114987906039
2758.4204,3.712830083014172
2759.6213,3.3042619680455125
2760.8215,0.8943990093944407
2762.0211,-0.41677045958726566
2763.22,7.4707418855082
2764.4182,3.806928532625502
2765.6158,2.691781895001917
2766.8127,2.6252943478054362
2768.009,4.257458239286276
2769.2045,2.5382658914417036
2770.3994,0.4677095836944325
2771.5936,2.4957815700845387
2772.7872,0.9224740999750125
2773.9801,-0.1522206022289616
2775.1723,1.4216896786530917
2776.3639,4.0441986784854365
2777.5548,-0.33469988108454984
2778.745,1.9349876811485345
2779.9346,-0.29674160995812215
2781.1235,0.2201092511028051
2782.3117,1.1355402342873049
2783.4992,0.19955130735026927
2784.6861,2.1121424266912214
2785.8723,3.1733135467141445
2787.0579,2.083064600701615
2788.2428,1.6413954902030952
2789.427,3.1483060959374036
2790.6106,1.6037962822094016
2791.7935,-0.5921341181590947
2792.9757,-0.1394852883842077
2794.1573,-0.988251496262226
2795.3382,-0.7384256161314191
2796.5184,3.0600093503023764
2797.698,-0.6429222217947697
2798.8769,1.552804012143131
2800.0551,1.647218819475043
2801.2327,-1.5596470479680775
2802.4096,2.2322371451725367
2803.5859,-0.07708228487032898
2804.7615,0.86244095581376
2805.9364,1.2008539311872504
2807.1106,4.1882036965881895
2808.2842,3.024537295346093
2809.4572,6.309901728908454
2810.6294,6.344343968477425
2811.801,3.1279109221561363
2812.972,3.660649434604313
2814.1423,5.642606319202571
2815.3119,7.523828352725037
2816.4808,8.154362255519818
2817.6491,11.684254672696735
2818.8167,9.863552167822018
2819.9837,12.74230118761935
2821.15,16.720548080176926
2822.3157,20.448339066159917
2823.4807,27.925720199028042
2824.645,28.452737327757635
2825.8086,32.37943602206783
2826.9716,35.405861567150424
2828.134,41.53205892440284
2829.2957,41.958072701163914
2830.4567,43.38394708945189
2831.617,49.359725861704305
2832.7767,52.03545235651927
2833.9358,48.26116941889764
2835.0941,48.03691937348573
2836.2519,48.912744062318225
2837.4089,46.58868484706058
2838.5653,42.264782600250854
2839.7211,42.89107772854025
2840.8761,40.56761021593216
2842.0306,35.79441961751921
2843.1843,34.12154508271797
2844.3374,40.29902540300079
2845.4899,38.276899028624584
2846.6417,38.705204006856015
2847.7928,39.533978002192775
2848.9433,41.363258292080545
2850.0931,41.59308175862523
2851.2422,40.673484870300165
2852.3907,44.40450367964783
2853.5385,44.43617383247593
2854.6857,44.31853053054712
2855.8323,45.05160853126231
2856.9781,46.63544214883714
2858.1233,47.17006524697121
2859.2679,50.20551122300968
2860.4118,48.191813002597094
2861.555,50.77900300932287
2862.6976,51.16711318485829
2863.8395,57.30617496308466
2864.9808,57.44621926621213
2866.1214,55.83727644338913
2867.2614,58.129376269301915
2868.4007,58.672547960264
2869.5393,58.56682015129512
2870.6773,60.112220890689585
2871.8146,64.50877764107352
2872.9513,63.1565172639508
2874.0874,70.45546597573758
2875.2227,64.85564936128486
2876.3574,63.30709230088896
2877.4915,66.70981902628978
2878.6249,70.31385313615624
2879.7577,70.41921756205915
2880.8898,71.77593453243071
2882.0212,72.68402557151107
2883.152,74.84351148578094
2884.2821,69.45441235488086
2885.4116,75.11674751001621
2886.5405,75.2805355878483
2887.6686,77.19579447387099
2888.7962,75.01254130077277
2889.923,80.08079242928422
2891.0493,75.90056347001052
2892.1748,75.97186923274896
2893.2997,78.19472376829121
2894.424,77.31914036771022
2895.5476,75.44513154013174
2896.6706,78.77270902149013
2897.7929,78.5518837932684
2898.9145,78.93266604922255
2900.0355,74.0650651975897
2901.1559,80.69908985728031
2902.2756,79.93474790655424
2903.3946,77.17204641668042
2904.513,77.51099165958033
2905.6308,74.151589135455
2906.7479,75.14384356939559
2907.8643,74.83775894497731
2908.9801,76.13333849433701
2910.0953,75.43058470123393
2911.2098,76.92949928809396
2912.3236,76.38008322303713
2913.4368,73.98233670488855
2914.5494,73.83625916867246
2915.6613,75.34184930958965
2916.7725,72.89910508447845
2917.8831,71.35802369675866
2918.9931,69.46860162085903
2920.1024,64.68083461762814
2921.211,67.54471775322847
2922.319,64.71024544701429
2923.4264,62.02741144289263
2924.5331,61.39620883766813
2925.6391,64.56663010787129
2926.7445,61.188667116070576
2927.8493,64.26231107916817
2928.9534,65.78755260217957
2930.0569,67.76438164749725
2931.1597,67.69278751963807
2932.2619,67.52275884547518
2933.3634,67.6042835749538
2934.4643,71.93734898279158
2935.5645,66.67194166766336
2936.6641,66.00804750887048
2937.763,67.79565171899486
2938.8613,70.83473885053807
2939.959,68.72529277804506
2941.056,68.96729666771348
2942.1523,61.81073299848802
2943.248,64.25558355964046
2944.3431,55.70182952233523
2945.4375,53.64945141518095
2946.5313,48.89842920976798
2947.6244,45.29874234119213
2948.7169,44.55036975556499
2949.8087,42.303289946010665
2950.8999,37.40748096014967
2951.9904,33.36292042256953
2953.0803,26.219585583783036
2954.1696,30.327453360673765
2955.2582,24.48650040792946
2956.3462,25.79670307696332
2957.4335,23.508037474323572
2958.5202,24.22047944859142
2959.6062,26.234004613267704
2960.6916,25.49858833964848
2961.7764,27.91420573668979
2962.8605,26.83083165836177
2963.9439,24.548440679492533
2965.0267,23.017007106601866
2966.1089,25.736505000725153
2967.1905,23.656908192727755
2968.2714,26.67819025610996
2969.3516,25.150324527803008
2970.4312,22.82328407795625
2971.5102,23.947041725215808
2972.5885,24.67157005999498
2973.6662,29.346841433236644
2974.7432,25.872827949168016
2975.8196,23.599501418547877
2976.8954,22.026833393406783
2977.9705,26.904795189780252
2979.045,25.533357903435505
2980.1188,25.61249236109181
2981.192,26.59216913413489
2982.2645,25.07235853782553
2983.3364,22.35303062150285
2984.4077,23.43415518378239
2985.4783,20.81570179974939
2986.5483,21.34763981014756
2987.6177,18.87993834756359
2988.6864,16.6125663311078
2989.7545,17.69549249109112
2990.8219,17.778685391698822
2991.8887,15.612113420161293
2992.9548,17.49574478592205
2994.0204,11.129547542303484
2995.0852,13.413489567670545
2996.1495,10.147538629092718
2997.2131,10.131662359504599
2998.276,6.115828290365414
2999.3383,7.050003851817756
3000.4,9.33415641284595
3001.4611,5.918253271934294
3002.5215,4.252261634225519
3003.5812,4.386148645679839
3004.6404,1.4198814097348524
3005.6989,1.1534269859666821
3006.7567,1.3367524197526528
3007.8139,2.5198247449358178
3008.8705,4.302610981991716
3009.9264,3.3350781261976508
3010.9818,0.4171931298048186
3012.0364,2.8489229117136574
3013.0905,3.0802343866526734
3014.1439,0.26109444086116085
3015.1966,2.341469929776064
3016.2487,2.9213277062233978
3017.3002,3.0006345996144823
3018.3511,-1.0706425898526248
3019.4013,1.9574629080137953
3020.4509,-1.615071440875079
3021.4998,2.1117318098173037
3022.5481,0.6878662409911964
3023.5958,2.3633254124295178
3024.6428,-0.011897122963457463
3025.6892,1.6621921640832813
3026.735,1.5855869216930163
3027.7802,2.758280781367107
3028.8247,-0.06973264124895273
3029.8685,2.3515402419075446
3030.9118,-0.9279062844716162
3031.9544,0.4919220407899445
3032.9963,1.5110287486523895
3034.0376,-0.12058263484333054
3035.0783,1.2970914012334607
3036.1184,5.4640555724339475
3037.1578,0.7803145813384056
3038.1966,3.1958730758865688
3039.2348,0.7607356962150238
3040.2723,0.17490705050163236
3041.3092,2.738391739316894
3042.3455,0.40119436148224885
3043.3811,2.6133194884352253
3044.4161,5.774771687601417
3045.4505,5.285555500273238
3046.4842,3.59567540999538
3047.5173,5.80513584745699
3048.5498,5.1639412073904705
3049.5816,5.722095826476876
3050.6128,2.329603989757846
3051.6434,4.686469925054084
3052.6734,4.792697836890243
3053.7027,2.8482918829262953
3054.7314,4.003256172895231
3055.7594,3.5575947880471315
3056.7868,5.4613117695995115
3057.8136,2.814411123193951
3058.8398,2.616896799858914
3059.8653,3.8687727224787523
3060.8902,7.470042787768863
3061.9145,6.570710853756921
3062.9381,5.320780703770183
3063.9612,5.570256055428793
3064.9835,3.9191405731451017
3066.0053,5.267437865628899
3067.0264,8.615151502398575
3068.0469,5.512285000298151
3069.0668,10.40884179002014
3070.086,9.95482524713421
3071.1046,6.600238643121619
3072.1226,6.495085149915376
3073.1399,4.3393678734461165
3074.1567,6.033089854693623
3075.1727,6.726254091244005
3076.1882,3.4688635203524694
3077.203,7.510921012011693
3078.2173,6.6524294015257155
3079.2308,5.293391449089373
3080.2438,4.233809848373205
3081.2561,4.123687240113849
3082.2678,5.413026222709851
3083.2789,5.6018293533228825
3084.2893,1.4900991349843657
3085.2991,5.477838014707428
3086.3083,2.9150484246042208
3087.3169,2.8517327420085135
3088.3248,7.287893315103595
3089.3321,3.5235324635554353
3090.3388,3.2086524341510696
3091.3449,1.5932554384422186
3092.3503,4.877343655894077
3093.3551,1.9609192500392911
3094.3593,4.043984335637074
3095.3629,5.176541007837448
3096.3658,1.558591321350601
3097.3681,4.490137279121308
3098.3698,5.921180868508441
3099.3708,2.601724031969497
3100.3713,3.0317686527501726
3101.3711,1.3613165880789255
3102.3702,2.8903696648665322
3103.3688,1.8689296964106044
3104.3667,4.946998467105058
3105.364,4.974577742654522
3106.3607,1.8016692392936369
3107.3568,0.97827462351127
3108.3522,2.7543955437796015
3109.347,1.7800336387880673
3110.3412,3.8051905196821485
3111.3348,3.829867779806996
3112.3277,2.7040669744558574
3113.32,3.4277896206233
3114.3117,4.401037208263226
3115.3028,1.923811193051641
3116.2932,3.4461129866541835
3117.2831,3.517943981498383
3118.2723,1.089305535550639
3119.2608,4.460198971597916
3120.2488,4.280625601534129
3121.2361,2.9005866926512063
3122.2229,2.6200834694348165
3123.209,3.589117127364771
3124.1944,2.307688835720044
3125.1793,5.275799727888444
3126.1635,-0.30654908581910423
3127.1471,4.41064345215033
3128.1301,2.3273814617750412
3129.1125,3.6436690189268903
3130.0942,2.8595101762039254
3131.0753,4.074908949767504
3132.0558,1.9898693271838859
3133.0357,2.3043952552702436
3134.015,1.5684906609450575
3134.9936,4.832159448082862
3135.9716,2.8954055048732803
3136.949,1.7082326711843434
3137.9258,1.3706447579300338
3138.902,3.132645558942002
3139.8775,4.794238854345459
3140.8524,2.2054283929391634
3141.8267,3.516217875579488
3142.8004,4.326610981068526
3143.7735,1.8866113530461899
3144.7459,1.8462225918862902
3145.7178,3.7554482790965213
3146.689,5.114291977722353
3147.6596,2.072757213254781
3148.6295,-0.06915253995812343
3149.5989,3.1385661717041433
3150.5676,2.0459174926959554
3151.5357,3.9529055360860275
3152.5032,3.7595343944838957
3153.4701,4.315808120970046
3154.4364,1.1217307310296203
3155.402,4.777306196989679
3156.367,3.432538479959981
3157.3315,3.137431493277223
3158.2952,-0.10801088404728132
3159.2584,2.696215195623469
3160.221,2.2001146589552043
3161.1829,1.653692405651503
3162.1442,2.656953313414803
3163.105,2.5099022434106177
3164.065,0.9125440302349306
3165.0245,6.2148834833847015
3165.9834,4.216925403231453
3166.9416,3.7186745279978775
3167.8993,2.07013555373741
3168.8563,3.1713131393167453
3169.8127,4.4222119229012185
3170.7684,3.6728365109430396
3171.7236,1.6731914656722977
3172.6782,4.423281312590719
3173.6321,2.2231105604681143
3174.5854,2.7226836738414852
3175.5381,3.922005095016727
3176.4902,1.9710792390729024
3177.4417,2.3199104818690213
3178.3926,2.868503179553305
3179.3428,2.466861665074872
3180.2924,3.114990242697806
3181.2415,3.2128931920175803
3182.1899,4.660574761479765
3183.1377,5.058039167400999
3184.0848,2.2052905794921758
3185.0314,2.302333116883796
3185.9773,2.8991708766534576
3186.9227,5.495807932855429
3187.8674,3.042248330552269
3188.8115,3.988496059848462
3189.755,2.6345550804260056
3190.6979,3.780429312081942
3191.6402,4.476122648267758
3192.5818,5.3716389446306545
3193.5229,4.116982012056601
3194.4633,6.262155607715186
3195.4031,2.957163447606172
3196.3423,5.4020091851077705
3197.2809,1.6966964440265557
3198.2189,3.1412287941490122
3199.1563,2.68560978829466
3200.0931,2.9298429478707355
3201.0292,3.9239317674283822
3201.9648,1.8678797122203163
3202.8997,3.211690208259942
3203.834,5.305366662881868
3204.7677,5.448912451303803
3205.7008,3.842330895689786
3206.6333,3.5856252637147366
3207.5652,6.678798784630263
3208.4964,3.8218546518317256
3209.4271,4.564795991926493
3210.3571,4.407625893303391
3211.2865,3.100347398703284
3212.2154,2.34296350679078
3213.1436,1.4854771852270119
3214.0712,4.877891378243481
3214.9982,4.920209015216915
3215.9246,0.412432976745128
3216.8503,4.404566094223847
3217.7755,3.046611194924468
3218.7001,5.038571062072727
3219.624,6.830448448428246
3220.5473,0.5222460563649404
3221.4701,2.813966519952239
3222.3922,6.255612468037111
3223.3137,7.747186501326858
3224.2346,3.1886911579726642
3225.1549,2.43012889865384
3226.0746,4.221502152162789
3226.9937,6.012813322990627
3227.9121,3.5040647734134454
3228.83,4.295258805579206
3229.7473,2.6863976865952175
3230.6639,5.977483640616208
3231.5799,4.418518864932923
3232.4954,2.959505497061275
3233.4102,4.350445630331985
3234.3244,5.341341328480723
3235.238,6.0821946117387
3236.151,5.823007446923713
3237.0634,2.3637817400316163
3237.9752,3.354519338828187
3238.8864,3.0952220674413864
3239.797,5.835891716453982
3240.7069,3.7265300454965176
3241.6163,3.417138755840626
3242.5251,6.6077195114926335
3243.4332,5.748273942287482
3244.3408,7.2388036119829176
3245.2477,4.0293100268539455
3246.154,2.669794620787537
3247.0598,3.060258787377561
3247.9649,2.7007038935199406
3248.8694,5.54113127550801
3249.7733,2.9315422426280664
3250.6766,4.221938048755091
3251.5793,5.712319918448645
3252.4814,3.8026890340489077
3253.3829,5.193046520772859
3254.2838,3.4833934658105896
3255.1841,5.6737309044217215
3256.0838,5.114059837031945
3256.9829,5.254381207329639
3257.8814,7.194695907862587
3258.7792,6.735004778634756
3259.6765,5.875308587703156
3260.5731,5.365608035774748
3261.4692,6.355903764803411
3262.3647,6.846196363086939
3263.2595,2.9864863553640886
3264.1538,3.6267741979116535
3265.0474,5.867060317141563
3265.9404,4.457345103198004
3266.8329,2.847628887554559
3267.7247,6.587911957111358
3268.616,5.528194570292243
3269.5066,5.668476919641934
3270.3966,3.458759142423207
3271.286,4.5990413192140664
