RamanShift,CorrectedData
30.1047,1191.2232773467267
32.3739,1102.7185188369695
34.6426,1016.7637484149791
36.9109,933.0089431413379
39.1787,844.4540699089899
41.4461,760.0990862807896
43.7131,672.8939413750502
45.9796,588.8385767090939
48.2456,503.632927071303
50.5112,418.92692136167443
52.7764,335.97048344387497
55.0411,251.1135329923025
57.3054,166.30598632164987
59.5692,84.79775723547456
61.8326,1.1887578742741738
64.0955,-77.82110046943123
66.3579,-157.18190651500913
68.6199,-230.3929715490333
70.8815,-292.60203661083176
73.1426,-313.45454111394696
75.4032,-226.64300137757556
77.6634,127.49319768995099
79.9231,1125.3169353438848
82.1824,3389.541089564547
84.4412,7668.178527079088
86.6995,13749.99208071925
88.9574,19892.94450663499
91.2148,24259.248423476343
93.4717,26358.216250963906
95.7282,26808.960166225777
97.9842,26740.542082807904
100.2398,26156.973646166633
102.4949,25513.31623435289
104.7495,24650.98096384786
107.0036,23737.828695999568
109.2573,22865.120045646236
111.5105,21915.515390247798
113.7632,20961.52487861299
116.0154,20176.35844039538
118.2672,19515.825795633315
120.5185,18884.13646260154
122.7693,18338.24976441654
125.0197,17911.924835353457
127.2696,17502.07062630491
129.519,17240.59590904429
131.7679,16975.559280324273
134.0163,16769.069164491586
136.2642,16538.433816137353
138.5117,16267.311322162011
140.7587,15981.009604081672
143.0052,15729.636420739327
145.2512,15434.59937116787
147.4967,15121.405897103841
149.7417,14879.163285937779
151.9863,14671.92867384618
154.2304,14532.609048213886
156.4739,14306.211249706475
158.717,14157.791973663423
160.9596,13943.007772362103
163.2017,13555.56505650196
165.4433,13163.370097352374
167.6844,12755.679030627067
169.925,12278.047860406065
172.1651,11796.782463212607
174.4047,11410.488592789447
176.6439,11008.021884911523
178.8825,10640.137861248884
181.1206,10360.241933391362
183.3582,10075.889406527418
185.5954,9879.535482243087
187.832,9657.435261365514
190.0681,9528.043745926494
192.3037,9416.015841383469
194.5388,9310.35635791344
196.7734,9283.970011533256
199.0075,9237.1614251562
201.2411,9299.68512885586
203.4742,9298.095560334212
205.7068,9317.59706429638
207.9389,9344.343892466542
210.1704,9419.590203392901
212.4015,9463.440062180223
214.632,9567.497439737377
216.862,9690.06621233883
219.0915,9834.450160584085
221.3205,10014.752968171975
223.549,10250.228220456847
225.777,10557.929402645523
228.0044,10981.159897442536
230.2314,11479.822981973137
232.4578,11933.32182355098
234.6837,12353.909474691489
236.909,12535.588868576877
239.1339,12403.662814850268
241.3582,12081.583997798894
243.582,11536.854977673374
245.8053,11043.72819390848
248.0281,10520.355970570441
250.2503,10088.29052128821
252.472,9775.483954487187
254.6932,9530.23827770986
256.9139,9314.305400743886
259.134,9164.437138074542
261.3536,8970.535211044053
263.5727,8869.90124935027
265.7912,8625.886792985713
268.0092,8499.743293243873
270.2267,8331.57211515939
272.4436,8191.624538769465
274.6601,8077.401760795588
276.8759,7977.354896043009
279.0913,7890.484978542962
281.3061,7863.592962553136
283.5204,7920.629723426376
285.7341,7999.796057879597
287.9473,8156.492683423422
290.16,8355.720237570513
292.3721,8683.52927626862
294.5837,9118.920271908282
296.7947,9494.393610044759
299.0052,9662.699585044102
301.2152,9458.938396328438
303.4246,8987.460146692893
305.6334,8331.914844343222
307.8418,7717.2524076105765
310.0495,7177.772671506964
312.2568,6778.025393871871
314.4635,6507.560260767064
316.6696,6385.326890474056
318.8752,6322.824836198759
321.0802,6333.403587293822
323.2847,6458.462569883644
325.4887,6435.101146758603
327.692,6351.668616124447
329.8949,6185.764211835922
332.0972,5819.687104231089
334.2989,5486.786401790379
336.5001,5113.411154797352
338.7007,4827.260358667712
340.9008,4641.58295768306
343.1003,4453.977847852397
345.2992,4380.193878768892
347.4976,4305.779855485953
349.6955,4231.434539255044
351.8927,4272.356648269833
354.0895,4230.394858409652
356.2856,4254.197802830267
358.4812,4188.164072383504
360.6763,4159.942215379215
362.8707,4101.980738245611
365.0646,4101.2781058115015
367.258,4025.4327418858775
369.4508,4016.1430292649547
371.643,4010.2573104906314
373.8346,3934.1738879433688
376.0257,3872.84102390107
378.2162,3760.1569412999015
380.4062,3573.86982434763
382.5956,3370.2778196504514
384.7844,3236.8290380758644
386.9726,3085.671556788606
389.1603,2984.0034205851207
391.3474,2911.5226434051456
393.5339,2874.077209348394
395.7199,2767.1150733993472
397.9052,2758.4841618017253
400.09,2733.7823731281005
402.2743,2736.457578366213
404.4579,2744.957621165975
406.641,2903.030317812736
408.8235,3096.673457142273
411.0054,3444.6347989600617
413.1868,3924.6120721048555
415.3675,4324.6529709690585
417.5477,4556.305150698969
419.7273,4649.866223194347
421.9064,4495.133754791916
424.0848,4299.355265329736
426.2627,4029.928229694535
428.4399,3708.4000797794924
430.6166,3272.8682071785097
432.7928,2863.379966401497
434.9683,2480.932679229685
437.1432,2213.7236388105157
439.3176,1990.3501134820963
441.4914,1869.1093494453125
443.6645,1809.6985729975495
445.8371,1712.1649917451068
448.0091,1614.6057951972925
450.1806,1565.1681557417796
452.3514,1485.599229620184
454.5216,1440.7961574224428
456.6913,1369.0060648825074
458.8603,1367.9760633263777
461.0288,1384.653250389987
463.1967,1424.534710029524
465.3639,1554.967512354644
467.5306,1671.4987132296628
469.6967,1853.875352969224
471.8622,2020.8944551729874
474.0271,2170.9530249018608
476.1914,2282.648047007817
478.3551,2222.8264846332877
480.5182,2179.5352780942285
482.6807,2102.221345478343
484.8426,2122.6815830779888
487.0039,2354.562866163302
489.1647,2750.7120487776174
491.3248,3237.2759614186525
493.4843,3471.151407077001
495.6432,3496.1851563705095
497.8015,3444.6239452055124
499.9592,3484.7144745265014
502.1163,3469.3534108317344
504.2728,3255.6873857723276
506.4287,2881.812996305869
508.5839,2451.6768068330857
510.7386,2032.8253529365666
512.8927,1750.1051456821533
515.0461,1549.9626758074282
517.199,1412.8444165489254
519.3512,1311.5968256435572
521.5029,1294.2663466997947
523.6539,1293.399410210146
525.8043,1331.4424337244636
527.9541,1353.4418218586106
530.1033,1384.193965914028
532.2519,1479.1452436577492
534.3999,1651.0420190148689
536.5472,1994.2806411190413
538.694,2536.807442593492
540.8401,3267.9687361186516
542.9856,3855.5608090068763
545.1305,4092.929915890847
547.2748,3948.672272847636
549.4185,3517.084055025016
551.5615,3090.2113980840477
553.704,2851.1504025149516
555.8458,2691.897137905833
557.987,2653.6976453333045
560.1276,2501.1479389550113
562.2675,2367.694006391617
564.4069,2238.6818102523175
566.5456,2095.7072894693647
568.6837,1912.0163605882026
570.8212,1685.3549191971997
572.958,1460.9688417645702
575.0942,1311.1539879049778
577.2299,1175.3062026234002
579.3648,1184.8713178132803
581.4992,1325.695153614999
583.6329,1551.1735183202345
585.766,1853.3522069637183
587.8985,2002.27699906845
590.0304,1999.7436556239136
592.1616,1934.5979175968241
594.2922,1847.585505956462
596.4222,1731.0521223261385
598.5515,1559.693449853312
600.6802,1393.8051543749225
602.8083,1200.8328861309801
604.9358,1103.772281423444
607.0626,1017.3689645459544
609.1888,937.6685487544328
611.3144,798.8666371311119
613.4393,620.5088233815459
615.5636,465.99069322262585
617.6873,348.757826166162
619.8103,289.1057970640577
621.9327,218.63017728064915
624.0544,244.67653528921983
626.1756,262.7904373767615
628.2961,229.7174473834948
630.4159,196.3531265217498
632.5351,156.04303370668276
634.6537,96.43272588991931
636.7716,62.667758462666825
638.8889,37.943685851812916
641.0056,77.50606185757897
643.1216,85.80043990074773
645.237,131.27237262704693
647.3518,123.06741182420592
649.4659,191.1311079672214
651.5793,184.00901030042405
653.6922,201.14666615683745
655.8043,175.03962102939295
657.9159,156.73341839957175
660.0268,50.47359999845685
662.137,12.955705989803391
664.2466,-47.17472396737139
666.3556,-43.97227964155718
668.4639,-29.641079525752502
670.5716,4.7151971701114235
672.6786,116.4431673504896
674.785,222.38940081500732
676.8907,319.7504661988678
678.9958,447.27292991338436
681.1002,433.80335517236927
683.204,405.68830071690536
685.3072,360.8243209500488
687.4097,276.10796621797635
689.5115,230.33578325861708
691.6127,159.65431604882724
693.7132,85.61010626210737
695.8131,3.4496939754189953
697.9123,-14.530381590373509
700.0109,-88.83361567685279
702.1089,-80.21335836708568
704.2061,-52.422072296325496
706.3028,-67.71141876838374
708.3987,20.61746460942777
710.4941,133.46411666686254
712.5887,354.87807602750036
714.6827,692.5588799802899
716.7761,1116.5560622653975
718.8688,1563.9191496974145
720.9608,1822.0976579253693
723.0522,1831.5910869591025
725.1429,1586.1489185874798
727.233,1220.820616283463
729.3224,855.3056276585303
731.4112,509.1533881159612
733.4993,261.46332450598857
735.5867,121.63485858731474
737.6735,34.11740950400781
739.7596,-1.0396048161965155
741.845,-11.636766786739827
743.9298,-4.824648435407653
746.014,31.196294461304205
748.0974,20.675654325139476
750.1802,63.61302326587793
752.2624,63.90799318654899
754.3439,94.21015535406332
756.4247,165.71910039625072
758.5048,279.9844179988413
760.5843,466.7056961903854
762.6631,756.0825201995904
764.7413,1173.064470588106
766.8188,1774.9511203567654
768.8956,2304.342030775766
770.9718,2670.636745365793
773.0473,2615.9847846041266
775.1221,2290.5356422616824
777.1962,1903.9887859495266
779.2697,1675.3436603733753
781.3426,1748.2996911990595
783.4147,2071.706287338973
785.4862,2423.1128402225277
787.557,2501.8687205620736
789.6271,2164.273274838828
791.6966,1616.125824515335
793.7654,1095.8256694114025
795.8335,751.4720931855882
797.901,551.2143685381998
799.9678,492.2017606548252
802.0339,520.3335292089105
804.0993,608.9089289518888
806.1641,610.8772094318647
808.2282,577.5376141078577
810.2916,491.2893803301213
812.3544,355.5317396735336
814.4164,310.11391880009614
816.4778,260.335140816489
818.5385,287.14462572826596
820.5986,321.54159093762246
822.658,382.77525097532
824.7166,422.94481715669826
826.7747,562.1494969693513
828.832,678.2384936714234
830.8886,806.6110048995643
832.9446,959.9162215080505
834.9999,1090.8533262850488
837.0545,1209.8714924195656
839.1085,1305.3198821920814
841.1618,1307.6476457843628
843.2143,1336.303920324981
845.2662,1294.1378298660302
847.3175,1277.998485096573
849.368,1162.4349837642903
851.4179,1035.4464108368938
853.467,888.43183965774
855.5155,788.240333215731
857.5633,668.8709456154538
859.6105,567.8227230790953
861.6569,507.0947051401363
863.7027,438.9859256538348
865.7478,439.9954134045047
867.7922,467.62219278660814
869.8359,521.2652837946534
871.8789,672.1737017469331
873.9212,858.3964567490839
875.9629,1088.8825521850113
878.0039,1307.6809828546639
880.0441,1423.9407326691671
882.0837,1417.2607724628433
884.1226,1296.3900588306087
886.1609,1121.4275341947787
888.1984,1006.9221280137763
890.2352,937.0727585317536
892.2714,879.0783339236405
894.3069,865.9377529936482
896.3416,803.8499057552071
898.3757,800.2636735623746
900.4091,813.4779297307077
902.4418,826.4915395731314
904.4739,855.003360267794
906.5052,846.9122407279328
908.5358,744.3170213167532
910.5658,595.9165339283372
912.595,469.65960301360155
914.6236,354.64504706430307
916.6515,320.6216798756004
918.6786,324.18831169621353
920.7051,403.2937495686474
922.7309,519.8367972935193
924.756,632.6662546385169
926.7804,748.6309161729623
928.8041,726.4295701395185
930.8272,742.6609972945416
932.8495,715.0239711300919
934.8711,637.8172577116238
936.892,495.4896159543541
938.9123,325.18979839533495
940.9318,188.56655261672677
942.9506,66.66862294879411
944.9688,-29.205248163861143
946.9862,-46.75631894331946
949.003,-90.83555585123668
951.019,-55.643458253643075
953.0344,-15.5296180693731
955.0491,44.40692866088739
957.063,119.36730103733407
959.0763,223.00261771609894
961.0888,301.3139961596444
963.1007,404.4025516004085
965.1119,459.36939625769537
967.1223,511.8156383067835
969.1321,549.9423813292578
971.1412,600.4507237885537
973.1495,649.9917586486799
975.1572,699.9165728691396
977.1641,742.3262469095262
979.1704,727.5218542302646
981.1759,740.6044608685215
983.1808,812.9251255862464
985.1849,942.8848997393488
987.1884,1117.0848265544892
989.1911,1348.625939829487
991.1932,1500.109262191314
993.1945,1602.2358027806913
995.1951,1597.2565557372454
997.1951,1569.6224991782437
999.1943,1483.984595248393
1001.1928,1453.0437903961738
1003.1906,1452.8010162302207
1005.1877,1508.5571898287362
1007.1841,1456.9132137419156
1009.1798,1346.7199754343892
1011.1748,1185.9783478016589
1013.1691,1005.9891902720274
1015.1627,783.9033504140134
1017.1556,589.8716657362484
1019.1477,492.3449659083308
1021.1392,446.02407470114395
1023.1299,452.40981096212454
1025.12,477.9529890784697
1027.1093,571.3044189132843
1029.0979,660.7649055501415
1031.0859,735.0852483595754
1033.0731,739.0662401044747
1035.0596,677.7086661968779
1037.0454,542.6633046581619
1039.0304,445.5309267326211
1041.0148,352.66229823792037
1042.9985,254.6081805364156
1044.9814,221.81933146384563
1046.9636,172.0465063098718
1048.9452,185.64045814596648
1050.926,201.80193832314308
1052.9061,180.33169633600573
1054.8855,188.53047966114445
1056.8642,211.4490339718359
1058.8421,278.0381030560575
1060.8194,318.1984285872959
1062.7959,349.98074945866483
1064.7717,378.83580138129037
1066.7469,389.964316566502
1068.7213,376.96702343726975
1070.695,359.54464651692433
1072.6679,312.74790655912693
1074.6402,271.9275207220944
1076.6117,261.3342030365684
1078.5826,298.11866481401466
1080.5527,373.6316147525622
1082.5221,525.1237585691515
1084.4908,771.9457982444083
1086.4587,1010.748430507726
1088.426,1210.5823443690406
1090.3925,1227.3482187308045
1092.3584,1152.946720389651
1094.3235,1014.1285038687365
1096.2879,925.1942121617512
1098.2515,879.8444781211019
1100.2145,898.0299253472567
1102.1767,981.6011686422462
1104.1382,1110.7588138278006
1106.099,1319.0034569096415
1108.0591,1590.6856827859056
1110.0185,1729.056063164694
1111.9771,1735.315153847254
1113.9351,1541.513493344275
1115.8923,1206.801602813296
1117.8488,870.5799879967253
1119.8045,591.8491425689599
1121.7596,436.959551498594
1123.7139,355.2116938357394
1125.6675,362.5060442609083
1127.6204,434.19307390250106
1129.5726,493.823250263863
1131.524,542.5970365064086
1133.4748,590.9148908533234
1135.4248,672.3272661018291
1137.3741,700.0846091399972
1139.3226,686.0373601326328
1141.2705,674.9859522436946
1143.2176,619.9808117767707
1145.164,651.0223582855933
1147.1097,688.2610051240918
1149.0546,675.1971591359743
1150.9989,588.2312202823423
1152.9424,417.31358177232596
1154.8852,229.99463093274244
1156.8272,101.1247509172772
1158.7686,31.904322579672225
1160.7092,-2.516274237575999
1162.6491,-9.336660011009371
1164.5883,62.94356992041139
1166.5267,164.17491349095235
1168.4644,323.80786800544774
1170.4014,501.2429291269882
1172.3377,757.5805892805884
1174.2732,966.6713358788311
1176.2081,1184.6656487585024
1178.1421,1363.4639980896773
1180.0755,1514.2168421957786
1182.0082,1549.8246257655928
1183.9401,1505.9377783457385
1185.8713,1292.156713984593
1187.8017,1046.881831671154
1189.7315,816.9635174728564
1191.6605,588.2021469883157
1193.5888,383.248087646517
1195.5163,252.90170099442366
1197.4432,162.91334474652558
1199.3693,116.58337408829175
1201.2947,85.11214257606753
1203.2193,71.25000260036632
1205.1432,108.94730570058346
1207.0664,152.1044027036196
1208.9889,265.3716433469026
1210.9106,374.04937584682375
1212.8316,467.3379457660558
1214.7519,571.7876949267866
1216.6715,615.348960477826
1218.5903,613.4220738501108
1220.5084,562.9073603210873
1222.4257,545.4551390339866
1224.3424,512.1657235029725
1226.2583,565.9394217876552
1228.1735,693.4265368259948
1230.0879,830.6773658965576
1232.0016,983.0421993436457
1233.9146,1042.0713192047906
1235.8269,979.664997687104
1237.7384,832.6734965769892
1239.6492,699.2970678641977
1241.5592,579.6859552117548
1243.4686,500.79039528971407
1245.3772,455.5106189712724
1247.285,387.9968521217197
1249.1922,353.49931605124675
1251.0986,375.66822819007575
1253.0042,388.0038024334399
1254.9092,444.20624891989337
1256.8134,565.3757739079529
1258.7169,734.4125792140712
1260.6196,904.1168610009545
1262.5216,1080.6888080871777
1264.4229,1255.2286002501578
1266.3234,1375.4864064604226
1268.2232,1441.9623831362169
1270.1223,1425.0066729409255
1272.0207,1400.5694041183106
1273.9183,1371.750690662071
1275.8151,1346.0006325602153
1277.7113,1246.7693160832432
1279.6067,1105.0568140416535
1281.5014,959.9131867782535
1283.3953,829.4384835852861
1285.2885,744.882744155866
1287.181,667.245999888727
1289.0727,666.4282747337729
1290.9637,717.9295859684526
1292.854,837.3499442059283
1294.7435,1020.239352880073
1296.6323,1244.1478070512576
1298.5204,1525.7752915774618
1300.4077,1797.521778875186
1302.2943,2030.9372261031822
1304.1802,2146.7715724449827
1306.0653,2105.274736774749
1307.9497,2003.946616498929
1309.8333,1957.7870879712264
1311.7162,1960.1960075058796
1313.5984,2068.1232118392563
1315.4798,2219.7185181057675
1317.3605,2424.03172275859
1319.2405,2588.4126000537217
1321.1197,2647.010900006845
1322.9982,2635.87634674952
1324.876,2655.2586379431987
1326.753,2641.35744489057
1328.6293,2677.5224123417447
1330.5048,2726.0031586332616
1332.3796,2706.999275326437
1334.2537,2696.710326722561
1336.127,2645.1358500529323
1337.9996,2626.475355581747
1339.8714,2577.878327121847
1341.7426,2513.194222221322
1343.6129,2492.4224726494813
1345.4826,2427.712485043695
1347.3515,2387.4636411171105
1349.2196,2339.825298305752
1351.087,2345.8467901710083
1352.9537,2377.7774268760195
1354.8197,2501.0664951254585
1356.6849,2702.063257846229
1358.5493,2814.2669529545747
1360.4131,2828.076791346106
1362.276,2745.9419557737683
1364.1383,2606.111600709739
1365.9998,2412.284853166778
1367.8606,2142.3108140965314
1369.7206,1921.5385603278019
1371.5799,1751.8171472662825
1373.4384,1657.6456111022844
1375.2962,1540.522970507951
1377.1533,1334.4982275789707
1379.0096,1079.2703690058024
1380.8652,810.188368133925
1382.7201,608.1511875161177
1384.5742,418.8577816032757
1386.4275,289.1570987647892
1388.2802,181.09808318147043
1390.132,104.47967614255958
1391.9832,64.05081712632
1393.8336,24.910444566220576
1395.6832,4.407496255224942
1397.5322,-19.259090262808968
1399.3803,-26.39037748809369
1401.2278,-32.837235522533774
1403.0745,-27.700270828168414
1404.9204,-7.679761823056651
1406.7656,19.57428980044915
1408.6101,49.81195907081337
1410.4538,73.43332082075995
1412.2968,156.23844938489538
1414.139,215.5774183634935
1415.9805,331.10029979444425
1417.8213,403.25716355986697
1419.6613,599.1980762308767
1421.5006,782.8731003460216
1423.3391,1043.682292451866
1425.1769,1453.2757012662469
1427.0139,1985.5533650701796
1428.8502,2621.7153076119234
1430.6858,3263.011532784207
1432.5206,3740.3420182626064
1434.3547,4046.6567090925837
1436.188,4140.805512916184
1438.0206,4093.488296908888
1439.8524,3967.0548868381206
1441.6835,3919.555067536424
1443.5139,3809.5885841657946
1445.3435,3738.305142692676
1447.1724,3722.754410987633
1449.0005,3669.236019538177
1450.8279,3567.9495616042786
1452.6545,3530.8445937535453
1454.4804,3581.7206368740945
1456.3056,3594.627176545597
1458.13,3519.1136625305226
1459.9536,3311.979508645068
1461.7766,2954.074093514296
1463.5987,2528.8467626434767
1465.4202,2133.4468319971393
1467.2409,1786.7235922513478
1469.0608,1524.6763127476984
1470.88,1270.6542449605513
1472.6984,1037.2066251175074
1474.5161,857.3826767396267
1476.3331,711.8316129759023
1478.1493,575.9026384015065
1479.9648,477.2449504732954
1481.7795,392.4577408891005
1483.5935,352.34019657430554
1485.4067,307.0915005297202
1487.2192,268.8608322327527
1489.031,236.54736808989674
1490.842,209.1502818190379
1492.6522,198.71874477259053
1494.4618,168.95192621146634
1496.2705,157.8989934093902
1498.0785,143.55911195057115
1499.8858,133.93144584022684
1501.6924,133.7151576479887
1503.4981,134.90940860417413
1505.3032,126.9633586019504
1507.1075,125.47616618539405
1508.911,94.39698862894647
1510.7138,101.67498195229018
1512.5159,77.40930123113776
1514.3172,55.54910052444984
1516.1178,34.293533117102015
1517.9176,14.54175173847716
1519.7166,5.042908775025353
1521.515,6.496156467779656
1523.3126,-12.449352992653075
1525.1094,-0.6444674806252806
1526.9055,-15.339910501458235
1528.7008,-11.236399122242346
1530.4954,-22.834497164363256
1532.2893,-6.734656197581899
1534.0824,-27.637099675032005
1535.8747,-9.141983770636216
1537.6663,-12.49918856369095
1539.4572,-12.008502805077569
1541.2473,-4.469590378786506
1543.0367,10.818004796137302
1544.8253,-5.4952165481477095
1546.6132,37.29124621234132
1548.4003,33.37794859879614
1550.1867,62.51544575949856
1551.9723,87.45429250895177
1553.7572,112.84504303650738
1555.5414,154.23825065697656
1557.3247,206.0344675567194
1559.1074,264.5342443797167
1560.8893,308.8881297096045
1562.6705,376.0966694846784
1564.4509,456.61040655435227
1566.2305,553.1298800070763
1568.0094,664.9556243651987
1569.7876,762.3381686197695
1571.565,850.9780351122831
1573.3417,924.9257385608548
1575.1176,958.3317851738207
1576.8928,934.7466719102622
1578.6672,890.3208861459439
1580.4409,785.154905909164
1582.2138,668.1992003250139
1583.986,548.3042306670382
1585.7575,456.87045152678866
1587.5282,385.84831201277757
1589.2981,346.83825666481334
1591.0673,314.3407261642219
1592.8358,278.95615772394694
1594.6035,271.484985413525
1596.3704,305.17764051293307
1598.1366,316.13455158729903
1599.9021,347.6061441499769
1601.6668,386.24284055297403
1603.4308,439.39505967223886
1605.194,522.6632165212909
1606.9564,612.4977217197015
1608.7182,720.348980660412
1610.4791,877.9673926113855
1612.2394,1023.4033496370994
1613.9988,1213.3572350223562
1615.7576,1470.1294218179273
1617.5156,1718.5202709410141
1619.2728,1972.8801286075227
1621.0293,2158.6093238481594
1622.785,2268.3081659648274
1624.54,2250.3269426733395
1626.2942,2131.815919006429
1628.0477,1887.3253374935562
1629.8005,1667.5054193460278
1631.5525,1444.5563669018975
1633.3037,1254.5283658241642
1635.0542,1077.4715873302675
1636.804,952.0361900923635
1638.553,846.722322007894
1640.3013,816.8301214539406
1642.0488,771.7097183403616
1643.7955,772.761234408717
1645.5416,795.5347836834699
1647.2868,859.7304724614714
1649.0313,953.8483990842265
1650.7751,1086.1386532959345
1652.5181,1294.4513153023136
1654.2604,1541.1864544476953
1656.0019,1879.1441271319
1657.7427,2244.5243743428837
1659.4828,2603.5272182771605
1661.222,2878.9526586860056
1662.9606,2951.2006692854206
1664.6984,2819.8711950018815
1666.4354,2493.2141512498597
1668.1717,2079.079425245112
1669.9072,1651.2168792712569
1671.642,1263.176354821117
1673.3761,977.1076768753478
1675.1094,750.660657782842
1676.8419,591.4851001214179
1678.5737,449.130798962286
1680.3048,383.8975434618069
1682.0351,317.93511828503597
1683.7646,253.393304258052
1685.4934,223.9718790275856
1687.2215,179.47061770643177
1688.9488,171.7892931676697
1690.6754,142.77767648967256
1692.4012,124.23553703292009
1694.1263,129.01264273011884
1695.8506,108.55876027161867
1697.5742,102.67365505764519
1699.297,79.00709140283789
1701.0191,84.00883259509965
1702.7404,76.12864113226487
1704.461,51.96627867207917
1706.1808,43.6715061110026
1707.8999,43.394083825833604
1709.6182,51.68377175665819
1711.3358,39.040329409622245
1713.0527,30.96351577403493
1714.7688,26.003089448806804
1716.4841,18.55880872321086
1718.1987,15.030431626491463
1719.9126,20.717716002307043
1721.6257,6.670419544010656
1723.338,11.888299737780699
1725.0496,12.821114003092134
1726.7605,9.468619640536645
1728.4706,2.2805738224960805
1730.18,2.456733626667301
1731.8886,-0.3031438920575056
1733.5964,-1.4993017033530123
1735.3036,-11.08197974848872
1737.0099,-2.30140299071104
1738.7156,0.8423143157101549
1740.4204,-1.65091909248099
1742.1246,12.118805513038978
1743.8279,-0.7485866467259257
1745.5306,10.89682952804128
1747.2325,-5.9450133844634365
1748.9336,-7.374182915010579
1750.634,2.209312796311906
1752.3336,1.055539277500884
1754.0325,-9.385437965537903
1755.7307,-3.2635534374526287
1757.4281,7.421352117632296
1759.1247,7.41947055848982
1760.8206,-0.16900633031923462
1762.5158,12.056113161571602
1764.2102,7.745022432902033
1765.9039,6.697914761851052
1767.5968,11.314983349147496
1769.289,11.34642132854242
1770.9804,19.14242172063814
1772.6711,16.053177432572284
1774.361,9.728881180060398
1776.0502,14.969725518286168
1777.7386,20.475902905145176
1779.4263,18.397605648836134
1781.1132,7.735025852800618
1782.7994,2.5883554365043437
1784.4849,19.657786242064958
1786.1696,14.343510085717298
1787.8535,24.69571858711879
1789.5367,22.714603222492315
1791.2192,24.700355221103564
1792.9009,15.953165585072156
1794.5818,39.723225069515365
1796.2621,26.510724270019864
1797.9415,15.06585338494051
1799.6202,26.68880234752646
1801.2982,34.079760940368715
1802.9755,32.838918679170774
1804.6519,32.66646473883907
1806.3277,29.66258796589159
1808.0027,35.627476880182485
1809.6769,29.861319704941934
1811.3504,40.9143043071258
1813.0231,45.736618255079065
1814.6951,37.778448708005044
1816.3664,56.189982367742004
1818.0369,52.12140555834458
1819.7067,43.272904041967195
1821.3757,55.04466305955111
1823.044,54.13686741931019
1824.7115,55.44970137901146
1826.3783,45.13334865505476
1828.0443,47.03799240934359
1829.7096,37.91381535244955
1831.3741,48.610999724563726
1833.0379,65.77972738674089
1834.701,61.07017971392588
1836.3633,72.23253742326642
1838.0248,60.86698062120831
1839.6856,60.57368869187235
1841.3457,63.40284041071095
1843.005,66.20461394743938
1844.6636,72.02918683774647
1846.3214,68.82673595527467
1847.9785,86.69743745337496
1849.6349,90.99146679713249
1851.2904,81.55899858465705
1852.9453,96.30020650414622
1854.5994,75.41526342820725
1856.2528,93.15434126644641
1857.9054,86.86761117431843
1859.5572,99.15524337573379
1861.2083,78.2174072259279
1862.8587,84.95427108858439
1864.5084,101.56600254521368
1866.1572,94.20276832778336
1867.8054,95.26473415260284
1869.4528,94.60206479395424
1871.0994,89.91492407347323
1872.7453,90.4534748667752
1874.3905,83.86787915032801
1876.0349,95.15829799606468
1877.6786,97.22489163724026
1879.3215,96.06781935552817
1880.9637,97.63723946035316
1882.6051,97.33330930046304
1884.2458,101.90618524823344
1885.8858,91.00602270270747
1887.525,101.73297604386721
1889.1634,92.28719874163448
1890.8011,101.91884324860325
1892.4381,88.02806109449466
1894.0743,94.06500278984299
1895.7098,92.72981796490149
1897.3446,100.82265530927543
1898.9786,96.39366258527184
1900.6118,91.94298654697218
1902.2443,92.47077298452064
1903.8761,104.07716676863356
1905.5071,89.76231184531866
1907.1374,89.77635111981363
1908.7669,94.21942659973297
1910.3957,95.44167939492945
1912.0237,90.94324967306079
1913.651,96.07427664736997
1915.2776,94.78489862166657
1916.9034,98.17525293901917
1918.5285,90.44547599464818
1920.1528,92.64570320202256
1921.7764,93.37606907015697
1923.3992,89.83670718160988
1925.0213,89.67775018518023
1926.6427,87.69932983130025
1928.2633,81.75157697362579
1929.8832,96.08462158881844
1931.5023,96.19859283602591
1933.1207,91.44361891355038
1934.7383,89.91982705770852
1936.3552,91.27734359038118
1937.9714,86.66629393425251
1939.5868,83.23680259923322
1941.2015,81.98899322857164
1942.8154,78.72298863314904
1944.4286,69.88891080395706
1946.041,69.38688094475788
1947.6528,75.71701956042511
1949.2637,72.87944646196343
1950.8739,62.574280703208615
1952.4834,76.25164060920179
1954.0921,65.86164387924168
1955.7001,77.30440745011288
1957.3074,67.48004759998344
1958.9139,68.43867983397809
1960.5197,64.78041898242213
1962.1247,64.9553791912549
1963.729,62.26367395861166
1965.3325,59.555416133074004
1966.9353,73.98071794058751
1968.5374,51.289691011544846
1970.1387,61.932446236530495
1971.7393,54.6090939932335
1973.3392,63.26974404001908
1974.9383,61.96450558916172
1976.5366,51.543487220239285
1978.1342,56.656796893184946
1979.7311,53.754542052496845
1981.3273,62.48682957610686
1982.9227,47.80376580440088
1984.5173,52.6054564528979
1986.1112,51.94200675907882
1987.7044,55.81352143437107
1989.2968,43.62010467078153
1990.8885,47.11186010218307
1992.4795,56.08889092624668
1994.0697,44.7512998695272
1995.6592,55.699189097689896
1997.2479,49.132660328887596
1998.8359,50.95181472428226
2000.4232,50.40675295370943
2002.0097,48.247575177488216
2003.5955,35.324381051869295
2005.1805,59.53726975062909
2006.7648,50.23634009430043
2008.3484,59.97169030804389
2009.9312,43.64341811465874
2011.5133,49.65162063722687
2013.0946,50.64639456239752
2014.6752,43.97783608030386
2016.2551,47.496040874616256
2017.8342,56.95110418922627
2019.4126,46.69312079306587
2020.9902,38.82218488555691
2022.5672,58.238390199190235
2024.1433,45.29183007823508
2025.7188,48.882597284578424
2027.2935,50.110784127188026
2028.8674,46.226482426206985
2030.4406,49.22978350067092
2032.0131,52.720778207351486
2033.5849,40.14955691072237
2035.1559,44.716209448050904
2036.7261,46.82082525510896
2038.2957,53.86349332050736
2039.8645,50.59430216464875
2041.4325,47.11333976930109
2042.9998,54.02069361028998
2044.5664,43.21645069230726
2046.1323,47.700697479839164
2047.6974,44.92352000520759
2049.2617,49.285003823728175
2050.8254,45.23523404148159
2052.3883,41.174295271699066
2053.9504,50.80227167525959
2055.5118,38.119247001300664
2057.0725,41.57530449093838
2058.6325,46.37052700409572
2060.1917,40.00499698494468
2061.7502,40.27879641395202
2063.3079,44.29200687153502
2064.8649,51.24470953532409
2066.4212,45.186985140029265
2067.9767,43.018913907914566
2069.5315,44.890575609373855
2071.0856,48.75204958461268
2072.6389,32.353414724930644
2074.1915,35.994749434107916
2075.7433,47.42613179239106
2077.2945,33.397639520079565
2078.8448,34.00934986321181
2080.3945,27.7613397338514
2081.9434,25.703685703968404
2083.4916,31.48646406792045
2085.039,26.959750863028603
2086.5857,34.77362181174999
2088.1317,23.02815236694505
2089.677,14.973417633737313
2091.2215,34.7594924869702
2092.7652,31.33645165175335
2094.3083,30.604369505601426
2095.8506,30.413320112665815
2097.3921,32.16337723105414
2098.933,29.654614314741934
2100.4731,32.18710449607124
2102.0124,33.760920610838184
2103.5511,48.976135172968384
2105.089,24.48282035877878
2106.6261,30.93104785482558
2108.1626,28.620889102837396
2109.6983,35.402415235232525
2111.2332,32.17569709822067
2112.7675,33.99080518398853
2114.301,36.34780966296614
2115.8337,28.346780365676068
2117.3657,38.53778675916362
2118.897,42.570898027006365
2120.4276,23.24618296740448
2121.9575,28.563709952848967
2123.4866,26.12354712336969
2125.0149,45.425762333359444
2126.5426,24.67042317597668
2128.0695,36.557596790122716
2129.5956,26.28735006799502
2131.1211,31.00974953621585
2132.6458,35.37486145853461
2134.1698,31.53275178860406
2135.693,31.883486126328307
2137.2155,35.477129756284626
2138.7373,39.513747644215755
2140.2584,42.29340440109388
2141.7787,26.76616424275403
2143.2983,29.53209096209821
2144.8171,37.34124808436718
2146.3353,26.843698839481362
2147.8527,37.43950608394937
2149.3693,36.178732405843334
2150.8853,29.461440018840108
2152.4005,26.787690774829684
2153.9149,36.25754623108844
2155.4287,26.471067677016208
2156.9417,30.278316039437755
2158.454,36.67935198046723
2159.9655,36.07423585943616
2161.4764,36.163027668882705
2162.9865,34.34578704060277
2164.4958,35.072573244762566
2166.0045,27.493445208071307
2167.5124,34.208461506512094
2169.0195,30.21768044113412
2170.526,31.071159970902045
2172.0317,29.31895775260466
2173.5367,39.81113113231959
2175.0409,30.89773716293564
2176.5445,36.17883249923102
2178.0473,35.00447348700743
2179.5494,30.62471611027877
2181.0507,38.73961600301459
2182.5513,37.39922849293748
2184.0512,28.453608520374473
2185.5504,25.252810651660525
2187.0488,22.946889168595476
2188.5465,28.285898100451163
2190.0435,21.01989124703141
2191.5397,24.748922125280956
2193.0353,28.973044041946423
2194.5301,29.74231005628542
2196.0241,22.206772937825576
2197.5175,25.766485158671685
2199.0101,33.571498968861874
2200.502,32.821866360769604
2201.9931,31.967638991053605
2203.4835,21.208868188154952
2204.9733,25.49560496083825
2206.4622,29.327900105779804
2207.9505,17.255804164699953
2209.438,27.379367386040485
2210.9248,23.19863984568576
2212.4109,21.013671345726266
2213.8962,25.324511456267146
2215.3809,33.231209537276754
2216.8648,29.883814695478463
2218.3479,22.38237570528463
2219.8304,22.226941042269573
2221.3121,20.267558958184395
2222.7931,15.254277482510588
2224.2733,15.48714444205541
2225.7529,26.316207511082666
2227.2317,22.84151420898536
2228.7098,16.863111791994697
2230.1872,12.681047287927413
2231.6638,18.845367555968892
2233.1397,18.40611932849481
2234.6149,10.51334914942754
2236.0894,12.767103378628804
2237.5632,16.86742827082685
2239.0362,23.714369953079313
2240.5085,9.257974383770033
2241.9801,8.598287284139133
2243.4509,7.785354282847493
2244.921,9.36922092257339
2246.3904,18.499932668141696
2247.8591,4.977534890685547
2249.3271,8.702072776339378
2250.7943,-0.026408538537225468
2252.2608,5.692135995394665
2253.7266,7.707751691295243
2255.1917,7.320483805403683
2256.656,11.930377516882231
2258.1197,0.23747793168865883
2259.5826,11.84183003647695
2261.0447,16.443476445496003
2262.5062,5.742459654576919
2263.9669,9.438821995116086
2265.4269,15.032605741085831
2266.8862,4.073853072070051
2268.3448,6.812606017326971
2269.8026,3.198906565376774
2271.2598,7.382796636613534
2272.7162,18.36431811944294
2274.1719,8.94351282844275
2275.6268,5.420422394548268
2277.0811,6.5450883592598075
2278.5346,9.167552209873634
2279.9874,15.437855368235773
2281.4395,13.00603916451712
2282.8908,22.022144774510025
2284.3414,11.036213243946463
2285.7914,9.598285398337566
2287.2406,12.558401952833037
2288.689,5.266603526599511
2290.1368,18.42293061321982
2291.5838,12.927423653611072
2293.0302,13.830122904461405
2294.4758,10.231068493185262
2295.9206,20.930300408896528
2297.3648,13.727858538398777
2298.8082,16.423782559192887
2300.251,6.8181120115012845
2301.693,19.1608862713083
2303.1343,13.00214464641681
2304.5748,15.241926253021461
2306.0147,21.130270077295904
2307.4538,12.767214952994777
2308.8922,11.252799502570383
2310.3299,20.88706222080316
2311.7669,19.820041489945993
2313.2031,19.80177548338156
2314.6387,5.432302176292637
2316.0735,8.911659345844555
2317.5076,8.08983050050358
2318.941,13.316799059619711
2320.3737,14.092548361645186
2321.8056,13.767061611864506
2323.2369,9.990321874636834
2324.6674,13.962312076651301
2326.0972,13.08301504469398
2327.5263,19.252413465928385
2328.9547,18.57048989668806
2330.3823,17.287226700782185
2331.8092,19.452606056315858
2333.2355,15.966609968522107
2334.661,15.0792202481083
2336.0858,12.990418546115961
2337.5098,12.050186362794534
2338.9332,12.858505068489308
2340.3558,16.36535591304414
2341.7778,20.020720017718077
2343.199,17.024578340116477
2344.6195,17.076911637638432
2346.0393,17.877700497437672
2347.4583,20.076925335898864
2348.8767,20.22456639062989
2350.2943,25.120603698470518
2351.7113,32.165017094014274
2353.1275,33.50778616064906
2354.543,25.998890160113547
2355.9578,25.988308019068427
2357.3718,29.67601840418547
2358.7852,29.16199972225411
2360.1978,26.546230083303954
2361.6098,20.42868730574469
2363.021,30.25934894252407
2364.4315,26.388192342303682
2365.8413,28.815194551151194
2367.2504,29.090332351253323
2368.6587,33.46358223664447
2370.0664,28.384920410456516
2371.4733,26.854322741185456
2372.8795,23.17176481347792
2374.285,26.537221943438567
2375.6899,22.70066921545424
2377.0939,23.162081448540334
2378.4973,31.671433234706114
2379.9,31.328698934340196
2381.3019,28.583852591117193
2382.7032,24.236867935424925
2384.1037,25.987718411813034
2385.5035,22.73637722246292
2386.9027,31.28281730967865
2388.3011,28.227011388401024
2389.6987,26.968931860742487
2391.0957,22.75855084654586
2392.492,25.69584019596482
2393.8876,14.730771531567598
2395.2824,20.463316218963996
2396.6765,24.443445476456418
2398.07,29.32113031771462
2399.4627,19.396341511974242
2400.8547,16.019049535259796
2402.246,19.78922466963263
2403.6366,26.70683703696386
2405.0265,25.021856561232767
2406.4156,25.38425289935026
2407.8041,21.293995458008794
2409.1918,24.80105339005877
2410.5789,27.205395635410696
2411.9652,27.806990885964524
2413.3508,30.85580756156662
2414.7358,27.251813803993855
2416.12,31.494977446464645
2417.5035,30.8852660496799
2418.8863,31.322646859391057
2420.2684,34.957086812497096
2421.6497,31.688552532670997
2423.0304,33.267010294014995
2424.4104,26.442426053746317
2425.7896,20.514765436411835
2427.1682,33.98399380213459
2428.546,29.750076305890047
2429.9232,37.86297776281424
2431.2996,27.77266269054246
2432.6753,31.67909522808054
2434.0503,32.98223923670821
2435.4246,34.78205826091431
2436.7982,36.87851551536596
2438.1711,33.32157386690966
2439.5433,33.76119581360757
2440.9148,25.24734352030623
2442.2856,32.579978814240064
2443.6557,37.109063270170566
2445.025,27.384558137059514
2446.3937,38.95642429277842
2447.7617,37.424622341353086
2449.1289,36.9391124972455
2450.4955,31.399854600671574
2451.8613,36.30680812245612
2453.2265,34.909932219425855
2454.5909,35.85918568533924
2455.9546,38.35452696485595
2457.3177,35.84591414404372
2458.68,39.633304925425136
2460.0416,37.916656653063455
2461.4025,45.49592627468945
2462.7627,43.62107035886709
2464.1222,47.4420450192016
2465.4811,51.80880593308757
2466.8392,51.57130830349962
2468.1966,54.47950681532399
2469.5533,51.933355637734394
2470.9093,51.23280839510977
2472.2645,52.07781819249544
2473.6191,58.41833762260899
2474.973,50.9543187573899
2476.3262,60.635713084594556
2477.6787,50.56247158243633
2479.0305,54.8845446227719
2480.3816,54.35188207183336
2481.7319,42.96443324700772
2483.0816,53.62214692216338
2484.4306,60.124971441524394
2485.7789,56.32285461309374
2487.1264,49.26574364362489
2488.4733,53.203585176643
2489.8195,53.03632536301592
2491.165,53.013909821575965
2492.5097,55.33628364079226
2493.8538,57.55339137899523
2495.1972,52.81517704115271
2496.5398,57.171584056698634
2497.8818,55.822555326915676
2499.2231,57.01803318137053
2500.5637,53.50795939140448
2501.9035,61.642275158178734
2503.2427,60.77092114777548
2504.5812,64.84383740985425
2505.919,52.810963386365586
2507.256,56.2722378708217
2508.5924,59.677599128625616
2509.9281,55.326984862457834
2511.2631,54.070332178223396
2512.5974,60.10757762855741
2513.9309,59.88865722539214
2515.2638,65.86350637958412
2516.596,75.3320599031033
2517.9275,65.54425194928473
2519.2583,66.85001591814296
2520.5884,60.79928455425011
2521.9178,62.09198993367846
2523.2465,69.57806352450768
2524.5745,61.40743617389762
2525.9018,61.43003803322779
2527.2284,60.445798639803
2528.5543,67.50464691662808
2529.8796,67.9065111822498
2531.2041,69.90131908016878
2532.5279,67.13899757482062
2533.851,60.86947293162808
2535.1735,70.84267074462389
2536.4952,77.05851599914638
2537.8163,71.7169329721076
2539.1366,67.26784516983463
2540.4562,67.8111753814855
2541.7752,69.04684572353983
2543.0935,72.37477763436561
2544.411,71.69489186186257
2545.7279,69.4071084301828
2547.0441,74.51134664652989
2548.3596,70.05752512403649
2549.6744,72.29556173072217
2550.9885,71.17537363403142
2552.3019,68.94687727845326
2553.6146,76.55998839672338
2554.9266,71.56462203210873
2556.2379,66.8606924622764
2557.5485,75.7481132492473
2558.8585,72.07679728643558
2560.1677,64.8466567097746
2561.4762,71.30760293442984
2562.7841,69.1595467271004
2564.0913,73.35239814140931
2565.3977,78.03606653938442
2566.7035,78.5104605495298
2568.0086,81.22548801998909
2569.313,70.93105601380165
2570.6167,72.6770707817521
2571.9197,77.71343786531446
2573.222,75.8900620791922
2574.5236,81.80684746095483
2575.8246,77.51369728927142
2577.1248,78.21051402474285
2578.4244,87.9471993528336
2579.7232,86.37365417690268
2581.0214,86.7397785208376
2582.3189,93.6454715447893
2583.6157,88.19063154151115
2584.9118,85.77515586730203
2586.2072,94.24894099655455
2587.5019,102.71188254590993
2588.7959,99.76387518952015
2590.0893,105.80481257441858
2591.3819,100.38458734999995
2592.6739,107.70309110761116
2593.9652,111.61021443475323
2595.2557,105.10584684189655
2596.5456,113.18987672340944
2597.8348,111.31219142260193
2599.1234,110.82267715088506
2600.4112,121.7712190065485
2601.6983,119.90770097965515
2602.9848,120.23200584255562
2604.2705,127.74401516852402
2605.5556,129.54360932851444
2606.84,120.23066741604106
2608.1237,121.75506722918198
2609.4067,125.16668536370895
2610.689,121.71539719784312
2611.9707,129.35107685813892
2613.2516,121.82359725399675
2614.5319,123.98283000130664
2615.8115,121.32864549772268
2617.0903,126.81091290107082
2618.3685,125.77950015589062
2619.6461,127.88427393861258
2620.9229,130.47509966787237
2622.199,120.60184148346326
2623.4745,123.61436222042761
2624.7493,125.61252350778955
2626.0234,133.79618573842987
2627.2968,129.0152080491044
2628.5695,127.41944823860729
2629.8415,132.20876281558088
2631.1128,130.33300701447297
2632.3835,129.7420347476438
2633.6535,130.58569862412372
2634.9228,132.06384995552293
2636.1914,128.8263387475945
2637.4593,135.3230136854533
2638.7265,140.55372216595094
2639.9931,134.1683102327089
2641.259,132.6666225238115
2642.5242,133.0485023356602
2643.7887,130.6637916379904
2645.0525,125.36233107005245
2646.3156,124.14395996445876
2647.5781,124.30851640019887
2648.8398,120.35583721482271
2650.1009,125.635758002795
2651.3613,125.89811315502249
2652.6211,126.09273580605418
2653.8801,123.81945783145846
2655.1385,127.57810984587599
2656.3961,132.91852122575335
2657.6531,128.54052007175596
2658.9094,130.9939331553643
2660.1651,128.4285859626537
2661.42,127.14430266976024
2662.6743,126.84090616853433
2663.9279,136.8182180793832
2665.1808,133.9260587543052
2666.433,145.0142471771162
2667.6846,140.08260099237197
2668.9354,141.58093639448572
2670.1856,147.95906817704474
2671.4351,155.26680971782713
2672.6839,150.15397291502057
2673.9321,149.67036811414482
2675.1795,149.51580415918
2676.4263,152.54008839740266
2677.6724,162.9930266809314
2678.9179,157.37442333648403
2680.1626,161.58408106084823
2681.4067,162.8218009770676
2682.6501,163.13738259234503
2683.8928,160.38062378566548
2685.1348,159.8013208046404
2686.3761,156.69926829307514
2687.6168,155.2742592967619
2688.8568,154.82608529450067
2690.0961,145.90453621234883
2691.3348,140.30940042810295
2692.5727,141.44046486051468
2693.81,132.84751502524188
2695.0466,136.8803350235379
2696.2826,138.3387076281811
2697.5178,138.0224142431469
2698.7524,139.68123488902364
2699.9863,132.06494820617576
2701.2195,134.3733314381551
2702.452,142.6061605078644
2703.6839,143.46320999447312
2704.9151,152.2942530510894
2706.1456,149.0990613961893
2707.3755,160.82740522530685
2708.6046,165.77905324298547
2709.8331,169.253772545495
2711.0609,178.00132857131484
2712.2881,190.42148506638677
2713.5145,193.81400399663943
2714.7403,207.97864542378676
2715.9654,217.265167471403
2717.1899,223.4733261832759
2718.4136,238.00287543054162
2719.6367,253.55356684960321
2720.8591,261.5251496968352
2722.0809,264.4673706930762
2723.3019,274.77997394391394
2724.5223,291.3127009102626
2725.7421,295.31529030523626
2726.9611,301.18747792882266
2728.1795,294.07899662785644
2729.3972,291.48957623729785
2730.6142,279.31894365131745
2731.8306,259.9668228491903
2733.0462,248.23293501700232
2734.2612,224.21699874117138
2735.4756,209.868730125786
2736.6892,196.23784303276472
2737.9022,172.8740492253388
2739.1145,167.82705850436145
2740.3262,149.89657894194545
2741.5372,140.03231693193328
2742.7475,119.53397736920175
2743.9571,113.95126374830448
2745.1661,95.58387836845571
2746.3744,90.6315223893572
2747.582,79.09389601487237
2748.7889,73.62069854254946
2749.9952,64.41162847899795
2751.2008,57.416383594620186
2752.4057,53.38466101570225
2753.61,49.26615729436645
2754.8136,43.81056844888849
2756.0165,38.96759000488311
2757.2188,31.23691704985913
2758.4204,31.01824428164963
2759.6213,35.96126608571865
2760.8215,38.365676537347895
2762.0211,29.631169352206655
2763.22,26.307437862307722
2764.4182,23.444175103351995
2765.6158,19.791073847966118
2766.8127,11.54782663433491
2768.009,12.814125802732576
2769.2045,6.08966357795515
2770.3994,-0.3758679433419161
2771.5936,-3.4827767253998445
2772.7872,-4.731366977538812
2773.9801,-15.57190811614015
2775.1723,-12.454622291229157
2776.3639,-18.529576089469174
2777.5548,-20.64671167584703
2778.745,-17.25578610488401
2779.9346,-17.45635017045157
2781.1235,-15.497782281118134
2782.3117,-21.82928645651424
2783.4992,-14.39991189342578
2784.6861,-5.958489714067241
2785.8723,-3.6537071855332215
2787.0579,-0.3341920496066564
2788.2428,1.60146445246437
2789.427,9.054674418009995
2790.6106,16.576849928345894
2791.7935,23.869402974240927
2792.9757,37.03374538069585
2794.1573,42.02128873401756
2795.3382,58.58344425017583
2796.5184,70.0716227249278
2797.698,85.88723436819635
2798.8769,99.23168868918856
2800.0551,108.70639433823919
2801.2327,133.16275897336703
2802.4096,161.60218916552662
2803.5859,175.1260901540452
2804.7615,185.9858655622287
2805.9364,216.18291726212254
2807.1106,231.7686452659138
2808.2842,263.6944474239606
2809.4572,286.46171926893504
2810.6294,328.5218536965649
2811.801,371.1762407379608
2812.972,403.6762671390153
2814.1423,448.5733159338585
2815.3119,500.9687661198584
2816.4808,545.0639922086499
2817.6491,580.160363702181
2818.8167,640.8092446517599
2819.9837,674.3119933070914
2821.15,736.2199615097882
2822.3157,766.6844943583433
2823.4807,810.5069295890504
2824.645,849.538597271359
2825.8086,897.3308193696483
2826.9716,931.8849093529132
2828.134,973.1521717168393
2829.2957,1002.5839016382646
2830.4567,1028.5813845625048
2831.617,1050.095895909037
2832.7767,1062.6787008115252
2833.9358,1052.7810539026746
2835.0941,1053.7541991884034
2836.2519,1027.5493701468195
2837.4089,1024.66778971849
2838.5653,1001.0106705684876
2839.7211,1000.1292151152077
2840.8761,1003.3246157669391
2842.0306,1023.2480549306795
2843.1843,1065.8507049801797
2844.3374,1101.3837280567113
2845.4899,1165.6482756430378
2846.6417,1223.2954882080858
2847.7928,1304.1264945643006
2848.9433,1384.3924112911714
2850.0931,1468.7943419269236
2851.2422,1543.9833761658588
2852.3907,1621.0605890143352
2853.5385,1677.477040038878
2854.6857,1748.6837725954058
2855.8323,1804.9318132650685
2856.9781,1868.5721711421784
2858.1233,1908.0558372717292
2859.2679,1952.6337840129938
2860.4118,1990.6069646446877
2861.555,2035.1763129191881
2862.6976,2070.392742682804
2863.8395,2104.907147430081
2864.9808,2121.1703999516376
2866.1214,2137.1833519890215
2867.2614,2149.746834072076
2868.4007,2156.511655358813
2869.5393,2172.3786035097733
2870.6773,2194.098444620385
2871.8146,2209.071923062288
2872.9513,2216.3997612661387
2874.0874,2205.7326595718746
2875.2227,2199.721296155436
2876.3574,2169.616327135436
2877.4915,2156.5183866332777
2878.6249,2125.278087074199
2879.7577,2099.1460193182547
2880.8898,2084.3227529727196
2882.0212,2063.3588366534086
2883.152,2064.304798132909
2884.2821,2030.9111445502208
2885.4116,2025.2283624012948
2886.5405,2027.6069178729722
2887.6686,2027.2472568998105
2888.7962,2036.4998051402993
2889.923,2048.014967980454
2891.0493,2034.9931304412935
2892.1748,2063.184657063687
2893.2997,2071.6398920385736
2894.424,2085.459158925045
2895.5476,2099.7927605657937
2896.6706,2131.8409789489224
2897.7929,2153.504075064606
2898.9145,2201.032288584608
2900.0355,2227.425837645655
2901.1559,2254.3349183741484
2902.2756,2289.5597046222315
2903.3946,2332.6003476987
2904.513,2347.5069760167503
2905.6308,2392.52969466358
2906.7479,2409.868585251313
2907.8643,2434.4737054667803
2908.9801,2442.545088898126
2910.0953,2452.532744788756
2911.2098,2465.2366579566306
2912.3236,2459.956788694377
2913.4368,2444.043072642259
2914.5494,2434.9454208409734
2915.6613,2414.513719890786
2916.7725,2392.6978320425087
2917.8831,2359.547595401817
2918.9931,2331.6628241474073
2920.1024,2304.7933088625023
2921.211,2286.7888168136933
2922.319,2263.049092219643
2923.4264,2260.423856431122
2924.5331,2233.912808168415
2925.6391,2214.5656235475626
2926.7445,2213.8319563454834
2927.8493,2213.211438193436
2928.9534,2202.9536785843634
2930.0569,2197.0082648790913
2931.1597,2186.174762408912
2932.2619,2183.8027145350343
2933.3634,2172.541642756919
2934.4643,2164.341046736002
2935.5645,2144.5004044083025
2936.6641,2115.4691720664296
2937.763,2071.396784557988
2938.8613,2018.8326555758922
2939.959,1961.0761780990883
2941.056,1885.376724918196
2942.1523,1803.7836492130743
2943.248,1723.2962853098138
2944.3431,1633.3639494966706
2945.4375,1525.2359408289367
2946.5313,1430.2615420282664
2947.6244,1322.3900205639534
2948.7169,1224.0206296026772
2949.8087,1124.5026090872175
2950.8999,1024.585186720148
2951.9904,945.0675789590159
2953.0803,860.7489920155176
2954.1696,804.978622650673
2955.2582,758.6556590180131
2956.3462,704.3792812212826
2957.4335,678.9986617776698
2958.5202,634.9129661605714
2959.6062,598.8213530533966
2960.6916,579.7729747904265
2961.7764,581.4169777177281
2962.8605,549.5525023836395
2963.9439,544.978683522329
2965.0267,525.0946503724405
2966.1089,529.6995267228302
2967.1905,526.1924311114094
2968.2714,514.5224767790935
2969.3516,517.688771704875
2970.4312,532.5904187225211
2971.5102,535.6765154889118
2972.5885,541.5461543350225
2973.6662,540.3484222350645
2974.7432,543.3824007477873
2975.8196,539.7971660284562
2976.8954,532.9417887985132
2977.9705,520.065334381429
2979.045,520.8168627712562
2980.1188,507.5954287613945
2981.192,494.40008193707547
2982.2645,482.42986680757656
2983.3364,452.33382293817397
2984.4077,425.7609850698457
2985.4783,395.2103834202319
2986.5483,372.331043949363
2987.6177,341.1719886651657
2988.6864,313.0822358522566
2989.7545,277.2608003835327
2990.8219,245.00669400106892
2991.8887,220.7189256743327
2992.9548,186.14650192272467
2994.0204,160.1384270584564
2995.0852,137.24370353227476
2996.1495,118.81133219354246
2997.2131,85.6403125191855
2998.276,79.2296427980171
2999.3383,64.47832046244736
3000.4,47.53534215259083
3001.4611,38.5997038637787
3002.5215,28.170401115988966
3003.5812,11.646429043202602
3004.6404,7.526782497697013
3005.6989,1.2104562152856602
3006.7567,-0.9035551434857894
3007.8139,-7.666256930175621
3008.8705,-7.578645469826768
3009.9264,-14.691640501575023
3010.9818,-10.756086053888339
3012.0364,-16.022679385746073
3013.0905,-7.242010302828362
3014.1439,-7.764508544248258
3015.1966,-6.84053150143626
3016.2487,0.3796410016170739
3017.3002,1.9957974778309335
3018.3511,4.357726436328164
3019.4013,6.215216366273864
3020.4509,18.91805571325625
3021.4998,21.766032860711505
3022.5481,29.758936002895325
3023.5958,32.44655311640338
3024.6428,31.528671880242143
3025.6892,40.3050796489527
3026.735,45.87556346178957
3027.7802,56.83990995495657
3028.8247,60.74790530590218
3029.8685,73.14933512367583
3030.9118,75.44398440984844
3031.9544,84.03163743449738
3032.9963,91.56207771326052
3034.0376,104.63508792145933
3035.0783,108.55044981879473
3036.1184,114.20794411861715
3037.1578,126.70735044877267
3038.1966,130.898447295028
3039.2348,139.53101187607655
3040.2723,141.4048201016277
3041.3092,142.6696464860807
3042.3455,144.22526412978647
3043.3811,145.82144470639986
3044.4161,145.00795844732284
3045.4505,144.2345741257434
3046.4842,143.90105906476975
3047.5173,141.1071791451643
3048.5498,140.05269880867945
3049.5816,134.9873810859957
3050.6128,129.51098760726728
3051.6434,129.9732786527748
3052.6734,123.62401320768976
3053.7027,120.76294895745053
3054.7314,118.18984235125572
3055.7594,116.10444863067431
3056.7868,114.65652185537704
3057.8136,108.54581492399001
3058.8398,110.27207958857457
3059.8653,104.83506651573381
3060.8902,109.73452526935012
3061.9145,107.27020436495548
3062.9381,106.29185122073656
3063.9612,101.69921218217837
3064.9835,99.69203253184733
3066.0053,93.37005653531787
3067.0264,94.03302746124425
3068.0469,90.33068764458011
3069.0668,81.7627784799491
3070.086,79.77904045866813
3071.1046,78.62921325442619
3072.1226,65.26303574312237
3073.1399,65.83024601436344
3074.1567,61.98058150512611
3075.1727,56.913778994084765
3076.1882,48.07957464010809
3077.203,39.77770403292703
3078.2173,32.057902281477
3079.2308,33.56990409691656
3080.2438,25.563443869825363
3081.2561,19.188255655084077
3082.2678,18.794073251939068
3083.2789,8.330630267754117
3084.2893,9.597660121952487
3085.2991,10.994896150651073
3086.3083,6.82207159399033
3087.3169,3.2789195821619046
3088.3248,1.71517317713662
3089.3321,3.9805654080963677
3090.3388,-2.725170712928673
3091.3449,-6.052302213713915
3092.3503,-0.0010688975794153066
3093.3551,-5.271650105346254
3094.3593,-3.914225167157184
3095.3629,-4.628920749370479
3096.3658,-5.965824415235005
3097.3681,-2.8249774850815186
3098.3698,-3.2063616806548794
3099.3708,-5.459930502174927
3100.3713,-0.7356054183084098
3101.3711,-4.233253353016451
3102.3702,3.1972661184378666
3103.3688,4.056135710992393
3104.3667,1.593538107612389
3105.364,3.5596559507017673
3106.3607,4.254671866729126
3107.3568,6.178768446566636
3108.3522,8.582128238539738
3109.347,5.414933729186345
3110.3412,2.627367319223154
3111.3348,7.8696113552175575
3112.3277,11.041848157463292
3113.32,11.194259967558068
3114.3117,12.377028916681084
3115.3028,15.640337024068955
3116.2932,12.534366185188048
3117.2831,16.059298139101358
3118.2723,17.26531449952823
3119.2608,21.552596719595158
3120.2488,23.521326079775477
3121.2361,21.321683645016634
3122.2229,25.353850245052826
3123.209,24.318006496401438
3124.1944,25.11433276204147
3125.1793,27.243009161771823
3126.1635,29.454215564248194
3127.1471,28.29813156569619
3128.1301,31.924936467799256
3129.1125,32.23480928925958
3130.0942,34.677928729529945
3131.0753,34.804473165715116
3132.0558,39.914620628140575
3133.0357,39.60854879908711
3134.015,39.73643496168921
3134.9936,40.79845600299597
3135.9716,39.34478841269214
3136.949,43.17560827247793
3137.9258,46.54109127060569
3138.902,42.491412663571666
3139.8775,43.92674724246126
3140.8524,46.6972693734457
3141.8267,48.00315298342882
3142.8004,49.64457153234174
3143.7735,51.3216980000841
3144.7459,52.58470487010979
3145.7178,55.93376411265581
3146.689,54.01904717211208
3147.6596,54.740724933530885
3148.6295,56.998967741774095
3149.5989,56.09394539429627
3150.5676,58.77582711856235
3151.5357,57.39478158109784
3152.5032,61.35097686066996
3153.4701,61.14458046209812
3154.4364,66.07575927669197
3155.402,62.44467958431537
3156.367,64.70150700407456
3157.3315,66.39640653062901
3158.2952,69.6795425116231
3159.2584,67.35107863073719
3160.221,73.31117787485616
3161.1829,67.81000255735411
3162.1442,72.5477142584934
3163.105,71.87447388043631
3164.065,73.34044159986804
3165.0245,78.89577687472895
3165.9834,75.89063842955508
3166.9416,78.87518419992462
3167.8993,75.4495713625094
3168.8563,78.06395630522937
3169.8127,82.46849466150879
3170.7684,80.91334128413233
3171.7236,84.6486502011997
3172.6782,82.97457463167717
3173.6321,87.64126694804453
3174.5854,85.59887869303579
3175.5381,87.84756053297225
3176.4902,88.88746227818646
3177.4417,90.5687328605353
3178.3926,87.74152032300104
3179.3428,88.35597180287859
3180.2924,94.11223356004766
3181.2415,93.36045097082817
3182.1899,94.60076847041776
3183.1377,95.38332956040949
3184.0848,98.3082767963887
3185.0314,97.37575178010746
3185.9773,99.78589513023502
3186.9227,103.0388464916831
3187.8674,102.63474451150445
3188.8115,104.47372680636335
3189.755,102.60592996657662
3190.6979,105.78148953772381
3191.6402,108.80054003932514
3192.5818,105.91321493308592
3193.5229,109.26964659270608
3194.4633,109.9699663327533
3195.4031,111.76430437509887
3196.3423,112.05278984191429
3197.2809,110.33555073772806
3198.2189,114.91271394654069
3199.1563,112.2344052489972
3200.0931,116.50074927661547
3201.0292,116.5118695385692
3201.9648,115.16788837902463
3202.8997,118.1189269770293
3203.834,122.7651053599518
3204.7677,120.90654237397145
3205.7008,120.39335563761648
3206.6333,123.12566156034967
3207.5652,123.15357534770024
3208.4964,128.37721097394072
3209.4271,125.8966811818079
3210.3571,130.11209743026643
3211.2865,127.32356991931402
3212.2154,129.4312075478275
3213.1436,130.38511794144785
3214.0712,128.585407431504
3214.9982,135.5321810454736
3215.9246,132.3755425249803
3216.8503,136.06559425632577
3217.7755,135.6524373020563
3218.7001,137.53617136406228
3219.624,140.7668947877095
3220.5473,141.4447045430021
3221.4701,139.0696961922752
3222.3922,143.64196388341688
3223.3137,142.46160037361818
3224.2346,142.3286969836505
3225.1549,146.24334360966915
3226.0746,149.85562872454247
3226.9937,146.96563933870533
3227.9121,147.97346096403624
3228.83,150.92917764275725
3229.7473,150.58287193735578
3230.6639,150.38462490102734
3231.5799,152.3845160811388
3232.4954,154.03262352121058
3233.4102,154.279023740918
3234.3244,156.27379171961013
3235.238,158.21700089384564
3236.151,158.1587231374454
3237.0634,160.69902874206014
3237.9752,157.68798641775328
3238.8864,159.72566326759792
3239.797,164.26212481778728
3240.7069,164.4474349972578
3241.6163,162.3816560923247
3242.5251,162.56484874482854
3243.4332,163.29707197279347
3244.3408,170.57838316859494
3245.2477,167.7588380916376
3246.154,167.88849079554228
3247.0598,171.86739365634128
3247.9649,169.34559737118195
3248.8694,171.17315091853777
3249.7733,172.35010158342598
3250.6766,175.02649493913236
3251.5793,173.75237483544146
3252.4814,173.6777833718728
3253.3829,173.80276091042208
3254.2838,177.22734607630701
3255.1841,175.00157575671773
3256.0838,179.4754850665708
3256.9829,180.19910737076697
3257.8814,180.02247423945207
3258.7792,183.44561544078078
3259.6765,182.16855894268298
3260.5731,183.4913308786323
3261.4692,182.36395556041688
3262.3647,183.83645546491138
3263.2595,182.3088512453508
3264.1538,185.98116171660567
3265.0474,186.80340387045777
3265.9404,188.4755928388773
3266.8329,189.2477418858003
3267.7247,188.86986239040684
3268.616,188.89196383939938
3269.5066,189.06405383078194
3270.3966,188.83613807363855
3271.286,193.00822038641294
