RamanShift,CorrectedData
30.1047,1559.6963102643535
32.3739,1448.5813783974486
34.6426,1337.4164309335802
36.9109,1230.9514377899716
39.1787,1119.186355509681
41.4461,1007.6711283262522
43.7131,896.6056892813641
45.9796,786.6899613399846
48.2456,678.1738585010243
50.5112,567.3572868964937
52.7764,458.69014587666464
55.0411,350.2723291182359
57.3054,239.95372571100475
59.5692,136.88422124204493
61.8326,25.81369889889308
64.0955,-75.50795949975648
66.3579,-174.78087239334621
68.6199,-274.50440389680347
70.8815,-356.62617206414035
73.1426,-386.7910526503746
75.4032,-285.2403587150649
77.6634,135.83846072484573
79.9231,1314.410806203597
82.1824,4048.492076897045
84.4412,9110.347658836938
86.6995,16218.792897570103
88.9574,23256.043047539897
91.2148,28093.51320100174
93.4717,30284.518217650628
95.7282,30616.52267624642
97.9842,30313.2408527038
100.2398,29510.436716772212
102.4949,28622.77393506872
104.7495,27587.915879105993
107.0036,26601.325634168974
109.2573,25683.266009663446
111.5105,24813.89954898195
113.7632,24070.388538684347
116.0154,23390.14501719152
118.2672,22970.230782220457
120.5185,22420.40739758671
122.7693,22069.03619740351
125.0197,21738.72829158003
127.2696,21361.244569335067
129.519,21095.29570250014
131.7679,20707.392149294337
134.0163,20357.994156983776
136.2642,19911.461765760654
138.5117,19436.05481223724
140.7587,18947.332933911177
143.0052,18518.255573919574
145.2512,18035.481985926202
147.4967,17632.221238412287
149.7417,17299.832219504235
151.9863,17003.57364100623
154.2304,16784.35404172416
156.4739,16463.031790428147
158.717,16303.9150880448
160.9596,16007.0119708704
163.2017,15631.930312162081
165.4433,15244.47782510686
167.6844,14848.412066572455
169.925,14399.190440981805
172.1651,13938.47020427373
174.4047,13610.708468395136
176.6439,13207.962205908249
178.8825,12914.288253268198
181.1206,12669.893314850495
183.3582,12396.883965887771
185.5954,12221.316654913728
187.832,12054.497706493232
190.0681,11930.683322977977
192.3037,11787.679586174687
194.5388,11678.992458583256
196.7734,11616.127784826778
199.0075,11584.44129273843
201.2411,11636.088593990105
203.4742,11595.87518440929
205.7068,11658.7564434626
207.9389,11661.43763465789
210.1704,11718.023904915459
212.4015,11748.52028454122
214.632,11794.881686660865
216.862,11839.012906914873
219.0915,11824.518622994925
221.3205,11810.203394202566
223.549,11814.57166159416
225.777,11843.97774812405
228.0044,11811.975858600872
230.2314,11856.920079393469
232.4578,11864.364378750952
234.6837,11890.062606353222
236.909,11865.81849323654
239.1339,11736.885651536553
241.3582,11610.66757473073
243.582,11382.617638927682
245.8053,11268.03910412935
248.0281,11095.585116511505
250.2503,10996.658709569532
252.472,10965.762805842967
254.6932,11023.450217904772
256.9139,10996.423648670265
259.134,11145.785690820285
261.3536,11270.088827071422
263.5727,11506.735428682427
265.7912,11689.177754211158
268.0092,11895.967947148132
270.2267,11992.858034092087
272.4436,12045.099922682084
274.6601,11979.995400628612
276.8759,11787.69613519117
279.0913,11638.303673829303
281.3061,11437.069446125604
283.5204,11317.94476527963
285.7341,11222.780830120251
287.9473,11129.378726296889
290.16,11111.989427231163
292.3721,11144.513795050918
294.5837,11261.302580764102
296.7947,11399.706423933529
299.0052,11493.925851508997
301.2152,11385.561276443239
303.4246,11171.712996749737
305.6334,10745.731196586365
307.8418,10271.865948393866
310.0495,9799.817217155683
312.2568,9272.134865136608
314.4635,8801.56865660325
316.6696,8442.968263100889
318.8752,8080.983268159114
321.0802,7903.163170877833
323.2847,7867.557389547132
325.4887,7853.865263425472
327.692,7734.986053095741
329.8949,7691.118940602188
332.0972,7443.813030639201
334.2989,7173.867350989991
336.5001,6850.580854999638
338.7007,6593.052424274569
340.9008,6384.3808719154
343.1003,6153.414945092236
345.2992,5970.203327131374
347.4976,5805.644639824977
349.6955,5660.137445263163
351.8927,5588.98024747962
354.0895,5445.52149390667
356.2856,5335.90957608682
358.4812,5257.292831107394
360.6763,5222.969542696612
362.8707,5105.4879420097695
365.0646,5108.096207972483
367.258,5056.342468455499
369.4508,5051.774800248588
371.643,5158.991229578112
373.8346,5166.339732152688
376.0257,5185.668232091022
378.2162,5178.4746018484475
380.4062,5093.706662023613
382.5956,4909.512181430422
384.7844,4796.588877945718
386.9726,4571.584420351233
389.1603,4423.046429462822
391.3474,4307.622480380502
393.5339,4257.46010397383
395.7199,4167.306788036138
397.9052,4143.209977786179
400.09,4195.717076769626
402.2743,4291.775447100077
404.4579,4365.53240893395
406.641,4519.385239509922
408.8235,4695.031172411349
411.0054,4789.767396027753
413.1868,4919.391051798339
415.3675,4934.049233264655
417.5477,4886.5389847743445
419.7273,4795.757301334555
421.9064,4656.051129087058
424.0848,4530.817366216055
426.2627,4367.05286434524
428.4399,4076.054429790149
430.6166,3709.4688251957778
432.7928,3334.642772446603
434.9683,2976.2729563324156
437.1432,2745.856028296581
439.3176,2539.4386100197426
441.4914,2406.467295723991
443.6645,2320.4386542370357
445.8371,2163.79923032192
448.0091,2102.9955455373
450.1806,2039.5240998038535
452.3514,1979.431372012301
454.5216,2008.8638206581381
456.6913,1940.5178844425445
458.8603,1943.4899819780712
461.0288,1980.276512472099
463.1967,1976.6238556971111
465.3639,1954.9283716228383
467.5306,1894.8864004527768
469.6967,1860.4442628411434
471.8622,1854.3482604932979
474.0271,1861.7446765101577
476.1914,1862.8297754491632
478.3551,1853.8998032503077
480.5182,1896.0509872252878
482.6807,1938.9295361468103
484.8426,2106.431639827084
487.0039,2420.1534686890263
489.1647,2779.4911720912405
491.3248,3083.440875190814
493.4843,3152.4486753499204
495.6432,3094.360639096345
497.8015,2912.872801433381
499.9592,2768.481166420728
502.1163,2596.4817089893695
504.2728,2232.2703763854843
506.4287,1954.8930898904364
508.5839,1612.6457484628954
510.7386,1386.1242315126074
512.8927,1293.3244023228726
515.0461,1262.5921103157507
517.199,1324.3731919800593
519.3512,1480.113471178698
521.5029,1742.258758530843
523.6539,1995.1548498545399
525.8043,2085.5475235452577
527.9541,2025.93253804692
530.1033,1831.10563094799
532.2519,1605.912519577605
534.3999,1551.19890295386
536.5472,1575.1604640357236
538.694,1747.8928702701814
540.8401,1988.341773352624
542.9856,2202.652807499515
545.1305,2231.7215870439086
547.2748,2136.2937042923386
549.4185,1959.9647292341233
551.5615,1812.9802104956489
553.704,1783.6356771036553
555.8458,1839.376639955095
557.987,2036.998592110558
560.1276,2262.1970082368844
562.2675,2635.867342630925
564.4069,3150.105026967567
566.5456,3595.505466563023
568.6837,3755.7140352324695
570.8212,3346.926070836029
572.958,2663.236873676684
575.0942,2019.2917105881625
577.2299,1515.8358217718287
579.3648,1296.3644272361344
581.4992,1254.7227318311743
583.6329,1300.9559274434123
585.766,1495.1591934120843
587.8985,1622.477696066886
590.0304,1653.8565867859197
592.1616,1606.5910007225102
594.2922,1498.8760564914282
596.4222,1309.1068566415415
598.5515,1096.2284887329643
600.6802,918.0860272347363
602.8083,776.6745356536339
604.9358,735.7390683155645
607.0626,723.7246717797043
609.1888,852.4263852478416
611.3144,1015.2392406845247
613.4393,1149.508261530049
615.5636,1277.578461072315
617.6873,1290.2448411041532
619.8103,1265.0523906426133
621.9327,1064.8960858023074
624.0544,831.0208900473353
626.1756,623.3217561928432
628.2961,499.043628743766
630.4159,426.6814459718371
632.5351,404.23014115835394
634.6537,375.98464331780633
636.7716,387.73987742239115
638.8889,419.89076468447456
641.0056,438.0322224390311
643.1216,434.5091638221402
645.237,410.9664975895539
647.3518,321.7491281519433
649.4659,264.801955810306
651.5793,198.06987764815676
653.6922,156.89778810099597
655.8043,156.08057962362727
657.9159,160.26314310189082
660.0268,141.59036786082106
662.137,150.20714162283366
664.2466,192.80835069443674
666.3556,162.28887988007045
668.4639,119.09361205610185
670.5716,80.46742847601672
672.6786,66.00520920237432
674.785,17.05183349305844
676.8907,-28.44782005408524
678.9958,-3.749043189043732
681.1002,-56.55684346807902
683.204,-46.97619099451731
685.3072,-37.01149086882651
687.4097,-64.16667889932614
689.5115,-76.89532114955
691.6127,-47.650342657912915
693.7132,-65.73390027858477
695.8131,-59.3976748388086
697.9123,-32.19269048418391
700.0109,20.730622022472744
702.1089,51.57215352329513
704.2061,91.98158776150012
706.3028,172.70860796459237
708.3987,253.50289644025906
710.4941,268.6141337691097
712.5887,321.4419979967206
714.6827,407.2361644825305
716.7761,523.8463053715586
718.8688,715.2220887364801
720.9608,860.5131774115162
723.0522,1013.619227078656
725.1429,1084.939884814772
727.233,1188.824787560543
729.3224,1259.4235614072586
731.4112,1208.4858205579585
733.4993,1068.4111666214521
735.5867,809.949189121693
737.6735,603.3494668985331
739.7596,409.3115706923272
741.845,266.23506520995033
743.9298,196.669511065169
746.014,153.86446620940478
748.0974,160.76948662738505
750.1802,171.9841267651973
752.2624,199.9079394612545
754.3439,237.6404758341323
756.4247,333.7312850033413
758.5048,512.6299137119895
760.5843,816.1859053658827
762.6631,1216.748798244531
764.7413,1824.7181224655906
766.8188,2511.5933959792364
768.8956,3094.4241184884722
770.9718,3541.409764580372
773.0473,3518.6497778977828
775.1221,3268.7935666694557
777.1962,3013.1405039376496
779.2697,2939.4399300566984
781.3426,3027.091155249529
783.4147,3182.29346034467
785.4862,3250.0960958997457
787.557,3074.49828064945
789.6271,2582.9492008275174
791.6966,1943.3980119227108
793.7654,1320.393843594311
795.8335,897.5858060676164
797.901,615.3229963639988
799.9678,437.05450252897936
802.0339,375.02940645486706
804.0993,337.2967856634241
806.1641,283.60571392613383
808.2282,187.30526164151706
810.2916,139.9444963720398
812.3544,99.47248380713063
814.4164,18.33828823677868
816.4778,67.64097295624742
818.5385,115.97960107742983
820.5986,302.35323503581276
822.658,563.3109361070965
824.7166,894.6017625434542
826.7747,1448.22476696396
828.832,2031.6789930416762
830.8886,2409.5134699674163
832.9446,2656.4272066152153
834.9999,2514.8691877639776
837.0545,2230.938371628339
839.1085,1867.3336912742561
841.1618,1521.454057458297
843.2143,1262.6983622637017
845.2662,1063.815482559181
847.3175,941.2542825864602
849.368,843.8636159491252
851.4179,743.2423268382136
853.467,675.6392510061451
855.5155,656.1532167729129
857.5633,542.4830457021308
859.6105,473.7275527958809
861.6569,419.88554763142747
863.7027,323.0558350487645
865.7478,318.6372156890284
867.7922,258.828486962806
869.8359,239.27844309431566
871.8789,276.98587571949065
873.9212,348.0495740814822
875.9629,455.0683246535973
878.0039,574.640910428654
880.0441,676.6661098487912
882.0837,789.9426956097395
884.1226,833.5694336405813
886.1609,877.8950819709717
888.1984,1016.7683902948829
890.2352,1202.938099527346
892.2714,1226.0529404157041
894.3069,1171.2616316779295
896.3416,1023.0628797714617
898.3757,894.2553794411306
900.4091,803.4878152011406
902.4418,775.4088626231514
904.4739,803.5671892439441
906.5052,884.2114548462268
908.5358,866.0903111770422
910.5658,781.4524011413196
912.595,556.746358983095
914.6236,377.4708111318887
916.6515,246.4743784497532
918.6786,186.8056780240513
920.7051,184.16332447739296
922.7309,230.8459305643446
924.756,225.75210719784081
926.7804,316.0304629823622
928.8041,320.22960426487043
930.8272,414.3981342320312
932.8495,401.5846528682141
934.8711,422.83775601380694
936.892,376.45603549335647
938.9123,380.28807890303506
940.9318,412.3324700744615
942.9506,427.0877890363754
944.9688,373.15261169418955
946.9862,298.5255096824476
949.003,152.10505090416518
951.019,60.23980027710968
953.0344,41.57832119800514
955.0491,7.7191764611852705
957.063,65.96092844519808
959.0763,143.15213945141477
961.0888,154.24137112159588
963.1007,261.07718366599147
965.1119,306.50813575243046
967.1223,296.4827834379903
969.1321,277.49967971465776
971.1412,302.7573746096059
973.1495,267.404415375011
975.1572,291.83934623547975
977.1641,329.6107087415785
979.1704,314.96704152548773
981.1759,302.2068799232893
983.1808,314.4787561213943
985.1849,328.08119928415726
987.1884,409.5127354311462
989.1911,499.37188730113303
991.1932,580.8071735377616
993.1945,640.3171077909774
995.1951,592.6501979026525
997.1951,575.5049453115007
999.1943,562.6798455297339
1001.1928,584.22338831452
1003.1906,623.9840577962368
1005.1877,767.2603322630366
1007.1841,882.6506837632314
1009.1798,912.2535766725359
1011.1748,835.9674665401617
1013.1691,705.7907997927814
1015.1627,501.87201449740314
1017.1556,299.1595416631262
1019.1477,174.30180728033338
1021.1392,79.49723434781117
1023.1299,74.54424412133812
1025.12,101.3412570617129
1027.1093,143.43669288430647
1029.0979,311.67897029107553
1031.0859,360.7165065496083
1033.0731,417.1477158107173
1035.0596,379.9710086180439
1037.0454,264.1347913437585
1039.0304,200.337466560326
1041.0148,102.9274341988712
1042.9985,-1.7469078128597175
1044.9814,-53.487162576382616
1046.9636,-110.29491574160602
1048.9452,-78.32121862169151
1050.926,-25.9160206835968
1052.9061,-8.52848896530486
1054.8855,-0.20753160376443702
1056.8642,71.44802846368657
1058.8421,150.089370372938
1060.8194,191.11767254541155
1062.7959,242.73411190164006
1064.7717,288.0898634509904
1066.7469,370.9360997754884
1068.7213,471.97399057627626
1070.695,572.704701845134
1072.6679,628.829394854105
1074.6402,681.9992251481908
1076.6117,638.0653419840946
1078.5826,532.6788877985437
1080.5527,391.8909986476028
1082.5221,301.7528052605594
1084.4908,262.9654344477967
1086.4587,281.1300100021672
1088.426,299.89765308687856
1090.3925,342.76948205383815
1092.3584,406.7966122559883
1094.3235,428.08015561857246
1096.2879,465.42121999887604
1098.2515,631.1709089733831
1100.2145,834.78032146437
1102.1767,1022.9005500824023
1104.1382,1269.3326790902538
1106.099,1529.2277825216916
1108.0591,1771.4869217171545
1110.0185,1946.0111427248048
1111.9771,2032.5514738779402
1113.9351,1939.7589240497564
1115.8923,1862.3344817879351
1117.8488,1742.2291162425736
1119.8045,1548.9437779404307
1121.7596,1416.4293999859692
1123.7139,1269.4868999942282
1125.6675,1204.1171814159516
1127.6204,1231.9211350070182
1129.5726,1200.2496394821446
1131.524,1129.5035612368429
1133.4748,1000.1837546641236
1135.4248,810.5410628619738
1137.3741,693.8263189265472
1139.3226,556.9403478485874
1141.2705,516.7839676805888
1143.2176,408.50799090563123
1145.164,391.4132248389742
1147.1097,329.3504727107902
1149.0546,217.82053383712628
1150.9989,120.42420424053853
1152.9424,25.462277765373074
1154.8852,-42.5144529482568
1156.8272,-62.0551955148585
1158.7686,-55.70873282955654
1160.7092,-32.973227856076846
1162.6491,15.653712972090943
1164.5883,137.87481262399888
1166.5267,269.4927939121644
1168.4644,460.7603782703609
1170.4014,637.1302844374331
1172.3377,909.905226544628
1174.2732,1209.737912351895
1176.2081,1644.231040520137
1178.1421,2176.9372976128816
1180.0755,2743.2593537513512
1182.0082,3129.299857287404
1183.9401,3347.961429140305
1185.8713,3207.1966589363274
1187.8017,2868.9081028221335
1189.7315,2462.6482848724245
1191.6605,2003.8197004728218
1193.5888,1716.3748203824698
1195.5163,1527.8160953223178
1197.4432,1446.7959588495733
1199.3693,1358.2668292432827
1201.2947,1358.93111031453
1203.2193,1349.99119229174
1205.1432,1300.7494518140238
1207.0664,1291.3582520205864
1208.9889,1301.719943043141
1210.9106,1290.5368620998242
1212.8316,1259.1113333915782
1214.7519,1319.2456682139818
1216.6715,1374.592165271507
1218.5903,1471.55311007617
1220.5084,1556.8307743940732
1222.4257,1689.9774152757855
1224.3424,1762.1452742035735
1226.2583,1884.5865757599286
1228.1735,2081.4535269058897
1230.0879,2228.398315756641
1232.0016,2469.4231096128224
1233.9146,2583.9800534911064
1235.8269,2628.0712677139263
1237.7384,2607.8488467639245
1239.6492,2483.7148588430264
1241.5592,2485.471346074679
1243.4686,2510.7703257451803
1245.3772,2711.863790286122
1247.285,2981.2037070213983
1249.1922,3228.4920161562695
1251.0986,3401.0306280839604
1253.0042,3549.021420912786
1254.9092,3700.716238740749
1256.8134,3769.166890175642
1258.7169,3916.925146818101
1260.6196,4092.6427425770908
1262.5216,4336.32137219233
1264.4229,4530.512689477119
1266.3234,4753.418304881551
1268.2232,4907.439783550589
1270.1223,4983.678643095023
1272.0207,5016.836352051253
1273.9183,4990.164329118892
1275.8151,4948.063942829195
1277.7113,4940.586511811776
1279.6067,5042.233305215609
1281.5014,5329.655542783812
1283.3953,5797.804393837165
1285.2885,6418.380974399902
1287.181,7013.7863425182195
1289.0727,7617.471492054502
1290.9637,8015.487346733276
1292.854,8306.234754104356
1294.7435,8285.114481562694
1296.6323,8134.427213440894
1298.5204,7924.77355122042
1300.4077,7639.404015038471
1302.2943,7353.519045784501
1304.1802,7012.619007953937
1306.0653,6500.804192507017
1307.9497,5976.4248202777935
1309.8333,5542.831047092276
1311.7162,5189.172969012235
1313.5984,4961.100626671131
1315.4798,4822.164008810704
1317.3605,4748.413054561691
1319.2405,4652.897654833195
1321.1197,4395.417653050186
1322.9982,4051.1228461086675
1324.876,3784.81298695047
1326.753,3486.0877880062
1328.6293,3227.396923858337
1330.5048,3036.6400342284896
1332.3796,2863.2667265642967
1334.2537,2770.076577947012
1336.127,2704.1191368252184
1337.9996,2666.043923946738
1339.8714,2668.300433018203
1341.7426,2662.3381310858103
1343.6129,2697.556458512752
1345.4826,2687.5548290388424
1347.3515,2696.9826294283384
1349.2196,2697.4892195699467
1351.087,2770.823932382552
1352.9537,2818.236073810149
1354.8197,2933.524922088497
1356.6849,3121.1397272710037
1358.5493,3330.4797100758205
1360.4131,3522.394060009714
1362.276,3701.631933274649
1364.1383,3775.8924508486607
1365.9998,3607.7246966934617
1367.8606,3340.7277170118514
1369.7206,2966.050521929382
1371.5799,2674.9920881643284
1373.4384,2411.7513627744693
1375.2962,2164.9272660676606
1377.1533,1833.1186942342529
1379.0096,1489.724521815324
1380.8652,1157.843605020771
1382.7201,889.5247851632457
1384.5742,670.5168919769694
1386.4275,515.2687463009188
1388.2802,356.6791622689061
1390.132,263.8469488620585
1391.9832,221.72091149471362
1393.8336,144.69985294274284
1395.6832,118.5325737648136
1397.5322,99.56787307259492
1399.3803,88.40454879243771
1401.2278,59.141397855013565
1403.0745,79.72721630694832
1404.9204,41.51079960345669
1406.7656,70.79094240248196
1408.6101,108.11643894686131
1410.4538,141.93608277152453
1412.2968,191.5486663302363
1414.139,254.60298065740608
1415.9805,355.8978148719589
1417.8213,412.68195554679096
1419.6613,559.6041856958254
1421.5006,734.7132842061719
1423.3391,928.4080243688932
1425.1769,1225.6871721279222
1427.0139,1675.3994841431195
1428.8502,2218.2437048174743
1430.6858,2765.6185617999836
1432.5206,3165.072760557209
1434.3547,3389.4049788995335
1436.188,3465.613862986609
1438.0206,3365.8480250840466
1439.8524,3218.106042801318
1441.6835,3130.586460089421
1443.5139,3038.2877887182976
1445.3435,2995.0085091520223
1447.1724,2965.0470714718012
1449.0005,2986.751895808752
1450.8279,2928.471372643525
1452.6545,2950.7038625892565
1454.4804,2989.8976969743717
1456.3056,2991.551177620264
1458.13,2968.112576449341
1459.9536,2786.880135468514
1461.7766,2575.102067003564
1463.5987,2294.7265555114736
1465.4202,1983.0517596982127
1467.2409,1696.3258153224815
1469.0608,1444.6968383124658
1470.88,1197.7629276330972
1472.6984,972.1221678023394
1474.5161,781.3726313605266
1476.3331,673.8123811267742
1478.1493,578.4894721064711
1479.9648,504.6519525668846
1481.7795,467.64786499038837
1483.5935,414.5752468128394
1485.4067,386.63213079361594
1487.2192,359.2665455463457
1489.031,335.27651581833834
1490.842,325.7600627642405
1492.6522,308.6152041859377
1494.4618,281.8899546277162
1496.2705,278.13232554771366
1498.0785,247.39032558517374
1499.8858,229.8619605980184
1501.6924,181.5452339702715
1503.4981,185.03814678733943
1505.3032,185.3386983191731
1507.1075,150.29488598534408
1508.911,129.90470535204258
1510.7138,107.01615048251188
1512.5159,71.17721414094922
1514.3172,53.63588802139748
1516.1178,21.94016310612824
1517.9176,7.1380298410531395
1519.7166,-7.47252154731359
1521.515,-14.093500903834865
1523.3126,-30.176843422884303
1525.1094,-31.224343504766694
1526.9055,-14.687494083121237
1528.7008,-36.46747616039738
1530.4954,-53.365324010983386
1532.2893,-35.48170759917866
1534.0824,-53.36676376970263
1535.8747,-25.720274905017504
1537.6663,-19.94149025362094
1539.4572,1.0705978815349226
1541.2473,16.767196412987687
1543.0367,26.699512242564197
1544.8253,51.71875210442977
1546.6132,95.27612246574972
1548.4003,146.22282927650758
1550.1867,223.7100775339286
1551.9723,293.88907077301246
1553.7572,397.16101029165657
1555.5414,525.4770944488755
1557.3247,690.8885176320764
1559.1074,867.3464689738985
1560.8893,1082.4021306980976
1562.6705,1279.5066763549657
1564.4509,1440.6612686707795
1566.2305,1526.8670575767483
1568.0094,1606.2251785974731
1569.7876,1612.9867519888858
1571.565,1606.9528819446668
1573.3417,1613.5246565286334
1575.1176,1635.453147735073
1576.8928,1663.989411423032
1578.6672,1690.9844870970219
1580.4409,1702.8393976216712
1582.2138,1791.5051489517573
1583.986,1869.032730013666
1585.7575,1977.1231118187334
1587.5282,2111.0272466879733
1589.2981,2244.4460671711668
1591.0673,2368.4304847078256
1592.8358,2501.8313882930033
1594.6035,2626.6996432374453
1596.3704,2735.836089833596
1598.1366,2815.991542106897
1599.9021,2933.5167867244336
1601.6668,3021.8125821933772
1603.4308,3155.929657685735
1605.194,3331.5687121553874
1606.9564,3528.5304129969218
1608.7182,3829.165394289238
1610.4791,4161.3742548259315
1612.2394,4488.85755510895
1613.9988,4868.1658140265
1615.7576,5204.149505578212
1617.5156,5464.009055082061
1619.2728,5543.044835814534
1621.0293,5459.207166412021
1622.785,5239.29631008047
1624.54,4898.612475433757
1626.2942,4531.055818692796
1628.0477,4075.876447092378
1629.8005,3704.5744225567414
1631.5525,3365.849766251359
1633.3037,3068.002462295958
1635.0542,2832.3324611517746
1636.804,2654.0396826000215
1638.553,2517.7240180985873
1640.3013,2427.435332564969
1642.0488,2394.6734657394245
1643.7955,2404.788233087861
1645.5416,2476.379426129449
1647.2868,2545.9468123354827
1649.0313,2679.340134413461
1650.7751,2815.5591096114185
1652.5181,3013.8034283839934
1654.2604,3161.6727530302305
1656.0019,3386.5167157111455
1657.7427,3635.584916971024
1659.4828,3921.0769234889885
1661.222,4080.192265588314
1662.9606,4087.730434381507
1664.6984,3908.940880179152
1666.4354,3527.4230124145297
1668.1717,2999.476201431516
1669.9072,2462.599782299754
1671.642,2001.5930600941329
1673.3761,1634.5553152635403
1675.1094,1328.3358082409409
1676.8419,1090.4337831137445
1678.5737,932.6984706860067
1680.3048,809.1290908574429
1682.0351,671.8748542007907
1683.7646,586.3849631974931
1685.4934,514.2586136102482
1687.2215,442.5949953379045
1688.9488,394.8932931367294
1690.6754,332.95268733703915
1692.4012,323.37235432022044
1694.1263,286.7514671381341
1695.8506,257.0391956089188
1697.5742,233.03470668320278
1699.297,211.38716474122293
1701.0191,179.74573183287112
1702.7404,153.05956789416905
1704.461,131.57783106368424
1706.1808,108.99967794938811
1707.8999,111.02426384347791
1709.6182,82.15074294815122
1711.3358,99.42826835536698
1713.0527,72.30599233557814
1714.7688,57.08306616495838
1716.4841,48.958640396623196
1718.1987,65.881865012861
1719.9126,75.85188950637576
1721.6257,45.56786271105375
1723.338,49.3789327022655
1725.0496,33.234247099704135
1726.7605,32.382953029275086
1728.4706,32.02419728454197
1730.18,29.45712633523999
1731.8886,30.980886330864905
1733.5964,37.144623126341685
1735.3036,43.59748226678903
1737.0099,30.688608925881
1738.7156,28.667147841319547
1740.4204,7.7322434439229255
1742.1246,1.483039877839019
1743.8279,-9.731318790104979
1745.5306,18.688311492088815
1747.2325,1.541171992289037
1748.9336,-6.57349620851528
1750.634,-12.956452044747039
1752.3336,-2.35838878160439
1754.0325,-23.779870249331907
1755.7307,-22.321436717871165
1757.4281,-1.8833908962642454
1759.1247,-17.61581250240033
1760.8206,-5.918762439098828
1762.5158,11.057874372789229
1764.2102,-5.935727859151484
1765.9039,0.7006049620849808
1767.5968,-2.8828937685752862
1769.289,6.864009336789422
1770.9804,-9.608423533793484
1772.6711,-4.099930260934343
1774.361,15.039847262907188
1776.0502,15.76130810357381
1777.7386,6.614851176510456
1779.4263,28.05087523955217
1781.1132,29.21977898438672
1782.7994,28.071960822193887
1784.4849,35.657818871958625
1786.1696,37.82775097194735
1787.8535,56.78215460385036
1789.5367,51.821426871083986
1791.2192,49.49596430924066
1792.9009,24.906162935703833
1794.5818,46.2524182728971
1796.2621,56.53512559418232
1797.9415,56.754679710398705
1799.6202,57.661474867033576
1801.2982,56.30590474202927
1802.9755,45.73836243671394
1804.6519,68.95924048935967
1806.3277,61.118930980855566
1808.0027,53.46782530249902
1809.6769,63.30631423439718
1811.3504,63.93478802198206
1813.0231,83.70363627762254
1814.6951,76.363247974341
1816.3664,88.16401124812637
1818.0369,93.25631347133594
1819.7067,97.09054113468801
1821.3757,102.71707979633857
1823.044,102.63631404353828
1824.7115,106.59862743636722
1826.3783,101.20440250854517
1828.0443,109.85402072780562
1829.7096,98.74786254983837
1831.3741,118.13630733179616
1833.0379,117.46973344335265
1834.701,103.04851807282148
1836.3633,116.7730372338192
1838.0248,121.14366590947793
1839.6856,126.46077791520202
1841.3457,139.67474585495847
1843.005,147.8359410681087
1844.6636,142.7447334972676
1846.3214,140.55149160669362
1847.9785,163.1065824331963
1849.6349,158.0103716080739
1851.2904,151.71322313155724
1852.9453,146.71549942377715
1854.5994,146.26756138773317
1856.2528,170.5197684592722
1857.9054,175.27247861156593
1859.5572,160.17604811259025
1861.2083,175.13083147759926
1862.8587,183.23718162008618
1864.5084,170.94544970223842
1866.1572,171.50598505387052
1867.8054,167.96913529534731
1869.4528,178.5852463319743
1871.0994,176.4546623893675
1872.7453,178.02772590729091
1874.3905,182.05477756096388
1876.0349,176.28615624532995
1877.6786,176.32219903478517
1879.3215,179.96324124086595
1880.9637,185.30961641189015
1882.6051,195.7616562965436
1884.2458,198.31969079041528
1885.8858,196.13404783148007
1887.525,193.2550533745166
1889.1634,203.883031412965
1890.8011,207.91830400771414
1892.4381,202.01119118082352
1894.0743,206.16201087516993
1895.7098,203.2710790135211
1897.3446,213.58870945702438
1898.9786,214.21521403411816
1900.6118,203.45090243735694
1902.2443,192.49608221714288
1903.8761,202.10105888937187
1905.5071,195.56613604497898
1907.1374,203.94161525389018
1908.7669,200.4777961303712
1910.3957,206.07497624927282
1912.0237,193.3334511806679
1913.651,186.50351443388126
1915.2776,197.28545758490282
1916.9034,194.379570344689
1918.5285,195.53614045134145
1920.1528,185.95545369916636
1921.7764,205.9877939271105
1923.3992,193.03344311456704
1925.0213,187.34268118105183
1926.6427,182.11578611574714
1928.2633,161.8030340344112
1929.8832,194.05469923164446
1931.5023,185.32105438401868
1933.1207,192.95237022756055
1934.7383,182.79891564508534
1936.3552,182.51095758988822
1937.9714,187.23876118727594
1939.5868,168.18258973744514
1941.2015,178.5927046682068
1942.8154,166.66936572554596
1944.4286,176.16283086952217
1946.041,164.77335639349985
1947.6528,158.85119682921732
1949.2637,170.59660506068076
1950.8739,165.50983238338495
1952.4834,160.34112838685996
1954.0921,168.29074100553817
1955.7001,155.05891657044185
1957.3074,164.29589972968733
1958.9139,155.6519335808007
1960.5197,163.07725957835237
1962.1247,159.77211762039406
1963.729,153.83674597420622
1965.3325,139.42138130934836
1966.9353,160.22625875701397
1968.5374,153.25161205418362
1970.1387,142.44767333557502
1971.7393,139.0146732033918
1973.3392,133.20284083536262
1974.9383,130.16240401906816
1976.5366,137.74358921006296
1978.1342,132.79662156227687
1979.7311,141.47172485220472
1981.3273,142.16912152837585
1982.9227,138.23903262460522
1984.5173,143.13167775301508
1986.1112,139.7472751433404
1987.7044,137.58604159400147
1989.2968,141.89819250594473
1990.8885,142.73394190425915
1992.4795,135.94350239505115
1994.0697,146.52708515708878
1995.6592,132.68490000970564
1997.2479,137.66715530696638
1998.8359,142.82405807608689
2000.4232,132.15581396761218
2002.0097,129.21262720384743
2003.5955,134.84470068554106
2005.1805,139.00223602131518
2006.7648,151.4354334713446
2008.3484,133.59449190578357
2009.9312,135.9796086804322
2011.5133,127.0909798151456
2013.0946,131.1287999699855
2014.6752,120.59326253410654
2016.2551,136.5845595853757
2017.8342,129.35288199572847
2019.4126,123.59841927125603
2020.9902,129.62135962452112
2022.5672,148.57189003210328
2024.1433,131.70019617436992
2025.7188,137.30646224596808
2027.2935,121.44087112454599
2028.8674,127.45360431468771
2030.4406,133.04484210656915
2032.0131,127.61476351583087
2033.5849,121.56354622766526
2035.1559,132.49136665111814
2036.7261,129.59839997960103
2038.2957,133.78482008161177
2039.8645,122.3007995296648
2041.4325,132.14650955842762
2042.9998,127.8221201795609
2044.5664,134.12780008326126
2046.1323,138.26371668150455
2047.6974,130.230036044989
2049.2617,129.42692286177567
2050.8254,124.1545405176264
2052.3883,133.7630511040336
2053.9504,122.55261547094437
2055.5118,125.37339313067582
2057.0725,120.92554237001991
2058.6325,116.55922022203458
2060.1917,120.42458251052403
2061.7502,121.37178389370092
2063.3079,120.95097782553262
2064.8649,118.51231654626918
2066.4212,137.30595108665125
2067.9767,124.28203129229792
2069.5315,114.7407056357697
2071.0856,118.48212134680784
2072.6389,123.00642450774762
2074.1915,115.46376001610452
2075.7433,112.90427153933115
2077.2945,111.62810159024298
2078.8448,106.8353915526136
2080.3945,106.1762816939347
2081.9434,104.70091121334576
2083.4916,104.35941824822453
2085.039,102.3019398889403
2086.5857,104.3286121822689
2088.1317,102.48957015196675
2089.677,112.2349477785051
2091.2215,101.6648780174603
2092.7652,97.37949270205877
2094.3083,101.42892264887905
2095.8506,98.01329770070583
2097.3921,112.08274668603553
2098.933,105.63739745323073
2100.4731,105.17737672982707
2102.0124,102.20281018698711
2103.5511,113.81382244409929
2105.089,102.86053709852513
2106.6261,114.14307660948884
2108.1626,116.41156240761052
2109.6983,106.31611478208015
2111.2332,116.60685285797194
2112.7675,109.7838946972006
2114.301,112.54735719561154
2115.8337,118.69735615121249
2117.3657,112.93400623653838
2118.897,110.65742093715039
2120.4276,111.86771260927094
2121.9575,111.96499250254942
2123.4866,113.49937074795798
2125.0149,105.6709563568204
2126.5426,111.0798572054673
2128.0695,108.12618011352106
2129.5956,105.46003078980675
2131.1211,113.6815138618872
2132.6458,105.4907329027269
2134.1698,106.48779034847576
2135.693,99.2727875803755
2137.2155,102.29582491479164
2138.7373,108.80700167536133
2140.2584,99.45641616276384
2141.7787,99.59416558960925
2143.2983,94.97034617394388
2144.8171,96.88505313787255
2146.3353,87.43838075379676
2147.8527,91.38042232526846
2149.3693,96.31127028145693
2150.8853,86.23101613772678
2152.4005,89.08975044633212
2153.9149,89.28756289721605
2155.4287,92.57454228942561
2156.9417,91.45077652913233
2158.454,92.3163525967625
2159.9655,90.97135655823604
2161.4764,95.56587355631018
2162.9865,83.84998782403
2164.4958,95.42378263878163
2166.0045,102.88734043945351
2167.5124,97.14074271069444
2169.0195,94.08406990828212
2170.526,99.06740151658664
2172.0317,97.99081607913809
2173.5367,97.20439114879377
2175.0409,96.65820329850385
2176.5445,98.80232812917507
2178.0473,109.58684027513323
2179.5494,85.51181338268134
2181.0507,90.92732000225578
2182.5513,98.38343182917515
2184.0512,92.9802196494843
2185.5504,93.3677532653951
2187.0488,86.94610154931706
2188.5465,90.01533243998392
2190.0435,86.12551300666928
2191.5397,89.82670941849437
2193.0353,91.51898698332525
2194.5301,83.55241011076214
2196.0241,76.57704229521596
2197.5175,83.19294619557445
2199.0101,79.80018370495509
2200.502,86.74881588454741
2201.9931,73.03890299753948
2203.4835,71.77050443963208
2204.9733,79.6436788761373
2206.4622,80.9084842546622
2207.9505,76.01497772637867
2209.438,70.26321563337365
2210.9248,52.05325355758487
2212.4109,69.28514637831972
2213.8962,64.30894845435182
2215.3809,72.42471345160448
2216.8648,65.2324943929109
2218.3479,74.63234357685724
2219.8304,64.1243126497061
2221.3121,59.208452511395535
2222.7931,58.784813420622186
2224.2733,55.703445043998045
2225.7529,60.76439646028871
2227.2317,63.41771619122528
2228.7098,65.21345215089491
2230.1872,51.70165161920863
2231.6638,60.28236122394355
2233.1397,58.45562707586009
2234.6149,58.17149468289699
2236.0894,52.28000896843605
2237.5632,61.93121427414644
2239.0362,54.17515441889691
2240.5085,49.76187260224606
2241.9801,44.79141148200165
2243.4509,54.313813218351925
2244.921,44.229119523572535
2246.3904,40.83737156680127
2247.8591,42.438610074885446
2249.3271,54.68287536629805
2250.7943,38.27020733512745
2252.2608,38.300645328633436
2253.7266,35.52422831137483
2255.1917,44.04099486490486
2256.656,38.500983215534234
2258.1197,39.55423114916448
2259.5826,40.20077606668838
2261.0447,47.14065497345655
2262.5062,39.72390447281214
2263.9669,37.000560696693356
2265.4269,38.47065937979846
2266.8862,42.43423588682185
2268.3448,40.341325197751075
2269.8026,50.291961868232875
2271.2598,37.98618005050139
2272.7162,44.624013393870655
2274.1719,31.00549516779415
2275.6268,38.08065819548574
2277.0811,40.249534990105076
2278.5346,39.81215768400489
2279.9874,42.46855800704361
2281.4395,48.06876729095893
2282.8908,52.71281644280407
2284.3414,54.20073588894388
2285.7914,43.73255552861701
2287.2406,47.55830471905506
2288.689,49.278012380164
2290.1368,49.89170695626899
2291.5838,44.499416398914946
2293.0302,46.05116816073132
2294.4758,45.896989249353965
2295.9206,35.13690621190608
2297.3648,39.62094513654256
2298.8082,36.09913176004943
2300.251,39.47149142300373
2301.693,45.93804910499239
2303.1343,47.598829390887204
2304.5748,42.003856406180375
2306.0147,37.30315380037632
2307.4538,58.096744802941885
2308.8922,40.884652270312245
2310.3299,58.06689847795565
2311.7669,37.14350529249532
2313.2031,48.814493999885144
2314.6387,48.47988551464459
2316.0735,46.98970026314805
2317.5076,44.14395818697153
2318.941,45.04267875779465
2320.3737,45.53588100585716
2321.8056,48.57358351097264
2323.2369,42.65580439759765
2324.6674,37.132561304452565
2326.0972,34.95387144370102
2327.5263,49.5697516561811
2328.9547,52.73021843319202
2330.3823,50.885287770336845
2331.8092,43.384975135915965
2333.2355,37.67929548937764
2334.661,36.918263356320494
2336.0858,43.15189288554984
2337.5098,32.43019785668935
2338.9332,37.60319161784332
2340.3558,40.37088719281542
2341.7778,41.633297229376694
2343.199,39.89043397159048
2344.6195,46.79230924718718
2346.0393,44.53893448499366
2347.4583,45.73032064591371
2348.8767,44.46647824546153
2350.2943,33.54741734184995
2351.7113,52.473147548626
2353.1275,46.19367814386419
2354.543,53.00901788090732
2355.9578,54.0691750511628
2357.3718,45.92415741594755
2358.7852,41.2739721958867
2360.1978,43.568626152364686
2361.6098,48.658125634025964
2363.021,47.54247655382778
2364.4315,51.32168433814786
2365.8413,45.495753937938616
2367.2504,47.51468979093727
2368.6587,50.92849587992248
2370.0664,44.587175712529074
2371.4733,46.04073228710695
2372.8795,39.289168156133655
2374.285,47.88248541167957
2375.6899,39.12068575292221
2377.0939,45.75377040021476
2378.4973,46.53174018270363
2379.9,49.0545954719978
2381.3019,48.272336174389125
2382.7032,45.83496170562523
2384.1037,49.29247099873044
2385.5035,49.89486252838083
2386.9027,35.092134276327556
2388.3011,42.43428372537369
2389.6987,48.921308007402445
2391.0957,33.30320382995444
2392.492,36.629967411357256
2393.8876,44.501594636906475
2395.2824,27.868081025598485
2396.6765,33.37942165141385
2398.07,32.83561130965279
2399.4627,37.28664446182108
2400.8547,35.082515241070496
2402.246,29.773217407686047
2403.6366,33.55874437112777
2405.0265,27.539089243125773
2406.4156,40.864244799822245
2407.8041,38.53420354196885
2409.1918,42.94895756167648
2410.5789,29.408498565712193
2411.9652,37.11281783135382
2413.3508,36.21190634179493
2414.7358,31.805754709100142
2416.12,40.29435318321521
2417.5035,26.17769169602991
2418.8863,36.50575977649089
2420.2684,38.07854669176845
2421.6497,42.24604134397555
2423.0304,38.3082322544401
2424.4104,24.06510752202996
2425.7896,37.71665486253062
2427.1682,40.06286175107732
2428.546,45.053715285639214
2429.9232,36.28920216355732
2431.2996,29.569308631635863
2432.6753,27.844020573787134
2434.0503,27.313323578230325
2435.4246,41.027202954744894
2436.7982,31.58564373997683
2438.1711,42.738630560300635
2439.5433,40.38614772623487
2440.9148,40.52817912091257
2442.2856,25.664708223605658
2443.6557,37.095718108305164
2445.025,27.621191592355217
2446.3937,35.141111122142775
2447.7617,35.00545886784312
2449.1289,30.264216648221122
2450.4955,36.01736593198768
2451.8613,34.864887885211715
2453.2265,37.356763313789315
2454.5909,37.19297267496847
2455.9546,39.27349605242944
2457.3177,35.79831315792285
2458.68,38.667403310464806
2460.0416,36.28074547108827
2461.4025,38.88831821415249
2462.7627,41.79009975120971
2464.1222,28.436067904929473
2465.4811,32.626200080080366
2466.8392,28.260473397071337
2468.1966,33.33886465004923
2469.5533,46.511350350556654
2470.9093,50.127906676748125
2472.2645,48.938509341665394
2473.6191,50.443133557071405
2474.973,42.29175404534419
2476.3262,43.33434502443106
2477.6787,47.52088028936237
2479.0305,51.351333201825355
2480.3816,51.675676648298804
2481.7319,44.643883001748804
2483.0816,43.10592411838422
2484.4306,52.76177140797586
2485.7789,50.21139584923537
2487.1264,48.85476789325696
2488.4733,47.19185748902157
2489.8195,40.97263409696279
2491.165,44.797066705596194
2492.5097,42.56512389371062
2493.8538,46.52677379212457
2495.1972,47.73198410600571
2496.5398,50.6807220752537
2497.8818,44.32295446244859
2499.2231,55.708647523363766
2500.5637,42.637767070543305
2501.9035,49.21027835944517
2503.2427,39.77614621915029
2504.5812,46.28533498663717
2505.919,37.437808601123265
2507.256,47.63353053897265
2508.5924,47.97246390217265
2509.9281,45.00457131637495
2511.2631,46.079814927507186
2512.5974,46.748156431451775
2513.9309,49.10955706329344
2515.2638,43.31397759063577
2516.596,47.66137828998728
2517.9275,48.95171900471644
2519.2583,51.33495910157865
2520.5884,44.46105745781199
2521.9178,40.32997243730574
2523.2465,42.34166195933847
2524.5745,43.796083539889764
2525.9018,48.44319427152209
2527.2284,51.78295080883788
2528.5543,51.66530932200817
2529.8796,41.89022546337469
2531.2041,54.35765436862664
2532.5279,56.41755075455069
2533.851,52.669868794357626
2535.1735,63.41456209708326
2536.4952,53.80158374506493
2537.8163,47.93088618649483
2539.1366,53.7524213315495
2540.4562,54.56614061109747
2541.7752,58.721994918482665
2543.0935,59.76993460138863
2544.411,59.409909420279064
2545.7279,60.49186853791946
2547.0441,68.21576052297587
2548.3596,67.08153333919574
2549.6744,67.73913426816966
2550.9885,67.38850992067262
2552.3019,72.4296062300889
2553.6146,61.362368455918045
2554.9266,67.93674113336442
2556.2379,70.55266818400867
2557.5485,69.4100928500643
2558.8585,70.25895766821884
2560.1677,66.44920448105916
2561.4762,70.5807744285836
2562.7841,76.00360798629822
2564.0913,61.06764492390221
2565.3977,71.92282425105884
2566.7035,68.71908436675574
2568.0086,80.90636295075251
2569.313,74.43459699561845
2570.6167,78.60372268485935
2571.9197,72.91367545763558
2573.222,76.66438996707029
2574.5236,80.75580013715035
2575.8246,75.73783912521878
2577.1248,74.26043928106105
2578.4244,84.97353219708464
2579.7232,82.32704872309307
2581.0214,80.42091885915454
2582.3189,90.5050717820676
2583.6157,86.12943586442134
2584.9118,83.74393857375526
2586.2072,91.09850651631439
2587.5019,87.9430654609049
2588.7959,84.12754026534787
2590.0893,95.05185490803422
2591.3819,97.11593252607929
2592.6739,101.21969530608101
2593.9652,97.2130644634783
2595.2557,95.0959602015131
2596.5456,105.41830175129769
2597.8348,107.18000739298498
2599.1234,105.73099435254517
2600.4112,103.87117878414892
2601.6983,105.30047578465735
2602.9848,112.91879941221987
2604.2705,108.6760626719821
2605.5556,110.5221774399015
2606.84,115.10705450517514
2608.1237,106.53060355177843
2609.4067,115.19273311261645
2610.689,109.54335065528892
2611.9707,106.2823624954683
2613.2516,103.90967385339354
2614.5319,106.2751888864808
2615.8115,93.62881071304992
2617.0903,95.02044138866904
2618.3685,97.09998203261887
2619.6461,100.41733281397603
2620.9229,101.17239293081718
2622.199,112.11506057704639
2623.4745,97.49523293484344
2624.7493,103.26280606523835
2626.0234,87.9676750543083
2627.2968,102.40973395550338
2628.5695,101.08887594259693
2629.8415,102.75499316526555
2631.1128,102.80797676229645
2632.3835,99.49771684492771
2633.6535,106.32410249631755
2634.9228,102.03702180464745
2636.1914,102.08636179485802
2637.4593,95.67200847151958
2638.7265,100.89384681833951
2639.9931,100.90176086230497
2641.259,96.84563362146525
2642.5242,103.1253471048525
2643.7887,93.99078235304296
2645.0525,95.69181937535939
2646.3156,92.27833724121717
2647.5781,96.00021406311328
2648.8398,95.7573270307621
2650.1009,94.89955237387551
2651.3613,93.52676536459228
2652.6211,90.33884032605636
2653.8801,91.8856506461434
2655.1385,99.7670688093416
2656.3961,102.53296638128245
2657.6531,96.7332139299267
2658.9094,100.11768099790584
2660.1651,99.18623616051968
2661.42,97.68874699189121
2662.6743,105.17508007428171
2663.9279,103.49510101306498
2665.1808,101.998674361864
2666.433,114.63566363935138
2667.6846,110.8559313442131
2668.9354,115.6093388287785
2670.1856,115.04574633681807
2671.4351,129.1150129560092
2672.6839,120.21699662357173
2673.9321,129.95155398557603
2675.1795,126.31854048592248
2676.4263,127.06781026899631
2677.6724,136.7492162159977
2678.9179,131.112609937449
2680.1626,135.40784167638043
2681.4067,131.78476036469675
2682.6501,128.29321358022457
2683.8928,124.33304758294338
2685.1348,128.20410734990054
2686.3761,117.00623661481342
2687.6168,118.48927782935834
2688.8568,117.55307227514953
2690.0961,118.74746004890909
2691.3348,114.62228007182796
2692.5727,114.42737007762304
2693.81,108.41256665378842
2695.0466,106.37770524354534
2696.2826,110.672620205989
2697.5178,107.3471448364379
2698.7524,107.75111132348474
2699.9863,114.73435078225083
2701.2195,113.0966932503469
2702.452,120.28796761804051
2703.6839,124.15800164463218
2704.9151,128.55662188654327
2706.1456,132.53365365861555
2707.3755,135.43892099012464
2708.6046,146.52224658500984
2709.8331,152.03345179282167
2711.0609,155.07235649788828
2712.2881,162.4887790642037
2713.5145,161.28253630503815
2714.7403,178.3534434087747
2715.9654,180.65131395097097
2717.1899,188.27595972365054
2718.4136,195.82719071232395
2719.6367,213.60481501974277
2720.8591,237.40863879038676
2722.0809,237.78846603268784
2723.3019,245.99409838099223
2724.5223,251.1253350917612
2725.7421,272.0319729615158
2726.9611,259.1638062755238
2728.1795,257.3206265987337
2729.3972,248.25222290445578
2730.6142,241.6083815927945
2731.8306,236.53888658133235
2733.0462,212.89351937156817
2734.2612,184.47205909961252
2735.4756,178.77428277264073
2736.6892,159.1999655531078
2737.9022,155.34888081572558
2739.1145,140.4708003432068
2740.3262,124.26549436477535
2741.5372,120.68273170494734
2742.7475,113.07227994558457
2743.9571,100.0339054617213
2745.1661,89.01737349766933
2746.3744,86.92244829740179
2747.582,76.79889321471819
2748.7889,66.8464707341941
2749.9952,53.76494257241626
2751.2008,57.75406977750691
2752.4057,46.16361285993946
2753.61,48.24333175264616
2754.8136,39.19298592692377
2756.0165,37.41233437163572
2757.2188,36.051135683715415
2758.4204,34.85914808597323
2759.6213,24.536129440708635
2760.8215,32.531837261629505
2762.0211,31.646028817082822
2763.22,27.728461050097394
2764.4182,30.778890587242245
2765.6158,20.79707377780187
2766.8127,20.332766663272253
2768.009,21.085725077179006
2769.2045,17.105704649720167
2770.3994,3.2924608002365403
2771.5936,5.195748777012511
2772.7872,-3.6846762045924493
2773.9801,-6.249058981176006
2775.1723,-0.09760757942098053
2776.3639,3.469532402088987
2777.5548,-13.947783660130256
2778.745,-5.799700424257992
2779.9346,-14.586223210115179
2781.1235,-13.407299398515761
2782.3117,-8.962730653904032
2783.4992,-11.052184701803412
2784.6861,-10.675239730058593
2785.8723,-9.88136351518915
2787.0579,-10.269917188070167
2788.2428,-12.940163164755347
2789.427,-6.991261264825994
2790.6106,-4.472242035633826
2791.7935,-7.532066181831283
2792.9757,5.630350269627456
2794.1573,9.366166537128493
2795.3382,15.576541782755385
2796.5184,22.06263507492963
2797.698,25.62560532630755
2798.8769,45.0166112289196
2800.0551,49.93681121853956
2801.2327,52.88736328077562
2802.4096,68.81942490186839
2803.5859,73.43415303918528
2804.7615,88.58270396190017
2805.9364,106.76623320484691
2807.1106,121.53589541703172
2808.2842,151.14284417979889
2809.4572,165.58823185913377
2810.6294,192.22320930959404
2811.801,218.29892572985523
2812.972,261.4665283963607
2814.1423,284.9771624025652
2815.3119,329.68197022725826
2816.4808,363.13209149945806
2817.6491,413.1786625513638
2818.8167,465.1728160838536
2819.9837,509.3656806660201
2821.15,560.658380215227
2822.3157,618.5520335551819
2823.4807,668.2977539030088
2824.645,713.896648290312
2825.8086,776.499817065718
2826.9716,821.0583534388876
2828.134,871.6733428544833
2829.2957,915.7458625465845
2830.4567,947.2269810325374
2831.617,977.7177576722303
2832.7767,993.7192423532811
2833.9358,989.3324751861313
2835.0941,964.75848634403
2836.2519,958.2482961069015
2837.4089,943.7529151070862
2838.5653,924.7233443944414
2839.7211,890.8105755812954
2840.8761,893.8155910327438
2842.0306,896.2393642057762
2843.1843,915.4828596192272
2844.3374,927.9970328295378
2845.4899,970.0328302383207
2846.6417,1013.7911889672181
2847.7928,1068.5730364375454
2848.9433,1116.8292899327055
2850.0931,1176.4608560503716
2851.2422,1237.9686302199239
2852.3907,1282.353496106136
2853.5385,1332.216324994094
2854.6857,1385.2079753453502
2855.8323,1416.8792922992934
2856.9781,1448.531107143233
2858.1233,1521.7642369956861
2859.2679,1558.1294844898584
2860.4118,1613.1776370413136
2861.555,1652.5094664843214
2862.6976,1691.525728521375
2863.8395,1731.4271623298732
2864.9808,1747.1144901719572
2866.1214,1767.5384169954973
2867.2614,1805.1996302772195
2868.4007,1813.2987998184653
2869.5393,1825.3865773685807
2870.6773,1826.2635965439245
2871.8146,1830.8304727069885
2872.9513,1835.8378029576309
2874.0874,1825.2361660874049
2875.2227,1803.7261225294856
2876.3574,1795.7582144646863
2877.4915,1775.8829660365595
2878.6249,1748.650883431077
2879.7577,1732.0124550753803
2880.8898,1712.168151910103
2882.0212,1699.118427555754
2883.152,1671.1637185111613
2884.2821,1669.654444283969
2885.4116,1668.9410076701852
2886.5405,1671.7737947692717
2887.6686,1669.5531749912825
2888.7962,1666.129501028533
2889.923,1672.053108877808
2891.0493,1702.4743178745962
2892.1748,1700.2934306338575
2893.2997,1709.7107327458064
2894.424,1741.5764927977243
2895.5476,1734.4909622797857
2896.6706,1758.2043752664008
2897.7929,1781.7169484870697
2898.9145,1805.8288810892486
2900.0355,1810.8903544032264
2901.1559,1861.751531701001
2902.2756,1880.2125581456694
2903.3946,1914.3735602828117
2904.513,1932.3346458558854
2905.6308,1949.5459034646105
2906.7479,1970.607402385362
2907.8643,1999.1691923990563
2908.9801,2000.1313035805358
2910.0953,2030.0437460129506
2911.2098,2019.1565097781393
2912.3236,2015.6195646575034
2913.4368,1996.882860240878
2914.5494,1974.2463259619046
2915.6613,1940.8598712853957
2916.7725,1916.5233859337
2917.8831,1895.0367402205702
2918.9931,1888.899785294524
2920.1024,1839.2623533537126
2921.211,1822.5742577072883
2922.319,1818.3852932717828
2923.4264,1805.2952367379817
2924.5331,1792.0538466128212
2925.6391,1788.1608633502838
2926.7445,1796.7660094838143
2927.8493,1789.1689896652497
2928.9534,1792.5694905787655
2930.0569,1801.767181016849
2931.1597,1806.5117118462927
2932.2619,1831.4527159162171
2933.3634,1819.0898080106253
2934.4643,1831.6225845989957
2935.5645,1815.6006239599071
2936.6641,1804.173486055714
2937.763,1777.4407126927645
2938.8613,1774.3018276356715
2939.959,1724.6563368746424
2941.056,1667.3537286568655
2942.1523,1604.9934739829669
2943.248,1536.725027180034
2944.3431,1466.7478265252214
2945.4375,1376.7612949284326
2946.5313,1285.2648406320932
2947.6244,1193.8078581110167
2948.7169,1092.0397289873677
2949.8087,1018.8598229452327
2950.8999,939.2674987483013
2951.9904,857.5121049716648
2953.0803,808.3429807977394
2954.1696,752.2594568338213
2955.2582,697.4108556037767
2956.3462,658.146492108877
2957.4335,619.715674376287
2958.5202,600.1177038517052
2959.6062,567.5518757836737
2960.6916,558.0174794195578
2961.7764,537.7137983312043
2962.8605,517.5901105102855
2963.9439,520.6456885713359
2965.0267,514.2797999529896
2966.1089,498.4917068874246
2967.1905,502.780666464021
2968.2714,501.1459307872425
2969.3516,500.6367469337463
2970.4312,505.55235696873103
2971.5102,509.64199795102786
2972.5885,530.4549018839446
2973.6662,528.0902956743698
2974.7432,535.547400924643
2975.8196,529.9254339562015
2976.8954,535.3736057350083
2977.9705,525.0411219277732
2979.045,525.7771828474695
2980.1188,514.0809835566599
2981.192,487.95171386013567
2982.2645,480.8385584218778
2983.3364,463.4906970263507
2984.4077,438.9073046496331
2985.4783,427.937551632897
2986.5483,405.58060392824154
2987.6177,362.73562320839034
2988.6864,350.4517670902616
2989.7545,322.5781895634173
2990.8219,292.3640411129015
2991.8887,267.9084689979769
2992.9548,233.6106175542664
2994.0204,210.81962843830848
2995.0852,188.78464097053558
2996.1495,162.9047923631843
2997.2131,138.9792179406449
2998.276,126.15705139826025
2999.3383,104.23742504158093
3000.4,89.06946991458744
3001.4611,78.9023160188861
3002.5215,56.935092465388436
3003.5812,46.06692757598324
3004.6404,33.746949103208635
3005.6989,37.774284338933455
3006.7567,21.498060237557297
3007.8139,11.417403375736967
3008.8705,7.231440115148871
3009.9264,6.639296703295543
3010.9818,6.840099315365251
3012.0364,-2.0670259398465873
3013.0905,0.06704697805480464
3014.1439,-6.508535240946912
3015.1966,-9.89462590753817
3016.2487,-6.8420133121384765
3017.3002,-11.65138689785499
3018.3511,-4.223367756082041
3019.4013,-9.808460580858878
3020.4509,-11.407127874781168
3021.4998,-9.569734153923719
3022.5481,-5.346529977153978
3023.5958,-7.9876703016957435
3024.6428,-3.143256672938435
3025.6892,-3.3633108394454325
3026.735,3.15217685135417
3027.7802,1.5032496515061666
3028.8247,4.639950781534708
3029.8685,13.212323446931748
3030.9118,12.770410806789869
3031.9544,15.914255888078628
3032.9963,26.293901590063854
3034.0376,30.859390652868967
3035.0783,34.96076555367904
3036.1184,33.8980684610853
3037.1578,42.4213411940716
3038.1966,45.93062523264149
3039.2348,52.97596163258487
3040.2723,52.20739099038599
3041.3092,63.3249533727693
3042.3455,56.428688324385575
3043.3811,62.51863475663629
3044.4161,61.29483101663595
3045.4505,61.307314826313245
3046.4842,68.80612329464861
3047.5173,65.69129291754939
3048.5498,66.76285950286194
3049.5816,67.42085820151965
3050.6128,71.5153234968277
3051.6434,72.54628919788269
3052.6734,65.0137883986281
3053.7027,61.16785346754472
3054.7314,68.90851612297558
3055.7594,69.18580747158524
3056.7868,66.69975793095318
3057.8136,69.3503972268008
3058.8398,70.93775441785209
3059.8653,72.01185786932734
3060.8902,68.17273523706928
3061.9145,71.22041345680219
3062.9381,75.25491878252308
3063.9612,71.42627675602466
3064.9835,77.08451216655084
3066.0053,69.02964908908251
3067.0264,67.161710827756
3068.0469,68.43071999641103
3069.0668,68.43669853727062
3070.086,67.47966770825059
3071.1046,62.95964808289983
3072.1226,59.726659559970784
3073.1399,53.980721408619615
3074.1567,52.47185230073575
3075.1727,49.300070368401634
3076.1882,44.86539321898147
3077.203,42.56783796683865
3078.2173,41.70742127768298
3079.2308,35.534159391545955
3080.2438,31.14806813138506
3081.2561,28.199162964816196
3082.2678,27.887459047974687
3083.2789,27.262971255004288
3084.2893,19.125714181174175
3085.2991,17.475702149124004
3086.3083,15.112949290236372
3087.3169,15.137469561137095
3088.3248,12.699276767322516
3089.3321,6.598384562914276
3090.3388,8.084806475041347
3091.3449,5.658555964848915
3092.3503,5.069646412634114
3093.3551,3.668091142108608
3094.3593,4.203903426287667
3095.3629,5.127096501505719
3096.3658,7.587683562058373
3097.3681,2.3356777509703193
3098.3698,0.7710921353896651
3099.3708,2.6439397591077807
3100.3713,1.0042336582051519
3101.3711,1.5019868423229923
3102.3702,0.6372123110602956
3103.3688,-2.5900769510038515
3104.3667,-4.129867965662328
3105.364,0.8678781201606114
3106.3607,-0.3967585830783378
3107.3568,1.6763020263989574
3108.3522,0.6871440139887568
3109.347,-2.864148571675571
3110.3412,1.0725083111678941
3111.3348,3.1472273171253846
3112.3277,2.06012109007807
3113.32,-0.48869775756503486
3114.3117,0.650883366003967
3115.3028,3.1289819346835657
3116.2932,0.5457089200472183
3117.2831,3.851175262378831
3118.2723,3.445486450330037
3119.2608,2.428747934040871
3120.2488,0.05106512919653028
3121.2361,3.2625434271948563
3122.2229,4.263287709292882
3123.209,4.753402824122475
3124.1944,0.532993577682646
3125.1793,2.75216472843843
3126.1635,4.161015710249075
3127.1471,1.4596459294519946
3128.1301,5.99815475077466
3129.1125,6.426641524348057
3130.0942,8.745205540321734
3131.0753,10.903946024578843
3132.0558,6.602962115550582
3133.0357,9.342352842628841
3134.015,9.3222171691759
3134.9936,12.892653965130577
3135.9716,14.503762007209588
3136.949,7.50563994320315
3137.9258,9.1483862758639
3138.902,13.432099432888165
3139.8775,13.306877750488383
3140.8524,15.022819430556112
3141.8267,14.430022541914184
3142.8004,15.228585003157264
3143.7735,14.718604588579879
3144.7459,16.000178920190663
3145.7178,15.523405472812271
3146.689,19.38838156126552
3147.6596,15.645204345137174
3148.6295,19.543970790130174
3149.5989,22.98477770549532
3150.5676,20.967721705043843
3151.5357,18.39289917273915
3152.5032,23.51040628286755
3153.4701,24.570339025786396
3154.4364,25.672793156749037
3155.402,25.16786418530546
3156.367,25.70564736427785
3157.3315,26.086237694809725
3158.2952,26.70972992098818
3159.2584,24.576218526037977
3160.221,25.585797726086525
3161.1829,31.08856149149915
3162.1442,32.084603536783206
3163.105,30.874017265560468
3164.065,31.206895760606656
3165.0245,33.533331795957366
3165.9834,32.703417833579266
3166.9416,34.217246000105774
3167.8993,35.62490809513604
3168.8563,35.826495576096875
3169.8127,37.872099544166
3170.7684,39.11181074225619
3171.7236,36.89571953455932
3172.6782,36.1239158941492
3173.6321,39.54648942514243
3174.5854,39.963529370416545
3175.5381,43.67512457738416
3176.4902,43.23136349382265
3177.4417,45.13233413075817
3178.3926,41.32812406690325
3179.3428,44.31882042964708
3180.2924,43.75450993309771
3181.2415,46.48527884817494
3182.1899,50.4112130082535
3183.1377,47.03239778185535
3184.0848,46.048918033390365
3185.0314,51.61085815694446
3185.9773,50.6183020861144
3186.9227,53.57133323838834
3187.8674,55.82003452507147
3188.8115,55.31448832175559
3189.755,52.90477644583222
3190.6979,54.54098016154799
3191.6402,57.62318020410178
3192.5818,57.00145676328269
3193.5229,56.87588945264804
3194.4633,61.09655731574057
3195.4031,58.51353882734415
3196.3423,56.6769118512771
3197.2809,64.73675366622233
3198.2189,64.19314098409367
3199.1563,60.69614986943739
3200.0931,65.24585574486838
3201.0292,63.49233342604004
3201.9648,66.9356570761472
3202.8997,67.12590022346137
3203.834,70.2131357268975
3204.7677,67.39743577411156
3205.7008,70.07887185062809
3206.6333,71.05751476799736
3207.5652,69.88343463698091
3208.4964,72.4567008577651
3209.4271,71.32738213170201
3210.3571,70.79554643557665
3211.2865,70.66126103290026
3212.2154,76.5245924792286
3213.1436,72.48560662350481
3214.0712,77.39436854942613
3214.9982,77.9509426158337
3215.9246,75.40539240762497
3216.8503,76.65778073018802
3217.7755,77.00816963485696
3218.7001,82.05662040638805
3219.624,79.95319355945597
3220.5473,81.24794878816905
3221.4701,81.94094498710379
3222.3922,84.08224023835712
3223.3137,84.27189180461654
3224.2346,88.30995610774718
3225.1549,85.14648872689519
3226.0746,86.28154435810717
3226.9937,86.7151768459648
3227.9121,87.74743917223441
3228.83,89.4783834515304
3229.7473,92.15806092099287
3230.6639,91.28652192297807
3231.5799,90.11381587826159
3232.4954,93.93999129475381
3233.4102,93.61509577922696
3234.3244,93.63917599905332
3235.238,93.41227768545421
3236.151,95.73444563325921
3237.0634,96.55572370317509
3237.9752,95.27615479856414
3238.8864,98.1957808572314
3239.797,97.71464286422041
3240.7069,101.7327808226168
3241.6163,98.5002337583598
3242.5251,101.91703968006078
3243.4332,101.23323561132881
3244.3408,106.19885755660246
3245.2477,101.01394050798802
3246.154,106.02851839560313
3247.0598,101.592624139426
3247.9649,104.65628959914969
3248.8694,109.56954561854096
3249.7733,107.58242199480364
3250.6766,111.24494742944614
3251.5793,109.35714954815259
3252.4814,114.16905486415763
3253.3829,107.93068879712439
3254.2838,109.44207562502541
3255.1841,111.45323854652625
3256.0838,112.31419966587174
3256.9829,108.52497997277425
3257.8814,116.13559933380407
3258.7792,117.54607653028168
3259.6765,114.65642918217156
3260.5731,115.26667373397734
3261.4692,116.72682548363835
3262.3647,116.03689857642712
3263.2595,112.94690599034794
3264.1538,114.20685954303603
3265.0474,115.86676992265754
3265.9404,118.87664667530993
3266.8329,119.13649818842298
3267.7247,118.24633166065993
3268.616,122.95615309931904
3269.5066,120.06596732923522
3270.3966,117.57577794568186
3271.286,121.88558734327259
