RamanShift,CorrectedData
30.1047,205.709006601043
32.3739,188.1322414431449
34.6426,173.8054742281567
36.9109,161.5787010176659
39.1787,145.50191613520525
41.4461,129.77511228852035
43.7131,117.39828073033765
45.9796,100.47141141563235
48.2456,86.69449312539689
50.5112,70.81751363590946
52.7764,57.290459856503404
55.0411,44.0133179883368
57.3054,28.78607365966318
59.5692,12.558712058602854
61.8326,0.331218085415415
64.0955,-10.296423485226665
66.3579,-26.47422788196309
68.6199,-40.702107472162965
70.8815,-49.17971014565887
73.1426,-51.45627717822979
75.4032,-34.58055854035035
77.6634,21.149209845713756
79.9231,176.63513751747658
82.1824,529.1793338009603
84.4412,1139.8839062558354
86.6995,1939.4509571499798
88.9574,2744.482577352432
91.2148,3312.7808383377205
93.4717,3591.797784135549
95.7282,3651.735425647813
97.9842,3673.945737858429
100.2398,3642.18065923396
102.4949,3570.5920915015113
104.7495,3519.8318999663834
107.0036,3472.5519142279536
109.2573,3403.9539286872828
111.5105,3318.1897030199116
113.7632,3220.7609628618407
116.0154,3132.469400667176
118.2672,3047.316676682413
120.5185,2967.1044198293525
122.7693,2875.58422855663
125.0197,2796.1076716418365
127.2696,2739.5762891067207
129.519,2702.8415930119545
131.7679,2643.3050680224474
134.0163,2623.468171774693
136.2642,2590.232335472135
138.5117,2562.6489640835352
140.7587,2528.3194366753323
143.0052,2482.045106687476
145.2512,2423.277302276722
147.4967,2372.817326779375
149.7417,2326.416459298967
151.9863,2292.9759552108562
154.2304,2265.0470466262386
156.4739,2232.030942726549
158.717,2217.528830042751
160.9596,2212.891872785502
163.2017,2218.9712129901695
165.4433,2208.9179705632023
167.6844,2186.433243221339
169.925,2130.218106592137
172.1651,2062.32361443882
174.4047,2017.8507992224356
176.6439,1967.7506727807913
178.8825,1932.574226773188
181.1206,1912.2724331814202
183.3582,1874.5962446615408
185.5954,1869.9965947468784
187.832,1838.8243982247986
190.0681,1839.0805511827034
192.3037,1811.4659313197485
194.5388,1793.9813979442856
196.7734,1782.1277922500074
199.0075,1786.255937490792
201.2411,1776.7166390992402
203.4742,1792.1606846453942
205.7068,1791.6388439321315
207.9389,1794.0018688407204
210.1704,1790.550493336043
212.4015,1782.3854334429632
214.632,1772.1573872808383
216.862,1754.8170351451745
219.0915,1730.315039609902
221.3205,1722.702045700783
223.549,1720.2286811404294
225.777,1707.4455564244342
228.0044,1682.1032648461028
230.2314,1671.1523826242876
232.4578,1627.6934691568067
234.6837,1611.0270671299563
236.909,1582.0537029530979
239.1339,1559.9238869253243
241.3582,1545.7381135251906
243.582,1522.7968616320138
245.8053,1526.1505946677307
248.0281,1514.0997608263103
250.2503,1495.7447930402168
252.472,1492.7361091009157
254.6932,1480.474111842426
256.9139,1458.9591891714067
259.134,1466.591714189775
261.3536,1471.8220454098573
263.5727,1477.600526678063
265.7912,1509.5774871225824
268.0092,1535.4532410956008
270.2267,1570.7280878535287
272.4436,1569.0523112982457
274.6601,1567.2261796243506
276.8759,1574.9999453359196
279.0913,1586.4238452647692
281.3061,1578.8481004927155
283.5204,1584.3229162373377
285.7341,1574.2484819277338
287.9473,1591.774971149774
290.16,1564.7025417468437
292.3721,1526.8313356445792
294.5837,1497.7114791215934
296.7947,1455.9430831881841
299.0052,1441.726243877537
301.2152,1408.961042663406
303.4246,1407.097546602284
305.6334,1373.7858086610543
307.8418,1332.975867735625
310.0495,1314.8177489840464
312.2568,1277.411464234611
314.4635,1227.7570121674348
316.6696,1156.5543786885194
318.8752,1114.1535374262965
321.0802,1075.2044504436542
323.2847,1061.5570686619474
325.4887,1048.061332250485
327.692,1063.0171707630086
329.8949,1062.024503272646
332.0972,1069.0832382223539
334.2989,1091.193273434845
336.5001,1069.754496042001
338.7007,1033.2167822637718
340.9008,994.8799976225635
343.1003,938.3939973086156
345.2992,894.5586265633665
347.4976,855.7737212443185
349.6955,829.5391082633848
351.8927,803.9546059747447
354.0895,780.8200244371862
356.2856,766.2851656699511
358.4812,752.1998238840836
360.6763,718.0637856277754
362.8707,716.3768299272219
365.0646,700.7887286279815
367.258,711.2992464118449
369.4508,718.558140952716
371.643,719.5651628115068
373.8346,719.7200553635473
376.0257,737.9725547885187
378.2162,760.0223900689025
380.4062,754.369282807455
382.5956,702.812947006709
384.7844,677.3530891255054
386.9726,636.0894085945572
389.1603,614.0215980710475
391.3474,591.2993438512651
393.5339,590.0223260912858
395.7199,571.2902190341906
397.9052,593.1526910228392
400.09,608.2594046871895
402.2743,629.8600167256745
404.4579,657.0041777541317
406.641,658.541532089801
408.8235,704.371717479881
411.0054,737.0943650861557
413.1868,807.3090990266937
415.3675,840.1655360486202
417.5477,854.2632848259702
419.7273,755.8019456311251
421.9064,673.3811101938334
424.0848,621.9003626858237
426.2627,563.8592805450164
428.4399,512.5074349903275
430.6166,458.1443916020819
432.7928,430.56971083553026
434.9683,387.282948564482
437.1432,351.1336563570485
439.3176,314.27138190851315
441.4914,314.045669402823
443.6645,293.90605988121274
445.8371,312.30209124446105
448.0091,290.38329845428575
450.1806,281.99921334938495
452.3514,264.0993648646254
454.5216,256.1332791148818
456.6913,244.15047957403567
458.8603,248.55048715463704
461.0288,256.8328203277322
463.1967,243.74699507886316
465.3639,248.04252482524475
467.5306,224.96892054662248
469.6967,194.37569074231737
471.8622,195.01234166196218
474.0271,195.62837761143305
476.1914,181.2233009464826
478.3551,177.8966120665798
480.5182,177.5478095589615
482.6807,180.32639023189927
484.8426,192.43184911818753
487.0039,225.86367944735753
489.1647,251.27137252462194
491.3248,272.25441739656003
493.4843,299.71230059703703
495.6432,291.84450593737483
497.8015,259.850514231774
499.9592,217.27980337599047
502.1163,185.98184866727615
504.2728,143.70612323008618
506.4287,141.10209832905775
508.5839,110.71924379176835
510.7386,108.10702803477488
512.8927,102.41491836744262
515.0461,109.99238101806782
517.199,111.33888119079757
519.3512,139.90388298985567
521.5029,187.6868494060775
523.6539,226.0372420312608
525.8043,224.5045205803358
527.9541,191.73814250786108
530.1033,147.68756302335123
532.2519,108.60223541894084
534.3999,88.78161150988831
536.5472,88.32514202543143
538.694,88.83227680699224
540.8401,83.85246481274157
542.9856,101.63515411252911
545.1305,106.47979193767992
547.2748,124.43582450316899
549.4185,116.75269695917291
551.5615,125.9298532115115
553.704,137.7167359984776
555.8458,148.66278679906577
557.987,165.217445715105
560.1276,177.2301513617963
562.2675,219.3503407021674
564.4069,254.27744892694386
566.5456,278.4109090333493
568.6837,272.800151475833
570.8212,223.44460392473638
572.958,175.7936913223989
575.0942,150.3968363767151
577.2299,120.40346003764262
579.3648,99.86298175117145
581.4992,71.92481975925784
583.6329,73.53839130522897
585.766,86.55311291316457
587.8985,115.21840037176185
590.0304,150.73366860418741
592.1616,170.79833138142408
594.2922,166.11180096711837
596.4222,125.27348791693498
598.5515,100.5328011254212
600.6802,53.18914823438968
602.8083,34.94193588032613
604.9358,32.89057016782499
607.0626,27.634108131540643
609.1888,38.1212782293303
611.3144,59.15053285431145
613.4393,83.3703240183886
615.5636,113.92910314196274
617.6873,141.57532081173235
619.8103,162.10742647510597
621.9327,158.12386816373873
624.0544,138.7730922882131
626.1756,107.85354367787227
628.2961,61.81366577432959
630.4159,54.60190094066343
632.5351,56.36669092181637
634.6537,42.45647691671115
636.7716,40.91969956060598
638.8889,39.354799064193685
641.0056,50.41021522897131
643.1216,49.78438746288748
645.237,45.87575466978933
647.3518,42.98275525568056
649.4659,37.40382716780755
651.5793,24.837407923589808
653.6922,6.981934666410325
655.8043,5.2858442912784085
657.9159,2.9975039436760653
660.0268,-12.73477203650009
662.137,-13.762699254418521
664.2466,-11.687866094876199
666.3556,-14.911723453305513
668.4639,-9.835605463357297
670.5716,-1.56069729056685
672.6786,-10.48808584277117
674.785,-9.268842436442583
676.8907,-21.553933612077344
678.9958,-10.344233314435996
681.1002,-5.19040016448389
683.204,-8.292989444295927
685.3072,-11.302504583850578
687.4097,-14.41936616616249
689.5115,-4.393881862225953
691.6127,-7.976215293569794
693.7132,-12.766530037782104
695.8131,-6.864909990061733
697.9123,5.7286884920260945
700.0109,-0.43562236863385806
702.1089,7.342269593556921
704.2061,16.462476548554605
706.3028,35.92511059289359
708.3987,59.53028365848331
710.4941,65.27810731798309
712.5887,79.76869254874941
714.6827,73.55214967535949
716.7761,65.92858822470271
718.8688,68.8481169881486
720.9608,69.21084409778086
723.0522,74.06687699720351
725.1429,101.56632243791228
727.233,142.05928643073548
729.3224,191.69587397083933
731.4112,222.57618863279777
733.4993,217.50033207422666
735.5867,188.91840372698107
737.6735,132.68050084791344
739.7596,109.38671880469201
741.845,95.3871516381812
743.9298,96.68189229537961
746.014,99.2210327694147
748.0974,112.65466408659472
750.1802,123.7828762810193
752.2624,107.65575826024201
754.3439,96.37339769398795
756.4247,85.73588117542545
758.5048,85.19329433398957
760.5843,95.94572194175726
762.6631,127.79324791887348
764.7413,171.38595522602645
766.8188,219.62392554597432
768.8956,270.5072388476144
770.9718,318.28597290360653
773.0473,317.56020278153846
775.1221,305.0800003661386
777.1962,287.6454343665348
779.2697,336.4065704410557
781.3426,394.41347137157595
783.4147,448.31619657590454
785.4862,431.2648015277166
787.557,372.2093372175261
789.6271,273.44985032319937
791.6966,196.28638380051052
793.7654,127.16897787073549
795.8335,107.94767079228723
797.901,71.6224995518894
799.9678,78.54350005678975
802.0339,73.8107074980121
804.0993,70.27415628114545
806.1641,69.43388007367321
808.2282,55.83991184033698
810.2916,44.04228385154124
812.3544,41.09102781929187
814.4164,41.38617501517274
816.4778,42.12775629985708
818.5385,54.21580212015715
820.5986,73.45034250160916
822.658,107.63140692759157
824.7166,177.0090241469809
826.7747,239.78322183233968
828.832,292.6540258861414
830.8886,327.1714598130286
832.9446,349.93554419110365
834.9999,323.8962963267552
837.0545,268.7037300270165
839.1085,217.60785585995882
841.1618,169.45868170661652
843.2143,119.90621327194594
845.2662,111.9004545663172
847.3175,103.49140840103905
849.368,82.92907646841695
851.4179,89.71345942584276
853.467,88.99455710141797
855.5155,88.3223684261111
857.5633,96.74689144094464
859.6105,81.61812330371822
861.6569,85.08606020476304
863.7027,84.40069751822989
865.7478,79.11202976740924
867.7922,71.27005063158595
869.8359,63.77475299892626
871.8789,69.52612904489501
873.9212,53.92417030721094
875.9629,67.56886762833119
878.0039,83.16021131147272
880.0441,97.14819098416342
882.0837,112.78279544233033
884.1226,132.6640125104184
886.1609,164.14182888504615
888.1984,185.9662299361928
890.2352,228.18719939241873
892.2714,228.40471912262296
894.3069,214.16876871383306
896.3416,184.5293254690307
898.3757,149.73636454950974
900.4091,132.68985927127255
902.4418,135.78978145295764
904.4739,151.0361015863066
906.5052,174.87878880516269
908.5358,158.667810733009
910.5658,148.15313324454178
912.595,122.53472062777928
914.6236,102.61253568920893
916.6515,88.48654000997203
918.6786,65.45669414508484
920.7051,62.47295776469855
922.7309,75.43528988439834
924.756,58.24364889503954
926.7804,76.24799243312532
928.8041,70.09827755272318
930.8272,97.94446054542095
932.8495,97.78649700182382
934.8711,105.97434153309246
936.892,112.20794777252172
938.9123,114.58726829366515
940.9318,146.81225454799664
942.9506,149.28285684111688
944.9688,148.69902401050422
946.9862,131.06070340080896
949.003,99.01784086969155
951.019,102.3203809642057
953.0344,80.91826724122711
955.0491,61.01144223442907
957.063,72.34984766830235
959.0763,75.08342465722399
961.0888,73.01211359207286
963.1007,77.83585411289391
965.1119,62.35458512961259
967.1223,68.31824477379564
969.1321,70.92677055346394
971.1412,58.380099293456624
973.1495,52.07816710934526
975.1572,62.72090953290058
977.1641,77.4082615751131
979.1704,58.940157619763795
981.1759,63.51653127655277
983.1808,53.98731556577786
985.1849,44.75244287257283
987.1884,51.66184504219859
989.1911,54.36545347239257
991.1932,68.46319904427389
993.1945,65.15501209530771
995.1951,59.9908222783273
997.1951,65.27055859461598
999.1943,62.64414944554983
1001.1928,60.26152257979993
1003.1906,73.82260511959635
1005.1877,96.7273235845538
1007.1841,118.1256037560621
1009.1798,119.1673704482381
1011.1748,106.20254729394333
1013.1691,87.93105673436594
1015.1627,63.2028201486695
1017.1556,50.46775803670664
1019.1477,38.97579026630331
1021.1392,32.376836200607386
1023.1299,17.62081481300993
1025.12,23.707644753133877
1027.1093,30.687244494394804
1029.0979,56.25953227313187
1031.0859,62.874426018812414
1033.0731,57.63184309830797
1035.0596,61.58170024974697
1037.0454,51.3239136349398
1039.0304,48.608398799879865
1041.0148,34.435070777321926
1042.9985,23.553844113936634
1044.9814,14.064633012044283
1046.9636,8.417351438427431
1048.9452,16.361913219222515
1050.926,24.448232096392985
1052.9061,44.776221648283695
1054.8855,47.095795208757636
1056.8642,31.90686566391571
1058.8421,36.75934542890184
1060.8194,47.5531465997916
1062.7959,42.78818090506786
1064.7717,43.01435959768207
1066.7469,36.88159350270496
1068.7213,50.9897930150637
1070.695,67.2388681608702
1072.6679,85.77872845633908
1074.6402,96.60928274529681
1076.6117,87.3304390137829
1078.5826,77.64210428174488
1080.5527,45.74418469582599
1082.5221,23.43658562624887
1084.4908,19.869211985794664
1086.4587,6.741968452879632
1088.426,-4.195240492771859
1090.3925,-4.142510438854629
1092.3584,14.300063068889699
1094.3235,14.732384526144415
1096.2879,28.80435828559314
1098.2515,36.96588855259597
1100.2145,59.91687924447035
1102.1767,94.45723390887497
1104.1382,129.93685549430018
1106.099,157.60564600466466
1108.0591,177.86350614451885
1110.0185,208.16033504235747
1111.9771,239.29603004803994
1113.9351,274.0704864298243
1115.8923,316.33359706300746
1117.8488,335.83525208218293
1119.8045,284.5253384586076
1121.7596,238.50373980518702
1123.7139,166.4703368895738
1125.6675,127.92500809438297
1127.6204,138.66763013752654
1129.5726,138.49807845766713
1131.524,141.4162271067912
1133.4748,106.57194875190487
1135.4248,79.36511464585203
1137.3741,47.14559497575726
1139.3226,28.363259135094154
1141.2705,32.7179760458813
1143.2176,43.259614346504804
1145.164,45.08804234817126
1147.1097,41.35312792949196
1149.0546,26.45473851819702
1150.9989,18.192741128485977
1152.9424,3.51700251001148
1154.8852,-5.022610769501284
1156.8272,-8.92623217749599
1158.7686,-11.943945005535738
1160.7092,-4.32574337212418
1162.6491,-11.72150207575578
1164.5883,4.418947299251727
1166.5267,16.59589026638571
1168.4644,36.35961229494444
1170.4014,53.16039868826806
1172.3377,79.79853438610076
1174.2732,125.2243037965826
1176.2081,183.18799052986935
1178.1421,252.38987694387322
1180.0755,339.3302435646274
1182.0082,379.30936839426636
1183.9401,353.1775260416223
1185.8713,285.93498732243404
1187.8017,196.7820195206665
1189.7315,139.56888706093468
1191.6605,76.44585240003391
1193.5888,64.81317659907131
1195.5163,40.721119954695496
1197.4432,25.669942115423737
1199.3693,18.259902322562652
1201.2947,9.091259560718981
1203.2193,1.064272631901531
1205.1432,-1.3707997527938005
1207.0664,-1.8136988929135214
1208.9889,1.735847606285347
1210.9106,8.028130258396459
1212.8316,2.513439559655467
1214.7519,9.992065926017176
1216.6715,24.1142997483023
1218.5903,32.23043131741133
1220.5084,43.64075068310183
1222.4257,51.89554757282747
1224.3424,54.945111277634965
1226.2583,68.93973056961545
1228.1735,99.62969367140965
1230.0879,118.46528811626172
1232.0016,151.1468004411189
1233.9146,169.42451599827575
1235.8269,186.99871862855923
1237.7384,188.9196904785523
1239.6492,178.38771182485095
1241.5592,193.1030610548546
1243.4686,240.8160147720863
1245.3772,289.42684764903834
1247.285,349.73583195004426
1249.1922,394.29323704516923
1251.0986,444.8493288071212
1253.0042,492.00436916567696
1254.9092,551.0086156021205
1256.8134,597.1123206776925
1258.7169,641.3157314435484
1260.6196,659.4190889797201
1262.5216,659.4226279530832
1264.4229,635.5765764363227
1266.3234,633.4811559078973
1268.2232,596.3865814905012
1270.1223,564.4930619720162
1272.0207,542.70080017646
1273.9183,531.1099932829193
1275.8151,542.4208330434728
1277.7113,575.8335058991009
1279.6067,635.698192866575
1281.5014,723.2650692043321
1283.3953,834.6843038138279
1285.2885,961.3560583638671
1287.181,1026.6804861764122
1289.0727,1048.4077309598638
1290.9637,1021.5879261558202
1292.854,968.9711947218004
1294.7435,901.1576493994461
1296.6323,830.0973932406863
1298.5204,793.9905202858738
1300.4077,745.0371162743882
1302.2943,702.9372590057033
1304.1802,687.9410188289227
1306.0653,670.3484590637772
1307.9497,655.3596361505876
1309.8333,622.6745998261911
1311.7162,594.3933932738288
1313.5984,589.0660534499958
1315.4798,554.4426113672542
1317.3605,561.923092147505
1319.2405,556.8575153682244
1321.1197,542.1458949876572
1322.9982,497.73823939547424
1324.876,450.984551559887
1326.753,390.03482947172483
1328.6293,340.78906661197243
1330.5048,297.7972525612663
1332.3796,241.509373492353
1334.2537,208.82541260000687
1336.127,193.19535066390893
1337.9996,178.16916637548638
1339.8714,159.44683649421324
1341.7426,154.77833599787232
1343.6129,151.51363826977808
1345.4826,140.15271514546248
1347.3515,133.49553694532142
1349.2196,137.14207258822444
1351.087,125.7922896580859
1352.9537,121.29615436739982
1354.8197,123.10363167073717
1356.6849,137.96468530970822
1358.5493,146.72927779488668
1360.4131,179.24737025720003
1362.276,192.31892236028295
1364.1383,215.84389197529674
1365.9998,219.67223505021343
1367.8606,219.15390537456653
1369.7206,202.28885454116755
1371.5799,201.8270319512892
1373.4384,204.0683849833157
1375.2962,183.1628589973617
1377.1533,149.1603973128581
1379.0096,120.06094141760752
1380.8652,102.51443130780945
1382.7201,76.62080577905385
1384.5742,62.28000260178703
1386.4275,51.74195878024739
1388.2802,53.70661069587368
1390.132,42.723894212685536
1391.9832,42.14374465763649
1393.8336,35.71609693044138
1395.6832,32.99088550937768
1397.5322,18.218044515562042
1399.3803,18.04750774020249
1401.2278,14.07920879232654
1403.0745,9.463081100487102
1404.9204,1.7990579524446275
1406.7656,3.087072541329121
1408.6101,-4.6229419577201725
1410.4538,0.1189475995660132
1412.2968,-3.387279459353408
1414.139,6.608355004693863
1415.9805,21.155862969801433
1417.8213,16.005256347979753
1419.6613,30.15654683968114
1421.5006,57.95974598530495
1423.3391,74.36486502368598
1425.1769,98.17191461406185
1427.0139,149.53090467202162
1428.8502,208.94184413143591
1430.6858,250.50474043086604
1432.5206,269.9695989194556
1434.3547,266.33642244130067
1436.188,250.20521114080213
1438.0206,236.92596249899657
1439.8524,245.04867149486904
1441.6835,233.4233307381446
1443.5139,238.29993038806276
1445.3435,253.3284582696291
1447.1724,249.7088998248504
1449.0005,245.29123796244915
1450.8279,236.27545309405917
1452.6545,251.31152317840207
1454.4804,248.949423811445
1456.3056,240.88912807603992
1458.13,224.88060656554512
1459.9536,217.82382746442727
1461.7766,199.46875670834754
1463.5987,170.5653580547288
1465.4202,147.7635932663066
1467.2409,127.56342240016318
1469.0608,107.66480403574496
1470.88,84.16769547686408
1472.6984,65.57205295068553
1474.5161,54.62783184269722
1476.3331,51.684986882666635
1478.1493,49.393472254083235
1479.9648,53.2532416235868
1481.7795,40.56424816388261
1483.5935,51.826444515143805
1485.4067,45.589782911901295
1487.2192,53.854215070421674
1489.031,50.8196922510744
1490.842,52.63616517568647
1492.6522,51.65358405788851
1494.4618,54.42189858494987
1496.2705,54.69105792760365
1498.0785,49.16101071236477
1499.8858,42.13170501883741
1501.6924,42.153088435015775
1503.4981,35.325108127577266
1505.3032,35.49771084166866
1507.1075,41.27084296918588
1508.911,29.444450547048405
1510.7138,29.26847919946738
1512.5159,25.39287425620961
1514.3172,27.667580754357232
1516.1178,22.64254347706367
1517.9176,22.01770693080681
1519.7166,19.643015395639395
1521.515,15.86841293143732
1523.3126,15.943843401646461
1525.1094,2.0192505110287584
1526.9055,8.344577804907885
1528.7008,4.369768808415188
1530.4954,6.944766963236361
1532.2893,12.619515667359622
1534.0824,1.743958249325658
1535.8747,10.668037911480212
1537.6663,5.541697838729704
1539.4572,9.714881109300052
1541.2473,17.887530746000493
1543.0367,13.009589674491906
1544.8253,18.68100064155982
1546.6132,15.601706263894243
1548.4003,24.821648971375396
1550.1867,32.49077103786635
1551.9723,38.00901448901425
1553.7572,46.52632102555833
1555.5414,57.14263196814812
1557.3247,79.20788817217004
1559.1074,96.22202992158441
1560.8893,121.9849967082726
1562.6705,146.29672706189615
1564.4509,163.2571582922668
1566.2305,167.16622624622931
1568.0094,174.9238651380569
1569.7876,160.08000751036042
1571.565,161.83458415651307
1573.3417,166.88752426908752
1575.1176,169.33875542231107
1576.8928,185.03820352153616
1578.6672,193.6357927787277
1580.4409,211.63144555546847
1582.2138,235.07508227698406
1583.986,251.31662125218543
1585.7575,278.6559784392332
1587.5282,296.2430672831218
1589.2981,316.12779844228623
1591.0673,327.21007961273074
1592.8358,323.5898153291818
1594.6035,321.4669068542653
1596.3704,328.74125221470877
1598.1366,310.61274622257116
1599.9021,300.08128040249886
1601.6668,278.5467431730112
1603.4308,282.8590199518145
1605.194,290.06799337114853
1606.9564,318.6735432346626
1608.7182,341.3755464453263
1610.4791,398.9738767193742
1612.2394,446.2684043592852
1613.9988,496.55899567780017
1615.7576,533.3455125249754
1617.5156,548.5278117852783
1619.2728,519.9057450097205
1621.0293,472.52915826403614
1622.785,407.547892414902
1624.54,344.8617836037031
1626.2942,284.7206638963465
1628.0477,228.67436191012075
1629.8005,189.77270341510842
1631.5525,155.86551189464853
1633.3037,126.60260893435316
1635.0542,107.83381456117928
1636.804,93.2589475360578
1638.553,78.32782554158155
1640.3013,68.04026532775435
1642.0488,56.746082861301716
1643.7955,54.94509342854667
1645.5416,45.987111748351936
1647.2868,46.12195199012882
1649.0313,43.24942786341791
1650.7751,40.719352616540164
1652.5181,36.23153906532269
1654.2604,42.73579961839886
1656.0019,44.781946322087094
1657.7427,56.31979079534801
1659.4828,68.34914420932262
1661.222,85.71981717195445
1662.9606,111.13161960769571
1664.6984,110.33436058380056
1666.4354,121.22784805620705
1668.1717,100.41188887750997
1669.9072,80.08628868802566
1671.642,64.95085212395196
1673.3761,41.05538302062382
1675.1094,33.699684563868004
1676.8419,18.583559528957352
1678.5737,17.9068103541683
1680.3048,10.119239291941568
1682.0351,6.720648415649862
1683.7646,3.7608396974736706
1685.4934,2.1896150423869756
1687.2215,5.956776317755526
1688.9488,1.0121253690490164
1690.6754,-0.194536017830643
1692.4012,5.3865939328973695
1694.1263,1.4553189404286115
1695.8506,0.8114426700927595
1697.5742,-3.0452312273334314
1699.297,-1.1148991091874336
1701.0191,2.702273089052966
1702.7404,-6.743869430248026
1704.461,-0.8034814917487836
1706.1808,-2.0266505488520465
1707.8999,0.686543971819134
1709.6182,-3.8639571101193155
1711.3358,-1.0282129819167096
1713.0527,-1.3562442298909048
1714.7688,-5.8480611685123165
1716.4841,3.846339436628597
1718.1987,-2.4729807579276155
1719.9126,5.1940398658962295
1721.6257,4.847487631254893
1723.338,2.487448809362917
1725.0496,7.614009622960026
1726.7605,1.3772562699116406
1728.4706,8.77727487194312
1730.18,2.814151537007376
1731.8886,6.087972285284792
1733.5964,1.998823108814122
1735.3036,4.246789938754546
1737.0099,3.231958686277153
1738.7156,9.254415220085065
1740.4204,11.014245376562087
1742.1246,13.211534899547843
1743.8279,11.596369422739627
1745.5306,10.468834447719587
1747.2325,9.929015360106064
1748.9336,19.026997440829206
1750.634,12.91286587152905
1752.3336,19.18670564357575
1754.0325,14.648601619210979
1755.7307,18.948638468809293
1757.4281,19.686900716259487
1759.1247,16.56347269596415
1760.8206,18.678438545456714
1762.5158,16.23188223663601
1764.2102,18.32388755461659
1765.9039,21.254538122194248
1767.5968,23.773917378926058
1769.289,22.9821085518237
1770.9804,18.979194630159895
1772.6711,25.01525837338616
1774.361,21.790382351162265
1776.0502,22.604648882995463
1777.7386,21.05814007048926
1779.4263,21.550937789200646
1781.1132,24.833123704105418
1782.7994,19.904779264670026
1784.4849,26.915985672029564
1786.1696,22.466823928271623
1787.8535,27.907374766323898
1789.5367,19.837718694445925
1791.2192,26.507935941823575
1792.9009,25.868106539265625
1794.5818,26.918310252501442
1796.2621,28.00862658857949
1797.9415,28.839134785365303
1799.6202,27.55991380063827
1801.2982,26.571042303786385
1802.9755,26.02259868859872
1804.6519,21.614661083153862
1806.3277,25.79730735530464
1808.0027,28.97061515675736
1809.6769,27.5346618812454
1811.3504,27.0895246327961
1813.0231,27.735280240090276
1814.6951,30.07200526091347
1816.3664,26.59977597569855
1818.0369,27.76866836415843
1819.7067,26.678758140008284
1821.3757,28.430120739276788
1823.044,28.422831331204975
1824.7115,32.206964800732834
1826.3783,24.782595748572106
1828.0443,33.749798453365
1829.7096,28.35864694592786
1831.3741,29.909214919579085
1833.0379,33.50157578405063
1834.701,32.785802649982344
1836.3633,34.06196829299836
1838.0248,33.03014516086489
1839.6856,27.790405360728528
1841.3457,28.24282066943465
1843.005,32.73746258592453
1844.6636,29.57440232671135
1846.3214,32.85371078093371
1847.9785,35.57545854198628
1849.6349,37.439715874726716
1851.2904,32.99655268825816
1852.9453,31.746038517286678
1854.5994,35.63824256655295
1856.2528,31.17323372333729
1857.9054,35.501080518537634
1859.5572,31.621851171319662
1861.2083,31.93561354583838
1862.8587,36.19243519003038
1864.5084,32.49238333247615
1866.1572,36.73552483983198
1867.8054,32.67192625383032
1869.4528,37.101653748848406
1871.0994,29.274773172544258
1872.7453,34.39135000155943
1874.3905,34.151449419787696
1876.0349,36.155136267209514
1877.6786,33.85247504229082
1879.3215,37.093529881946324
1880.9637,35.578364584565975
1882.6051,35.507042577604466
1884.2458,35.179626932733015
1885.8858,35.896180366552386
1887.525,39.35676524386719
1889.1634,35.81144357052031
1890.8011,30.36027695878704
1892.4381,33.80332666282838
1894.0743,34.04065363320264
1895.7098,37.27231848243487
1897.3446,37.29838148264379
1898.9786,39.21890253322495
1900.6118,37.73394116059018
1902.2443,33.09355649896224
1903.8761,35.24780730522467
1905.5071,34.24675200532546
1907.1374,38.94044867273459
1908.7669,36.12895503845455
1910.3957,33.412328444083485
1912.0237,37.840625869929994
1913.651,34.363903962179435
1915.2776,35.18221898861091
1916.9034,35.795626873364625
1918.5285,29.10418318875861
1920.1528,33.20794314915473
1921.7764,33.75696167787311
1923.3992,32.351293366154465
1925.0213,32.19099246767004
1926.6427,33.876112912578165
1928.2633,33.00670830912735
1929.8832,32.332831926804985
1931.5023,31.50453670503147
1933.1207,30.371875259898943
1934.7383,30.63489989245423
1936.3552,31.44366260002532
1937.9714,32.998215073591325
1939.5868,35.3486086896947
1941.2015,34.4948944948959
1942.8154,31.187123182269175
1944.4286,30.325345099940066
1946.041,28.609610284162827
1947.6528,34.639968467938374
1949.2637,31.26646909817157
1950.8739,27.939161275367667
1952.4834,31.758093787367187
1954.0921,34.423315142619174
1955.7001,31.284873531991735
1957.3074,34.342816802119984
1958.9139,27.247192486790254
1960.5197,30.098047776360843
1962.1247,26.74542958871811
1963.729,31.139384540767978
1965.3325,29.229958981962255
1966.9353,26.217198950358764
1968.5374,28.851150191715917
1970.1387,28.481858189620155
1971.7393,27.709368139146434
1973.3392,28.333724950551186
1974.9383,33.75497325699713
1976.5366,28.373157408309837
1978.1342,32.18832141676509
1979.7311,21.90050901090723
1981.3273,31.459763597397426
1982.9227,30.566128363891764
1984.5173,28.369646183448864
1986.1112,26.620359623465973
1987.7044,25.16831096764406
1989.2968,27.263542233480464
1990.8885,26.456095186789526
1992.4795,31.44601132075023
1994.0697,27.68333186398057
1995.6592,25.168097730638536
1997.2479,25.550349558048737
1998.8359,26.03012773185496
2000.4232,28.257472382197477
2002.0097,31.63242337891529
2003.5955,27.25502030927271
2005.1805,28.325302444209854
2006.7648,28.343308782116637
2008.3484,27.05907803813014
2009.9312,26.37264864395435
2011.5133,23.63405876070253
2013.0946,29.49334628576156
2014.6752,27.150548880177794
2016.2551,24.605703910064122
2017.8342,29.808848470027954
2019.4126,26.560019408619723
2020.9902,26.709253276301467
2022.5672,24.706586357934967
2024.1433,19.90205467128962
2025.7188,26.795693987069058
2027.2935,23.18753987695642
2028.8674,27.027627644677978
2030.4406,27.96599236208462
2032.0131,27.452668830750994
2033.5849,23.037691572591953
2035.1559,24.921094834995657
2036.7261,26.00291263497337
2038.2957,24.43317874032536
2039.8645,24.161926658822907
2041.4325,25.089189653905507
2042.9998,30.265000747393458
2044.5664,25.789392710215182
2046.1323,31.36239801064923
2047.6974,25.8340488590801
2049.2617,22.954377152268506
2050.8254,26.373414528634726
2052.3883,25.4911923970553
2053.9504,26.657741902672683
2055.5118,27.173093935717503
2057.0725,26.08727911984296
2058.6325,26.100327806971322
2060.1917,25.41227008815227
2061.7502,28.323135793432087
2063.3079,27.38295449873455
2064.8649,24.691755496751924
2066.4212,23.199567806347147
2067.9767,29.906420199465543
2069.5315,23.762341216056896
2071.0856,27.317359097006772
2072.6389,21.02150184557739
2074.1915,25.774797191857473
2075.7433,22.127272655720688
2077.2945,26.678955499292925
2078.8448,23.979872763427366
2080.3945,26.08005122218772
2081.9434,24.629517409839053
2083.4916,27.928297599845948
2085.039,22.77641781937784
2086.5857,24.473903816321226
2088.1317,25.570781110798464
2089.677,26.017074978192937
2091.2215,25.4628104381803
2092.7652,27.108012250265432
2094.3083,23.952704919325328
2095.8506,25.59691267915676
2097.3921,26.840659524029604
2098.933,25.63396919224465
2100.4731,26.476865153696167
2102.0124,27.46937062193875
2103.5511,26.861508545758383
2105.089,25.353301599247402
2106.6261,27.044772187883055
2108.1626,24.135942463609652
2109.6983,27.026834307923835
2111.2332,24.917469360962897
2112.7675,22.507868992595775
2114.301,22.648054323516817
2115.8337,26.938046249341667
2117.3657,24.627865439205507
2118.897,26.717532292863055
2120.4276,24.307066963790447
2121.9575,22.696489338288544
2123.4866,24.635819059587618
2125.0149,27.275075543953093
2126.5426,27.114277961292245
2128.0695,23.253445208761676
2129.5956,24.542595912375234
2131.1211,27.231748465612355
2132.6458,21.070921016526583
2134.1698,23.760131440853996
2135.693,28.099397403621552
2137.2155,27.93873633225492
2138.7373,26.228165373185888
2140.2584,18.41770139345897
2141.7787,27.15736099783699
2143.2983,20.347160606905916
2144.8171,26.43711636967805
2146.3353,21.27724423169417
2147.8527,18.467559874123936
2149.3693,24.25807876536463
2150.8853,24.94881618913793
2152.4005,21.43978718658481
2153.9149,21.431006549358145
2155.4287,24.222488854712964
2156.9417,25.364248465594386
2158.454,24.356299502722592
2159.9655,24.3486558331755
2161.4764,21.34133108046798
2162.9865,23.284338624628518
2164.4958,26.377691632272217
2166.0045,25.671403037170904
2167.5124,20.415485509319524
2169.0195,17.759951461999066
2170.526,24.554813104335636
2172.0317,22.6000824678559
2173.5367,20.395771338538466
2175.0409,21.64189127636115
2176.5445,23.688453637344153
2178.0473,23.63546956108877
2179.5494,22.13294995031187
2181.0507,25.780905471375647
2182.5513,18.179346569312898
2184.0512,21.778283431347447
2185.5504,18.52772606290965
2187.0488,21.477684251647105
2188.5465,18.428167599930248
2190.0435,21.329185495352675
2191.5397,23.330747141226396
2193.0353,23.932861527571575
2194.5301,19.63553741110094
2196.0241,21.288783309198664
2197.5175,23.99260754289358
2199.0101,20.84701822032676
2200.502,22.802023209713298
2201.9931,19.357630170798146
2203.4835,21.963846535306075
2204.9733,16.92067954138561
2206.4622,18.628136207546902
2207.9505,20.636223383093295
2209.438,21.794947731046918
2210.9248,18.754315708067665
2212.4109,15.714333552865966
2213.8962,17.125007316609185
2215.3809,20.286342893321432
2216.8648,21.798346005776736
2218.3479,21.511022173885806
2219.8304,17.37437669957582
2221.3121,19.63841466966376
2222.7931,17.30314099722287
2224.2733,13.368560398942236
2225.7529,15.3346774184796
2227.2317,16.951496465807125
2228.7098,16.819021797550278
2230.1872,16.937257500819555
2231.6638,16.756207494535317
2233.1397,16.975875528245467
2234.6149,17.346265183935827
2236.0894,13.91737987383354
2237.5632,15.039222836703075
2239.0362,16.661797172135138
2240.5085,13.23510582932829
2241.9801,16.30915159086318
2243.4509,14.983937106969378
2244.921,14.059464864785028
2246.3904,14.835737201608936
2247.8591,14.812756314145275
2249.3271,14.390524250740953
2250.7943,17.319042911615284
2252.2608,15.698314053082356
2253.7266,11.07833925826587
2255.1917,13.759119953306424
2256.656,14.090657453561292
2258.1197,11.57295293679654
2259.5826,15.506007439871695
2261.0447,17.33982188391684
2262.5062,8.774397035001996
2263.9669,14.85973348579904
2265.4269,14.695831741235864
2266.8862,9.282692157643098
2268.3448,11.62031494439303
2269.8026,12.408700218031129
2271.2598,14.94784797889966
2272.7162,12.53775810325395
2274.1719,11.228430317870874
2275.6268,12.869864224149794
2277.0811,8.912059311205837
2278.5346,11.855014939455515
2279.9874,9.248730380194857
2281.4395,13.843204786169778
2282.8908,10.138437217638895
2284.3414,12.934426596428906
2285.7914,16.731171742982127
2287.2406,8.87867134839665
2288.689,8.226923936458903
2290.1368,13.675927942168698
2291.5838,12.625681718256573
2293.0302,11.476183480693905
2294.4758,16.127431319195225
2295.9206,7.129423208713234
2297.3648,11.532156962926365
2298.8082,11.585630324218883
2300.251,13.239840919653531
2301.693,8.894786260436788
2303.1343,8.300463725376716
2304.5748,12.956870604333574
2306.0147,10.464004104163024
2307.4538,9.67186130215211
2308.8922,8.580439170947855
2310.3299,11.639734586478767
2311.7669,12.549744338868962
2313.2031,12.960465101845287
2314.6387,11.72189342363724
2316.0735,8.584025722869725
2317.5076,8.396858300948722
2318.941,9.41038737343996
2320.3737,7.424609071940637
2321.8056,11.389519433944159
2323.2369,7.705114422697818
2324.6674,10.521389887553866
2326.0972,17.788341600813382
2327.5263,17.405965229563677
2328.9547,19.62425626300862
2330.3823,17.993210016292522
2331.8092,16.012821608317196
2333.2355,12.13308597805245
2334.661,10.053997904339909
2336.0858,12.525552044690457
2337.5098,8.797742956075012
2338.9332,9.370565070208826
2340.3558,10.494012730829837
2341.7778,9.218080187970344
2343.199,8.242761586722565
2344.6195,4.718050979997869
2346.0393,7.6939423382800385
2347.4583,7.020429584872431
2348.8767,8.49750656613898
2350.2943,12.325167058239387
2351.7113,9.153404752358327
2353.1275,11.532213216428943
2354.543,11.761585926850259
2355.9578,6.591516244699292
2357.3718,7.0219974134371625
2358.7852,8.253022610609904
2360.1978,9.984584943543481
2361.6098,10.06667743703376
2363.021,6.899293016030654
2364.4315,6.782424504817328
2365.8413,8.56606465868397
2367.2504,6.550206165096498
2368.6587,7.5348416258603095
2370.0664,10.019963577278816
2371.4733,8.505564480307058
2372.8795,7.44163669570041
2374.285,2.9781724991585037
2375.6899,8.815164091964661
2377.0939,4.502603645620596
2378.4973,4.190483243476393
2379.9,8.828794923856151
2381.3019,10.46753068317922
2382.7032,8.906682429577117
2384.1037,7.746241966506119
2385.5035,4.48620100835565
2386.9027,7.676551192052784
2388.3011,6.817284109662637
2389.6987,9.358391276484824
2391.0957,9.949864139646223
2392.492,5.491694052689738
2393.8876,5.58387226965975
2395.2824,4.726389989683696
2396.6765,7.269238356050394
2398.07,6.362408464784721
2399.4627,5.305891339219272
2400.8547,3.1996779390625676
2402.246,6.6437591709642305
2403.6366,6.488125909577164
2405.0265,6.3827689631167175
2406.4156,6.677679074917023
2407.8041,6.172846924484531
2409.1918,4.568263124548963
2410.5789,7.363918226111537
2411.9652,6.359802734490884
2413.3508,5.655907081366436
2414.7358,6.30222163481973
2416.12,6.448736706373211
2417.5035,4.245442544527137
2418.8863,4.142329333294427
2420.2684,5.039387214233614
2421.6497,6.23660628747993
2423.0304,7.783976602774828
2424.4104,1.5814881474937152
2425.7896,1.9291308311722446
2427.1682,3.2768945475311853
2428.546,2.4247691710000367
2429.9232,3.8227445432394234
2431.2996,5.870810481662289
2432.6753,4.168956765454169
2434.0503,3.4671731150926064
2435.4246,2.0154492093655705
2436.7982,4.063774692389316
2438.1711,3.812139188125684
2439.5433,3.9105322798988027
2440.9148,3.0589435129114264
2442.2856,6.457362393261022
2443.6557,3.405778396455645
2445.025,5.254180933429737
2446.3937,3.3525593810600895
2447.7617,2.450903063681622
2449.1289,5.199201272103792
2450.4955,-0.4025567273730246
2451.8613,3.195618279559639
2453.2265,7.893719528751845
2454.5909,3.0917402240974923
2455.9546,2.689673490553332
2457.3177,3.337512422158696
2458.68,3.53525008605628
2460.0416,1.5828795160136195
2461.4025,8.580393710445776
2462.7627,3.7777856519390696
2464.1222,5.175048237275945
2465.4811,2.7721743254609663
2466.8392,7.369156723748318
2468.1966,0.8659882116704267
2469.5533,5.262661495068251
2470.9093,5.059169271122855
2472.2645,4.005504184388755
2473.6191,4.301658828828806
2474.973,1.1476257583508414
2476.3262,4.643397483846144
2477.6787,4.238966504729753
2479.0305,3.484325273982833
2480.3816,4.129466202196902
2481.7319,5.074381665120249
2483.0816,3.969063997206554
2484.4306,6.1635054821656965
2485.7789,5.9076983640169445
2487.1264,4.401634825144541
2488.4733,5.945306988855798
2489.8195,0.2887069344416773
2491.165,7.681826681740112
2492.5097,6.424658247701963
2493.8538,7.4171935724598725
2495.1972,3.359424531899883
2496.5398,4.651342927736188
2497.8818,8.492940528088724
2499.2231,6.7842090545640374
2500.5637,5.025140143839295
2501.9035,2.8157253647496177
2503.2427,-0.9440437641212682
2504.5812,3.2458242476531822
2505.919,3.785330321496666
2507.256,5.974475346374703
2508.5924,5.86326017339951
2509.9281,8.051685593938565
2511.2631,2.7897523407267784
2512.5974,2.3274610659822628
2513.9309,6.864812394025634
2515.2638,5.20180692590295
2516.596,6.688445194012175
2517.9275,4.524727678733228
2519.2583,2.5606547935616106
2520.5884,3.946226906745551
2521.9178,5.9314443609267755
2523.2465,5.016307459284718
2524.5745,3.150816445684427
2525.9018,7.784971513827941
2527.2284,4.8187728259091145
2528.5543,6.852220466272122
2529.8796,7.085314471073417
2531.2041,6.918054807947257
2532.5279,7.150441373674788
2533.851,4.682473995856611
2535.1735,4.3141524305889405
2536.4952,4.445476387143266
2537.8163,2.526445531649614
2539.1366,7.457059485783262
2540.4562,4.287317845955059
2541.7752,7.567220134005289
2543.0935,5.646765828901074
2544.411,5.125954333937337
2545.7279,8.104784995941358
2547.0441,4.183257110480845
2548.3596,3.8113698920757315
2549.6744,3.0391225134133677
2550.9885,2.766514109067465
2552.3019,6.343543783220532
2553.6146,7.320210612389957
2554.9266,4.196513609657735
2556.2379,4.172451714903737
2557.5485,5.99802382604274
2558.8585,2.923228799264983
2560.1677,6.398065430780477
2561.4762,5.0225324875669415
2562.7841,5.196628672621493
2564.0913,8.22035263871588
2565.3977,7.993702986655627
2566.7035,4.216678235042714
2568.0086,8.33927682254216
2569.313,3.511497145652207
2570.6167,4.333337517478341
2571.9197,7.454796216011154
2573.222,4.375871475907822
2574.5236,3.896561457277599
2575.8246,8.066864276471051
2577.1248,6.2867780108731495
2578.4244,3.4063006572002408
2579.7232,3.6754301493009933
2581.0214,5.844164386961083
2582.3189,10.312501233211897
2583.6157,6.830438492643189
2584.9118,4.447973866719735
2586.2072,7.765104988601898
2587.5019,2.9318294469703545
2588.7959,2.448144752854759
2590.0893,4.764048387966454
2591.3819,5.129537809535407
2592.6739,8.194610427151076
2593.9652,9.559263599107574
2595.2557,9.773494601752887
2596.5456,5.737300615842422
2597.8348,2.800678724396654
2599.1234,9.063625953063053
2600.4112,6.926139299482372
2601.6983,9.738215670659109
2602.9848,6.249851904336374
2604.2705,7.511044740875143
2605.5556,4.571790858137895
2606.84,12.5820868588767
2608.1237,10.441929300125729
2609.4067,5.7513146130983515
2610.689,5.860239124588624
2611.9707,6.568699103877485
2613.2516,7.176690761643485
2614.5319,7.5842102428782425
2615.8115,4.691253620806492
2617.0903,8.24781689281091
2618.3685,7.053896009361658
2619.6461,7.9094868384507535
2620.9229,3.7645851775312664
2622.199,7.9191867449614435
2623.4745,6.473287221453695
2624.7493,6.226882208528572
2626.0234,4.229967242973814
2627.2968,6.182537799308335
2628.5695,5.334589309751422
2629.8415,10.086117144696999
2631.1128,5.737116621193145
2632.3835,5.937582955426748
2633.6535,7.037511306213553
2634.9228,5.236896772993518
2636.1914,3.2857343848314997
2637.4593,5.9340191184234
2638.7265,5.331745917607812
2639.9931,6.778909666883138
2641.259,3.1755051974303683
2642.5242,6.42152727264142
2643.7887,5.516970624153153
2645.0525,9.561829919387215
2646.3156,6.256099770595561
2647.5781,4.699774694411886
2648.8398,6.492849144908895
2650.1009,5.485317529161577
2651.3613,3.377174189316456
2652.6211,6.818413412666899
2653.8801,4.7590294527345804
2655.1385,3.4490164948570197
2656.3961,7.238368676781498
2657.6531,3.3270801017651337
2658.9094,3.4651448006813723
2660.1651,4.852556771132889
2661.42,8.039309976070932
2662.6743,7.225398329921205
2663.9279,6.4608156667163215
2665.1808,4.395555748234962
2666.433,8.129612271647616
2667.6846,6.562978890169234
2668.9354,8.645649175718695
2670.1856,7.027616634585087
2671.4351,5.758874686601011
2672.6839,6.589416681322959
2673.9321,10.169235910718648
2675.1795,4.448325600861651
2676.4263,9.176678876133202
2677.6724,9.204288816431294
2678.9179,8.331148409887128
2680.1626,7.557250552589046
2681.4067,9.08258805731392
2682.6501,4.907153661266122
2683.8928,6.930940010824187
2685.1348,6.403939703295087
2686.3761,4.4761452666764825
2687.6168,5.447549164926606
2688.8568,5.018143817242283
2690.0961,10.137921588344852
2691.3348,7.7568747927742265
2692.5727,6.874995643691108
2693.81,7.292276276687453
2695.0466,3.5087087586052803
2696.2826,4.274285083363843
2697.5178,2.5389972097953546
2698.7524,6.80283705398918
2699.9863,6.165796506644725
2701.2195,8.827867390433042
2702.452,6.939041466367222
2703.6839,5.99931040718171
2704.9151,6.108665816220558
2706.1456,8.117099236834719
2707.3755,5.274602151288512
2708.6046,8.381165960675247
2709.8331,5.786782013342233
2711.0609,7.741441573825128
2712.2881,9.29513584879178
2713.5145,6.597855967495619
2714.7403,9.249592966238758
2715.9654,8.90033781534472
2717.1899,10.750081392641157
2718.4136,13.998814486952348
2719.6367,10.646527779601776
2720.8591,11.993211811924787
2722.0809,14.188857018791474
2723.3019,9.383453715139844
2724.5223,14.776992074019326
2725.7421,13.369462174644845
2726.9611,16.210853948461406
2728.1795,13.851157193219422
2729.3972,10.290361544560788
2730.6142,14.278456499615835
2731.8306,12.815431452611303
2733.0462,10.351275654989362
2734.2612,9.485978230037922
2735.4756,11.869528197532127
2736.6892,7.4019144823873795
2737.9022,9.93312589082381
2739.1145,4.963151155042443
2740.3262,6.19197890791304
2741.5372,5.269597732673866
2742.7475,5.045996150643411
2743.9571,7.221162630444191
2745.1661,3.945085590238808
2746.3744,5.917753375978197
2747.582,5.439154294162488
2748.7889,6.309276592114287
2749.9952,2.4281084627646408
2751.2008,3.4456380359518626
2752.4057,0.5618534172331664
2753.61,4.376742677709419
2754.8136,3.2902938828629686
2756.0165,7.552495054408745
2757.2188,0.8133341811587762
2758.4204,1.97279917640018
2759.6213,6.230877945286732
2760.8215,4.937558373244226
2762.0211,7.592828283389707
2763.22,3.4466754494646423
2764.4182,1.9490875692822307
2765.6158,4.150052306188922
2766.8127,1.9995573040402874
2768.009,3.497590165191415
2769.2045,4.494138472001804
2770.3994,3.0891897718550823
2771.5936,0.08273156719348052
2772.7872,4.374751329567356
2773.9801,-0.08476347030021714
2775.1723,5.504174594566312
2776.3639,0.6915537979295507
2777.5548,1.8273623585103813
2778.745,1.711588488114149
2779.9346,4.244220380272608
2781.1235,2.275246211401619
2782.3117,0.3046541154748752
2783.4992,2.1324322037136056
2784.6861,2.108568584292513
2785.8723,1.9830513440620052
2787.0579,1.9558685487868033
2788.2428,3.7270082444011408
2789.427,3.3464584572805727
2790.6106,-0.7357928234694313
2791.7935,1.1302423577920493
2792.9757,4.244559307276212
2794.1573,-2.292846680108145
2795.3382,0.7680196481022072
2796.5184,-1.0728235500912078
2797.698,-0.7653581243670544
2798.8769,-1.5095552068967173
2800.0551,0.5946217160760661
2801.2327,3.6472242387640392
2802.4096,1.448303949433761
2803.5859,3.6979123998795345
2804.7615,4.8961011274126385
2805.9364,2.9929216323652597
2807.1106,7.188425366108575
2808.2842,4.732663750084555
2809.4572,3.575688133850946
2810.6294,8.017549819638859
2811.801,8.608300073922543
2812.972,6.8479900830007985
2814.1423,8.136670947089431
2815.3119,7.724393697924345
2816.4808,12.261209285874745
2817.6491,12.697168584065935
2818.8167,14.032322343011106
2819.9837,17.366721186251834
2821.15,15.950415597006426
2822.3157,23.783455884826022
2823.4807,26.015892199757623
2824.645,31.547774454013677
2825.8086,32.22915229964772
2826.9716,39.910075073235575
2828.134,41.34059178906157
2829.2957,47.92075106230928
2830.4567,48.25060109475639
2831.617,52.08018960897304
2832.7767,51.60956384502343
2833.9358,53.03877052216981
2835.0941,50.26785584357883
2836.2519,51.09686548202948
2837.4089,48.52584460762213
2838.5653,44.95483787948859
2839.7211,42.78388947150221
2840.8761,40.5130431079879
2842.0306,41.99234208543179
2843.1843,38.17182929518956
2844.3374,40.30154720869352
2845.4899,44.681537915657664
2846.6417,42.01184310278053
2847.7928,45.74250400994531
2848.9433,45.62356145691676
2850.0931,43.305055806034595
2851.2422,44.58702696340299
2852.3907,47.81951440207553
2853.5385,44.052557149235554
2854.6857,49.43619375387129
2855.8323,50.9704623244454
2856.9781,51.00540047505864
2858.1233,51.3910453101071
2859.2679,50.17743342393295
2860.4118,52.71460089696791
2861.555,56.45258330786935
2862.6976,59.14141570814866
2863.8395,58.83113258479145
2864.9808,62.621767833369134
2866.1214,61.46335476114186
2867.2614,60.30592604915206
2868.4007,63.09951376380868
2869.5393,65.64414936846141
2870.6773,63.73986369546478
2871.8146,62.68668692073188
2872.9513,65.18464858277719
2874.0874,63.53377759324828
2875.2227,72.23410221194632
2876.3574,68.03565006333464
2877.4915,66.5884480495356
2878.6249,71.34252239231503
2879.7577,71.14789864755436
2880.8898,74.80460165770971
2882.0212,75.41265555375834
2883.152,75.57208371863142
2884.2821,75.33290878113363
2885.4116,78.54515261434878
2886.5405,76.55883633803161
2887.6686,78.62398028648535
2888.7962,78.84060402842492
2889.923,78.5087263463254
2891.0493,79.3783652342559
2892.1748,78.94953790119823
2893.2997,74.6222607623506
2894.424,81.34654944341585
2895.5476,78.62241882387421
2896.6706,79.44988296974044
2897.7929,82.07895516080512
2898.9145,79.50964788236004
2900.0355,84.44197279890734
2901.1559,80.22594077985282
2902.2756,77.66156185018247
2903.3946,79.64884523262293
2904.513,78.78779937328521
2905.6308,83.47843192179192
2906.7479,79.47074973988761
2907.8643,81.26475885453257
2908.9801,77.36046449797962
2910.0953,80.40787108983398
2911.2098,80.50698227609621
2912.3236,77.05780089868824
2913.4368,74.76032899446216
2914.5494,80.76456782969201
2915.6613,75.37051792304864
2916.7725,72.77817898555716
2917.8831,71.93754997453759
2918.9931,73.64862911952811
2920.1024,72.11141393069143
2921.211,68.47590118170396
2922.319,68.79208692512799
2923.4264,69.35996652876683
2924.5331,68.27953467250292
2925.6391,66.20078534261907
2926.7445,66.72371184260268
2927.8493,65.24830681393345
2928.9534,72.52456223085383
2930.0569,68.25246941512333
2931.1597,68.13201896325575
2932.2619,71.86320078924027
2933.3634,66.9460041257459
2934.4643,69.18041748680963
2935.5645,71.86642871700839
2936.6641,74.85402496911499
2937.763,72.0431926772379
2938.8613,69.83391752694544
2939.959,73.57618448337396
2941.056,65.66997781332066
2942.1523,64.01528104782088
2943.248,60.462077061210266
2944.3431,57.11034808767162
2945.4375,51.110075756767
2946.5313,48.261241126955
2947.6244,50.51382474559344
2948.7169,42.067806677427754
2949.8087,42.77316648206511
2950.8999,38.179883298434646
2951.9904,32.13793583773387
2953.0803,30.297302429361427
2954.1696,30.35796108133663
2955.2582,25.01988949870581
2956.3462,25.533065082935654
2957.4335,22.647464985294
2958.5202,23.71306610171805
2959.6062,25.429845101670363
2960.6916,21.847778417482846
2961.7764,29.216842227188963
2962.8605,29.437012490344408
2963.9439,23.558264874336494
2965.0267,25.430574752182387
2966.1089,25.10391726131663
2967.1905,25.078267284868016
2968.2714,21.80359945492617
2969.3516,22.729888152798097
2970.4312,24.657107541754772
2971.5102,23.68523155776835
2972.5885,23.564233890239922
2973.6662,20.99408799171827
2974.7432,25.674767079109852
2975.8196,24.606244159380275
2976.8954,21.23849198274746
2977.9705,26.27148305336691
2979.045,27.605189663009227
2980.1188,26.589583840730203
2981.192,28.42463733953373
2982.2645,23.16032164652787
2983.3364,25.946607964574316
2984.4077,23.533467264931573
2985.4783,21.270870259392094
2986.5483,20.358787424413645
2987.6177,18.297189023745304
2988.6864,16.436045117548286
2989.7545,19.225325583011916
2990.8219,11.965000132965091
2991.8887,17.755038287983453
2992.9548,15.845409448992665
2994.0204,11.736082839368006
2995.0852,10.627027524030677
2996.1495,11.368212450541062
2997.2131,10.30960646018928
2998.276,11.401178280583345
2999.3383,4.692896536235203
3000.4,4.63472973764506
3001.4611,6.42664634838415
3002.5215,5.468614785676436
3003.5812,4.0606034024794155
3004.6404,-0.047419502935543534
3005.6989,3.994514327096894
3006.7567,3.736373623962894
3007.8139,3.2281270791034835
3008.8705,1.8197433465959634
3009.9264,1.0611910482363633
3010.9818,0.6024387876232957
3012.0364,4.043455157743459
3013.0905,0.8842087455591887
3014.1439,0.42466809759826774
3015.1966,4.464801751546403
3016.2487,2.5045782408426405
3017.3002,3.2939660542779983
3018.3511,3.68293365559774
3019.4013,2.321449475607462
3020.4509,0.8094819082834448
3021.4998,1.6969993243874733
3022.5481,-0.21602991341346822
3023.5958,0.32036254057761226
3024.6428,3.756147190196536
3025.6892,-0.9587054639244972
3026.735,2.2257750412852495
3027.7802,2.059568746364093
3028.8247,2.742655669592601
3029.8685,4.825015808655671
3030.9118,-1.39337086618837
3031.9544,4.587475567068676
3032.9963,4.567548950209929
3034.0376,2.3468430791437704
3035.0783,3.025351704103084
3036.1184,5.203068551852349
3037.1578,-1.2200126810974705
3038.1966,2.756101649733907
3039.2348,0.6814173767534442
3040.2723,2.2559403048070976
3041.3092,1.6296762319266573
3042.3455,2.5526309335845205
3043.3811,1.9748101689563313
3044.4161,4.04621967169143
3045.4505,1.8668651556910767
3046.4842,2.836752294394344
3047.5173,2.2558867425716524
3048.5498,4.274274126625913
3049.5816,2.2919200504011688
3050.6128,5.508830074998738
3051.6434,3.7250097386007415
3052.6734,3.2404645243010126
3053.7027,2.855199877943269
3054.7314,3.819221212966619
3055.7594,3.982533914258168
3056.7868,2.5951433285127994
3057.8136,6.157054762600074
3058.8398,8.768273497438134
3059.8653,4.678804752374575
3060.8902,5.488653659074261
3061.9145,2.7478253024140127
3062.9381,6.756324712384108
3063.9612,4.164156891496598
3064.9835,8.971326774700275
3066.0053,5.377839255302378
3067.0264,6.533699136896871
3068.0469,6.888911169299334
3069.0668,5.393480036988363
3070.086,4.697410355553451
3071.1046,6.500706686649304
3072.1226,6.903373544956512
3073.1399,7.505415380148628
3074.1567,6.356836572865461
3075.1727,3.857641428692677
3076.1882,6.707834189647581
3077.203,5.8574190591710735
3078.2173,7.056400173625709
3079.2308,3.154781610799864
3080.2438,5.952567377917907
3081.2561,0.6497614506563956
3082.2678,2.3963677451662146
3083.2789,3.392390171100633
3084.2893,5.737832614149253
3085.2991,1.5326989260777744
3086.3083,4.5769929012735755
3087.3169,6.020718318797053
3088.3248,3.513878911938672
3089.3321,4.25647835378172
3090.3388,2.8485202822706945
3091.3449,2.8400082927853116
3092.3503,1.9809459522200843
3093.3551,4.771336799069447
3094.3593,4.911184352018383
3095.3629,5.250492082038507
3096.3658,1.9392634109895948
3097.3681,1.8775017082265109
3098.3698,3.665210323711481
3099.3708,1.6523925886317237
3100.3713,4.639051797522358
3101.3711,3.825191228394571
3102.3702,4.910814112869037
3103.3688,4.245923644314518
3104.3667,1.5805229669916372
3105.364,3.2646151827017906
3106.3607,4.948203377441146
3107.3568,6.831290604559724
3108.3522,3.963879867925524
3109.347,1.1959741030936364
3110.3412,3.6775762059803654
3111.3348,4.5086890605422765
3112.3277,3.1393155139601783
3113.32,1.519458368327987
3114.3117,1.6491203943464674
3115.3028,4.22830434752181
3116.2932,4.607012966869002
3117.2831,2.185248949119991
3118.2723,3.6630149449366014
3119.2608,2.040313583128169
3120.2488,3.817147455873891
3121.2361,2.8935191349498224
3122.2229,2.219431153960551
3123.209,2.394886017575476
3124.1944,2.4698862082696884
3125.1793,5.094434184569421
3126.1635,4.818532380302049
3127.1471,2.842183178350605
3128.1301,3.5153889134127967
3129.1125,1.7881518917645094
3130.0942,2.510474384527745
3131.0753,2.332358644942987
3132.0558,2.6038069011459797
3133.0357,2.3248213579488857
3134.015,1.6454041941258009
3134.9936,0.7655575652026076
3135.9716,4.435283610251147
3136.949,4.704584460687686
3137.9258,0.7734622035756598
3138.902,2.191918878932656
3139.8775,3.409956519041642
3140.8524,5.177577134266408
3141.8267,4.2447827008711725
3142.8004,2.9615751433443904
3143.7735,2.727956343726693
3144.7459,-0.35607184555703597
3145.7178,2.509492400638524
3146.689,3.9246544646164248
3147.6596,1.989419703584801
3148.6295,2.3037934355052414
3149.5989,2.4677809584451422
3150.5676,2.331387547433968
3151.5357,4.44461845282337
3152.5032,1.2074789016511334
3153.4701,5.4699740765088505
3154.4364,0.5321091479133315
3155.402,4.143889231681649
3156.367,1.4553194383097825
3157.3315,6.966404836854828
3158.2952,0.9271504818206866
3159.2584,1.7875613580472116
3160.221,2.9976424411027542
3161.1829,2.1073986886800506
3162.1442,3.4668350284954164
3163.105,3.4759563671911815
3164.065,3.1347675767413294
3165.0245,3.2932734943602844
3165.9834,3.8514789259147966
3166.9416,4.509388644338887
3167.8993,4.867007384051783
3168.8563,1.1243398343788393
3169.8127,3.6313906359753267
3170.7684,1.9381644182531264
3171.7236,1.7946657743102112
3172.6782,5.450899277862913
3173.6321,3.8568694846809026
3174.5854,3.3625808960248658
3175.5381,4.668037974586789
3176.4902,1.7732451494328574
3177.4417,1.9782068029488715
3178.3926,2.632927299788183
3179.3428,3.0374109848220776
3180.2924,3.9416621765925686
3181.2415,3.8456851632675573
3182.1899,3.3994841935983287
3183.1377,6.453063477879317
3184.0848,2.856427192410113
3185.0314,4.55957944895968
3185.9773,1.8625243307327097
3186.9227,3.6652658753380973
3187.8674,3.167808101759499
3188.8115,3.5201549923279125
3189.755,2.672310497696258
3190.6979,4.124278533315903
3191.6402,1.8760629879151152
3192.5818,2.777667708979374
3193.5229,3.6790965252335317
3194.4633,4.730353237625762
3195.4031,3.081441610313274
3196.3423,2.932365360149749
3197.2809,3.433128173174453
3198.2189,2.7337337061029983
3199.1563,5.834185581319717
3200.0931,3.3844873938716025
3201.0292,6.2346426804638
3201.9648,4.684654943956577
3202.8997,1.0845276248637794
3203.834,2.834264116852701
3204.7677,0.483867802745364
3205.7008,5.783342037021148
3206.6333,4.182690169320752
3207.5652,2.63191549145146
3208.4964,4.63102125339365
3209.4271,2.63001067880855
3210.3571,5.728886945047176
3211.2865,4.177653203160435
3212.2154,4.776312546910368
3213.1436,3.974868028282484
3214.0712,4.123322651499166
3214.9982,3.121679381034119
3215.9246,6.169941140127821
3216.8503,2.818110820803958
3217.7755,2.666191253386806
3218.7001,4.814185240019532
3219.624,2.212095556183394
3220.5473,4.109924929217795
3221.4701,3.757676064341185
3222.3922,4.555351625672769
3223.3137,3.2029542397549866
3224.2346,3.900486487576763
3225.1549,5.447950918097483
3226.0746,3.195350041271667
3226.9937,4.092686312574326
3227.9121,4.439962155526974
3228.83,7.437179952724256
3229.7473,2.2843420423612057
3230.6639,0.8314506882610494
3231.5799,6.528508131403599
3232.4954,4.725516604454156
3233.4102,4.622478274792941
3234.3244,4.0693952625450125
3235.238,5.76626964161064
3236.151,4.8631034451961455
3237.0634,4.959898648845152
3237.9752,3.356657179470249
3238.8864,2.353380914385043
3239.797,4.600071697336563
3240.7069,1.8467313485380343
3241.6163,6.043361642201961
3242.5251,2.6899643340735366
3243.4332,6.6365411194643364
3244.3408,6.083093666786294
3245.2477,5.579623578085927
3246.154,6.226132394578825
3247.0598,6.022621601684335
3247.9649,4.919092622560481
3248.8694,6.7155468201390764
3249.7733,4.411985508161004
3250.6766,7.008409933211682
3251.5793,3.104821297756668
3252.4814,5.201220734177426
3253.3829,5.147609343807204
3254.2838,4.843988175967054
3255.1841,7.840358228501941
3256.0838,6.78672045081696
3256.9829,6.383075713913618
3257.8814,3.729424820926223
3258.7792,6.075768511158321
3259.6765,7.672107486619209
3260.5731,2.018442388560504
3261.4692,4.014773781512741
3262.3647,4.361102209822034
3263.2595,5.207428177686761
3264.1538,3.7037521456942724
3265.0474,5.300074522357639
3265.9404,4.09639567915241
3266.8329,6.692715934553388
3267.7247,3.6390355660714153
3268.616,4.585354784290179
3269.5066,5.281673763403007
3270.3966,4.027992631749679
3271.286,3.524311464853235
