RamanShift,CorrectedData
30.1047,1193.2339668396871
32.3739,1108.9151595899884
34.6426,1022.8963404079502
36.9109,935.3274862720809
39.1787,853.7085639319253
41.4461,768.2895307837533
43.7131,681.8203356867485
45.9796,597.4509198171991
48.2456,513.2812175331894
50.5112,426.2611572182947
52.7764,345.59066212327775
55.0411,261.7696512362895
57.3054,177.79804008957444
59.5692,95.42574159768026
61.8326,11.352666897174373
64.0955,-66.87127382963322
66.3579,-141.5961705139592
68.6199,-216.07144504299467
70.8815,-276.14510475818753
73.1426,-305.91299844724995
75.4032,-213.61821620829755
77.6634,148.54920793140832
79.9231,1121.8513739905854
82.1824,3358.7503805024608
84.4412,7464.658314781747
86.6995,13213.087230555653
88.9574,18883.449106904813
91.2148,22841.95579077897
93.4717,24643.568940293397
95.7282,24940.5999851438
97.9842,24682.760108590195
100.2398,24006.1102444866
102.4949,23254.561079859435
104.7495,22409.123061674018
107.0036,21526.55640435005
109.2573,20742.321098216016
111.5105,20025.476918334818
113.7632,19351.833432346175
116.0154,18810.600007635017
118.2672,18433.18581806794
120.5185,17976.39984940556
122.7693,17638.45090307662
125.0197,17314.747600745864
127.2696,17017.298387693536
129.519,16761.6115360524
131.7679,16457.545147782246
134.0163,16147.95715722673
136.2642,15801.45533415408
138.5117,15392.597286852935
140.7587,14974.840465597405
143.0052,14640.792166735606
145.2512,14279.859536867265
147.4967,13895.699576184188
149.7417,13624.069142079585
151.9863,13364.62495298967
154.2304,13180.523591109966
156.4739,12896.721504989753
158.717,12800.525011373073
160.9596,12557.190298036749
163.2017,12280.023424752366
165.4433,11955.230325719604
167.6844,11597.866812337907
169.925,11235.788576454423
172.1651,10877.101193937619
174.4047,10576.910128298094
176.6439,10251.770734275426
178.8825,10003.788260840094
181.1206,9828.61785444488
183.3582,9596.46456150467
185.5954,9419.583330148185
187.832,9254.979012539497
190.0681,9166.956366646853
192.3037,9083.620057888696
194.5388,8999.374660013922
196.7734,8905.524655935216
199.0075,8910.224438571528
201.2411,8938.32831178655
203.4742,8907.54049034175
205.7068,8972.315099615298
207.9389,8965.206175909974
210.1704,9035.817665805404
212.4015,9041.003426229152
214.632,9073.967223750611
216.862,9137.01273452914
219.0915,9136.643543984432
221.3205,9156.163146166047
223.549,9149.02494375713
225.777,9152.532247879182
228.0044,9139.038278163476
230.2314,9185.74616271595
232.4578,9212.308938252172
234.6837,9203.779549630246
236.909,9193.910849585196
239.1339,9136.605598814247
241.3582,9035.666466075527
243.582,8861.09602876111
245.8053,8732.646773906406
248.0281,8618.621099935868
250.2503,8526.021317947492
252.472,8507.399652853059
254.6932,8553.708244304144
256.9139,8549.449146878324
259.134,8649.174329616098
261.3536,8758.035676063479
263.5727,8906.634983274735
265.7912,9040.323960723785
268.0092,9271.454228818202
270.2267,9372.627317562321
272.4436,9452.744664245936
274.6601,9427.157612432577
276.8759,9310.167411158323
279.0913,9177.2252151877
281.3061,9019.632086183541
283.5204,8925.538994036448
285.7341,8863.04681844069
287.9473,8799.15634983516
290.16,8762.718290028286
292.3721,8766.78325283693
294.5837,8835.501764450783
296.7947,8950.824263391702
299.0052,9027.051099826527
301.2152,8988.532534413866
303.4246,8835.11873754182
305.6334,8525.909789713152
307.8418,8146.155683079467
310.0495,7748.856324533252
312.2568,7333.5115395054545
314.4635,6912.571075938462
316.6696,6586.284608439544
318.8752,6310.001742490262
321.0802,6172.97201770934
323.2847,6110.344910615486
325.4887,6073.769835997689
327.692,6050.946147541497
329.8949,6015.223138194764
332.0972,5812.250040395891
334.2989,5574.3760264310495
336.5001,5340.100210463916
338.7007,5147.571650914413
340.9008,4966.1393528014705
343.1003,4745.102269668303
345.2992,4573.20930539674
347.4976,4444.609316417587
349.6955,4309.051113429567
351.8927,4283.233462685304
354.0895,4123.255087346926
356.2856,4046.0146677442226
358.4812,3959.1108429744436
360.6763,3944.8422116746915
362.8707,3835.2073328909682
365.0646,3854.654726220864
367.258,3830.2828729098965
369.4508,3827.7902156570362
371.643,3879.1751588584266
373.8346,3902.386068632317
376.0257,3960.7212723052107
378.2162,3958.979058179757
380.4062,3905.907674951399
382.5956,3820.055331725791
384.7844,3675.920198549511
386.9726,3500.550407268598
389.1603,3391.994052969887
391.3474,3288.299195734722
393.5339,3222.9638617245128
395.7199,3131.2860442176716
397.9052,3142.763704262983
400.09,3180.0947715963794
402.2743,3271.2271445261576
404.4579,3362.3086895596643
406.641,3516.637240491993
408.8235,3630.8105974951486
411.0054,3718.376525574773
413.1868,3856.8327534284017
415.3675,3894.3769725698166
417.5477,3841.4068359444773
419.7273,3790.9199575540733
421.9064,3659.7139129862335
424.0848,3561.6362399193913
426.2627,3404.034439434843
428.4399,3194.4059769975283
430.6166,2898.798284032051
432.7928,2592.908760018954
434.9683,2307.034775450815
437.1432,2070.673674891119
439.3176,1915.3227798330045
441.4914,1755.9793910628887
443.6645,1685.290790213956
445.8371,1603.45424135961
448.0091,1532.5169917203439
450.1806,1505.976272482112
452.3514,1469.2292995057087
454.5216,1433.3732735921676
456.6913,1417.4053808502322
458.8603,1439.672793054924
461.0288,1472.222667807211
463.1967,1421.5021483113414
465.3639,1421.2083630493398
467.5306,1408.3884262882148
469.6967,1406.189438082898
471.8622,1383.7584844044377
474.0271,1399.2426371619913
476.1914,1387.5889544271322
478.3551,1358.394480279012
480.5182,1368.5062449208872
482.6807,1437.171264972083
484.8426,1579.9865433668692
487.0039,1852.4490686678
489.1647,2147.7558136375737
491.3248,2414.003732514406
493.4843,2484.089758058961
495.6432,2469.760798891868
497.8015,2323.7137387928688
499.9592,2192.3954368441027
502.1163,2015.7527288905785
504.2728,1748.0324288533502
506.4287,1544.0813304959574
508.5839,1259.29621010162
510.7386,1074.6738285127467
512.8927,964.7609339787923
515.0461,935.1542640024782
517.199,972.6505464389156
519.3512,1080.146499791681
521.5029,1329.4888328378438
523.6539,1525.424243553014
525.8043,1631.299416617927
527.9541,1581.961021459072
530.1033,1407.4057111899547
532.2519,1255.8801231044781
534.3999,1193.4808804224904
536.5472,1178.904593805044
538.694,1363.447861978384
540.8401,1542.8572718797132
542.9856,1699.9293968117618
545.1305,1740.360794648699
547.2748,1684.1480062653936
549.4185,1550.2875551331144
551.5615,1426.0759478816526
553.704,1400.809675637929
555.8458,1473.985215268105
557.987,1593.4490296302538
560.1276,1761.797566842597
562.2675,2105.4772590888733
564.4069,2516.3345209348427
566.5456,2913.315745891501
568.6837,3068.2673023065
570.8212,2792.685529394341
572.958,2211.0167356868533
575.0942,1674.5572017890063
577.2299,1262.0531861956188
579.3648,1051.3509306559317
581.4992,975.5966642986587
583.6329,1050.0866057390122
585.766,1166.8669638362426
587.8985,1286.083936948744
590.0304,1321.2337117662355
592.1616,1316.3624621176095
594.2922,1229.2663486194197
596.4222,1086.891518724602
598.5515,910.5341075934375
600.6802,758.2402395172921
602.8083,584.706029682191
604.9358,577.0275856917651
607.0626,583.1010093025925
609.1888,659.4723965009744
611.3144,795.2878374422089
613.4393,894.1934156868792
615.5636,1043.6852068426888
617.6873,1074.1592775754125
619.8103,1063.6116841139828
621.9327,884.0384719457415
624.0544,711.2356759219219
626.1756,557.6493220533885
628.2961,417.4754292386333
630.4159,353.46001079967755
632.5351,335.5490758837841
634.6537,297.5386301036215
636.7716,321.7246757163739
638.8889,326.3032120038497
641.0056,346.72023503062155
643.1216,359.32173759823127
645.237,349.9537090410249
647.3518,257.6121351001293
649.4659,207.9929980171346
651.5793,173.14227745751123
653.6922,115.70595100680475
655.8043,108.07999451914293
657.9159,137.61038269160235
660.0268,131.39308914045978
662.137,112.72408610589628
664.2466,123.44934451416157
666.3556,157.9648341642678
668.4639,102.9165236207391
670.5716,113.95037986846182
672.6786,36.61236886315419
674.785,-8.401544578957328
676.8907,-24.495396007770978
678.9958,-5.623137041755399
681.1002,-18.88847459038152
683.204,-33.345059387982474
685.3072,-53.09635347303083
687.4097,-39.29548576686102
689.5115,-34.245054758242986
691.6127,-48.29726637404565
693.7132,-80.6539844330473
695.8131,-48.216590264339175
697.9123,16.464340536285818
700.0109,24.18871405676873
702.1089,76.10643622040698
704.2061,90.16741270861348
706.3028,163.12154844174438
708.3987,191.11874743849148
710.4941,229.90891208633548
712.5887,263.9419428615838
714.6827,331.9677379414461
716.7761,423.3361928637278
718.8688,583.0471998465473
720.9608,695.0506468746735
723.0522,840.9464161023952
725.1429,902.8343827335066
727.233,984.4144135623374
729.3224,1063.8863663548746
731.4112,1053.2000890329655
733.4993,904.2054188795955
735.5867,746.60218264576
737.6735,573.740198040392
739.7596,379.6692753064144
741.845,263.03921894934683
743.9298,174.54982967802243
746.014,153.25090557088515
748.0974,127.24224296088687
750.1802,147.07363664847435
752.2624,185.04488016166943
754.3439,188.55576555777225
756.4247,270.2060830436294
758.5048,418.44562094054163
760.5843,630.3241648677486
762.6631,975.3914962600411
764.7413,1446.6973902489644
766.8188,2015.2416122121522
768.8956,2577.7739130602695
770.9718,2930.444023551574
773.0473,2935.6016486665903
775.1221,2768.2964640814025
777.1962,2571.02811611608
779.2697,2523.4462234077346
781.3426,2594.650378883205
783.4147,2742.9901502348675
785.4862,2791.265079208606
787.557,2671.0746801204077
789.6271,2273.468439373619
791.6966,1746.095816660838
793.7654,1235.8062489399836
795.8335,843.7991557080259
797.901,560.3239441038695
799.9678,402.0300128284398
802.0339,334.46675497942124
804.0993,284.58355963420763
806.1641,257.3798125255271
808.2282,205.00489654028024
810.2916,159.7581919915774
812.3544,114.68907714248235
814.4164,60.64692865848701
816.4778,75.08112205819634
818.5385,137.39103225375584
820.5986,243.1260334064973
822.658,446.4354983038593
824.7166,719.5187973020165
826.7747,1185.225296292796
828.832,1686.8543539728416
830.8886,2030.055317186543
832.9446,2213.9775159097535
834.9999,2168.4202598177744
837.0545,1945.8828364461333
839.1085,1645.6145116461612
841.1618,1338.0645318103634
843.2143,1117.2321268751039
845.2662,943.4665133961116
847.3175,826.2668967567952
849.368,733.9324729059044
851.4179,672.8624295295231
853.467,596.9559469744163
855.5155,541.7621988587289
857.5633,480.2803528310469
859.6105,417.60957112234246
861.6569,353.29901116078145
863.7027,285.54782619844264
865.7478,272.4051659544184
867.7922,235.07017729232757
869.8359,215.39200435173916
871.8789,243.1697889215211
873.9212,302.75267063662614
875.9629,384.589786700315
878.0039,506.4302712883291
880.0441,586.9732547305139
882.0837,629.9178622924137
884.1226,693.3632133698447
886.1609,743.4084210594538
888.1984,855.402591524251
890.2352,985.394823493174
892.2714,1034.8342071411353
894.3069,1033.1698227891047
896.3416,916.1007404097127
898.3757,750.6760196438936
900.4091,671.2447109715813
902.4418,640.5558573659473
904.4739,690.2584950877208
906.5052,730.4016539920667
908.5358,738.4843570315752
910.5658,655.6556198548224
912.595,504.36445072554125
914.6236,369.5098513509165
916.6515,242.64081839448772
918.6786,131.2563448247056
920.7051,119.05542118360881
922.7309,180.3370367006828
924.756,174.70017941486276
926.7804,255.0938355617145
928.8041,279.7169896298092
930.8272,326.6186235567802
932.8495,301.847716483092
934.8711,355.8532442830374
936.892,301.23417981243074
938.9123,315.1894923685586
940.9318,356.46814823637123
942.9506,368.4191105489281
944.9688,334.0913388746112
946.9862,289.9837890976087
949.003,154.8454137612107
951.019,83.72516250887111
953.0344,5.57198343559503
955.0491,8.084823799141304
957.063,54.56263080155168
959.0763,124.05435156402473
961.0888,137.40893266213516
963.1007,184.7253194309169
965.1119,219.30245583131727
967.1223,204.53928397703658
969.1321,203.33474378875235
971.1412,233.0377731417484
973.1495,221.5973078779698
975.1572,214.41228150898496
977.1641,228.83162533039558
979.1704,234.95426849368414
981.1759,198.9791378620248
983.1808,244.70515794904895
985.1849,258.13125127860167
987.1884,282.3063379274836
989.1911,396.3293353911831
991.1932,466.94915834213225
993.1945,502.66471748947424
995.1951,472.7749188728594
997.1951,468.3786635053002
999.1943,441.6748476720595
1001.1928,470.812362974616
1003.1906,503.6900965977038
1005.1877,613.0569310179417
1007.1841,702.9617436750495
1009.1798,737.7534058781894
1011.1748,694.6807819069063
1013.1691,581.5427286632184
1015.1627,438.9880961023391
1017.1556,263.4657283640654
1019.1477,142.62446519831246
1021.1392,67.96314372034158
1023.1299,26.380599619174063
1025.12,40.32566790419605
1027.1093,123.09718332099601
1029.0979,207.39398021191028
1031.0859,276.61489168830303
1033.0731,353.65874878760496
1035.0596,332.824379781101
1037.0454,240.36060940349216
1039.0304,171.0662590612419
1041.0148,98.94014775721189
1042.9985,2.381092783602071
1044.9814,-23.46208955678958
1046.9636,-71.89058298497366
1048.9452,-71.90533683568992
1050.926,-27.156582256755428
1052.9061,-2.4438320616809506
1054.8855,17.28367223027817
1056.8642,55.92671351374611
1058.8421,82.03607451051448
1060.8194,125.66253738311298
1062.7959,176.20688347371106
1064.7717,231.41989286785974
1066.7469,307.10234388904246
1068.7213,380.4550125465548
1070.695,439.6786717786663
1072.6679,490.42409071910606
1074.6402,525.392034104816
1076.6117,539.1832617685013
1078.5826,446.84852828895055
1080.5527,350.7885828531262
1082.5221,241.60417017950022
1084.4908,206.59603147867165
1086.4587,215.3149055451986
1088.426,238.76152910767996
1090.3925,284.0866367415738
1092.3584,305.1409606347288
1094.3235,295.22523013413047
1096.2879,392.6401715353577
1098.2515,488.28650818174265
1100.2145,662.6149594902208
1102.1767,809.8762399948637
1104.1382,1026.2210576035977
1106.099,1251.75011212559
1108.0591,1475.3140931078015
1110.0185,1621.7136775796935
1111.9771,1719.749527817581
1113.9351,1662.3722898806527
1115.8923,1562.782592630604
1117.8488,1478.4310483054123
1119.8045,1329.1682535152277
1121.7596,1208.1447900858975
1123.7139,1059.6612265515932
1125.6675,1026.7681193650396
1127.6204,1059.016014382355
1129.5726,1021.4054471919826
1131.524,977.9869427922049
1133.4748,850.4110159672528
1135.4248,695.9781717214901
1137.3741,566.6889065551786
1139.3226,456.49371000879546
1141.2705,424.6430659559346
1143.2176,336.53745370525394
1145.164,320.82734831898233
1147.1097,270.51322149397765
1149.0546,188.29554171882955
1150.9989,97.07477477699285
1152.9424,30.65138456897421
1154.8852,-24.97416597546544
1156.8272,-64.8514142330805
1158.7686,-53.6796480887042
1160.7092,-31.45750756154939
1162.6491,-9.383096411149381
1164.5883,90.54579586346063
1166.5267,171.0314735003749
1168.4644,308.5762398322322
1170.4014,479.2323964813595
1172.3377,686.3022419843246
1174.2732,946.1380700853751
1176.2081,1337.492167665734
1178.1421,1757.9668121452496
1180.0755,2232.6142675688443
1182.0082,2582.286780401778
1183.9401,2763.436574783167
1185.8713,2687.715849029266
1187.8017,2434.1767738219614
1189.7315,2066.421492965992
1191.6605,1691.9521259243302
1193.5888,1448.8707714957363
1195.5163,1272.4295115594587
1197.4432,1180.7804135060387
1199.3693,1117.425532001721
1201.2947,1060.5169099049526
1203.2193,1046.9065788999278
1205.1432,1045.5465600656735
1207.0664,1006.2388640121562
1208.9889,1005.5354908938762
1210.9106,1020.5884308029508
1212.8316,1036.8496637761436
1214.7519,1055.2211596443358
1216.6715,1107.1048778699205
1218.5903,1192.7027673630782
1220.5084,1239.9667659629495
1222.4257,1363.2487995816437
1224.3424,1409.650781731605
1226.2583,1536.7246122927936
1228.1735,1668.0221770486696
1230.0879,1818.4453464154494
1232.0016,1994.1459741291346
1233.9146,2157.6258957412756
1235.8269,2209.38692686197
1237.7384,2200.2808615250515
1239.6492,2093.109471670491
1241.5592,2081.574507235452
1243.4686,2120.227697226007
1245.3772,2287.870749832483
1247.285,2504.155352042937
1249.1922,2707.6831679667184
1251.0986,2883.505836671633
1253.0042,3009.3249701486575
1254.9092,3123.842151553713
1256.8134,3243.80893394947
1258.7169,3395.876839160186
1260.6196,3509.897356572029
1262.5216,3697.6719416124024
1264.4229,3874.702014609742
1266.3234,4050.388958915757
1268.2232,4161.484119135146
1270.1223,4214.338799368725
1272.0207,4261.704262102461
1273.9183,4256.531727678945
1275.8151,4228.222373823727
1277.7113,4221.127335697041
1279.6067,4318.54770617691
1281.5014,4531.684535930074
1283.3953,4941.088832437811
1285.2885,5450.861557864544
1287.181,5970.503624963819
1289.0727,6512.965891980564
1290.9637,6897.149157454679
1292.854,7134.65415479641
1294.7435,7165.631548444509
1296.6323,7031.531931491194
1298.5204,6824.905825372374
1300.4077,6603.003681208635
1302.2943,6356.87588187151
1304.1802,6044.8227442025
1306.0653,5626.644521474344
1307.9497,5198.391406511569
1309.8333,4774.113535872248
1311.7162,4464.160994130555
1313.5984,4261.633818119525
1315.4798,4136.03200003059
1317.3605,4049.1054894388426
1319.2405,3986.6041945590605
1321.1197,3779.4779831149663
1322.9982,3503.826682964248
1324.876,3269.1000841698096
1326.753,2988.147941756295
1328.6293,2769.369978057345
1330.5048,2589.6658855251308
1332.3796,2425.735328918119
1334.2537,2325.277947098123
1336.127,2242.3433546696006
1337.9996,2201.4311429842337
1339.8714,2180.7908809702703
1341.7426,2163.872115541649
1343.6129,2210.474371804402
1345.4826,2213.8971532258456
1347.3515,2201.9399411685536
1349.2196,2196.8021948561336
1351.087,2235.2833514927943
1352.9537,2287.1828263147245
1354.8197,2382.6000122052856
1356.6849,2533.9342791760128
1358.5493,2669.9849734124427
1360.4131,2879.251415760772
1362.276,3013.232900367342
1364.1383,3070.5786925859884
1365.9998,3011.1880276382153
1367.8606,2763.8601100397436
1369.7206,2501.2941141944175
1371.5799,2265.789186867484
1373.4384,2034.2944498112493
1375.2962,1835.0090021201277
1377.1533,1576.5319225455924
1379.0096,1275.612271489027
1380.8652,1001.0490935864991
1382.7201,746.5414207179565
1384.5742,568.3882747528587
1386.4275,425.38867009525256
1388.2802,303.4416154653054
1390.132,214.59611532930285
1391.9832,168.00117111911732
1393.8336,120.45578212066448
1395.6832,101.05894593984158
1397.5322,66.75965897799779
1399.3803,50.856916625889426
1401.2278,27.0997136066826
1403.0745,32.737044134971256
1404.9204,17.317902154359217
1406.7656,34.291281281080956
1408.6101,46.256174958194606
1410.4538,88.61157628584897
1412.2968,147.70647790163184
1414.139,182.38987155701398
1415.9805,241.2107475264047
1417.8213,316.16809426031614
1419.6613,426.56089779715603
1421.5006,572.688141013653
1423.3391,761.5488025209334
1425.1769,1011.2918552032443
1427.0139,1350.766264329346
1428.8502,1819.27098505508
1430.6858,2266.1049590286293
1432.5206,2622.3671097054666
1434.3547,2811.356337880021
1436.188,2879.6215181230536
1438.0206,2857.911496891762
1439.8524,2741.6250918471333
1441.6835,2630.861092071039
1443.5139,2587.3182592291005
1445.3435,2530.895328678329
1447.1724,2516.541009902561
1449.0005,2493.803987076675
1450.8279,2459.0329192101417
1452.6545,2454.476440374394
1454.4804,2511.5331600505388
1456.3056,2511.35166317492
1458.13,2479.880509568553
1459.9536,2395.518233938934
1461.7766,2182.063346194759
1463.5987,1947.0143322895447
1465.4202,1709.2696563561767
1467.2409,1435.8277630573948
1469.0608,1215.3870799632505
1470.88,1038.646020285516
1472.6984,837.5029850820993
1474.5161,677.4563650244472
1476.3331,564.0045424089749
1478.1493,494.29589275753915
1479.9648,422.82878595195416
1481.7795,370.80158693107205
1483.5935,347.9126564054641
1485.4067,313.8103513776841
1487.2192,284.99302537116637
1489.031,289.75902877123735
1490.842,259.5567091133007
1492.6522,265.08441103516634
1494.4618,243.8904765790876
1496.2705,245.27324513647
1498.0785,203.88105365981937
1499.8858,208.01223664890858
1501.6924,165.31512656470477
1503.4981,175.18805378804973
1505.3032,166.37934704663985
1507.1075,116.63733331629192
1508.911,114.7603379090333
1510.7138,87.94668497051862
1512.5159,66.29469749879809
1514.3172,39.652697612456905
1516.1178,2.819006767135761
1517.9176,6.691946021945114
1519.7166,5.969836407809453
1521.515,-7.649001111263715
1523.3126,-18.516245630969024
1525.1094,-16.233499833477254
1526.9055,-30.252181423669754
1528.7008,-24.673545933766036
1530.4954,-35.34854667669333
1532.2893,-29.477890476659013
1534.0824,-48.31193102589032
1535.8747,-22.700727532492238
1537.6663,-28.193856568379033
1539.4572,-5.790667925200523
1541.2473,6.809770262021175
1543.0367,17.85844770703534
1544.8253,56.10635405549465
1546.6132,94.00447877447095
1548.4003,103.65381076997483
1550.1867,160.40533800797448
1551.9723,227.26004741789984
1553.7572,316.9189243251344
1555.5414,416.63295178245744
1557.3247,550.553109673463
1559.1074,713.2303737154166
1560.8893,883.7157141200528
1562.6705,1042.3600939668072
1564.4509,1194.7644674979574
1566.2305,1290.029778532185
1568.0094,1346.8069589405245
1569.7876,1359.196927693718
1571.565,1372.2505902944376
1573.3417,1384.4688386533844
1575.1176,1399.2525509587563
1576.8928,1413.852591554063
1578.6672,1442.969810790286
1580.4409,1471.4050448798853
1582.2138,1545.4591156056217
1583.986,1627.1328300362088
1585.7575,1728.1269797857708
1587.5282,1824.9923401971023
1589.2981,1946.0296693317327
1591.0673,2033.589707001272
1592.8358,2168.7231735570326
1594.6035,2263.230769014427
1596.3704,2346.41317170164
1598.1366,2409.821037314546
1599.9021,2496.2549980848944
1601.6668,2574.9656621462254
1603.4308,2664.553612669534
1605.194,2792.8194070761565
1606.9564,2986.3135761418985
1608.7182,3204.886622714373
1610.4791,3495.689019778058
1612.2394,3780.021208268566
1613.9988,4107.733594164623
1615.7576,4393.276545644745
1617.5156,4614.600389810111
1619.2728,4726.655409829137
1621.0293,4660.14184272424
1622.785,4490.459878251282
1624.54,4213.009659564708
1626.2942,3893.641284914369
1628.0477,3508.8548104200177
1629.8005,3183.050253264998
1631.5525,2875.4775955441073
1633.3037,2623.1867875216394
1635.0542,2428.5277507071173
1636.804,2244.850380378194
1638.553,2081.6545475272524
1640.3013,2026.4401006981684
1642.0488,1974.4068676182783
1643.7955,1993.7546557505175
1645.5416,2014.3332528137548
1647.2868,2063.442426589311
1649.0313,2163.931924715178
1650.7751,2265.7514741949267
1652.5181,2402.90078039281
1654.2604,2505.2295260155656
1656.0019,2707.0873697409284
1657.7427,2911.473945194333
1659.4828,3139.4388589303453
1661.222,3288.1816883887923
1662.9606,3345.501979615113
1664.6984,3214.899245772931
1666.4354,2940.9729665708505
1668.1717,2518.3225895684845
1669.9072,2074.1975329157176
1671.642,1685.1971895792108
1673.3761,1389.270931783652
1675.1094,1123.2181149017583
1676.8419,927.588080413539
1678.5737,779.4301585668245
1680.3048,650.093670333566
1682.0351,567.2779288914144
1683.7646,467.28224091708535
1685.4934,430.4559074145168
1687.2215,375.0982247148263
1688.9488,323.0084848445731
1690.6754,266.4359760793359
1692.4012,256.37998346460927
1694.1263,242.4397893815276
1695.8506,211.31467364742593
1697.5742,205.80391365524338
1699.297,179.45678468477308
1701.0191,138.32255995777177
1702.7404,127.50051090142915
1704.461,116.58990755970717
1706.1808,91.99001870156735
1707.8999,87.60011193007313
1709.6182,69.66945392838943
1711.3358,58.59731050367964
1713.0527,59.98294676641444
1714.7688,40.525627241093844
1716.4841,45.47461585238898
1718.1987,58.77917611971361
1719.9126,52.18857110773979
1721.6257,21.352063293348237
1723.338,30.918914631534335
1725.0496,38.33838686377476
1726.7605,35.45974142235718
1728.4706,38.232239356186255
1730.18,20.205141359569552
1731.8886,21.877707744494728
1733.5964,31.74919862089746
1735.3036,25.3688738799392
1737.0099,12.185993095290996
1738.7156,17.74981558693389
1740.4204,11.509600552992197
1742.1246,0.5646070140937809
1743.8279,-7.3859061242296775
1745.5306,5.257320037911086
1747.2325,-7.6563818143963545
1748.9336,-19.477679048633036
1750.634,-21.707162545028496
1752.3336,-13.74522860180059
1754.0325,-12.642056662613868
1755.7307,-13.197688856300829
1757.4281,-11.212041017548472
1759.1247,7.515102863866559
1760.8206,1.6340708064572027
1762.5158,15.995190753586485
1764.2102,10.048790632277814
1765.9039,0.14519820960276775
1767.5968,1.8347411521476715
1769.289,3.7177471250479357
1770.9804,9.94454377509237
1772.6711,12.965458711892552
1774.361,13.880819445616453
1776.0502,19.69095335677639
1777.7386,5.196187687078691
1779.4263,16.89684948131935
1781.1132,27.54326573233584
1782.7994,28.335763263996796
1784.4849,32.92466862474021
1786.1696,24.910308079648075
1787.8535,35.0930075645565
1789.5367,38.52309276620099
1791.2192,38.95088902038651
1792.9009,23.626721277691104
1794.5818,41.900914099182046
1796.2621,44.12379180966309
1797.9415,57.29567831492932
1799.6202,44.86689707953974
1801.2982,49.18777099509771
1802.9755,51.20862250453774
1804.6519,49.52977355891926
1806.3277,49.30154559721268
1808.0027,51.3742595630938
1809.6769,54.74823590722008
1811.3504,59.37379456650706
1813.0231,61.20125493039086
1814.6951,64.68093579457036
1816.3664,80.66315534273326
1818.0369,85.74823111175874
1819.7067,74.83647983189667
1821.3757,69.12821737591366
1823.044,80.52375886821437
1824.7115,89.02341874191961
1826.3783,82.77751062491734
1828.0443,90.93634725486072
1829.7096,82.00024054162895
1831.3741,99.36950148573897
1833.0379,98.94444026770543
1834.701,92.67536607435113
1836.3633,101.6625871030551
1838.0248,96.45641062444292
1839.6856,118.65714289251491
1841.3457,114.31508919670796
1843.005,108.08055363989024
1844.6636,110.70383918177777
1846.3214,120.78524770128342
1847.9785,125.02507997028215
1849.6349,128.823635552797
1851.2904,121.13121276260154
1852.9453,127.84810862523454
1854.5994,122.02461895492343
1856.2528,128.36103828741534
1857.9054,144.00765993821187
1859.5572,134.56477593920658
1861.2083,141.6326768822164
1862.8587,154.2116520134116
1864.5084,151.75198916263616
1866.1572,141.75397461761963
1867.8054,145.36789314857288
1869.4528,146.59402810816755
1871.0994,147.8826613953977
1872.7453,143.38407344331813
1874.3905,152.24854320615987
1876.0349,152.67634820431272
1877.6786,154.66776443568324
1879.3215,161.62306637141592
1880.9637,160.14252693597905
1882.6051,155.0764174376111
1884.2458,154.77500758312567
1885.8858,157.08856552857287
1887.525,170.06735788225274
1889.1634,156.86164968158187
1890.8011,165.22170426330308
1892.4381,155.19778339554296
1894.0743,157.4401471942126
1895.7098,169.84905422324664
1897.3446,162.02476147217772
1898.9786,168.01752423204994
1900.6118,165.27759617365973
1902.2443,159.00522928763007
1903.8761,170.25067391180778
1905.5071,152.16417879398773
1907.1374,148.44599097945843
1908.7669,153.89635599186727
1910.3957,160.7655178704042
1912.0237,154.25371911529442
1913.651,171.41120061910988
1915.2776,165.88820173188537
1916.9034,163.98496008954544
1918.5285,158.30171166913306
1920.1528,166.5386908078417
1921.7764,161.2461302598481
1923.3992,172.52426111394334
1925.0213,153.92331284645797
1926.6427,149.89351320848255
1928.2633,138.885088411874
1929.8832,171.89826316955623
1931.5023,146.93326080560223
1933.1207,146.9903029251027
1934.7383,153.41960966381816
1936.3552,154.17139968760625
1937.9714,156.99589012813
1939.5868,147.6432965753395
1941.2015,137.86383304922742
1942.8154,143.3077120933542
1944.4286,139.47514487264425
1946.041,142.41634111894473
1947.6528,141.23150916935288
1949.2637,151.22085593680458
1950.8739,130.3345869219197
1952.4834,132.7729061131115
1954.0921,140.4360161954478
1955.7001,131.92411852626674
1957.3074,132.63741305854955
1958.9139,120.67609842603565
1960.5197,128.0903719360913
1962.1247,128.93042968932264
1963.729,134.34646650543277
1965.3325,126.98867591482167
1966.9353,127.75725010442488
1968.5374,120.00237999129195
1970.1387,114.42425521490031
1971.7393,130.72306421470557
1973.3392,126.74899428592039
1974.9383,116.60223141652796
1976.5366,113.28296032702201
1978.1342,124.94136457187506
1979.7311,129.62762657273174
1981.3273,116.39192750182201
1982.9227,120.3344472351007
1984.5173,113.7053644846037
1986.1112,109.55485675902378
1987.7044,106.88310043000047
1989.2968,110.79027077362593
1990.8885,119.6765419971623
1992.4795,132.04208719996927
1994.0697,120.63707828464317
1995.6592,106.71168583335975
1997.2479,108.86607922192638
1998.8359,108.75042675903364
2000.4232,105.01489566471218
2002.0097,109.80965207148938
2003.5955,109.58486106174314
2005.1805,96.74068661975593
2006.7648,108.32729163396175
2008.3484,110.59483802538875
2009.9312,117.34348663179298
2011.5133,105.42339718498147
2013.0946,112.23472824332816
2014.6752,101.52763731097389
2016.2551,114.45228076971284
2017.8342,109.20881398606434
2019.4126,102.3473911820247
2020.9902,122.66816548750398
2022.5672,110.22128900893881
2024.1433,104.45691262608466
2025.7188,100.62518611648534
2027.2935,97.67625821311685
2028.8674,102.36027664270318
2030.4406,112.52738815520775
2032.0131,99.52773847699132
2033.5849,93.86147220914154
2035.1559,112.62873295746931
2036.7261,102.12966338917136
2038.2957,97.21440504515795
2039.8645,101.33309844504288
2041.4325,112.6858831362963
2042.9998,109.4228976530585
2044.5664,98.99427940261148
2046.1323,101.85016469800962
2047.6974,102.29068886236428
2049.2617,101.21598620028726
2050.8254,106.47618999348356
2052.3883,107.421432511499
2053.9504,103.15184495911876
2055.5118,99.96755746691429
2057.0725,97.31869913393939
2058.6325,98.75539805957442
2060.1917,112.27778137001246
2061.7502,102.1359752038934
2063.3079,99.18010457707965
2064.8649,103.76029348407565
2066.4212,99.87666492758444
2067.9767,89.12934087270764
2069.5315,103.51844228577988
2071.0856,91.49408924184445
2072.6389,84.75640078075935
2074.1915,80.65549502744307
2075.7433,93.89148925924951
2077.2945,93.56449994697914
2078.8448,81.42464262251747
2080.3945,86.67203188210556
2081.9434,95.4567815077387
2083.4916,85.77900441469228
2085.039,91.13881256367495
2086.5857,94.68631705760708
2088.1317,96.77162808801972
2089.677,93.6448548995827
2091.2215,86.70610576924832
2092.7652,81.90548803752176
2094.3083,82.29310817784744
2095.8506,89.0690718446167
2097.3921,87.13348386928942
2098.933,89.93644819263591
2100.4731,84.52806788409248
2102.0124,82.80844511373016
2103.5511,86.17768120634128
2105.089,84.48587665863329
2106.6261,90.433131105538
2108.1626,84.26954333712843
2109.6983,86.84521123914647
2111.2332,102.61023185463932
2112.7675,93.01470135820205
2114.301,87.55871489832771
2115.8337,104.3423666933636
2117.3657,91.96575008607033
2118.897,81.67895737578533
2120.4276,83.93207994218892
2121.9575,100.02520834817278
2123.4866,91.95843231730782
2125.0149,88.23184057291428
2126.5426,81.59552091872774
2128.0695,85.54956027616663
2129.5956,85.84404475069414
2131.1211,89.47905959227887
2132.6458,91.55468919245072
2134.1698,82.27101704794904
2135.693,77.57812573996716
2137.2155,82.37609702698956
2138.7373,81.46501189171886
2140.2584,77.14495049309858
2141.7787,85.16599217542216
2143.2983,83.17821551153361
2144.8171,77.18169822261802
2146.3353,87.02651719807841
2147.8527,81.01274855550105
2149.3693,83.39046754220794
2150.8853,77.75974859539451
2152.4005,71.02066531835248
2153.9149,89.37329053677695
2155.4287,77.0676963661565
2156.9417,78.2039540282467
2158.454,72.78213397412833
2159.9655,74.50230587284227
2161.4764,67.0145386656095
2162.9865,82.21890054862843
2164.4958,73.01545904795194
2166.0045,76.15428086744487
2167.5124,77.28543198081843
2169.0195,79.70897760024104
2170.526,70.42498216502872
2172.0317,67.58350931740688
2173.5367,77.28462199535238
2175.0409,78.82838246100755
2176.5445,83.96485220366799
2178.0473,72.79409192434764
2179.5494,76.71616148441103
2181.0507,65.88112001728405
2182.5513,79.3390258892307
2184.0512,82.08993680770436
2185.5504,78.63390968676867
2187.0488,63.621000619587676
2188.5465,65.70126491298788
2190.0435,74.92475723758503
2191.5397,74.99153160698279
2193.0353,87.2516412855382
2194.5301,75.1051387876928
2196.0241,73.10207575537265
2197.5175,73.64250307945349
2199.0101,51.5764709197897
2200.502,69.55402869981253
2201.9931,62.3752253271889
2203.4835,56.59010901404463
2204.9733,57.948727348754346
2206.4622,65.85112735379153
2207.9505,61.39735547214241
2209.438,56.48745748828355
2210.9248,57.67147857271743
2212.4109,55.09946333107155
2213.8962,56.52145579226044
2215.3809,53.537499434203255
2216.8648,47.99763716960615
2218.3479,63.00191137579941
2219.8304,43.700363950137444
2221.3121,45.893036159956864
2222.7931,54.129968835590034
2224.2733,48.36120234844043
2225.7529,47.736776528612154
2227.2317,51.956730722599104
2228.7098,53.2211037995271
2230.1872,48.32993410895574
2231.6638,50.933259468234155
2233.1397,58.431117211412584
2234.6149,42.97354416320968
2236.0894,57.0105765640335
2237.5632,49.79225022455671
2239.0362,52.26860038534733
2240.5085,51.58966178905166
2241.9801,40.35546865562992
2243.4509,44.91605468914713
2244.921,46.721453190113834
2246.3904,39.42169700987972
2247.8591,31.866818532581078
2249.3271,41.75684974813714
2250.7943,29.04182232779999
2252.2608,34.7217675252524
2253.7266,39.44671630376013
2255.1917,32.01669927937132
2256.656,36.2817466736667
2258.1197,30.491888388061625
2259.5826,37.29715396115421
2261.0447,43.19757262662438
2262.5062,34.543173245181265
2263.9669,42.483984245558304
2265.4269,51.120033711058
2266.8862,27.651349300142783
2268.3448,27.177958160075377
2269.8026,33.849887161605466
2271.2598,31.767162903703706
2272.7162,29.979811646841995
2274.1719,26.38785933382053
2275.6268,38.24133160764188
2277.0811,33.94025384742963
2278.5346,39.53465104989493
2279.9874,48.42454787234669
2281.4395,38.10996857674752
2282.8908,32.390936940815095
2284.3414,43.01747636116795
2285.7914,38.13960991051556
2287.2406,39.45736023139352
2288.689,37.37074958494179
2290.1368,40.57979983772702
2291.5838,50.03453248260894
2293.0302,41.33496860664957
2294.4758,41.83112879656596
2295.9206,37.32303322572591
2297.3648,36.96070164918581
2298.8082,31.944153448772568
2300.251,25.373407636706588
2301.693,38.748482905767446
2303.1343,32.31939769500161
2304.5748,28.03617005597107
2306.0147,27.24881771704463
2307.4538,41.50735812622963
2308.8922,47.11180845904562
2310.3299,35.712185475938554
2311.7669,34.35850546623715
2313.2031,26.050784362147965
2314.6387,37.7390377522936
2316.0735,35.77328096478823
2317.5076,40.50352895035701
2318.941,34.47979630199268
2320.3737,28.752097207652923
2321.8056,31.720445510497825
2323.2369,41.0348547661672
2324.6674,36.395338213097375
2326.0972,37.40190867937622
2327.5263,37.25457862913913
2328.9547,43.00336015250264
2330.3823,34.39826496703756
2331.8092,38.13930436028181
2333.2355,35.326489275791005
2334.661,46.459830275727995
2336.0858,37.63933756899144
2337.5098,30.765020899881392
2338.9332,33.536889636305204
2340.3558,39.004952838520126
2341.7778,32.51921923141526
2343.199,37.92969714982996
2344.6195,31.936394603412396
2346.0393,50.289319222513996
2347.4583,31.688478318123202
2348.8767,36.93387869833589
2350.2943,39.72552685436381
2351.7113,41.81342890808014
2353.1275,44.94759058410284
2354.543,34.228017188916056
2355.9578,32.60471357952815
2357.3718,44.927684270667896
2358.7852,36.04693345101748
2360.1978,44.86246485998299
2361.6098,41.82428187650146
2363.021,41.63238743088516
2364.4315,35.58678403520355
2365.8413,36.13747378520304
2367.2504,34.53445842076155
2368.6587,31.72773932038342
2370.0664,35.71731751722962
2371.4733,42.45319372718404
2372.8795,30.635368308957368
2374.285,39.96384119672882
2375.6899,45.13861201832344
2377.0939,39.5596800019282
2378.4973,33.977043924344116
2379.9,37.49070216677512
2381.3019,37.9506527706551
2382.7032,37.206893402511355
2384.1037,36.90942134936495
2385.5035,33.10823352616853
2386.9027,35.45332647878081
2388.3011,44.39469642197912
2389.6987,35.682339216007676
2391.0957,44.116250277164
2392.492,38.34642466492289
2393.8876,31.6228569975965
2395.2824,30.895541510033354
2396.6765,28.61447212085409
2398.07,22.37964243972408
2399.4627,29.74104579016455
2400.8547,29.74867527189963
2402.246,29.402523687244297
2403.6366,31.052583541026934
2405.0265,28.648847044050967
2406.4156,35.29130609659455
2407.8041,33.27995231244756
2409.1918,19.414776952487273
2410.5789,29.395770944791593
2411.9652,29.32292502329051
2413.3508,29.246229627956154
2414.7358,32.16567490553234
2416.12,28.9312507103009
2417.5035,25.7429465748869
2418.8863,31.300751742603097
2420.2684,32.70465519933384
2421.6497,24.254645617956044
2423.0304,30.050711344300566
2424.4104,25.99284048165157
2425.7896,25.631020832786135
2427.1682,20.815239940554306
2428.546,24.19548509149547
2429.9232,36.021743363997416
2431.2996,24.394001594493034
2432.6753,19.762246259198264
2434.0503,32.876463590388994
2435.4246,23.636639622719144
2436.7982,28.79276006207772
2438.1711,29.84481037798787
2439.5433,25.69277575204535
2440.9148,22.53664106739791
2442.2856,25.626390950266227
2443.6557,23.06200980150402
2445.025,30.543481765702268
2446.3937,25.67079075683182
2447.7617,27.893920383429418
2449.1289,27.012853997323987
2450.4955,30.777574671406
2451.8613,24.238065208437888
2453.2265,31.8943081034065
2454.5909,26.34628560891872
2455.9546,35.09397965863798
2457.3177,25.987371922765874
2458.68,35.42644372056429
2460.0416,33.71117611142165
2461.4025,32.09154980046276
2462.7627,31.817545155700373
2464.1222,34.289142224232705
2465.4811,34.156320734982614
2466.8392,37.669060073981996
2468.1966,42.82733928569985
2469.5533,30.381137037915096
2470.9093,42.980431570133646
2472.2645,34.42520081805014
2473.6191,38.76542228755545
2474.973,39.25107314028844
2476.3262,31.082130150234548
2477.6787,40.70856969886836
2479.0305,38.430367856843645
2480.3816,38.09750028772862
2481.7319,38.759942270788315
2483.0816,41.16766870431263
2484.4306,41.82065409899235
2485.7789,35.91887255384211
2487.1264,41.26229774966987
2488.4733,36.600903008094974
2489.8195,32.68466123811447
2491.165,41.71354498271637
2492.5097,35.68752645804227
2493.8538,41.05657746309862
2495.1972,37.52066944001672
2496.5398,33.079773420362585
2497.8818,36.58386006049568
2499.2231,41.03289968597835
2500.5637,39.82686225653458
2501.9035,37.81571732155942
2503.2427,41.799434032180216
2504.5812,42.82798116136678
2505.919,39.50132706409556
2507.256,41.769439667063125
2508.5924,39.43228650195283
2509.9281,29.039834682754304
2511.2631,40.49205092913405
2512.5974,38.98890167036086
2513.9309,47.63035293078303
2515.2638,43.916370344860184
2516.596,34.99691907074873
2517.9275,36.72196382744107
2519.2583,41.891468983960976
2520.5884,38.90539854211306
2521.9178,41.41371608478744
2523.2465,39.46638480582055
2524.5745,41.76336748491178
2525.9018,46.25462650709687
2527.2284,39.24012383977811
2528.5543,44.86982098781175
2529.8796,42.143679063653394
2531.2041,46.111658731060515
2532.5279,48.72372023235425
2533.851,46.629823348739365
2535.1735,47.129927374184035
2536.4952,49.77399113635806
2537.8163,48.81197299163273
2539.1366,51.493830798639465
2540.4562,44.719521927890696
2541.7752,46.739003234960364
2543.0935,54.50223112822789
2544.411,53.409161548682505
2545.7279,58.10974989229135
2547.0441,49.05395102093064
2548.3596,56.34171921537859
2549.6744,55.473008265874796
2550.9885,57.14777139924115
2552.3019,52.065961287570644
2553.6146,60.127530031478045
2554.9266,59.58242921091926
2556.2379,52.180609804575056
2557.5485,58.12202219530195
2558.8585,56.80661624415086
2560.1677,60.03434123095212
2561.4762,57.45514586747072
2562.7841,60.96897826512816
2564.0913,57.12578596079459
2565.3977,59.825515881650404
2566.7035,59.66811438361833
2568.0086,65.10352722436619
2569.313,62.681699564881
2570.6167,67.30257591511446
2571.9197,63.466100158201584
2573.222,72.67221550425182
2574.5236,64.17086452871354
2575.8246,58.56198908031365
2577.1248,64.69553036606999
2578.4244,65.221429007381
2579.7232,67.38962497868977
2581.0214,77.95005760222534
2582.3189,76.15266552632079
2583.6157,79.39738661980863
2584.9118,79.73415798999542
2586.2072,67.1629159502134
2587.5019,77.28359601645371
2588.7959,77.69613303307847
2590.0893,77.70046107161403
2591.3819,79.99651342662537
2592.6739,79.98422261567339
2593.9652,79.11352035635389
2595.2557,91.48433756642049
2596.5456,82.69660437249217
2597.8348,88.60024998634475
2599.1234,85.24520279278846
2600.4112,92.5813902906308
2601.6983,83.35873912622793
2602.9848,94.22717502012239
2604.2705,90.78662285926941
2605.5556,86.48700658835298
2606.84,97.07824924419117
2608.1237,95.01027299873215
2609.4067,94.38299905314187
2610.689,84.29634765848385
2611.9707,87.75023812199157
2613.2516,91.4445889079359
2614.5319,87.77931760308519
2615.8115,86.45434087976236
2617.0903,88.76957453249713
2618.3685,79.07493349127589
2619.6461,83.92033179838933
2620.9229,84.10568270537942
2622.199,84.13089862458446
2623.4745,87.19589112728647
2624.7493,82.65057094345866
2626.0234,80.09484793111523
2627.2968,87.92863112176514
2628.5695,85.35182874596865
2629.8415,88.16434815499986
2631.1128,89.01609584661503
2632.3835,90.30697743692656
2633.6535,81.78689765188659
2634.9228,82.95576031437702
2636.1914,87.26346842941115
2637.4593,83.30992417244494
2638.7265,84.04502884630006
2639.9931,84.268682920699
2641.259,84.93078602491414
2642.5242,82.43123694553145
2643.7887,80.56993361982916
2645.0525,77.99677316077299
2646.3156,77.0616518756297
2647.5781,79.61446529169842
2648.8398,87.50510816566197
2650.1009,77.43347445805881
2651.3613,81.7994572543763
2652.6211,86.15294886576743
2653.8801,80.44384078539099
2655.1385,80.4720236448764
2656.3961,76.13738727141492
2657.6531,81.13982068747771
2658.9094,83.32921215416246
2660.1651,81.10544912116887
2661.42,82.36841820490457
2662.6743,86.4680052107231
2663.9279,89.70409512029391
2665.1808,92.72657205060682
2666.433,85.68531922161083
2667.6846,93.68021892598955
2668.9354,96.11115259957353
2670.1856,96.1280007413913
2671.4351,98.1806428893604
2672.6839,99.41895762011825
2673.9321,106.8428225284963
2675.1795,108.95211421513676
2676.4263,110.74670821225362
2677.6724,107.97647896254
2678.9179,106.44129980122216
2680.1626,117.44104298376197
2681.4067,113.12557970120832
2682.6501,105.74477997020006
2683.8928,107.9985126761203
2685.1348,106.1866456469046
2686.3761,103.6090456305036
2687.6168,97.21557831300169
2688.8568,100.50610834439306
2690.0961,94.18049940251638
2691.3348,98.03861416014956
2692.5727,89.78031434826539
2693.81,92.55546071745101
2695.0466,93.26391312049054
2696.2826,94.4555304846138
2697.5178,88.18017080441138
2698.7524,92.38769112991895
2699.9863,93.27794762937032
2701.2195,94.60079554712297
2702.452,99.50608919475513
2703.6839,109.39368193783719
2704.9151,99.76342614687894
2706.1456,113.81517309845344
2707.3755,111.19877307149989
2708.6046,117.66407520680582
2709.8331,124.81092753317137
2711.0609,118.43917690275617
2712.2881,131.7986689196108
2713.5145,136.58924800339435
2714.7403,148.91075725577878
2715.9654,150.7630384125444
2717.1899,166.94593172036355
2718.4136,171.50927591827855
2719.6367,173.8529080758728
2720.8591,185.17666354763708
2722.0809,193.58037594953328
2723.3019,206.16387704575698
2724.5223,208.42699666470037
2725.7421,213.96956257311672
2726.9611,223.0414004534898
2728.1795,222.7923338486081
2729.3972,214.57218407084605
2730.6142,200.63077020465477
2731.8306,191.81790918876396
2733.0462,180.83341595559585
2734.2612,166.62710351939427
2735.4756,151.24878308606839
2736.6892,149.54826419525676
2737.9022,141.47535487411034
2739.1145,126.17986165429738
2740.3262,107.71158965273281
2741.5372,97.12034272453303
2742.7475,93.60592364769877
2743.9571,88.76813422902762
2745.1661,79.60677533925804
2746.3744,77.77164696144717
2747.582,58.812548282584714
2748.7889,53.329277711943746
2749.9952,53.421633070672215
2751.2008,49.339411646625365
2752.4057,46.28241019344239
2753.61,37.050424971368784
2754.8136,32.84325177782614
2756.0165,35.010686039732036
2757.2188,37.00252285557201
2758.4204,26.118556973724935
2759.6213,22.358582772544594
2760.8215,30.42239436919931
2762.0211,23.559785657271846
2763.22,28.77055022612126
2764.4182,22.554481429508826
2765.6158,24.4613723334906
2766.8127,21.641015778577696
2768.009,13.193204360668005
2769.2045,12.117730459249628
2770.3994,7.464386321878749
2771.5936,5.6329640749341365
2772.7872,1.8732557701512178
2773.9801,-3.5649465970641927
2775.1723,-11.431851050038631
2776.3639,-3.4776299982821115
2777.5548,-4.252341647113155
2778.745,-12.356009460326675
2779.9346,-12.638614420824865
2781.1235,-9.150014074975672
2782.3117,-5.239939709388693
2783.4992,-14.808031202033419
2784.6861,-4.553876083881789
2785.8723,-12.07691395367408
2787.0579,-7.026538916928985
2788.2428,-5.052024430794802
2789.427,-5.702573757296534
2790.6106,-3.2773396887351396
2791.7935,-1.6254180486999417
2792.9757,2.604128079843065
2794.1573,4.762251851853762
2795.3382,13.999906396251049
2796.5184,11.818044794331456
2797.698,24.66761998739247
2798.8769,30.049584798551052
2800.0551,30.414891804248384
2801.2327,52.91449328042927
2802.4096,52.64934119889017
2803.5859,50.97038700228268
2804.7615,71.87858160676495
2805.9364,86.77487541879196
2807.1106,102.2602181260333
2808.2842,113.6855585484098
2809.4572,137.75184448324023
2810.6294,150.9100225909878
2811.801,181.11103815459774
2812.972,206.15583494791525
2814.1423,229.5953549336756
2815.3119,269.9305380130556
2816.4808,294.3123217912791
2817.6491,333.34164117426457
2818.8167,375.86942812480777
2819.9837,406.19661127228784
2821.15,458.0241154873905
2822.3157,495.402861578835
2823.4807,547.8337657750997
2824.645,585.0177393506349
2825.8086,626.2556881015529
2826.9716,668.1985119737897
2828.134,715.8471046507241
2829.2957,751.3523531337498
2830.4567,788.5151372657899
2831.617,806.2363293762442
2832.7767,821.3667939093615
2833.9358,814.1073872470271
2835.0941,803.5589575574587
2836.2519,788.7723448678005
2837.4089,781.9983811696073
2838.5653,753.0878905667106
2839.7211,732.5916893429585
2840.8761,737.8605862513205
2842.0306,743.995382718849
2843.1843,749.1968727939907
2844.3374,769.3158430852393
2845.4899,800.8030727091189
2846.6417,835.2593330889961
2847.7928,867.1353876402065
2848.9433,911.8819914254931
2850.0931,973.9998908362448
2851.2422,1011.9398231450314
2852.3907,1051.2525158844232
2853.5385,1096.3386864675936
2854.6857,1130.49904179519
2855.8323,1165.184277804474
2856.9781,1215.995079127717
2858.1233,1252.3321187453473
2859.2679,1276.546057477843
2860.4118,1323.737543622361
2861.555,1354.0072127105987
2862.6976,1382.9556870368765
2863.8395,1424.7835753554448
2864.9808,1456.341472590996
2866.1214,1463.0299594203875
2867.2614,1476.2996019570621
2868.4007,1478.5509516841623
2869.5393,1508.9845453218363
2870.6773,1513.3509048047208
2871.8146,1522.3005369776097
2872.9513,1515.533933551787
2874.0874,1506.8015710155312
2875.2227,1490.3039107017826
2876.3574,1479.7413988754652
2877.4915,1479.414466898464
2878.6249,1450.3235313352507
2879.7577,1428.0689939561516
2880.8898,1415.6512420282588
2882.0212,1410.6206485379744
2883.152,1386.9275723151877
2884.2821,1390.7223580835825
2885.4116,1379.9553366975674
2886.5405,1379.0768251043269
2887.6686,1374.6371264514921
2888.7962,1393.6865300959262
2889.923,1397.1753116481218
2891.0493,1410.903732781706
2892.1748,1406.3220411985535
2893.2997,1427.7304704915018
2894.424,1433.8792401901687
2895.5476,1435.7185555468677
2896.6706,1448.2986074751198
2897.7929,1470.4695725312606
2898.9145,1476.9816127886409
2900.0355,1505.4848756159151
2901.1559,1518.2294936119224
2902.2756,1558.9655843206529
2903.3946,1578.5932501038017
2904.513,1600.1625777334093
2905.6308,1612.6236381955837
2906.7479,1628.5264864748058
2907.8643,1659.8711614293215
2908.9801,1662.3576856321133
2910.0953,1669.5360650574507
2911.2098,1656.4062890560267
2912.3236,1672.6683302831739
2913.4368,1649.9221448301623
2914.5494,1636.9676720615798
2915.6613,1619.404834842792
2916.7725,1579.9835396694893
2917.8831,1567.2536768433122
2918.9931,1541.715120866068
2920.1024,1525.6177305670253
2921.211,1513.7113493583038
2922.319,1493.3958053958445
2923.4264,1492.4709116984764
2924.5331,1488.2364663510693
2925.6391,1476.9922525137858
2926.7445,1476.9880384644239
2927.8493,1472.8235777108575
2928.9534,1470.1986089910831
2930.0569,1487.51285631486
2931.1597,1486.6660289899623
2932.2619,1500.7078214490352
2933.3634,1508.2879132580647
2934.4643,1510.4059689759579
2935.5645,1505.2616380787435
2936.6641,1491.8045549383917
2937.763,1483.2843388742547
2938.8613,1471.900594287641
2939.959,1434.3529107470158
2941.056,1402.390863101838
2942.1523,1336.1640118580378
2943.248,1279.1219034976375
2944.3431,1218.6640711410184
2945.4375,1145.9900351173442
2946.5313,1069.6493035691378
2947.6244,995.3913731790216
2948.7169,930.0657299331257
2949.8087,858.171849863666
2950.8999,792.3091997022022
2951.9904,727.0272375985755
2953.0803,671.1754137795348
2954.1696,634.753171201557
2955.2582,593.5599461093657
2956.3462,558.0451684001528
2957.4335,521.0582620355103
2958.5202,496.69864539658
2959.6062,484.7157316539204
2960.6916,464.20892901110415
2961.7764,448.6276408245466
2962.8605,438.5712658085744
2963.9439,425.389198191238
2965.0267,426.0308278148755
2966.1089,413.54554026793335
2967.1905,415.48271687854975
2968.2714,421.3417348394082
2969.3516,413.82196718836514
2970.4312,420.27278274985974
2971.5102,429.5435462101114
2972.5885,431.23361805261237
2973.6662,439.6423544654193
2974.7432,437.4691073242532
2975.8196,447.5132241084116
2976.8954,439.5240479225018
2977.9705,441.0009173959988
2979.045,438.1431667631371
2980.1188,432.1501258481423
2981.192,421.07112009380893
2982.2645,418.9054706214302
2983.3364,392.70249434158853
2984.4077,371.96150397581164
2985.4783,358.53180831860277
2986.5483,342.46271244485047
2987.6177,318.503517844125
2988.6864,297.1035225813701
2989.7545,270.1620215364943
2990.8219,246.17830661837144
2991.8887,225.901667034255
2992.9548,204.48138952961585
2994.0204,186.71675859090834
2995.0852,169.50705665977267
2996.1495,146.40156431068226
2997.2131,118.44956042303966
2998.276,117.5003224122321
2999.3383,86.90312650915149
3000.4,78.25724776968673
3001.4611,70.01196038069554
3002.5215,54.466537746463416
3003.5812,40.320252571156516
3004.6404,37.372377014275685
3005.6989,28.072182832119438
3006.7567,24.418941407262594
3007.8139,14.5119238415582
3008.8705,11.650400992670143
3009.9264,7.783643573142854
3010.9818,6.310922179017211
3012.0364,-2.4184926715023494
3013.0905,-3.955330523320299
3014.1439,-1.5002967605996105
3015.1966,-9.904057253751375
3016.2487,-11.267262885222294
3017.3002,-9.94046559592715
3018.3511,-4.474104766824439
3019.4013,-6.318520473621788
3020.4509,-4.624008095720228
3021.4998,-5.140799890501569
3022.5481,-5.069081921506779
3023.5958,-7.158988895686207
3024.6428,-4.510604879862115
3025.6892,4.3760575774423955
3026.735,5.851030988646812
3027.7802,2.8143478224100704
3028.8247,5.416040488880867
3029.8685,8.806141370064893
3030.9118,10.534682793807235
3031.9544,14.351696999891772
3032.9963,15.407216122755699
3034.0376,23.95127215331928
3035.0783,28.08389692843099
3036.1184,31.90512204542665
3037.1578,34.36497882080363
3038.1966,40.36349825200813
3039.2348,40.55071099283674
3040.2723,39.77664729345105
3041.3092,50.89133699850555
3042.3455,54.19480955488871
3043.3811,49.28709390057554
3044.4161,53.518218431593084
3045.4505,49.738211051097664
3046.4842,52.897099127063285
3047.5173,56.594909530082134
3048.5498,58.38166860177532
3049.5816,55.55740211781497
3050.6128,55.52213527005685
3051.6434,58.675892694782675
3052.6734,66.41869847305284
3053.7027,55.60057609916893
3054.7314,54.171548403245765
3055.7594,56.78163765939237
3056.7868,56.53086560000261
3057.8136,61.41925338965399
3058.8398,58.396821627615424
3059.8653,51.9135902989635
3060.8902,55.26957880480677
3061.9145,62.36480602711785
3062.9381,61.899290295173785
3063.9612,54.623049314603804
3064.9835,62.93610017204412
3066.0053,61.18845940790072
3067.0264,57.23014293321876
3068.0469,57.61116604715852
3069.0668,65.33154347657938
3070.086,54.19128937222885
3071.1046,56.14041723153912
3072.1226,54.3289400100295
3073.1399,50.00687010181531
3074.1567,46.57421935772243
3075.1727,45.330999128508324
3076.1882,44.0772202991883
3077.203,35.86289330146772
3078.2173,34.08802812627982
3079.2308,32.00263440592903
3080.2438,28.95672143183964
3081.2561,26.750298175409682
3082.2678,22.483373318470086
3083.2789,22.80595527534888
3084.2893,14.86805223554046
3085.2991,17.669672160479678
3086.3083,13.960822862921077
3087.3169,12.941511978922506
3088.3248,10.76174700493371
3089.3321,10.721535307989313
3090.3388,7.220884147506666
3091.3449,8.109800675687723
3092.3503,9.538291972525855
3093.3551,8.756365036916378
3094.3593,7.514026772371977
3095.3629,7.461283994841665
3096.3658,3.2481434451343034
3097.3681,-0.27538821055401286
3098.3698,2.740695661491486
3099.3708,0.1964044461137746
3100.3713,4.091747500748909
3101.3711,4.176732220752513
3102.3702,2.2513659605629073
3103.3688,5.515656032851098
3104.3667,-0.1303902722253838
3105.364,3.7132342803343477
3106.3607,-7.703461771870053
3107.3568,0.2695300716288216
3108.3522,2.132295268881478
3109.347,1.5849165853327065
3110.3412,6.577476765104592
3111.3348,5.910058536470103
3112.3277,1.0827445619273703
3113.32,3.4456174448741876
3114.3117,1.2987597778809317
3115.3028,2.5422541190618375
3116.2932,-0.27381698645628205
3117.2831,1.5006289810308289
3118.2723,6.965677276659093
3119.2608,3.521413140558252
3120.2488,6.967921743201359
3121.2361,3.20528821984729
3122.2229,2.4335976360758167
3123.209,2.002935025413919
3124.1944,5.263385397052517
3125.1793,4.265033740153314
3126.1635,7.357964991244145
3127.1471,8.442264044202616
3128.1301,5.518015719326769
3129.1125,10.485304752491984
3130.0942,11.844215824393544
3131.0753,5.6448335108738235
3132.0558,10.837242269332975
3133.0357,9.571526500722925
3134.015,9.897770497623199
3134.9936,10.31605845689809
3135.9716,9.226474476434262
3136.949,11.429102550957765
3137.9258,14.72402658292998
3138.902,12.611330360521322
3139.8775,14.391097524661959
3140.8524,12.2634115901688
3141.8267,12.72835592794786
3142.8004,16.336013786271124
3143.7735,17.186468286127067
3144.7459,15.529802385144023
3145.7178,14.616098869085661
3146.689,18.495440368417675
3147.6596,17.767909367444773
3148.6295,22.533588165517315
3149.5989,16.442558884306592
3150.5676,19.444903420147966
3151.5357,18.39070350495136
3152.5032,21.38004067617763
3153.4701,22.16299628738048
3154.4364,22.03965147831316
3155.402,21.610087167099024
3156.367,27.724384051464924
3157.3315,25.88262261303683
3158.2952,22.234883056196978
3159.2584,23.781245326501356
3160.221,21.971789147157224
3161.1829,24.056594003559383
3162.1442,23.53573916138481
3163.105,25.10930364574454
3164.065,28.977366246392222
3165.0245,27.540005501988553
3165.9834,30.99729966142055
3166.9416,28.19932669817525
3167.8993,34.14616427576672
3168.8563,30.13788977571577
3169.8127,35.02458023808157
3170.7684,33.5563124015444
3171.7236,33.48316265453882
3172.6782,33.45520704993625
3173.6321,38.37252130577652
3174.5854,39.535180805547434
3175.5381,35.69326054901158
3176.4902,38.246835140579805
3177.4417,39.69597882773032
3178.3926,40.040765475473066
3179.3428,40.03126855185818
3180.2924,37.06756112452821
3181.2415,39.99971586081299
3182.1899,40.427805057366804
3183.1377,43.05190061084679
3184.0848,42.47207401363205
3185.0314,41.33839632758268
3185.9773,45.45093818983804
3186.9227,44.25976982415355
3187.8674,42.91496099977528
3188.8115,45.2665810433516
3189.755,46.61469885238128
3190.6979,47.2593828716973
3191.6402,48.850701079985626
3192.5818,49.98872098333841
3193.5229,49.67350959934084
3194.4633,52.055133445690856
3195.4031,50.683658543351356
3196.3423,47.10915039273384
3197.2809,50.93167398741328
3198.2189,52.75129384987313
3199.1563,51.918073993280125
3200.0931,55.93207790328807
3201.0292,56.74336854637002
3201.9648,57.15200832967828
3202.8997,58.25805909293145
3203.834,55.46158210432805
3204.7677,55.31263804948604
3205.7008,58.46128705940753
3206.6333,57.70758871196827
3207.5652,58.05160200043112
3208.4964,57.49338534098307
3209.4271,56.982996569295096
3210.3571,61.47049294610431
3211.2865,58.65593116231787
3212.2154,63.38936729413798
3213.1436,65.82085683120758
3214.0712,65.85045462927589
3214.9982,63.72821488588359
3215.9246,65.40419114006679
3216.8503,67.32843629357946
3217.7755,64.30100259413365
3218.7001,64.97194161615707
3219.624,71.54130429106738
3220.5473,69.90914090056279
3221.4701,67.4255010109285
3222.3922,70.9404334893583
3223.3137,72.80398652879094
3224.2346,70.71620761276085
3225.1549,73.57714349676259
3226.0746,73.8368402291286
3226.9937,73.5953431224199
3227.9121,75.10269675082908
3228.83,74.80894495259533
3229.7473,78.4641308149308
3230.6639,79.21829667695823
3231.5799,76.02148409315902
3232.4954,79.42373382583162
3233.4102,80.47508587705958
3234.3244,78.82557945468919
3235.238,80.37525296181579
3236.151,82.52414401327893
3237.0634,81.12228942016563
3237.9752,82.96972516832147
3238.8864,83.21648643236908
3239.797,83.41260755723384
3240.7069,84.95812205567626
3241.6163,83.80306260633073
3242.5251,86.99746103825044
3243.4332,83.94134834245786
3244.3408,85.38475464000089
3245.2477,86.72770921251394
3246.154,88.42024048778379
3247.0598,84.96237602632019
3247.9649,88.55414250443044
3248.8694,88.04556574879808
3249.7733,90.73667070056516
3250.6766,85.87748142041808
3251.5793,93.76802106167645
3252.4814,92.70831191888506
3253.3829,91.29837534890851
3254.2838,96.43823178152823
3255.1841,92.27790073354186
3256.0838,93.06740075736472
3256.9829,97.40674948263309
3257.8814,97.2459636083092
3258.7792,94.98505885928779
3259.6765,96.62404998800392
3260.5731,94.81295079704209
3261.4692,96.15177412274622
3262.3647,97.14053185333071
3263.2595,100.02923491549222
3264.1538,100.21789326452205
3265.0474,99.0065158554191
3265.9404,99.2951106410033
3266.8329,101.58368458402941
3267.7247,99.32224365430113
3268.616,98.46079280578515
3269.5066,98.49933599922574
3270.3966,100.03787621075926
3271.286,99.07641543152863
