RamanShift,CorrectedData
30.1047,147.04089382836275
32.3739,136.21972906161207
34.6426,123.69856282445245
36.9109,110.72739228427764
39.1787,99.15621337149574
41.4461,91.63502090924086
43.7131,80.06380872908497
45.9796,70.54256974624977
48.2456,58.121296075318845
50.5112,52.14997912545007
52.7764,38.12860972458833
55.0411,26.0571781791787
57.3054,17.235674414380163
59.5692,8.664088094779913
61.8326,-2.1075912873916085
64.0955,-10.87937432654483
66.3579,-20.701250562253243
68.6199,-28.17310084914081
70.8815,-37.24459923633841
73.1426,-36.86513832369947
75.4032,-21.633738637531067
77.6634,24.400947578591527
79.9231,140.09048420214194
82.1824,423.9364348665844
84.4412,896.7403618044785
86.6995,1530.953823009019
88.9574,2142.178367505998
91.2148,2574.765529011668
93.4717,2774.8168198205008
95.7282,2813.7837264793084
97.9842,2812.817707786739
100.2398,2787.270194403601
102.4949,2753.142588862528
104.7495,2713.086265823449
107.0036,2654.45257241487
109.2573,2610.692828634432
111.5105,2559.6083279352515
113.7632,2486.250337663518
116.0154,2412.820099569336
118.2672,2326.718830540307
120.5185,2256.847723335833
122.7693,2195.157947448127
125.0197,2123.500649800924
127.2696,2066.6269553663806
129.519,2023.6879678816472
131.7679,1992.3347704176053
134.0163,1963.9684258082557
136.2642,1953.1899769642516
138.5117,1932.0004471565626
140.7587,1907.8508401242586
143.0052,1876.2421402864052
145.2512,1812.4253129835593
147.4967,1771.5013047938573
149.7417,1722.9710441711832
151.9863,1702.7854418544055
154.2304,1688.8453913526857
156.4739,1655.701769147329
158.717,1659.655434831188
160.9596,1639.207231440097
163.2017,1637.8079854133368
165.4433,1645.808506798116
167.6844,1632.459589263563
169.925,1593.3120100207211
172.1651,1547.8165299560396
174.4047,1517.7238940228465
176.6439,1478.684831696305
178.8825,1441.6500572743394
181.1206,1411.4202702680263
183.3582,1390.996155771942
185.5954,1387.92838476646
187.832,1369.7176143219926
190.0681,1350.7644876296679
192.3037,1336.769634183439
194.5388,1323.6836699696128
196.7734,1319.2071976068014
199.0075,1324.59080647678
201.2411,1328.2350727692524
203.4742,1319.5905594280139
205.7068,1319.6078161145108
207.9389,1341.8373792942837
210.1704,1332.0797722367952
212.4015,1322.0855047931348
214.632,1315.4550734935942
216.862,1302.9889616476107
219.0915,1294.8376394100706
221.3205,1286.6515639059712
223.549,1287.2311793119347
225.777,1263.2769169380658
228.0044,1248.5391952221594
230.2314,1250.0684199692419
232.4578,1230.814984498947
234.6837,1199.4792696302259
236.909,1186.3116438738793
239.1339,1159.4124637459165
241.3582,1155.6820738992296
243.582,1126.9208073925874
245.8053,1127.978985727938
248.0281,1120.1569191380204
250.2503,1119.4549065757865
252.472,1109.6732357926173
254.6932,1103.3121833453465
256.9139,1097.6720146940743
259.134,1093.65298426578
261.3536,1096.3553355107238
263.5727,1100.4793009426348
265.7912,1120.2251021116908
268.0092,1152.292949563277
270.2267,1167.1830426405268
272.4436,1185.595569163646
274.6601,1200.7807052810094
276.8759,1198.7886152850374
279.0913,1208.669451460344
281.3061,1204.0233541036575
283.5204,1190.5004514250127
285.7341,1198.3008595942115
287.9473,1210.074682876051
290.16,1197.4720135523203
292.3721,1165.542931804061
294.5837,1137.387505837597
296.7947,1098.2057922038202
299.0052,1076.0978360797503
301.2152,1062.9636716603486
303.4246,1050.3533223796003
305.6334,1029.016801041852
307.8418,1008.4041099479209
310.0495,988.0652411084545
312.2568,947.3501764500597
314.4635,911.8588880186919
316.6696,886.691338386805
318.8752,824.5474810082644
321.0802,806.677260470022
323.2847,794.2306131135565
325.4887,780.2074672135736
327.692,786.0077431024736
329.8949,806.7813533105818
332.0972,824.6782025081475
334.2989,844.8481872976056
336.5001,821.14119603461
338.7007,803.4071086263332
340.9008,771.5457967685361
343.1003,728.0071241229091
345.2992,675.7409466356846
347.4976,643.6971129730248
349.6955,617.7254650436821
351.8927,606.6258383194393
354.0895,585.6980620948243
356.2856,571.141959598107
358.4812,550.2573482005773
360.6763,540.3940395621064
362.8707,534.5518398399922
365.0646,526.4305497875937
367.258,522.9799648127519
369.4508,532.5498750590032
371.643,545.5900654400843
373.8346,553.5003155442341
376.0257,565.0803995037916
378.2162,577.8300859160922
380.4062,563.4491377276693
382.5956,550.337312106755
384.7844,515.1943605870911
386.9726,487.5700291990456
389.1603,469.21405882104455
391.3474,437.02618545581345
393.5339,449.6061404139375
395.7199,443.45365063574104
397.9052,453.2684385654868
400.09,455.0502222129019
402.2743,490.39871505502924
404.4579,505.01362601841015
406.641,522.4446591256003
408.8235,558.7415133490194
411.0054,584.7538824366404
413.1868,651.0814545490225
415.3675,720.5239119991866
417.5477,729.6309305893399
419.7273,665.4021789164506
421.9064,554.5373182811788
424.0848,497.136003330163
426.2627,446.1478831646691
428.4399,407.47260191460373
430.6166,373.85979924839535
432.7928,335.8591107597467
434.9683,301.9701683037624
437.1432,272.9426003769581
439.3176,252.02603245614728
441.4914,239.8200872887178
443.6645,240.62438510179754
445.8371,234.98854372431492
448.0091,232.11217857895508
450.1806,222.44490273851693
452.3514,216.93632695468023
454.5216,207.08605975467435
456.6913,195.89370749636646
458.8603,199.9088744667638
461.0288,204.5811629939367
463.1967,199.21017340686763
465.3639,195.14550398872848
467.5306,177.83675103058908
469.6967,176.98350887206607
471.8622,164.885370074408
474.0271,167.49192542902915
476.1914,158.65276407849092
478.3551,150.5674734904369
480.5182,151.63563954598385
482.6807,150.95684662057374
484.8426,159.93067757329413
487.0039,183.45671375366328
489.1647,212.4345349118944
491.3248,250.46371896363394
493.4843,252.69384170018316
495.6432,241.52447640820674
497.8015,208.7551938474312
499.9592,185.18556236233894
502.1163,149.56514820986035
504.2728,123.74351579507152
506.4287,109.62022802739716
508.5839,98.34484657882672
510.7386,88.01693202514889
512.8927,97.4360439587042
515.0461,102.75174109166528
517.199,103.71358116184433
519.3512,132.07112087953715
521.5029,167.02391591790388
523.6539,208.42152062939522
525.8043,217.2634876962229
527.9541,175.39936771638327
530.1033,133.7787091152402
532.2519,102.55105856416276
534.3999,78.7659613967337
536.5472,70.6729619210264
538.694,83.07160365745494
540.8401,81.21142941970425
542.9856,93.74198119074526
545.1305,108.86280014143472
547.2748,109.72342650520977
549.4185,115.57339942688077
551.5615,126.4622569540254
553.704,141.38953597848672
555.8458,131.0047721274857
557.987,160.10749961434908
560.1276,166.34725134235532
562.2675,197.7735586137103
564.4069,242.63595106714683
566.5456,265.5339563636628
568.6837,254.76709973789684
570.8212,218.6349037691482
572.958,169.2368884890459
575.0942,147.77257174286933
577.2299,122.54146968353007
579.3648,95.49309698621391
581.4992,76.77696710069335
583.6329,73.34259252180982
585.766,88.6394849766366
587.8985,115.86715545882157
590.0304,132.32511407561788
592.1616,158.26286977560744
594.2922,174.92993018412244
596.4222,141.42580134386708
598.5515,115.39998754824569
600.6802,69.40199167640571
602.8083,51.78131545349561
604.9358,38.73745991064402
607.0626,23.6699255611677
609.1888,36.67821253100874
611.3144,49.211584483553
613.4393,83.76930471540504
615.5636,116.55063603105464
617.6873,141.75484039729872
619.8103,169.73117861542937
621.9327,172.62891006919108
624.0544,140.7472924450169
626.1756,112.78558170305132
628.2961,71.44303239596616
630.4159,61.868897948578024
632.5351,65.5124310712747
634.6537,61.17288385575421
636.7716,47.549507738591046
638.8889,42.54155354463228
641.0056,55.94827162322986
643.1216,53.76891189832054
645.237,67.052723734359
647.3518,52.19895595811272
649.4659,39.45685672582158
651.5793,29.475673671736786
653.6922,26.80465403554149
655.8043,12.043044762162253
657.9159,-0.0599074715196366
660.0268,-4.7549561090531824
662.137,4.657146004487913
664.2466,12.525693526040413
666.3556,1.0999345876514326
668.4639,-1.2208828038881165
670.5716,5.61247836986513
672.6786,-11.900732676026564
674.785,-4.111266782625307
676.8907,-11.41975590267407
678.9958,-9.726790917360859
681.1002,-10.28284862451369
683.204,-9.438308651319176
685.3072,5.25655210069317
687.4097,-3.148448981302863
689.5115,-8.403494562697915
691.6127,-8.658735855877694
693.7132,3.585759877681994
695.8131,-4.369988122723498
697.9123,-1.7759606536569663
700.0109,-2.3320948554992356
702.1089,16.1116721491278
704.2061,9.955403260924186
706.3028,37.399161219473854
708.3987,45.54300866480662
710.4941,55.73700786296172
712.5887,64.68122062454768
714.6827,63.17570820280389
716.7761,57.87053120415817
718.8688,64.11574960328153
720.9608,66.56142279613982
723.0522,72.80760953754202
725.1429,82.3043679166833
727.233,111.70175529468224
729.3224,156.24982820961486
731.4112,195.4486420825392
733.4993,201.5482507720153
735.5867,177.54870618211703
737.6735,131.80005820143697
739.7596,104.25235494308049
741.845,90.0556432021533
743.9298,100.25996873123722
746.014,100.16537638235923
748.0974,122.97191000494627
750.1802,115.0796124467729
752.2624,113.78852532589462
754.3439,102.94868910957211
756.4247,83.81014312718071
758.5048,78.37292567860959
760.5843,81.68707422564694
762.6631,109.5026254463528
764.7413,134.51961520191617
766.8188,183.63807825850085
768.8956,236.95804803707483
770.9718,278.6795561222252
773.0473,261.4526317289599
775.1221,249.92730128549124
777.1962,228.00358860550546
779.2697,281.08151500341705
781.3426,346.3110995136035
783.4147,389.4923583596287
785.4862,399.7253043019448
787.557,336.05994620608135
789.6271,256.6962889403155
791.6966,168.53433401232542
793.7654,104.62408036282613
795.8335,76.66552524719054
797.901,60.50866487455062
799.9678,47.253494687383636
802.0339,52.950009523080666
804.0993,62.348203746498825
806.1641,55.448071192995144
808.2282,47.99960507444564
810.2916,38.45279804824622
812.3544,31.507642291797197
814.4164,24.614129597971328
816.4778,33.622251444565904
818.5385,36.78199906323687
820.5986,53.643363349418905
822.658,104.25633483072738
824.7166,137.07090349834436
826.7747,194.587058300889
828.832,235.1047868162717
830.8886,286.3740746765327
832.9446,298.7449051626651
834.9999,289.5172586919216
837.0545,240.59111269410607
839.1085,188.9164417038495
841.1618,139.79321784987235
843.2143,108.87141137173148
845.2662,86.85099111105183
847.3175,79.33192482074446
849.368,68.41417938521181
851.4179,74.1477208955373
853.467,70.28251475866307
855.5155,79.66852564005512
857.5633,76.40571750235438
859.6105,73.89405351151709
861.6569,62.3334960694433
863.7027,58.124006839091976
865.7478,52.61554686008799
867.7922,48.10807659081661
869.8359,42.15155596350769
871.8789,35.04594442931102
873.9212,42.14120101786125
875.9629,41.18728440833388
878.0039,59.53415285849303
880.0441,77.68176421423004
882.0837,87.13007572609501
884.1226,98.02904386782109
886.1609,116.52862424184082
888.1984,157.12877147029747
890.2352,195.17943901004844
892.2714,189.48057874666415
894.3069,171.58214061392061
896.3416,157.98407265078845
898.3757,118.38632118041733
900.4091,106.68883094611704
902.4418,103.04154550733404
904.4739,122.74440735662756
906.5052,132.79735795614192
908.5358,132.80033754057683
910.5658,125.5532850166586
912.595,105.15613796311152
914.6236,80.85883270312729
916.6515,61.111304508336616
918.6786,55.81348784178226
920.7051,44.16531655539427
922.7309,40.16672394296813
924.756,39.467642856646535
926.7804,47.718005746905305
928.8041,54.31774466954482
930.8272,69.41679120318554
932.8495,73.06507638327128
934.8711,84.31253055107811
936.892,81.10908331723158
938.9123,108.404663449233
940.9318,121.44919890349217
942.9506,128.5926165523731
944.9688,122.58484205374862
946.9862,105.9757997795657
949.003,98.66541287592327
951.019,76.95360342916308
953.0344,60.39029253897252
955.0491,61.52540053550331
957.063,55.7088471450046
959.0763,61.74055147847184
961.0888,58.970432089813244
963.1007,51.19840691553202
965.1119,51.724393302427416
967.1223,53.54830808531494
969.1321,59.42006758176694
971.1412,39.78958757387261
973.1495,46.45678324952087
975.1572,43.77156939870497
977.1641,52.883860346851066
979.1704,58.44356998166961
981.1759,60.35061166203309
983.1808,50.70489816237864
985.1849,40.65634165363713
987.1884,37.55485379969139
989.1911,43.20034585786061
991.1932,51.84272870991572
993.1945,49.981912805624575
995.1951,55.567808076327765
997.1951,54.60032395354722
999.1943,51.87936931312743
1001.1928,45.30485248490993
1003.1906,57.376681279942886
1005.1877,68.34476305622638
1007.1841,88.00900459799345
1009.1798,105.71931200603035
1011.1748,95.875590501033
1013.1691,75.82774424650529
1015.1627,63.27567644719602
1017.1556,44.46928954957616
1019.1477,31.70848536736048
1021.1392,17.893165269571114
1023.1299,15.32323030814598
1025.12,5.098581356091358
1027.1093,29.919119133182107
1029.0979,36.73474430820738
1031.0859,43.74535725076498
1033.0731,55.85085796310557
1035.0596,47.25114601002679
1037.0454,56.196120397817936
1039.0304,42.23567966025723
1041.0148,26.1197217691614
1042.9985,14.648144273991306
1044.9814,21.320844463010758
1046.9636,7.5377194780024865
1048.9452,13.498666247540541
1050.926,31.403581624822777
1052.9061,37.30236232806044
1054.8855,36.6949047614296
1056.8642,45.78110495608303
1058.8421,48.36085857622459
1060.8194,33.23406082824738
1062.7959,36.350606434936594
1064.7717,42.310389786737005
1066.7469,44.06330491058782
1068.7213,38.25924541032441
1070.695,38.79810444914938
1072.6679,62.729774807672925
1074.6402,85.80414887852476
1076.6117,83.82111842703739
1078.5826,81.33057436050228
1080.5527,53.08240674800027
1082.5221,30.27650484530693
1084.4908,16.26275737737444
1086.4587,7.5410527663897255
1088.426,-2.388720728087037
1090.3925,-2.626674921905874
1092.3584,6.977078392970839
1094.3235,4.272427450847886
1096.2879,18.709260416259326
1098.2515,34.68746541101541
1100.2145,53.85693036983366
1102.1767,66.96754288055718
1104.1382,97.91918999246036
1106.099,126.3617580851419
1108.0591,164.09513255900947
1110.0185,189.66919755085348
1111.9771,208.78383555651283
1113.9351,235.48892717513547
1115.8923,283.38435091803103
1117.8488,299.9699829416205
1119.8045,290.7456965684819
1121.7596,216.0613621214933
1123.7139,155.56684701607605
1125.6675,108.41201650703829
1127.6204,115.64673429351944
1129.5726,128.27086299053917
1131.524,132.58426405664989
1133.4748,108.23679766769612
1135.4248,70.12832267367992
1137.3741,46.45869684223578
1139.3226,23.577777239715374
1141.2705,23.035420467883682
1143.2176,32.581482892728445
1145.164,42.815820649882994
1147.1097,42.98828954916678
1149.0546,27.79874497224182
1150.9989,18.897041870887392
1152.9424,10.78303491889642
1154.8852,-6.743421398908822
1156.8272,-10.882472705535179
1158.7686,-8.984197257210212
1160.7092,-6.848564594259074
1162.6491,-0.6254545048766431
1164.5883,5.435321639902213
1166.5267,14.333952475297451
1168.4644,23.97062658217567
1170.4014,37.99553239806494
1172.3377,66.2588581207865
1174.2732,103.66079156820763
1176.2081,158.50151989560698
1178.1421,223.83122922165614
1180.0755,296.5001040800114
1182.0082,344.80832676601744
1183.9401,334.2560766100182
1185.8713,273.0435294942745
1187.8017,198.32085795848707
1189.7315,133.23823181192188
1191.6605,87.39581888063742
1193.5888,56.74378565831
1195.5163,49.632297764658006
1197.4432,28.161520251962315
1199.3693,26.031617676181213
1201.2947,11.142754311658223
1203.2193,-4.004905827579478
1205.1432,3.2388011610685226
1207.0664,-3.725920810789262
1208.9889,-4.498867863932105
1210.9106,0.2202011028095967
1212.8316,10.581572134294788
1214.7519,10.735529075573481
1216.6715,15.832355665880414
1218.5903,27.372335537095182
1220.5084,35.755752162774
1222.4257,43.782888742750515
1224.3424,44.304028119300824
1226.2583,59.51945269687212
1228.1735,81.1794444368719
1230.0879,95.73428470551335
1232.0016,119.88425405721546
1233.9146,137.77963208905487
1235.8269,154.670697199266
1237.7384,156.257726408287
1239.6492,154.69099518984967
1241.5592,162.67077745510824
1243.4686,189.5473455683076
1245.3772,228.62097026698495
1247.285,275.19192039320467
1249.1922,330.9604625028212
1251.0986,377.92686039977013
1253.0042,406.94137457838303
1254.9092,457.30426175372247
1256.8134,507.71577457143815
1258.7169,565.2261611041371
1260.6196,598.2356643472689
1262.5216,607.7945216440218
1264.4229,617.6029643552278
1266.3234,591.6112177637733
1268.2232,554.1195009765162
1270.1223,532.7280271842019
1272.0207,504.4870040363817
1273.9183,487.54663385532615
1275.8151,500.20711391843656
1277.7113,511.31863662764783
1279.6067,562.5313893828244
1281.5014,645.495554470644
1283.3953,759.5613085524712
1285.2885,874.8788218347152
1287.181,974.2482569281724
1289.0727,1014.319767694851
1290.9637,970.6434982542772
1292.854,911.16958258278
1294.7435,827.1981449502531
1296.6323,762.779300514895
1298.5204,692.4131561629231
1300.4077,646.0498111527614
1302.2943,615.1393578187036
1304.1802,603.4318820345451
1306.0653,584.6274635226881
1307.9497,563.526175971216
1309.8333,554.1780872219387
1311.7162,535.183259481403
1313.5984,516.8917494143764
1315.4798,511.553608333793
1317.3605,507.8688823836708
1319.2405,514.6376125924911
1321.1197,502.00983491004683
1322.9982,483.6855801397552
1324.876,449.31487406493517
1326.753,381.64773763205034
1328.6293,335.9341872944156
1330.5048,286.4742356888685
1332.3796,244.8678920929052
1334.2537,207.56516291927932
1336.127,176.21605213206624
1337.9996,165.72056161968976
1339.8714,151.47869150841336
1341.7426,138.6404402672951
1343.6129,137.05580485060636
1345.4826,123.52478082621457
1347.3515,123.39736239142928
1349.2196,117.77354250831257
1351.087,109.15331290495322
1352.9537,99.23666413170491
1354.8197,113.57358564738871
1356.6849,118.81406591845894
1358.5493,125.50809227563457
1360.4131,140.1556508614941
1362.276,162.6067265635354
1364.1383,176.56130286769968
1365.9998,189.6693616338615
1367.8606,193.53088295628248
1369.7206,187.69584503253105
1371.5799,179.064224124867
1373.4384,181.93599461859168
1375.2962,169.96112910836507
1377.1533,136.38959836948703
1379.0096,104.57137147764638
1380.8652,88.30641614463616
1382.7201,75.59469903653564
1384.5742,63.386185936360675
1386.4275,50.33084187118004
1388.2802,39.078631234201
1390.132,31.429517915322606
1391.9832,29.383465413657802
1393.8336,28.140436914024633
1395.6832,20.200395307406836
1397.5322,19.06330320338367
1399.3803,14.129123009530645
1401.2278,17.197816942790382
1403.0745,6.869347078814371
1404.9204,2.793675321276453
1406.7656,-0.6292364948428713
1408.6101,-1.4494265624996387
1410.4538,-0.06692678857757528
1412.2968,-2.4817546001892197
1414.139,1.706073244151014
1415.9805,8.096564778657239
1417.8213,8.989728020482971
1419.6613,26.485570905815905
1421.5006,40.63410128094705
1423.3391,67.33532672731201
1425.1769,89.48925442000535
1427.0139,142.395890860769
1428.8502,183.80524165645176
1430.6858,232.61731098994403
1432.5206,243.1321012060842
1434.3547,247.69961232353762
1436.188,229.8198419296486
1438.0206,229.94278513476598
1439.8524,217.16843475103997
1441.6835,212.94678129119308
1443.5139,219.02781309626369
1445.3435,220.01151637782272
1447.1724,231.19787515716285
1449.0005,218.186871255462
1450.8279,221.57848418191907
1452.6545,219.77269126386506
1454.4804,226.3694676128457
1456.3056,218.21878614268041
1458.13,208.22061750349422
1459.9536,190.22493016322414
1461.7766,173.88169050760126
1463.5987,151.89086302010804
1465.4202,128.2024104454096
1467.2409,109.11629400926324
1469.0608,97.73247365540209
1470.88,82.70090823639708
1472.6984,68.67155562749406
1474.5161,48.79437287693031
1476.3331,38.81931634622771
1478.1493,42.39634190896459
1479.9648,33.02540505052639
1481.7795,29.6064608323353
1483.5935,39.43946398555988
1485.4067,37.47436894530466
1487.2192,39.311129752279726
1489.031,48.0497000724518
1490.842,43.69003317867646
1492.6522,43.832081863312794
1494.4618,45.72579848181954
1496.2705,45.42113495133492
1498.0785,38.76804273173934
1499.8858,40.116472828702115
1501.6924,32.31637586021213
1503.4981,34.117702043093516
1505.3032,32.02040127100679
1507.1075,32.47442309643549
1508.911,28.87971675165943
1510.7138,27.48623114421457
1512.5159,27.293914892839837
1514.3172,21.25271634141228
1516.1178,19.012583560870098
1517.9176,19.823464409624364
1519.7166,18.685306555960665
1521.515,13.548057469930086
1523.3126,11.66166443473088
1525.1094,12.776074598080868
1526.9055,9.241234991081456
1528.7008,8.457092517073193
1530.4954,5.423593986984713
1532.2893,4.640686127173808
1534.0824,3.958315609762508
1535.8747,11.276429060465944
1537.6663,8.544973065416457
1539.4572,-0.8861059020177322
1541.2473,5.983138546081989
1543.0367,8.902661649831941
1544.8253,6.472418589517304
1546.6132,16.592364456396695
1548.4003,18.562454277004747
1550.1867,22.38264291195236
1551.9723,25.20288503622635
1553.7572,34.3731351009871
1555.5414,39.24334730536634
1557.3247,57.71347550476463
1559.1074,75.63347316214919
1560.8893,106.30329316335252
1562.6705,129.82288763787267
1564.4509,139.24220765217456
1566.2305,150.41120297449442
1568.0094,150.77982198064655
1569.7876,150.09801154233332
1571.565,144.21571702345886
1573.3417,150.58288228694744
1575.1176,157.64944975356616
1576.8928,165.86536033825348
1578.6672,177.1805533794535
1580.4409,193.09496655695676
1582.2138,203.1085357787485
1583.986,233.37119502186437
1585.7575,249.8328762322547
1587.5282,268.0935090221584
1589.2981,294.903020505485
1591.0673,300.8613351152098
1592.8358,311.2683743352775
1594.6035,306.87405664102
1596.3704,293.37829739508567
1598.1366,286.73100889138215
1599.9021,283.8321004900345
1601.6668,263.6314786838577
1603.4308,246.87904712734604
1605.194,250.3747068386789
1606.9564,268.9183563672451
1608.7182,294.20989175868704
1610.4791,332.49920636946297
1612.2394,389.73619061393293
1613.9988,451.2707315814644
1615.7576,496.25271246406356
1617.5156,520.3320119410291
1619.2728,517.4585037291328
1621.0293,465.68205634182596
1622.785,401.6525331179756
1624.54,337.3697927396281
1626.2942,279.78368987230465
1628.0477,221.44407580782865
1629.8005,190.50079904018668
1631.5525,145.15370584892477
1633.3037,129.00264060858103
1635.0542,98.49744624215683
1636.804,86.53796438262694
1638.553,72.72403567799205
1640.3013,65.80549991087341
1642.0488,46.93219613665184
1643.7955,46.20396275265341
1645.5416,39.32063768688229
1647.2868,42.53205840530299
1649.0313,29.63806198067394
1650.7751,31.988485060432936
1652.5181,33.6831639956375
1654.2604,33.17193481746014
1656.0019,37.054633220241925
1657.7427,42.98109456660467
1659.4828,54.55115384862398
1661.222,67.56464562856462
1662.9606,82.52140392317989
1664.6984,106.17126207357674
1666.4354,108.41405259564817
1668.1717,111.24960694357446
1669.9072,91.72775548739571
1671.642,62.29832748465583
1673.3761,52.31115127562143
1675.1094,30.866054577575795
1676.8419,24.412864584690936
1678.5737,19.80140818247824
1680.3048,10.381512012320712
1682.0351,9.903002517587282
1683.7646,6.965706037832035
1685.4934,4.369448813578941
1687.2215,0.06405701569508437
1688.9488,2.9993567713530354
1690.6754,1.1251742070849673
1692.4012,2.5413354194296573
1694.1263,4.197666493674177
1695.8506,-4.306006510307725
1697.5742,-3.369857574618834
1699.297,1.1559823356429035
1701.0191,-1.578584079743365
1702.7404,-2.0736541325581186
1704.461,0.27069063547290284
1706.1808,-1.7456106015712578
1707.8999,-0.5226186723184867
1709.6182,-3.760376966746662
1711.3358,-2.20892365387337
1713.0527,-1.0182593365503294
1714.7688,0.06163744951803096
1716.4841,3.2807983410378654
1718.1987,1.7392549740991115
1719.9126,0.38703895198381133
1721.6257,-1.1258181394184419
1723.338,-0.09928471808831318
1725.0496,1.7166820449165527
1726.7605,-1.2778740296072044
1728.4706,-1.0829091380297768
1730.18,2.1516332892400385
1731.8886,1.8258206400556105
1733.5964,5.539720280754096
1735.3036,4.493399559414513
1737.0099,4.086925768718771
1738.7156,7.420366156414843
1740.4204,7.5437879293814945
1742.1246,1.5572582202937042
1743.8279,7.260844086388886
1745.5306,9.454612569331772
1747.2325,11.538630638178887
1748.9336,9.762965167440882
1750.634,9.677682916242333
1752.3336,11.832850546078163
1754.0325,10.478534621666654
1755.7307,10.014801589397592
1757.4281,11.141717790875589
1759.1247,13.359349467557252
1760.8206,10.567762749482114
1762.5158,11.967023633096488
1764.2102,11.00719800916903
1765.9039,10.838351648798294
1767.5968,13.060550213010856
1769.289,13.973859254449877
1770.9804,16.77834419515318
1772.6711,13.92407031741999
1774.361,15.26110273576623
1776.0502,21.139506425467232
1777.7386,19.609346209187322
1779.4263,16.720686698195806
1781.1132,21.473592307668667
1782.7994,15.568127285574946
1784.4849,23.204355665148
1786.1696,21.88234132393967
1787.8535,21.30214790745856
1789.5367,17.213838842389748
1791.2192,18.317477342396955
1792.9009,19.013126449005654
1794.5818,20.000849020566562
1796.2621,22.880707725299203
1797.9415,17.052765031414793
1799.6202,20.317083178317432
1801.2982,19.623724234883667
1802.9755,22.422750066819276
1804.6519,20.064222343593002
1806.3277,20.548202510446117
1808.0027,19.724751811977626
1809.6769,22.89393128730464
1811.3504,19.205801778296745
1813.0231,22.460423897884368
1814.6951,25.0578580669399
1816.3664,27.898164481731612
1818.0369,26.88140308794914
1819.7067,24.40763355230058
1821.3757,22.526915272680043
1823.044,21.739307402905354
1824.7115,23.84486887152522
1826.3783,21.193658389695386
1828.0443,20.585734430122912
1829.7096,25.071155253578453
1831.3741,28.099978914975324
1833.0379,23.32226321851526
1834.701,25.58806568740043
1836.3633,21.047443611610248
1838.0248,27.05045402524361
1839.6856,24.797153751925052
1841.3457,21.637599344774685
1843.005,24.77184710894106
1844.6636,26.399953133196874
1846.3214,29.121973258596412
1847.9785,29.137963062194444
1849.6349,27.797977829826195
1851.2904,25.102072555947245
1852.9453,24.40030195703352
1854.5994,26.19272049854014
1856.2528,24.47938240191941
1857.9054,24.0603416266964
1859.5572,22.135651887602535
1861.2083,27.20536665876594
1862.8587,29.219539192958194
1864.5084,27.828222470897373
1866.1572,30.73146918110608
1867.8054,24.52933173382486
1869.4528,25.02186223197951
1871.0994,27.759112533202696
1872.7453,28.791134244908406
1874.3905,26.7679786969196
1876.0349,26.539696931147844
1877.6786,30.206339721824975
1879.3215,24.6179575777859
1880.9637,27.37460070580225
1882.6051,28.726319066466104
1884.2458,29.27316234662362
1885.8858,26.31517994585775
1887.525,28.50242097101986
1889.1634,23.434934265809517
1890.8011,22.11276838890221
1892.4381,25.58597166462411
1894.0743,28.154592196173752
1895.7098,29.01867783089
1897.3446,27.47827613456583
1898.9786,30.933434382807448
1900.6118,29.284199576438382
1902.2443,25.28061840694781
1903.8761,25.77273727298291
1905.5071,23.860602320384814
1907.1374,31.344259437267226
1908.7669,26.82375427313788
1910.3957,28.099132164062
1912.0237,27.770438177867362
1913.651,26.237717101390373
1915.2776,27.951013443763244
1916.9034,29.860371451740903
1918.5285,23.76583509256828
1920.1528,27.917448034886647
1921.7764,27.96525370967896
1923.3992,26.35929526875374
1925.0213,28.099615584267042
1926.6427,24.486257264782054
1928.2633,20.419262637865785
1929.8832,30.498673786222724
1931.5023,25.474532588364767
1933.1207,25.896880617817132
1934.7383,28.26575919335974
1936.3552,28.88120937480376
1937.9714,28.043271939302713
1939.5868,26.301987375198166
1941.2015,25.157395890398917
1942.8154,21.559537429794005
1944.4286,25.1584516866985
1946.041,27.454178138832177
1947.6528,24.496756012330337
1949.2637,28.036224258786532
1950.8739,22.772621584826823
1952.4834,23.90598641671508
1954.0921,29.53635695298908
1955.7001,21.963771153126714
1957.3074,22.838266681242388
1958.9139,23.709880981812887
1960.5197,26.178651270932335
1962.1247,22.894614527596104
1963.729,21.007807469013102
1965.3325,26.718266583446095
1966.9353,15.87602814907983
1968.5374,19.231128176916457
1970.1387,22.63360251919788
1971.7393,22.883486835854754
1973.3392,26.08081656048178
1974.9383,21.975626897838836
1976.5366,21.61795279187767
1978.1342,24.857828966793818
1979.7311,20.545289930603346
1981.3273,26.880369942744125
1982.9227,24.11310305720123
1984.5173,21.893523059155967
1986.1112,23.67166349265871
1987.7044,21.447557682824637
1989.2968,22.47123871805229
1990.8885,21.892739472264694
1992.4795,21.962092594672555
1994.0697,22.229330515559226
1995.6592,17.89448544558722
1997.2479,21.20758937312577
1998.8359,21.36867410759929
2000.4232,19.67777124635637
2002.0097,17.88491217305895
2003.5955,21.190128074591243
2005.1805,21.69344995898851
2006.7648,22.444908622384702
2008.3484,18.744534643979364
2009.9312,20.842358378522945
2011.5133,20.33840999332068
2013.0946,20.28271944725418
2014.6752,20.57531649582107
2016.2551,19.31623069169177
2017.8342,19.955491381783617
2019.4126,22.343127719851637
2020.9902,20.629168660096056
2022.5672,21.313642933285806
2024.1433,19.946579063898184
2025.7188,22.928005363274096
2027.2935,21.40794994328867
2028.8674,20.336440686536974
2030.4406,24.863505261534613
2032.0131,18.18917113343285
2033.5849,15.913465518747842
2035.1559,21.536415452104094
2036.7261,20.80804780899153
2038.2957,20.778389249535977
2039.8645,23.74746622578276
2041.4325,19.865304981993404
2042.9998,17.681931524954805
2044.5664,20.34737166280081
2046.1323,27.51165102684604
2047.6974,18.024795044931466
2049.2617,17.236828869781547
2050.8254,17.447777473872875
2052.3883,20.4076656573137
2053.9504,21.416518045734605
2055.5118,20.67435906068951
2057.0725,20.931212909567265
2058.6325,22.33710359301314
2060.1917,20.542054902360363
2061.7502,21.94609040557117
2063.3079,20.79923346518723
2064.8649,21.151507224289332
2066.4212,19.40293461796597
2067.9767,20.703538369790664
2069.5315,21.053341009307587
2071.0856,23.752364859025604
2072.6389,21.35063203092021
2074.1915,21.74816439944327
2075.7433,19.994983625540357
2077.2945,18.891111152675478
2078.8448,21.08656822436285
2080.3945,13.831375895205554
2081.9434,20.925555008941103
2083.4916,18.81912627099325
2085.039,22.062110177530258
2086.5857,18.254527036529254
2088.1317,22.496396935346198
2089.677,18.737739778791905
2091.2215,14.628575246713197
2092.7652,20.668922831579607
2094.3083,19.958801879574892
2095.8506,19.09823153019363
2097.3921,16.087230723342387
2098.933,20.22581820794548
2100.4731,22.914012572054943
2102.0124,19.45183220146474
2103.5511,21.23929525282874
2105.089,22.02641968828256
2106.6261,18.813223257568964
2108.1626,20.649723490166465
2109.6983,19.585937727421424
2111.2332,19.82188310418293
2112.7675,21.80757655944079
2114.301,18.143034833965956
2115.8337,18.528274450453722
2117.3657,19.413311750169115
2118.897,20.198162889094434
2120.4276,21.882843829078865
2121.9575,19.967370329990118
2123.4866,19.601757932867443
2125.0149,22.68602197907643
2126.5426,20.47017761396509
2128.0695,22.25423975602132
2129.5956,18.138223119031238
2131.1211,19.722142194238614
2132.6458,22.356011291505055
2134.1698,16.739844523470737
2135.693,20.67365577921582
2137.2155,19.557458780422067
2138.7373,20.341267042034715
2140.2584,20.075093883424486
2141.7787,16.308952420549446
2143.2983,20.242855568616775
2144.8171,18.126816079744103
2146.3353,18.960846503620573
2147.8527,16.49495920866717
2149.3693,18.429166373696475
2150.8853,16.71348001257158
2152.4005,16.197911954863912
2153.9149,20.18247386301016
2155.4287,19.767177237467934
2156.9417,21.70203337687002
2158.454,21.037053382177504
2159.9655,21.072248137331172
2161.4764,13.407628315901391
2162.9865,15.443204380736006
2164.4958,17.128986660606643
2166.0045,17.71498532985285
2167.5124,19.10121039152442
2169.0195,17.13767167152136
2170.526,18.62437880473159
2172.0317,19.96134125466635
2173.5367,17.54856829859318
2175.0409,19.486069014166247
2176.5445,17.423852303554014
2178.0473,17.911926874064363
2179.5494,18.65030125876669
2181.0507,18.188983811611138
2182.5513,17.577982700044885
2184.0512,15.167305909625313
2185.5504,19.206961250129993
2187.0488,15.296956379663484
2188.5465,15.38729876426082
2190.0435,15.577995716987516
2191.5397,16.969054397036174
2193.0353,22.010481807819417
2194.5301,15.702284783059454
2196.0241,13.8444699363736
2197.5175,14.387043724356374
2199.0101,11.980012465157628
2200.502,14.373382333056796
2201.9931,16.667159382533214
2203.4835,14.411349524332437
2204.9733,13.405958502528549
2206.4622,15.35099191708207
2207.9505,15.74645523389411
2209.438,12.442353765355804
2210.9248,12.788692666393871
2212.4109,13.535476967511485
2213.8962,15.132711571324933
2215.3809,15.180401245095766
2216.8648,14.028550604758465
2218.3479,14.027164114443536
2219.8304,14.976246097995997
2221.3121,13.075800738989301
2222.7931,16.325832071234473
2224.2733,18.02634399778455
2225.7529,10.277340258434293
2227.2317,8.628824412715048
2228.7098,12.730799917384815
2230.1872,11.133270142913375
2231.6638,12.086238332462571
2233.1397,7.889707617861561
2234.6149,14.043681010077222
2236.0894,11.99816144117932
2237.5632,13.603151702800972
2239.0362,13.108654466593649
2240.5085,10.814672268177375
2241.9801,10.97120751208567
2243.4509,9.12826249470534
2244.921,10.98583940271115
2246.3904,11.593940331495332
2247.8591,10.002567266591825
2249.3271,10.961722077595212
2250.7943,11.92140653407445
2252.2608,10.531622295981293
2253.7266,10.542370904053485
2255.1917,9.153653793712579
2256.656,9.465472294956427
2258.1197,9.67782764624637
2259.5826,10.09072099138902
2261.0447,12.654153377412754
2262.5062,11.068125750438682
2263.9669,7.332638930046457
2265.4269,8.24769362513446
2266.8862,8.213290471274732
2268.3448,11.429430021562368
2269.8026,12.546112746959636
2271.2598,8.763339004134494
2272.7162,8.381109024293849
2274.1719,9.049422951011266
2275.6268,9.968280844049247
2277.0811,7.0876826726761095
2278.5346,9.207628306477432
2279.9874,6.228117544161961
2281.4395,8.649150092362277
2282.8908,6.070725595429678
2284.3414,8.242843611224103
2285.7914,9.51550363689823
2287.2406,8.18870508717636
2288.689,6.362447281627809
2290.1368,7.036729457934882
2291.5838,9.111550790155434
2293.0302,8.736910381980024
2294.4758,8.06280724598372
2295.9206,9.339240307372478
2297.3648,9.066208410724272
2298.8082,9.943710307224634
2300.251,8.121744657397116
2301.693,11.650310022328213
2303.1343,9.179404881886938
2304.5748,9.10902759943923
2306.0147,4.539176446557008
2307.4538,4.5198496037219655
2308.8922,8.70104520602412
2310.3299,13.332761343355017
2311.7669,9.164996018595787
2313.2031,4.097747101299902
2314.6387,8.53101236937097
2316.0735,9.314789559735175
2317.5076,9.74907632400857
2318.941,8.233870220659384
2320.3737,7.2191687106650875
2321.8056,7.0049691726645165
2323.2369,6.7912689131047586
2324.6674,11.128065168383287
2326.0972,10.115355106984907
2327.5263,16.303135786113813
2328.9547,17.591404161820705
2330.3823,17.580157027124997
2331.8092,12.869390999132065
2333.2355,8.309102519145824
2334.661,9.549287899776317
2336.0858,5.589943370542585
2337.5098,7.631065065470921
2338.9332,4.7726490626882025
2340.3558,7.4146913640107215
2341.7778,6.007187923528292
2343.199,6.900134621183881
2344.6195,5.893527276848587
2346.0393,7.237361641392241
2347.4583,7.13163340674943
2348.8767,6.176338192481154
2350.2943,4.471471546832063
2351.7113,4.367028956283477
2353.1275,5.463005862602046
2354.543,5.809397663884141
2355.9578,7.806199703596093
2357.3718,4.603407267110356
2358.7852,4.051015561737358
2360.1978,3.5990197487535767
2361.6098,5.747414948925311
2363.021,6.846196247028757
2364.4315,6.6453586703659795
2365.8413,4.944897177777079
2367.2504,6.144806661648573
2368.6587,5.345081964918037
2370.0664,7.345717869075003
2371.4733,4.246709102158221
2372.8795,7.098050318749287
2374.285,4.249736130962759
2375.6899,4.301761079932696
2377.0939,6.404119664295806
2378.4973,8.056806339671198
2379.9,9.209815497636797
2381.3019,7.863141449202509
2382.7032,5.81677841328009
2384.1037,8.270720530149937
2385.5035,4.024961881924675
2386.9027,6.429496468009766
2388.3011,5.884318247561097
2389.6987,5.389421115439575
2391.0957,6.394798907662988
2392.492,4.100445406354986
2393.8876,9.756354329691199
2395.2824,11.512519354842887
2396.6765,3.7689340614178093
2398.07,5.875591913898518
2399.4627,3.732486339078264
2400.8547,3.3896107049943964
2402.246,4.746958342359456
2403.6366,3.65452254798992
2405.0265,4.912296571232723
2406.4156,3.17027362488961
2407.8041,6.37844687263938
2409.1918,5.286809446458101
2410.5789,2.8953544145374153
2411.9652,5.254074792200896
2413.3508,7.0129635658185805
2414.7358,1.9720136692197912
2416.12,1.2312179661042606
2417.5035,3.090569300451598
2418.8863,3.400060503929282
2420.2684,5.50968437729906
2421.6497,4.419433687322147
2423.0304,4.229301145662966
2424.4104,2.5392794197916118
2425.7896,6.249361134885177
2427.1682,5.759538890728017
2428.546,2.6198052246108645
2429.9232,2.930152616229094
2431.2996,3.040573519080027
2432.6753,6.701060357359516
2434.0503,3.811605524857704
2435.4246,4.672201348354186
2436.7982,0.6328401165125186
2438.1711,4.393514071274247
2439.5433,4.304215448252542
2440.9148,2.064936439125489
2442.2856,5.025669192529065
2443.6557,2.486405836449876
2445.025,-0.3528615513821123
2446.3937,1.507859081899042
2447.7617,3.718563314246154
2449.1289,5.979246708533481
2450.4955,4.8899047904496555
2451.8613,4.300533025890864
2453.2265,1.611126831854257
2454.5909,0.02168158233168782
2455.9546,2.7821926352037636
2457.3177,4.5426551317520705
2458.68,2.453064185436304
2460.0416,8.313414864289655
2461.4025,5.073702211814677
2462.7627,3.283921188379793
2464.1222,4.544066703616416
2465.4811,4.654133634316793
2466.8392,6.214116811832497
2468.1966,5.574011020973806
2469.5533,0.1338109844098483
2470.9093,3.7935113690696696
2472.2645,4.103106840544207
2473.6191,4.662592026489321
2474.973,6.621961513529833
2476.3262,4.031209841664641
2477.6787,3.990331484673092
2479.0305,7.549320876022449
2480.3816,1.558172409276665
2481.7319,0.5168804025065228
2483.0816,3.1754391582010726
2484.4306,5.133842973680629
2485.7789,4.342086114511133
2487.1264,1.550162794920098
2488.4733,3.258067185714168
2489.8195,3.465793442198411
2491.165,0.7733356870972301
2492.5097,-0.5193119915228621
2493.8538,2.5378444866713252
2495.1972,6.244804389939759
2496.5398,3.351566961163968
2497.8818,4.258131380777499
2499.2231,7.4644967956982455
2500.5637,6.420662310262799
2501.9035,3.8266269541628333
2503.2427,2.5823896928834102
2504.5812,0.6379494536433654
2505.919,4.8433051378376675
2507.256,7.848455640481795
2508.5924,2.403399808158227
2509.9281,4.358136408964839
2511.2631,7.662664186965586
2512.5974,4.466981842643051
2513.9309,3.6710879998532064
2515.2638,0.12498123778220815
2516.596,3.5786600989054023
2517.9275,3.8821231244482988
2519.2583,0.8353688198498546
2520.5884,0.7383956517278136
2521.9178,7.941202078346251
2523.2465,1.8937865505852898
2524.5745,4.946147439913091
2525.9018,6.198283098859932
2527.2284,3.0501918304946685
2528.5543,4.551871875903274
2529.8796,4.203321445669886
2531.2041,3.3545387048599267
2532.5279,5.505521776505624
2533.851,2.006268750093838
2535.1735,6.506777660056159
2536.4952,2.1070465207615143
2537.8163,4.807073281511109
2539.1366,5.056855870535713
2540.4562,3.6063921679953737
2541.7752,3.2556800034816575
2543.0935,5.754717170522198
2544.411,3.6535014300878785
2545.7279,8.552030485602394
2547.0441,4.050302003954457
2548.3596,6.248313566512493
2549.6744,7.246062714141949
2550.9885,5.843546925225141
2552.3019,5.790763605683814
2553.6146,4.387710103004238
2554.9266,4.284383706765098
2556.2379,4.9807816626679795
2557.5485,2.97690117357066
2558.8585,2.3727393925231226
2560.1677,7.818293442806343
2561.4762,3.413560423973955
2562.7841,3.0085373573966336
2564.0913,3.2532212303095136
2565.3977,2.247608999862372
2566.7035,7.641697590672784
2568.0086,1.8854839048822782
2569.313,2.978964768215384
2570.6167,6.972136987541866
2571.9197,5.814997339941833
2573.222,3.307542532774036
2574.5236,3.849769215247271
2575.8246,6.19167400349491
2577.1248,6.083253475152695
2578.4244,5.47450414593964
2579.7232,3.36542247074226
2581.0214,10.806004849702035
2582.3189,4.496247649306234
2583.6157,2.3861471279821203
2584.9118,4.475699499194469
2586.2072,5.964900952546593
2587.5019,5.503747632884846
2588.7959,7.842235625406545
2590.0893,5.530360960271601
2591.3819,7.668119589217561
2592.6739,9.405507408678403
2593.9652,5.542520238406944
2595.2557,5.729153804100925
2596.5456,5.965403776032929
2597.8348,9.851265767183996
2599.1234,7.836735330881169
2600.4112,5.521807921938866
2601.6983,8.206478916804151
2602.9848,8.390743636706077
2604.2705,9.024597320808873
2605.5556,7.05803512436939
2606.84,3.2910521123985106
2608.1237,6.573643279326774
2609.4067,5.4058035866742316
2610.689,12.587527930224532
2611.9707,5.718811151703257
2613.2516,5.149647966960771
2614.5319,5.380033034659341
2615.8115,3.4599609619647467
2617.0903,5.4394263022424525
2618.3685,8.318423574258368
2619.6461,5.846947242384154
2620.9229,6.724991687807204
2622.199,9.702551233245508
2623.4745,3.379620134167162
2624.7493,5.306192549014732
2626.0234,3.732262602434645
2627.2968,3.707824366011394
2628.5695,6.982871874006911
2629.8415,8.00739912360487
2631.1128,6.231400042160246
2632.3835,5.50486847695403
2633.6535,4.927798212953228
2634.9228,7.0501829800761655
2636.1914,6.872016458963209
2637.4593,8.243292259752927
2638.7265,3.8640039238637485
2639.9931,5.684144910281184
2641.259,2.603708639350728
2642.5242,5.722688474576422
2643.7887,7.391077753425236
2645.0525,5.00886975613728
2646.3156,7.176057689041883
2647.5781,3.8926347083796884
2648.8398,6.208593898630781
2650.1009,5.0739283053489075
2651.3613,6.038630912001878
2652.6211,5.2026946513182395
2653.8801,1.1161123956402506
2655.1385,4.378876965283219
2656.3961,4.890981169401357
2657.6531,5.6024177733601235
2658.9094,4.463179493615179
2660.1651,9.173258990598008
2661.42,4.0326488801083045
2662.6743,6.841341686213198
2663.9279,6.999329892653336
2665.1808,5.406605914755936
2666.433,6.163162097854965
2667.6846,1.2189907332183623
2668.9354,5.024084050482433
2670.1856,5.978434267093604
2671.4351,3.782033550257463
2672.6839,8.684874007395273
2673.9321,6.786947708107984
2675.1795,6.5382466351478
2676.4263,6.538762703397474
2677.6724,6.138487762357279
2678.9179,7.487413596139909
2680.1626,7.885531927473188
2681.4067,8.682834404210833
2682.6501,6.52931259535125
2683.8928,4.724957983064513
2685.1348,6.769761984227603
2686.3761,8.863715968467929
2687.6168,3.506811237715297
2688.8568,7.099039005262387
2690.0961,6.090390449333789
2691.3348,4.380856677163678
2692.5727,5.620428735082363
2693.81,4.409097625611583
2695.0466,4.146854295068781
2696.2826,2.883689645680459
2697.5178,9.919594538204581
2698.7524,9.454559804562226
2699.9863,5.538576177478525
2701.2195,5.671634295133025
2702.452,2.853724740319535
2703.6839,4.934838039115526
2704.9151,5.914964689061232
2706.1456,7.444095138348526
2707.3755,8.522219776019647
2708.6046,8.949328916675906
2709.8331,10.725412789696453
2711.0609,8.700461534967125
2712.2881,5.724465185119676
2713.5145,8.647413685781245
2714.7403,6.8692969253343215
2715.9654,10.840104705687285
2717.1899,6.709826760055538
2718.4136,7.978452713253461
2719.6367,12.095972122997157
2720.8591,9.712374467218243
2722.0809,9.077649102888621
2723.3019,15.091785289856468
2724.5223,10.804772197193468
2725.7421,10.666598843053489
2726.9611,14.177254137542679
2728.1795,13.436726884101205
2729.3972,8.245005744396703
2730.6142,7.452079245729561
2731.8306,8.557935832950111
2733.0462,10.262563876387901
2734.2612,8.065951660793132
2735.4756,9.51808736829037
2736.6892,7.818959100344653
2737.9022,7.568554863240166
2739.1145,6.616862585071541
2740.3262,6.063870118247856
2741.5372,8.1595652490096
2742.7475,3.5539357029585403
2743.9571,3.596969124100845
2745.1661,5.188653120903311
2746.3744,3.478975265863067
2747.582,0.41792307959071096
2748.7889,6.205484047907106
2749.9952,3.241645652453901
2751.2008,5.276395312817918
2752.4057,4.259720416169525
2753.61,1.6416082969151375
2754.8136,4.422046246863996
2756.0165,0.9010215414092464
2757.2188,6.828521411723592
2758.4204,-0.2954669200304707
2759.6213,4.379043700024344
2760.8215,2.8020433774798406
2762.0211,5.0235221741374225
2763.22,2.69347012377807
2764.4182,0.7118772099475628
2765.6158,1.778733389256999
2766.8127,4.844028611198706
2768.009,1.7077528074777035
2769.2045,2.669895861358736
2770.3994,1.4804476390290446
2771.5936,-0.36060202002308017
2772.7872,-2.8032632911138045
2773.9801,1.1024572528548546
2775.1723,2.106581043581148
2776.3639,0.9091295017387715
2777.5548,1.9601240269356275
2778.745,1.2095860096883335
2779.9346,1.7075368209122814
2781.1235,1.0039978194270205
2782.3117,2.9989903469767327
2783.4992,0.042535735265634145
2784.6861,1.9846552860080386
2785.8723,-0.3246296995070743
2787.0579,2.964702060162729
2788.2428,-0.29732491048943643
2789.427,3.639313883382524
2790.6106,3.3246459069005674
2791.7935,-0.14130141120648432
2792.9757,-1.0085006754562684
2794.1573,1.2230769212346573
2795.3382,-0.546529739128534
2796.5184,2.8827182132285856
2797.698,1.0608651079125124
2798.8769,2.0379552457025873
2800.0551,1.0640329167695022
2801.2327,2.2891423909044164
2802.4096,1.5633279272581895
2803.5859,0.486633762090257
2804.7615,1.6091041160268134
2805.9364,5.480783204827713
2807.1106,0.30171522816179674
2808.2842,3.021944330890083
2809.4572,2.1915146548564515
2810.6294,3.560470311685343
2811.801,5.0788553910860585
2812.972,4.146713947163196
2814.1423,5.564089983232819
2815.3119,9.131027461143873
2816.4808,11.347570287104425
2817.6491,10.913762276012282
2818.8167,11.329647129289544
2819.9837,17.045268439220724
2821.15,14.460669684793885
2822.3157,17.67589417454441
2823.4807,23.690985072401
2824.645,25.205985365533436
2825.8086,29.920937804201646
2826.9716,34.93588488660572
2828.134,40.60086881173639
2829.2957,43.765931429225574
2830.4567,40.28111418269647
2831.617,50.496458078112994
2832.7767,49.86200371862793
2833.9358,47.4777912024295
2835.0941,50.24386012908591
2836.2519,46.56024962338746
2837.4089,43.276998307685915
2838.5653,44.19414433873049
2839.7211,43.061725440500474
2840.8761,37.9797788950337
2842.0306,36.64834155375079
2843.1843,33.767449888274555
2844.3374,36.68714000374442
2845.4899,35.75744766762529
2846.6417,40.67840828051072
2847.7928,38.950056885419755
2848.9433,41.67242811858739
2850.0931,40.19555622674804
2851.2422,41.069475039911865
2852.3907,39.64421798613344
2853.5385,42.71981808277265
2854.6857,41.84630795074713
2855.8323,44.47371978377645
2856.9781,43.95208535711703
2858.1233,46.031436001288114
2859.2679,48.11180260728817
2860.4118,47.993215605801225
2861.555,56.325704946393365
2862.6976,49.1093000986985
2863.8395,55.24402996909351
2864.9808,55.879922972862296
2866.1214,56.01700697284843
2867.2614,54.85530927309627
2868.4007,58.994856617480124
2869.5393,55.0856752013212
2870.6773,59.77779062999219
2871.8146,59.82122795800902
2872.9513,61.96601164210975
2874.0874,64.71216554082017
2875.2227,62.30971289300592
2876.3574,66.35867629041107
2877.4915,64.80907770168251
2878.6249,68.71093843188042
2879.7577,67.56427913797415
2880.8898,68.41911978982378
2882.0212,70.57547968164651
2883.152,70.43337742346839
2884.2821,72.74283091956069
2885.4116,74.5038573698609
2886.5405,72.21647324687821
2887.6686,75.83069427808334
2888.7962,76.64653546878219
2889.923,71.0140110659738
2891.0493,74.78313455019187
2892.1748,75.60391869183
2893.2997,71.82637551345043
2894.424,75.00051628157625
2895.5476,75.1763515444668
2896.6706,74.35389110037626
2897.7929,77.48314399579532
2898.9145,78.9641185336757
2900.0355,74.84682224213779
2901.1559,75.48126185966068
2902.2756,71.51744337625534
2903.3946,72.60537202712013
2904.513,73.39505233227894
2905.6308,67.18648808570201
2906.7479,71.77968234740908
2907.8643,72.82463750555495
2908.9801,70.42135523049765
2910.0953,72.5698364643489
2911.2098,75.07008144500676
2912.3236,71.57208968467106
2913.4368,76.07585994484074
2914.5494,67.8813902712939
2915.6613,71.88867794905002
2916.7725,71.54771958431476
2917.8831,64.45851106440689
2918.9931,67.92104756116811
2920.1024,64.93532360185498
2921.211,63.65133303451354
2922.319,62.969069057836684
2923.4264,66.43852423400394
2924.5331,60.90969049550414
2925.6391,64.53255911044097
2926.7445,61.407120737821145
2927.8493,66.13336539132585
2928.9534,63.56128247056508
2930.0569,63.74086071381513
2931.1597,65.82208822373954
2932.2619,61.554952465593274
2933.3634,65.88944024641036
2934.4643,65.1755377576754
2935.5645,68.01323053197856
2936.6641,68.45250345015467
2937.763,69.09334071290621
2938.8613,68.93572583641073
2939.959,70.37964164591227
2941.056,67.12507027729772
2942.1523,62.47199316265753
2943.248,57.37039106283148
2944.3431,56.82024411393943
2945.4375,49.621531878397306
2946.5313,47.62423335041862
2947.6244,42.92832702800162
2948.7169,42.68379093290218
2949.8087,35.84060265759294
2950.8999,35.19873936770867
2951.9904,29.50817787047807
2953.0803,31.568894621142526
2954.1696,26.630865779861598
2955.2582,26.044067191105963
2956.3462,25.708474433037615
2957.4335,23.424062823377906
2958.5202,22.740807422763417
2959.6062,23.50868305759013
2960.6916,25.627664326845967
2961.7764,25.34772559443204
2962.8605,20.71884096797281
2963.9439,23.690984301615515
2965.0267,23.814129242319005
2966.1089,22.538249200132277
2967.1905,23.36331734696306
2968.2714,22.33930662933659
2969.3516,20.666189760144928
2970.4312,25.44393922888711
2971.5102,25.022527318400275
2972.5885,21.90192605708217
2973.6662,22.382107223105297
2974.7432,22.313042375622892
2975.8196,22.99470284996715
2976.8954,24.177059758339826
2977.9705,24.560083982995668
2979.045,21.743746164418816
2980.1188,23.528016697492607
2981.192,26.812865759662884
2982.2645,19.94826329309537
2983.3364,21.584178971827097
2984.4077,21.520582270412497
2985.4783,20.40744244756422
2986.5483,21.1447285467891
2987.6177,21.482409407519558
2988.6864,19.27045365774073
2989.7545,17.50882971061368
2990.8219,15.047505786594922
2991.8887,14.336449931052716
2992.9548,12.125630038880264
2994.0204,11.065013861606282
2995.0852,10.504569029503184
2996.1495,8.844263062193264
2997.2131,6.984063374253143
2998.276,7.773937291816818
2999.3383,7.763852071177652
3000.4,5.503774890889662
3001.4611,4.993672851868329
3002.5215,5.33351299999142
3003.5812,4.0232623311999625
3004.6404,1.9628877880998807
3005.6989,4.802356273064468
3006.7567,2.941634668838173
3007.8139,0.9306898101418817
3008.8705,1.0694885022801444
3009.9264,1.6079975412506364
3010.9818,0.7961837123561608
3012.0364,-0.3659862151804525
3013.0905,3.4214545199018005
3014.1439,1.858476335066193
3015.1966,-0.2549503864385336
3016.2487,1.5811447200516113
3017.3002,0.3167345661549703
3018.3511,-0.3482079523215482
3019.4013,3.1862900572616084
3020.4509,1.4202049661414478
3021.4998,1.5535131136920697
3022.5481,-0.7138091749144522
3023.5958,1.318214409958836
3024.6428,-0.35043269109747754
3025.6892,1.6802329493250667
3026.735,0.8101982594575023
3027.7802,-1.3105498492714585
3028.8247,0.7179755264649117
3029.8685,1.0957743823863275
3030.9118,1.9728467070327476
3031.9544,-0.4508075220136032
3032.9963,0.9748116531010407
3034.0376,2.399708693797585
3035.0783,3.5738880517488223
3036.1184,2.7473541546304663
3037.1578,3.9201113943793615
3038.1966,0.24216413545881998
3039.2348,2.7135167031310488
3040.2723,3.0841734202366116
3041.3092,0.5041385824809197
3042.3455,3.323416454727658
3043.3811,0.6920112967991319
3044.4161,3.059927335283497
3045.4505,4.577168789848788
3046.4842,5.043739849563783
3047.5173,5.709644657725573
3048.5498,5.02488730719387
3049.5816,3.139471833731932
3050.6128,1.603402222854161
3051.6434,3.3666824286802353
3052.6734,2.779316389295815
3053.7027,2.0413080091197386
3054.7314,0.5026611647776882
3055.7594,6.463379712482276
3056.7868,5.423467503419513
3057.8136,4.932928324141606
3058.8398,2.5417659069660985
3059.8653,5.599983934881248
3060.8902,6.457586065457665
3061.9145,3.664575900266126
3062.9381,4.470956976301547
3063.9612,5.526732793913093
3064.9835,6.181906808740358
3066.0053,4.536482421155613
3067.0264,3.290462969712072
3068.0469,6.393851747598127
3069.0668,6.496652015097549
3070.086,6.598866968555601
3071.1046,5.2504997393510315
3072.1226,6.751553392873925
3073.1399,6.102030942009364
3074.1567,8.851935332126908
3075.1727,4.751269447575815
3076.1882,3.6000360841859873
3077.203,7.398237990274637
3078.2173,7.245877878158634
3079.2308,5.1429583861724595
3080.2438,8.239482080191829
3081.2561,4.535451474662869
3082.2678,4.180869001636898
3083.2789,3.725737047810714
3084.2893,7.520057958072432
3085.2991,1.213834040052804
3086.3083,5.457067526182001
3087.3169,5.19976063675187
3088.3248,4.641915537483575
3089.3321,6.033534342100687
3090.3388,3.9246191179076195
3091.3449,4.76517187187345
3092.3503,2.0551945717210653
3093.3551,2.8446891375216357
3094.3593,2.9336574687943937
3095.3629,2.9721014366116822
3096.3658,5.160022882709274
3097.3681,2.297423619101936
3098.3698,2.4843054062042045
3099.3708,3.870669981456386
3100.3713,4.556519057455737
3101.3711,0.44185430809280657
3102.3702,2.4266773616929678
3103.3688,3.410989842163046
3104.3667,1.3947933491430993
3105.364,4.028089448163289
3106.3607,1.410879690805853
3107.3568,4.993165588372129
3108.3522,5.874948638054664
3109.347,5.056230287114354
3110.3412,1.8370119240626064
3111.3348,2.167294886848537
3112.3277,4.747080495051142
3113.32,2.826370046576473
3114.3117,3.5551647918597826
3115.3028,5.9334659530726235
3116.2932,3.261274716834909
3117.2831,3.6385922104318924
3118.2723,1.8154195285360828
3119.2608,4.741757729434071
3120.2488,2.267607853258257
3121.2361,0.8429708927234607
3122.2229,3.6678478178684326
3123.209,1.942239590302215
3124.1944,5.666147134955377
3125.1793,3.3895713573360933
3126.1635,0.962513106291067
3127.1471,3.734973196771291
3128.1301,2.6569524341026334
3129.1125,4.328451586261236
3130.0942,3.8994713946537143
3131.0753,5.470012557402175
3132.0558,4.64007573363401
3133.0357,3.7596615277764887
3134.015,2.678770497856127
3134.9936,1.3474031643028237
3135.9716,0.3655600207587737
3136.949,4.583241547392145
3137.9258,2.8004482207155057
3138.902,5.017180471409011
3139.8775,5.283438702148334
3140.8524,2.2492232654373465
3141.8267,-0.5854655390544705
3142.8004,2.3793725658501357
3143.7735,3.843743706129149
3144.7459,3.7576539839668284
3145.7178,0.6711094631099996
3146.689,1.7841161697289518
3147.6596,2.196680123282883
3148.6295,3.8588073253898285
3149.5989,5.720503755701026
3150.5676,1.381775355279638
3151.5357,1.5426280079837955
3152.5032,5.203067583853877
3153.4701,3.313099937503983
3154.4364,3.322730871517536
3155.402,2.131966155346963
3156.367,4.790811525217386
3157.3315,3.599272696034264
3158.2952,2.6073553347949443
3159.2584,7.215065072504046
3160.221,4.7224075140926445
3161.1829,1.729388192341157
3162.1442,3.6360125928059337
3163.105,2.542286183749441
3164.065,3.498214397074021
3165.0245,3.1538026392591556
3165.9834,2.4590562818021864
3166.9416,4.26398066466243
3167.8993,2.6685811032086413
3168.8563,3.6728628701697694
3169.8127,4.726831211588956
3170.7684,3.030491336780714
3171.7236,4.4338484077912454
3172.6782,3.836907556361838
3173.6321,1.6896738698952989
3174.5854,3.44215239742536
3175.5381,3.7443481710890145
3176.4902,2.4962661886017345
3177.4417,2.547911410235511
3178.3926,1.799288771299675
3179.3428,4.900403181624442
3180.2924,3.751259533047142
3181.2415,4.951862668401073
3182.1899,5.602217393006939
3183.1377,4.9023284626668175
3184.0848,2.7022005771606117
3185.0314,3.151838387244943
3185.9773,6.101246516654426
3186.9227,4.400429557605298
3187.8674,3.799392041301327
3188.8115,4.54813845494199
3189.755,1.646673247732843
3190.6979,3.745000823398062
3191.6402,6.443125569195089
3192.5818,4.241051834931358
3193.5229,4.788783905983053
3194.4633,3.6863260253158368
3195.4031,2.833682388007535
3196.3423,5.130857152272716
3197.2809,0.9278544479891231
3198.2189,3.674678353725927
3199.1563,5.0213329387737575
3200.0931,4.51782223567646
3201.0292,7.1141502267645516
3201.9648,5.060320849190329
3202.8997,4.056337968964584
3203.834,4.802205401494904
3204.7677,3.9479269216254957
3205.7008,5.893506256178515
3206.6333,3.1389470924968457
3207.5652,5.734253058988311
3208.4964,2.92942775267126
3209.4271,3.8744747132215176
3210.3571,3.119397451020624
3211.2865,2.164199437705376
3212.2154,3.458884113718596
3213.1436,6.053454897861112
3214.0712,6.447915174344913
3214.9982,4.242268266847438
3215.9246,7.036517434566973
3216.8503,6.180665894279125
3217.7755,5.674716792394322
3218.7001,2.168673213516338
3219.624,5.862538185501775
3220.5473,3.356314714520502
3221.4701,4.000005748117009
3222.3922,6.393614200272634
3223.3137,3.237142944968662
3224.2346,5.68059479225023
3225.1549,6.523972519791048
3226.0746,4.017278848458882
3226.9937,5.110516433881767
3227.9121,7.153687891514954
3228.83,1.6467957857085338
3229.7473,5.689842609275713
3230.6639,3.882830838561742
3231.5799,5.925762893013446
3232.4954,4.268641153249338
3233.4102,4.161467940630304
3234.3244,3.1042455338308175
3235.238,3.846976169910675
3236.151,3.139662054887214
3237.0634,4.182305356308012
3237.9752,3.024908210324024
3238.8864,7.167472711263148
3239.797,5.510000923204202
3240.7069,4.902494838551269
3241.6163,7.944956394608431
3242.5251,1.6873874796548116
3243.4332,5.529789902519975
3244.3408,5.672165455159609
3245.2477,6.214515874231501
3246.154,7.5068428396717835
3247.0598,6.549147969271429
3247.9649,3.691432805752979
3248.8694,4.983698826347494
3249.7733,4.12594747137171
3250.6766,5.46818013130537
3251.5793,6.010398155368748
3252.4814,6.102602838100317
3253.3829,3.3447954139345644
3254.2838,7.736977056279948
3255.1841,7.429148905096974
3256.0838,6.221312022976376
3256.9829,5.663467398217396
3257.8814,6.905615956906159
3258.7792,8.14775856849411
3259.6765,5.489896033376539
3260.5731,6.782029070471147
3261.4692,6.974158343796673
3262.3647,5.6662844495515685
3263.2595,1.8084079141926979
3264.1538,4.40052920751408
3265.0474,6.542648781225656
3265.9404,6.234767043032071
3266.8329,4.326884335211483
3267.7247,5.11900093769438
3268.616,5.561117087142405
3269.5066,3.4532329690271926
3270.3966,5.295348713209203
3271.286,4.23746441501657
