RamanShift,CorrectedData
30.1047,1619.0146103475493
32.3739,1504.001834555697
34.6426,1389.0390425736985
36.9109,1274.4762031713892
39.1787,1162.463271228214
41.4461,1048.050188878854
43.7131,935.1368866333593
45.9796,820.4732845212757
48.2456,706.0592932207805
50.5112,591.0948152053185
52.7764,479.7297458877401
55.0411,370.5139747699483
57.3054,258.9473865565483
59.5692,147.32986224700534
61.8326,36.96128025131087
64.0955,-75.55848249384226
66.3579,-176.57954942137394
68.6199,-280.8512891349641
70.8815,-367.17130620859405
73.1426,-399.1343995118669
75.4032,-298.0816998730371
77.6634,125.19964923229168
79.9231,1326.9754821646977
82.1824,4087.8616320327624
84.4412,9252.823918675313
86.6995,16516.528121052565
88.9574,23718.339925596483
91.2148,28675.02485357377
93.4717,30948.698189067716
95.7282,31325.024929411364
97.9842,31051.46976245078
100.2398,30241.247062781782
102.4949,29389.070894485485
104.7495,28374.955019230536
107.0036,27341.86290479489
109.2573,26400.60773520692
111.5105,25517.152421076404
113.7632,24708.159609007034
116.0154,24000.29169043097
118.2672,23561.360809698792
120.5185,23020.02887115815
122.7693,22648.25754354309
125.0197,22265.608265387382
127.2696,21852.142248742213
129.519,21565.670483002683
131.7679,21200.753739042484
134.0163,20820.40257207859
136.2642,20396.227325320455
138.5117,19972.888133773493
140.7587,19479.44492848086
143.0052,19051.457440756836
145.2512,18594.485207121237
147.4967,18142.937573579326
149.7417,17838.473700191505
151.9863,17543.952565588803
154.2304,17302.33297001752
156.4739,17026.82353828442
158.717,16816.48272217295
160.9596,16514.31880319832
163.2017,16145.039894710912
165.4433,15738.753944917931
167.6844,15286.368740576174
169.925,14891.541911054908
172.1651,14379.880932859705
174.4047,13995.393133580723
176.6439,13625.685697009323
178.8825,13302.165666982919
181.1206,13039.139951082081
183.3582,12772.915323865724
185.5954,12544.098429501359
187.832,12365.045784427355
190.0681,12217.213779641086
192.3037,12100.958682489489
194.5388,11986.936638147348
196.7734,11913.053670779856
199.0075,11885.915684682863
201.2411,11908.32846502167
203.4742,11904.74767810243
205.7068,11926.72887114801
207.9389,11977.827472333815
210.1704,11994.398790567946
212.4015,11981.398014980245
214.632,12064.730214756559
216.862,12132.600339268776
219.0915,12106.763217241463
221.3205,12136.923556073205
223.549,12159.135942094954
225.777,12183.104840268436
228.0044,12230.784593964017
230.2314,12383.07942472103
232.4578,12402.293431770953
234.6837,12514.980590514484
236.909,12534.64475232938
239.1339,12404.589643443618
241.3582,12217.368864738708
243.582,12008.985893050294
245.8053,11798.544083040313
248.0281,11572.246669280863
250.2503,11409.396768358603
252.472,11374.247381137724
254.6932,11361.50139438846
256.9139,11321.411581138573
259.134,11413.530600800806
261.3536,11495.660999573805
263.5727,11702.455209520906
265.7912,11789.065547748838
268.0092,11988.594214339792
270.2267,12045.993291485298
272.4436,12065.914741490951
274.6601,11952.910406202418
276.8759,11768.682006806228
279.0913,11626.731144959815
281.3061,11380.209304633787
283.5204,11301.867853531461
285.7341,11186.658045554042
287.9473,11168.531021584087
290.16,11170.587810637555
292.3721,11195.979330045115
294.5837,11395.306385431557
296.7947,11537.219670461887
299.0052,11625.419764848044
301.2152,11508.407132929779
303.4246,11257.93212279265
305.6334,10808.394967438151
307.8418,10286.345787288454
310.0495,9742.28459468179
312.2568,9300.411299092939
314.4635,8827.275712573832
316.6696,8454.977554172305
318.8752,8166.81645466342
321.0802,8052.691960272488
323.2847,8017.253535556651
325.4887,7991.000564546137
327.692,7882.2323510986425
329.8949,7764.648119161877
332.0972,7492.847013861221
334.2989,7228.428102675594
336.5001,6906.890378155433
338.7007,6622.5327605669245
340.9008,6398.804101107346
343.1003,6181.603184748661
345.2992,6035.978732474787
347.4976,5863.529403453633
349.6955,5718.95379649331
351.8927,5676.500451766646
354.0895,5498.017852256937
356.2856,5461.754424182478
358.4812,5309.058538781397
360.6763,5289.078512674279
362.8707,5213.16260939114
365.0646,5189.109039571205
367.258,5139.5159617220925
369.4508,5102.581482460326
371.643,5180.003657007273
373.8346,5167.630489558487
376.0257,5217.45993250951
378.2162,5144.389886579571
380.4062,5053.068200313315
382.5956,4902.442670811497
384.7844,4736.961044644182
386.9726,4520.521019357027
389.1603,4380.470245126084
391.3474,4263.706326922211
393.5339,4208.876825911557
395.7199,4097.829260623219
397.9052,4093.961107497533
400.09,4112.819801996553
402.2743,4206.352738642727
404.4579,4251.557270830299
406.641,4418.530709890008
408.8235,4582.470324637021
411.0054,4689.22333970121
413.1868,4907.886933887739
415.3675,4937.308239109569
417.5477,4978.584338200781
419.7273,4908.562264622382
421.9064,4772.739002049544
424.0848,4654.611485071824
426.2627,4453.776600551388
428.4399,4172.481188804295
430.6166,3800.172045608855
432.7928,3411.945925018561
434.9683,3064.649543085203
437.1432,2776.3795817411155
439.3176,2529.8326922721353
441.4914,2372.1554982003217
443.6645,2347.1445977494095
445.8371,2217.496565421581
448.0091,2112.3579522475775
450.1806,2034.6252870831813
452.3514,2013.545077660603
454.5216,1988.0638113658097
456.6913,1893.0279554493227
458.8603,1911.8339572810255
461.0288,1951.2282453005373
463.1967,1901.6072288291398
465.3639,1925.567297675845
467.5306,1865.004822633593
469.6967,1889.216155239661
471.8622,1882.5476283812786
474.0271,1947.1955560535262
476.1914,1928.406233425998
478.3551,1933.4259361963414
480.5182,1946.1009207781426
482.6807,2011.67742425074
484.8426,2161.7016642324634
487.0039,2460.5698382248775
489.1647,2799.1781221125457
491.3248,3117.9726671743283
493.4843,3285.499596697333
495.6432,3213.355002788927
497.8015,3035.7849447015033
499.9592,2941.3854495539053
502.1163,2761.252514107149
504.2728,2420.382105708388
506.4287,2144.620164092259
508.5839,1789.3126047896003
510.7386,1516.8553218850411
512.8927,1359.5941915701005
515.0461,1308.5250748677481
517.199,1341.8938192050136
519.3512,1452.846258923677
521.5029,1668.0782149465886
523.6539,1888.8354936681462
525.8043,1965.8638848019673
527.9541,1903.1591591733304
530.1033,1764.0170679488729
532.2519,1604.033343263658
534.3999,1560.4036996125815
536.5472,1655.523835450209
538.694,1865.939433627078
540.8401,2162.1461604384876
542.9856,2431.439663520352
545.1305,2494.2155688871317
547.2748,2432.1194782388993
549.4185,2183.346968333568
551.5615,1984.1435916078663
553.704,1918.7548786650532
555.8458,1957.876340266961
557.987,2072.3034679878765
560.1276,2251.4317338233323
562.2675,2566.956589045829
564.4069,2985.0734624135494
566.5456,3411.0777570151186
568.6837,3541.9648460884328
570.8212,3201.730068760615
572.958,2533.5687287391447
575.0942,1958.8760977141992
577.2299,1500.4974220402783
579.3648,1278.9279284831227
581.4992,1240.4128288035026
583.6329,1318.4973219729218
585.766,1512.7265945587587
587.8985,1619.3958199434292
590.0304,1638.0001563820915
592.1616,1627.53474593594
594.2922,1503.6447142861798
596.4222,1325.1251708386771
598.5515,1135.2212099628578
600.6802,936.8779127768958
602.8083,745.5903490467572
604.9358,700.8535791696431
607.0626,711.1126560868488
609.1888,823.9626257311429
611.3144,936.5485269241817
613.4393,960.9153902479884
615.5636,1070.058236919118
617.6873,1099.472078544968
619.8103,1017.0019160323718
621.9327,851.9427392934431
624.0544,670.8395280702898
626.1756,511.3372535856033
628.2961,423.33088035367837
630.4159,321.16536777545116
632.5351,281.4356710185457
634.6537,274.48674203894734
636.7716,216.46352997828762
638.8889,278.5609812333478
641.0056,301.22404003628435
643.1216,298.2976478336532
645.237,320.97674305976943
647.3518,236.35626116597268
649.4659,162.13113439383778
651.5793,126.69629262137641
653.6922,128.5966641053019
655.8043,80.9771758353636
657.9159,88.98275351535631
660.0268,36.0083220393135
662.137,47.34880541143502
664.2466,56.59876791278657
666.3556,50.30230080985348
668.4639,12.752929947420853
670.5716,19.24367865028762
672.6786,10.317442841473166
674.785,-44.7330738003584
676.8907,-53.31527066780109
678.9958,2.213899729955301
681.1002,-31.501982496733035
683.204,-33.8693593543685
685.3072,-25.144358144658327
687.4097,-51.332767814416
689.5115,-48.04012611831786
691.6127,-75.87145799670179
693.7132,-90.38130846904278
695.8131,-80.47346459896835
697.9123,-76.50081054083421
700.0109,-61.71542651909658
702.1089,-34.918628515117234
704.2061,29.188884026847518
706.3028,117.70676049963731
708.3987,135.8846500042073
710.4941,190.02220046445655
712.5887,260.2190584454347
714.6827,396.6248686119816
716.7761,575.0392730267449
718.8688,774.1119097861356
720.9608,956.1924112361776
723.0522,1106.3304019817806
725.1429,1150.675497065933
727.233,1142.8273004683306
729.3224,1172.3854046619163
731.4112,1069.899390691362
733.4993,915.7688278774986
735.5867,723.8432748421656
737.6735,513.9222810495176
739.7596,357.6553887252885
741.845,247.6421349559987
743.9298,151.1320532516129
746.014,101.02467464569236
748.0974,114.06952866047322
750.1802,108.26614380795763
752.2624,129.5140474594482
754.3439,198.01276590360794
756.4247,294.3618241339591
758.5048,443.81074516390436
760.5843,754.8090490632367
762.6631,1143.6062514636506
764.7413,1702.101860448749
766.8188,2394.995372666075
768.8956,2977.736267742157
770.9718,3429.8240013535797
773.0473,3382.4079993995765
775.1221,3145.2376534811356
777.1962,2840.4623213751765
779.2697,2721.6813294062467
781.3426,2764.493975494277
783.4147,2932.9995303423893
785.4862,3054.8972370087668
787.557,2960.0863092216223
789.6271,2539.465930160195
791.6966,1946.2352534028742
793.7654,1310.5434071333912
795.8335,905.1395000731263
797.901,610.5226278380396
799.9678,432.24187699268987
802.0339,329.3463279964144
804.0993,312.8350569861377
806.1641,272.0071368053359
808.2282,238.01163716913288
810.2916,156.19762507259657
812.3544,101.4641651306847
814.4164,48.76032039638085
816.4778,89.03515290804353
818.5385,91.13772421642352
820.5986,242.51709498192758
822.658,490.32232495358403
824.7166,785.8524714552659
826.7747,1278.9565869076177
828.832,1789.5837158727736
830.8886,2126.0328901233097
832.9446,2366.9531235359755
834.9999,2297.343408727189
837.0545,2040.0527146438471
839.1085,1788.62998725941
841.1618,1492.3241521468117
843.2143,1288.9341169926975
845.2662,1075.458774560475
847.3175,961.9970047242186
849.368,819.0976766034182
851.4179,758.3096496975959
853.467,665.231775315302
855.5155,623.3128971819988
857.5633,564.5518523708361
859.6105,464.1974717218418
861.6569,392.9485804295273
863.7027,315.8539990464342
865.7478,280.01254419562974
867.7922,260.923029341644
869.8359,275.0842651488838
871.8789,314.49505967253936
873.9212,409.35421821695854
875.9629,519.5605429415482
878.0039,660.412831912181
880.0441,764.5098779991313
882.0837,851.2004674685522
884.1226,856.1833789415014
886.1609,894.6573825270407
888.1984,988.7712397724026
890.2352,1096.7737032782443
892.2714,1143.4635157575285
894.3069,1114.4894089554782
896.3416,983.4501031826803
898.3757,870.6943076048374
900.4091,781.0707215531547
902.4418,771.7780356518961
904.4739,814.8649327146286
906.5052,885.8300878371319
908.5358,857.9721679665508
910.5658,743.5898311917244
912.595,564.8817270217769
914.6236,369.19649752993973
916.6515,264.6327791406311
918.6786,148.93920458630964
920.7051,184.26440395311147
922.7309,251.95700583778125
924.756,278.06563699442995
926.7804,361.8889216576026
928.8041,385.0254812812
930.8272,459.62393370023165
932.8495,426.78289289946406
934.8711,421.95096826742883
936.892,376.62676492483115
938.9123,347.0588837728683
940.9318,370.19592194648067
942.9506,322.9864731100133
944.9688,290.5291272258637
946.9862,209.5224710265702
949.003,88.01508833938351
951.019,12.205560896332827
953.0344,-13.157530450696868
955.0491,-9.175604971871508
957.063,30.100049506363575
959.0763,148.81823682184768
961.0888,180.327760511429
963.1007,271.67742262376487
965.1119,293.51602340424506
967.1223,298.8423603814954
969.1321,343.40522814898213
971.1412,318.2534183117514
973.1495,312.8357190408042
975.1572,341.350915324605
977.1641,356.14778902327816
979.1704,387.37511858343714
981.1759,344.2316788902208
983.1808,366.7662409550285
985.1849,414.07757234694327
987.1884,489.0644369673955
989.1911,640.6755945770383
991.1932,715.1598000458907
993.1945,746.7658018372294
995.1951,747.8423412627271
997.1951,748.8881521664152
999.1943,702.0519609139028
1001.1928,707.1824863819184
1003.1906,762.8784404266826
1005.1877,851.5385278326012
1007.1841,936.9114457552932
1009.1798,967.0958828350012
1011.1748,912.9405183428535
1013.1691,735.7440218790216
1015.1627,563.5550539142787
1017.1556,348.2722675619643
1019.1477,207.54431029987245
1021.1392,133.66982612307947
1023.1299,87.54745695122256
1025.12,101.9258433672403
1027.1093,199.60362507860555
1029.0979,296.47944077353895
1031.0859,399.0519271442299
1033.0731,447.6697179180719
1035.0596,408.58144283194633
1037.0454,295.38572714605107
1039.0304,234.63119203476526
1041.0148,111.96645571862246
1042.9985,13.840134071841021
1044.9814,-37.89915815103268
1046.9636,-82.00280633384318
1048.9452,-114.97181724785332
1050.926,-29.35637845628844
1052.9061,-9.605528953921748
1054.8855,40.08198553468719
1056.8642,75.8075152442143
1058.8421,146.622410008511
1060.8194,181.77801890336195
1062.7959,248.5756895383347
1064.7717,273.86676770521626
1066.7469,384.05259671005115
1068.7213,449.58451712021633
1070.695,524.0138656625641
1072.6679,541.6919745681171
1074.6402,557.4701708277607
1076.6117,542.7497760154565
1078.5826,480.4821061304756
1080.5527,353.368471744594
1082.5221,326.5601786247644
1084.4908,311.908529004264
1086.4587,362.2648218507675
1088.426,450.0303530128731
1090.3925,447.20641471652925
1092.3584,503.99429468739436
1094.3235,468.1452761790606
1096.2879,533.0606374051804
1098.2515,662.6916518979651
1100.2145,800.239587859025
1102.1767,991.7557068630613
1104.1382,1236.7912624823766
1106.099,1467.597498371726
1108.0591,1718.275645817952
1110.0185,1896.226921431924
1111.9771,1979.5025246417572
1113.9351,1869.6036359133032
1115.8923,1792.1314159173926
1117.8488,1615.2370066288295
1119.8045,1395.6715321011034
1121.7596,1232.3361002353395
1123.7139,1136.531804975948
1125.6675,1114.1097279439855
1127.6204,1126.1709393951896
1129.5726,1119.9164984442104
1131.524,1045.2474529439878
1133.4748,931.2648395482975
1135.4248,763.9696844584505
1137.3741,650.4130045631064
1139.3226,551.9458091112356
1141.2705,513.2691008476759
1143.2176,415.3338769978145
1145.164,377.5911296543509
1147.1097,320.64184675665274
1149.0546,273.48701246817836
1150.9989,141.07760774597773
1152.9424,82.51461081223351
1154.8852,-20.501001521643047
1156.8272,-59.56825326938997
1158.7686,-56.385963639731926
1160.7092,-2.4023567545536935
1162.6491,-2.9650934399651305
1164.5883,119.22818947745691
1166.5267,211.77988479241685
1168.4644,365.39238410733924
1170.4014,574.8180769068495
1172.3377,852.3593490216572
1174.2732,1156.8185805342928
1176.2081,1561.6981430036903
1178.1421,2010.5503964206127
1180.0755,2554.8776851588427
1182.0082,2904.132333486663
1183.9401,3090.5166401235856
1185.8713,3012.0828747478063
1187.8017,2711.7832761323552
1189.7315,2341.670052929443
1191.6605,1924.2453866734504
1193.5888,1647.311435482061
1195.5163,1495.4703382305124
1197.4432,1381.3242173209328
1199.3693,1346.975180200754
1201.2947,1333.2253205041616
1203.2193,1280.526718395602
1205.1432,1283.9314407072616
1207.0664,1273.191541466067
1208.9889,1258.5090618596332
1210.9106,1270.2860303436573
1212.8316,1293.6744627887638
1214.7519,1328.3763623627083
1216.6715,1370.3437192965084
1218.5903,1465.3785105374236
1220.5084,1515.4326993292825
1222.4257,1639.4082342621232
1224.3424,1666.357048771668
1226.2583,1781.6310598995515
1228.1735,1940.682168023849
1230.0879,2082.91225570632
1232.0016,2283.973186101909
1233.9146,2400.216801536437
1235.8269,2438.4449214960014
1237.7384,2376.909341464533
1239.6492,2249.6618325415175
1241.5592,2196.154142057354
1243.4686,2229.987994845822
1245.3772,2376.91509377917
1247.285,2556.037119429764
1249.1922,2737.805728600825
1251.0986,2899.672552535205
1253.0042,2988.4391950976997
1254.9092,3056.807231156391
1256.8134,3158.228205694968
1258.7169,3349.65363312905
1260.6196,3511.0849962919765
1262.5216,3748.523744520554
1264.4229,3951.0712920407377
1266.3234,4195.779015593258
1268.2232,4338.598252408128
1270.1223,4402.380297757579
1272.0207,4431.1264035278655
1273.9183,4411.987777581441
1275.8151,4370.815583469505
1277.7113,4354.610940623379
1279.6067,4408.474924766225
1281.5014,4587.108568075108
1283.3953,4941.262858642343
1285.2885,5392.988738689156
1287.181,5871.087101024145
1289.0727,6366.558784526017
1290.9637,6687.354569362618
1292.854,6906.075172036207
1294.7435,6959.7712421755
1296.6323,6882.243360348475
1298.5204,6779.0420375253925
1300.4077,6628.7177158540935
1302.2943,6439.520769691989
1304.1802,6184.051507109323
1306.0653,5803.860171781129
1307.9497,5357.296945541934
1309.8333,4958.16195218767
1311.7162,4681.0052619413
1313.5984,4527.826895444175
1315.4798,4417.726826527594
1317.3605,4335.204983744597
1319.2405,4277.91125147095
1321.1197,4074.2454707303823
1322.9982,3813.7574397675126
1324.876,3590.646916084499
1326.753,3323.063619045931
1328.6293,3142.457232109934
1330.5048,2998.5774055039965
1332.3796,2850.973758031044
1334.2537,2790.9958785082217
1336.127,2725.893327242945
1337.9996,2694.6656366326733
1339.8714,2691.7123118159416
1341.7426,2706.08283098462
1343.6129,2768.6766454134686
1345.4826,2747.743179316417
1347.3515,2773.6318292206306
1349.2196,2791.0919641758537
1351.087,2812.8729254955097
1352.9537,2873.0740265821005
1354.8197,3019.744552709405
1356.6849,3175.033760420466
1358.5493,3351.2408760608832
1360.4131,3525.565094225929
1362.276,3684.1055759984574
1364.1383,3710.361447205686
1365.9998,3579.0817968337733
1367.8606,3283.715676765275
1369.7206,2907.1621030919223
1371.5799,2598.4200590682967
1373.4384,2337.3884988773616
1375.2962,2131.3163507178824
1377.1533,1826.8525194147414
1379.0096,1484.0958884796637
1380.8652,1153.895323155848
1382.7201,910.1496738455417
1384.5742,630.0077794120398
1386.4275,476.3684696171449
1388.2802,340.5805679225841
1390.132,229.892893026401
1391.9832,185.5542602208361
1393.8336,121.96348249920356
1395.6832,86.8693709992749
1397.5322,55.62073563919148
1399.3803,36.266385468402405
1401.2278,23.655128980151858
1403.0745,26.73577430502337
1404.9204,32.057129337052174
1406.7656,70.26800170292245
1408.6101,99.81719870874895
1410.4538,134.9535269579701
1412.2968,210.22579205585407
1414.139,274.4827982581337
1415.9805,407.2733477182883
1417.8213,488.94623984496957
1419.6613,605.600269974102
1421.5006,753.3842285521487
1423.3391,986.0468999695777
1425.1769,1294.2370610830167
1427.0139,1733.4034788886302
1428.8502,2277.494907440215
1430.6858,2861.4600834575367
1432.5206,3284.9477208854114
1434.3547,3534.3565050540637
1436.188,3583.4850884442394
1438.0206,3554.8320881931277
1439.8524,3390.796085603064
1441.6835,3288.725626428077
1443.5139,3196.2192225142308
1445.3435,3154.5253528203366
1447.1724,3133.692464343021
1449.0005,3107.918972533661
1450.8279,3042.753261506714
1452.6545,3041.593684297449
1454.4804,3102.2385635136034
1456.3056,3122.536191346986
1458.13,3061.684828967016
1459.9536,2941.932706317759
1461.7766,2701.3280227264277
1463.5987,2389.668948100918
1465.4202,2060.4036253358427
1467.2409,1752.7301734291286
1469.0608,1516.1966907746719
1470.88,1231.2512582390673
1472.6984,1005.7919415269489
1474.5161,822.0667940304402
1476.3331,683.6738590837485
1478.1493,578.8611718004186
1479.9648,502.07676045725384
1481.7795,452.168647542454
1483.5935,416.73485052345313
1485.4067,386.4733823460019
1487.2192,326.03225178850334
1489.031,325.0594637646327
1490.842,285.7530199277435
1492.6522,288.8609186805943
1494.4618,268.33115556841676
1496.2705,225.5617232478362
1498.0785,219.40061169216642
1499.8858,219.24580861910908
1501.6924,174.6452995523623
1503.4981,171.54706782316498
1505.3032,166.84909501630864
1507.1075,150.1493610011148
1508.911,113.14584397842373
1510.7138,108.18652064757953
1512.5159,55.06936657647566
1514.3172,31.442356251141064
1516.1178,8.70346360691292
1517.9176,24.650662264704806
1519.7166,-2.5180742415977875
1521.515,-29.704772624621
1523.3126,-8.561434441426172
1525.1094,-28.539764498399563
1526.9055,-40.191382073204295
1528.7008,-16.71762133125776
1530.4954,-52.769414926076934
1532.2893,-38.997528502139176
1534.0824,-58.00220053747398
1535.8747,-24.533279924805356
1537.6663,-12.290036114874965
1539.4572,-9.471493470962741
1541.2473,16.973446421106928
1543.0367,45.79597659572937
1544.8253,42.697289917566195
1546.6132,96.9785787933215
1548.4003,133.04103520272747
1550.1867,201.0358501557339
1551.9723,256.0142133318841
1553.7572,356.7773124003679
1555.5414,459.22633247022986
1557.3247,605.9124550827482
1559.1074,779.3368571869378
1560.8893,947.2507096726922
1562.6705,1135.3551756365368
1564.4509,1295.8014087024958
1566.2305,1396.6905511410405
1568.0094,1491.6237322646311
1569.7876,1485.5020674188218
1571.565,1474.0766570329379
1573.3417,1499.4485866812793
1575.1176,1503.1689271973855
1576.8928,1516.8387344203093
1578.6672,1523.5590491574167
1580.4409,1532.0808970476883
1582.2138,1552.405288494514
1583.986,1603.7332185804835
1585.7575,1684.2656668641357
1587.5282,1752.4035968666803
1589.2981,1852.4479552666726
1591.0673,1948.449671218631
1592.8358,2052.409655352597
1594.6035,2184.278798814119
1596.3704,2254.607972224645
1598.1366,2391.6480243628384
1599.9021,2484.0997814612865
1601.6668,2580.5140458360966
1603.4308,2688.391594962379
1605.194,2877.633180510109
1606.9564,3093.289527265347
1608.7182,3349.211331237825
1610.4791,3638.74925750438
1612.2394,3973.1039376497374
1613.9988,4295.725966871134
1615.7576,4617.215900634766
1617.5156,4854.874251449572
1619.2728,4968.601485652331
1621.0293,4954.298021031088
1622.785,4813.214225687868
1624.54,4535.700418181722
1626.2942,4212.8068689395595
1628.0477,3845.183803031284
1629.8005,3496.0314033987343
1631.5525,3202.499814531913
1633.3037,2923.339145960512
1635.0542,2726.1494751892224
1636.804,2550.78085048935
1638.553,2445.7332928707074
1640.3013,2393.006797835297
1642.0488,2335.5513364277967
1643.7955,2389.566855762814
1645.5416,2461.053279599446
1647.2868,2569.9105078011207
1649.0313,2687.3384156207394
1650.7751,2853.0868526120967
1652.5181,3011.055641455603
1654.2604,3177.9945763008013
1656.0019,3420.403421186681
1657.7427,3726.5819083722836
1659.4828,3983.079735912618
1661.222,4159.996564596875
1662.9606,4180.632015383448
1664.6984,4010.9356676307652
1666.4354,3612.357058890941
1668.1717,3100.845686606731
1669.9072,2547.4510120973237
1671.642,2073.572465673453
1673.3761,1699.559452171341
1675.1094,1386.96135569149
1676.8419,1127.2775433388092
1678.5737,941.7073683485955
1680.3048,801.5501726833713
1682.0351,702.0552888885868
1683.7646,611.8720414941927
1685.4934,535.3997480095873
1687.2215,454.3877198254513
1688.9488,405.0852629784695
1690.6754,362.14167896145
1692.4012,331.1062652163487
1694.1263,300.72831556370966
1695.8506,280.20712051301325
1697.5742,264.7419675664587
1699.297,237.83214142417546
1701.0191,213.67692413887562
1702.7404,190.97559538495216
1704.461,159.07743270002948
1706.1808,145.63171171197882
1707.8999,116.88770645789737
1709.6182,121.89468951856861
1711.3358,97.15193230590148
1713.0527,104.10870501285899
1714.7688,78.81427686088864
1716.4841,57.21791603035081
1718.1987,70.81888991346568
1719.9126,67.26646533027542
1721.6257,43.50990839263477
1723.338,50.59848453973518
1725.0496,63.38145877567331
1726.7605,51.05809559856425
1728.4706,49.37765887270734
1730.18,41.13941195182679
1731.8886,41.64261769587074
1733.5964,39.93653855339471
1735.3036,41.97043655652942
1737.0099,41.39357333804264
1738.7156,46.00521011099909
1740.4204,16.354607674531053
1742.1246,21.241026367721588
1743.8279,12.563726366107858
1745.5306,8.021967632815176
1747.2325,-7.634989994664011
1748.9336,-11.507886759055964
1750.634,-23.797386629536504
1752.3336,-19.454038611495434
1754.0325,-22.57815397443119
1755.7307,-10.069849641996825
1757.4281,-1.3790169820904339
1759.1247,1.8445532351861402
1760.8206,-7.69891598389313
1762.5158,10.390798348504632
1764.2102,-5.236003867621548
1765.9039,-0.7790228361759546
1767.5968,-0.5379064533854034
1769.289,17.837705166957676
1770.9804,12.898177284746907
1772.6711,10.243874981499175
1774.361,24.425163209751645
1776.0502,16.092406819604093
1777.7386,3.895970416907403
1779.4263,22.386218446587463
1781.1132,39.06351531461314
1782.7994,24.328225203090824
1784.4849,43.28071190349419
1786.1696,31.47133896401374
1787.8535,51.25046950003434
1789.5367,32.26846631222952
1791.2192,56.925691688767074
1792.9009,33.422507595133084
1794.5818,47.109275427557805
1796.2621,49.236356248050015
1797.9415,45.25411064752552
1799.6202,42.86289872453881
1801.2982,50.463080125105535
1802.9755,55.35501406661524
1804.6519,56.48905926182533
1806.3277,46.46557386994618
1808.0027,64.68491548529983
1809.6769,65.54744123755336
1811.3504,70.20350760952806
1813.0231,69.05347042857011
1814.6951,62.64768481999545
1816.3664,75.08650521858544
1818.0369,72.37028543264387
1819.7067,74.54937851961131
1821.3757,88.22413681322723
1823.044,88.1449119017384
1824.7115,97.46205449115132
1826.3783,79.62591440602455
1828.0443,94.5368404963001
1829.7096,94.24518081566112
1831.3741,103.25128247242355
1833.0379,103.75549163245387
1834.701,106.30815342910819
1836.3633,111.359611958188
1838.0248,125.21021025241589
1839.6856,113.11029023092078
1841.3457,122.46019256072805
1843.005,129.01025677776306
1844.6636,126.6108211933497
1846.3214,116.96222282871167
1847.9785,148.3647974389669
1849.6349,143.06887960961194
1851.2904,154.4748024424971
1852.9453,136.33289760878688
1854.5994,139.14349523489864
1856.2528,149.05692408392179
1857.9054,148.02351152751316
1859.5572,166.79358344676302
1861.2083,165.4674642425257
1862.8587,171.14547664772135
1864.5084,163.3279417405961
1866.1572,162.0651788879427
1867.8054,153.65750582327564
1869.4528,172.50523865945797
1871.0994,163.0586919727798
1872.7453,170.1181786144798
1874.3905,163.58400980521083
1876.0349,162.6564950644456
1877.6786,186.63594227581916
1879.3215,195.32265769640208
1880.9637,181.56694571690696
1882.6051,203.66910877482178
1884.2458,183.2294474919663
1885.8858,186.64826045347127
1887.525,188.72584441217396
1889.1634,179.01249425443075
1890.8011,174.00850297933994
1892.4381,191.2141617958764
1894.0743,183.87976017292885
1895.7098,184.30558566724721
1897.3446,177.79192399678504
1898.9786,178.439059036441
1900.6118,185.49727288319582
1902.2443,184.66684584964014
1903.8761,188.4980563933941
1905.5071,174.59118112541046
1907.1374,183.89649477166358
1908.7669,199.01427031221783
1910.3957,200.04477888817428
1912.0237,185.2382896504896
1913.651,191.24506974967608
1915.2776,190.61538448386273
1916.9034,177.69949723873015
1918.5285,187.09766949380628
1920.1528,172.6101609516245
1921.7764,208.18722944374213
1923.3992,177.72913107561817
1925.0213,168.68611987083705
1926.6427,155.80844807569474
1928.2633,170.34636624962695
1929.8832,187.90012339398572
1931.5023,169.2699668066598
1933.1207,168.30614190653796
1934.7383,180.30889241980913
1936.3552,170.37846038960242
1937.9714,157.51508605596018
1939.5868,153.61900795513975
1941.2015,153.39046304825024
1942.8154,157.12968676021092
1944.4286,150.7869129820374
1946.041,150.31237403344858
1947.6528,146.60630072629556
1949.2637,151.21892236930535
1950.8739,150.10046680514415
1952.4834,148.15116036429072
1954.0921,156.32122787621984
1955.7001,136.8108926888949
1957.3074,156.3203765870694
1958.9139,132.54989998738802
1960.5197,148.5996817432938
1962.1247,142.01993938273017
1963.729,123.71088894764534
1965.3325,128.1227450597903
1966.9353,133.10572110380872
1968.5374,122.26002918311633
1970.1387,132.6858800700761
1971.7393,115.98348331444913
1973.3392,124.55304713913893
1974.9383,123.89477860721445
1976.5366,116.35888353621522
1978.1342,128.89556650473332
1979.7311,124.65503092777317
1981.3273,117.88747893138589
1982.9227,123.44311139507272
1984.5173,126.97212801946262
1986.1112,117.97472727075365
1987.7044,107.65110634542543
1989.2968,119.70146126020995
1990.8885,115.92598695533002
1992.4795,119.1748771739949
1994.0697,121.39832450015456
1995.6592,126.84652032601161
1997.2479,114.46965482978567
1998.8359,115.76791692123334
2000.4232,113.44149436541397
2002.0097,108.39057376971004
2003.5955,99.26534060708855
2005.1805,127.26597926661384
2006.7648,125.59267314469525
2008.3484,111.54560436508564
2009.9312,130.92495379561046
2011.5133,114.93090118864052
2013.0946,125.26362498729827
2014.6752,117.32330248539665
2016.2551,130.11010972411623
2017.8342,123.72422157140409
2019.4126,126.11581159410775
2020.9902,125.03505212183336
2022.5672,115.33211422302952
2024.1433,121.85716771579519
2025.7188,122.96038126490998
2027.2935,108.49192231658276
2028.8674,117.65195708741953
2030.4406,110.3906507091076
2032.0131,96.50816713681616
2033.5849,110.9546692218089
2035.1559,97.28031885026735
2036.7261,122.285276798827
2038.2957,110.36970287132158
2039.8645,112.98375564873277
2041.4325,111.57759260834655
2042.9998,104.10137009761206
2044.5664,107.55524334820348
2046.1323,117.83936655078173
2047.6974,114.40389282045749
2049.2617,110.79897409394812
2050.8254,101.87476116393327
2052.3883,118.88140371510463
2053.9504,114.11905041340651
2055.5118,99.38784873596978
2057.0725,93.63794501873463
2058.6325,108.01948460376411
2060.1917,100.9326118967424
2061.7502,114.02747022316112
2063.3079,105.70420189918627
2064.8649,104.76294810071022
2066.4212,101.6538489465836
2067.9767,94.72704350802883
2069.5315,103.53266983973117
2071.0856,87.02086504910608
2072.6389,86.69176520824362
2074.1915,86.44550551902489
2075.7433,85.23222031641399
2077.2945,95.45204307092126
2078.8448,96.75510640073503
2080.3945,94.74154196952463
2081.9434,85.91148047340835
2083.4916,85.81505166109059
2085.039,90.95238442216191
2086.5857,83.37360678806272
2088.1317,86.97884588071042
2089.677,80.9182279882873
2091.2215,85.94187852918799
2092.7652,81.99992211262474
2094.3083,80.09248248839162
2095.8506,89.01968258628494
2097.3921,95.58164453517543
2098.933,92.52848957373863
2100.4731,87.86033798483413
2102.0124,84.82730912603733
2103.5511,95.32952147632182
2105.089,93.41709266638918
2106.6261,97.2901393736463
2108.1626,86.19877734133024
2109.6983,93.29312133977601
2111.2332,98.22328527733202
2112.7675,84.68938212941475
2114.301,91.89152388920957
2115.8337,93.62982170300847
2117.3657,94.35438579818833
2118.897,95.51532546582848
2120.4276,102.26274905346645
2121.9575,89.19676395348688
2123.4866,93.11747653564794
2125.0149,111.97499227773983
2126.5426,89.56941572638061
2128.0695,90.20085030843802
2129.5956,92.96939855508776
2131.1211,94.3251620954959
2132.6458,98.7682416291359
2134.1698,92.14873691223033
2135.693,86.91674671331884
2137.2155,83.42236887945683
2138.7373,94.26570038853197
2140.2584,94.34683738420927
2141.7787,84.21587506749756
2143.2983,84.32290769593783
2144.8171,83.56802868491286
2146.3353,83.601330606577
2147.8527,69.07290519740513
2149.3693,89.88284335786034
2150.8853,90.38123529767768
2152.4005,72.91817032776385
2153.9149,68.74373685521437
2155.4287,86.05802255794401
2156.9417,87.96111442642996
2158.454,74.20309859057056
2159.9655,85.38406030065289
2161.4764,75.00408406493443
2162.9865,76.51325353783272
2164.4958,71.4116516237259
2166.0045,68.44936046185944
2167.5124,85.12646147736382
2169.0195,76.69303541087697
2170.526,81.49916215177154
2172.0317,72.99492082249185
2173.5367,84.53038973048979
2175.0409,82.85564645326917
2176.5445,93.67076772303085
2178.0473,78.12582944341966
2179.5494,80.02090658137422
2181.0507,88.30607332257478
2182.5513,74.58140305249276
2184.0512,81.89696827353919
2185.5504,93.50284074231217
2187.0488,68.74909139644046
2188.5465,74.93579023852476
2190.0435,72.16300658367527
2191.5397,64.63080899764623
2193.0353,64.63926532456185
2194.5301,65.13844276223836
2196.0241,80.2784078621005
2197.5175,72.05922652418826
2199.0101,71.63096384575874
2200.502,63.64368420347705
2201.9931,63.84745125769928
2203.4835,56.59232803234568
2204.9733,64.02837691286254
2206.4622,63.855659718773495
2207.9505,59.22423762931953
2209.438,53.88417118518578
2210.9248,47.335520334814646
2212.4109,62.62834448780859
2213.8962,58.36270258041486
2215.3809,54.18865292259852
2216.8648,56.056253240698425
2218.3479,60.515560719167524
2219.8304,53.31663198189608
2221.3121,41.65952304762072
2222.7931,49.84428940191128
2224.2733,45.22098611374281
2225.7529,44.78966775364961
2227.2317,37.850388439956305
2228.7098,47.00320184309112
2230.1872,41.64816125497964
2231.6638,48.485319497514865
2233.1397,54.364728976109745
2234.6149,45.73644161132506
2236.0894,42.100508780074506
2237.5632,47.20698140190916
2239.0362,29.60590997537406
2240.5085,34.19734452694638
2241.9801,37.73133478704381
2243.4509,35.507930144111924
2244.921,35.727179609283894
2246.3904,36.789131838613685
2247.8591,32.54383513088419
2249.3271,25.991337416986653
2250.7943,31.581686302375147
2252.2608,23.614929132591215
2253.7266,37.29111293735923
2255.1917,33.210284510255406
2256.656,25.5224902719458
2258.1197,22.627776310994705
2259.5826,30.326188460741832
2261.0447,23.567772328250157
2262.5062,28.302573217320287
2263.9669,27.630636196076694
2265.4269,32.952006049618376
2266.8862,23.91672728673825
2268.3448,22.274844086710118
2269.8026,25.72640038964073
2271.2598,28.571439912889446
2272.7162,34.26000611655195
2274.1719,26.992142175010258
2275.6268,31.817890920047375
2277.0811,27.837294913525966
2278.5346,36.40039639912993
2279.9874,34.657237342170674
2281.4395,36.2578593439564
2282.8908,39.20230365922362
2284.3414,33.590611180130054
2285.7914,32.72282240681193
2287.2406,30.698977503499236
2288.689,36.1691163071946
2290.1368,33.53327834791094
2291.5838,36.441502793970585
2293.0302,23.243828478365003
2294.4758,40.04029386967045
2295.9206,28.980937204026077
2297.3648,37.41579631716945
2298.8082,32.19490875502834
2300.251,39.118311689373286
2301.693,40.9360419700256
2303.1343,22.298136055624354
2304.5748,32.00462999544948
2306.0147,23.75555961579994
2307.4538,27.100960422929802
2308.8922,25.29086768553816
2310.3299,33.02531640131497
2311.7669,31.55434131504171
2313.2031,26.17797684124639
2314.6387,27.34625707891496
2316.0735,24.5592158652546
2317.5076,32.216886764009814
2318.941,27.869303093333883
2320.3737,15.966497849211692
2321.8056,33.15850374893648
2323.2369,24.945353350134837
2324.6674,31.677078878850125
2326.0972,21.80371231167146
2327.5263,30.47528530841828
2328.9547,26.3418293108723
2330.3823,24.103375456062395
2331.8092,23.109954617599442
2333.2355,22.761597428061123
2334.661,22.10833428892647
2336.0858,21.200195374058694
2337.5098,30.83721063623807
2338.9332,24.169409816243387
2340.3558,20.74682234648253
2341.7778,34.96947741767076
2343.199,24.687404013054902
2344.6195,14.600630766186896
2346.0393,31.10918606374571
2347.4583,34.16309814640408
2348.8767,32.46239494374322
2350.2943,31.307104043713935
2351.7113,29.79725270964377
2353.1275,31.832867891788965
2354.543,31.66397624243382
2355.9578,38.140604095534854
2357.3718,28.012777468408558
2358.7852,29.6805219969674
2360.1978,30.943863036995026
2361.6098,38.80282564747108
2363.021,36.85743457793592
2364.4315,38.70771418990239
2365.8413,19.903688476308616
2367.2504,27.995381043016323
2368.6587,30.632815296850367
2370.0664,26.116014364681632
2371.4733,38.54500106705359
2372.8795,23.719797963350516
2374.285,36.84042722750587
2375.6899,33.256910796255625
2377.0939,37.06927023793253
2378.4973,35.92752678830118
2379.9,30.18170131243346
2381.3019,29.231814316126474
2382.7032,29.42788600336064
2384.1037,28.969936285797985
2385.5035,20.857984780822335
2386.9027,24.492050816120127
2388.3011,25.872153510798398
2389.6987,23.74831173904363
2391.0957,22.720544116321662
2392.492,16.638869020614834
2393.8876,21.453304602701337
2395.2824,17.713868846970172
2396.6765,25.470579523277934
2398.07,24.723454224344096
2399.4627,31.32251028818291
2400.8547,11.967764805575143
2402.246,19.609234554076806
2403.6366,23.946936191567033
2405.0265,11.330886179832987
2406.4156,13.061100741193513
2407.8041,25.43759598465931
2409.1918,4.960387888630635
2410.5789,23.87949217713367
2411.9652,12.7448750199178
2413.3508,24.256502347937726
2414.7358,18.714339964700343
2416.12,16.26835343114749
2417.5035,28.96850812107766
2418.8863,17.06476924560627
2420.2684,18.7571017261655
2421.6497,12.095470313540773
2423.0304,20.879839570946842
2424.4104,19.410173940639538
2425.7896,16.786437656078647
2427.1682,21.65859475662228
2428.546,16.976609113764994
2429.9232,18.240444382415262
2431.2996,35.750064047715796
2432.6753,18.405431412405164
2434.0503,26.106509421721967
2435.4246,14.153260836850336
2436.7982,15.095648157910318
2438.1711,11.633633743490122
2439.5433,22.21717980122162
2440.9148,22.296248422400595
2442.2856,18.870801476151087
2443.6557,22.490800608635595
2445.025,17.006207277308818
2446.3937,14.51698271471787
2447.7617,12.5730879833485
2449.1289,18.874484000516986
2450.4955,15.22113155780869
2451.8613,20.762991258065313
2453.2265,22.95002355191707
2454.5909,21.832188682365086
2455.9546,22.509446662910136
2457.3177,15.63175728873216
2458.68,24.099080129916842
2460.0416,28.46137460023283
2461.4025,25.468599872457958
2462.7627,28.620714834756768
2464.1222,24.167678120608002
2465.4811,29.359448077284128
2466.8392,25.045982810381133
2468.1966,31.627240131901317
2469.5533,43.30317760338755
2470.9093,39.47375247011064
2472.2645,34.73892154430962
2473.6191,40.598641243486895
2474.973,27.702867637755503
2476.3262,33.101556391242525
2477.6787,37.89466289104689
2479.0305,36.38214219325198
2480.3816,35.81394897499479
2481.7319,37.94003754959169
2483.0816,27.8103618722198
2484.4306,36.47487551865629
2485.7789,35.533531786575054
2487.1264,37.93628360890125
2488.4733,34.483083563225364
2489.8195,44.923883847775414
2491.165,32.70863631594932
2492.5097,32.787292371906574
2493.8538,31.759803092720745
2495.1972,28.42611922759329
2496.5398,25.736191208128048
2497.8818,35.389969181668334
2499.2231,39.5874030381957
2500.5637,31.678442313792516
2501.9035,32.06303614866715
2503.2427,39.991133366243616
2504.5812,38.8126824693162
2505.919,36.82763156076817
2507.256,34.03592835535619
2508.5924,40.08752019956103
2509.9281,29.132354099504823
2511.2631,33.820376660434135
2512.5974,43.35153419627284
2513.9309,40.77577268274035
2515.2638,36.94303766204166
2516.596,44.00327426862441
2517.9275,35.25642726750607
2519.2583,45.00244098367193
2520.5884,36.39125938954351
2521.9178,47.6728260075181
2523.2465,38.947083996081005
2524.5745,33.563976036989516
2525.9018,45.123444422530724
2527.2284,46.67543110935219
2528.5543,48.56987760286745
2529.8796,44.806724941736206
2531.2041,46.9359136789202
2532.5279,43.85738391931409
2533.851,47.92107529845396
2535.1735,44.826927013303134
2536.4952,47.82487778161419
2537.8163,49.91486587287079
2539.1366,54.79682907830829
2540.4562,55.92070469001385
2541.7752,55.18642945210661
2543.0935,50.643939549499464
2544.411,52.14317061524082
2545.7279,53.284057775940596
2547.0441,62.21653563677671
2548.3596,57.24053827008686
2549.6744,60.055999126043844
2550.9885,59.46285108241511
2552.3019,51.46102641640812
2553.6146,62.750456810602486
2554.9266,60.68107343296788
2556.2379,59.50280682396942
2557.5485,54.11558691726157
2558.8585,63.119343051471105
2560.1677,59.414004024068845
2561.4762,67.64949800133263
2562.7841,66.07575255540019
2564.0913,67.49269458191498
2565.3977,64.20025031576267
2566.7035,70.24834531690237
2568.0086,64.9369045032912
2569.313,66.86585209040345
2570.6167,64.38511164434419
2571.9197,71.84460606256062
2573.222,69.74425759864914
2574.5236,72.83398778776018
2575.8246,71.51371746760219
2577.1248,72.08336674754355
2578.4244,77.49285502181613
2579.7232,74.39210096381817
2581.0214,68.1810224720191
2582.3189,90.25953670096794
2583.6157,89.02756012340376
2584.9118,79.43500830947016
2586.2072,87.73179593903615
2587.5019,89.51783689762021
2588.7959,87.0430441934235
2590.0893,94.80732993946935
2591.3819,90.96060537835058
2592.6739,102.85278080458772
2593.9652,100.833765603095
2595.2557,94.70346813025958
2596.5456,104.11179573413119
2597.8348,102.25865481572487
2599.1234,102.14395073493779
2600.4112,113.96758782908125
2601.6983,110.72946941402665
2602.9848,110.0294976659701
2604.2705,108.31757365381338
2605.5556,121.49359734616371
2606.84,111.65746762845265
2608.1237,109.10908217117594
2609.4067,102.49833752825509
2610.689,106.77512916252078
2611.9707,113.78935151182043
2613.2516,107.24089794625093
2614.5319,108.67966069801594
2615.8115,94.35553092691032
2617.0903,100.61839870593303
2618.3685,92.06815316452753
2619.6461,101.50468242595389
2620.9229,95.92787369279097
2622.199,105.63761315257113
2623.4745,108.93378603354847
2624.7493,102.06627650760117
2626.0234,106.63496765726961
2627.2968,102.93974154443174
2628.5695,98.43047916461592
2629.8415,105.30706048395348
2631.1128,104.36936448427127
2632.3835,103.81726909432564
2633.6535,100.1506511991796
2634.9228,98.6693866457233
2636.1914,109.22335027934082
2637.4593,99.91241595872248
2638.7265,100.38645645032523
2639.9931,105.84534352148194
2641.259,104.0389479356611
2642.5242,96.46713939787765
2643.7887,108.97978657275758
2645.0525,112.57675716025517
2646.3156,104.05791777052752
2647.5781,101.4231338879639
2648.8398,95.67226995637486
2650.1009,96.30518940534023
2651.3613,97.52175470771681
2652.6211,103.27182737330997
2653.8801,96.70526793670774
2655.1385,90.97193589977985
2656.3961,99.4716897973442
2657.6531,102.7543872544993
2658.9094,97.11988490162707
2660.1651,103.86803834156558
2661.42,107.7987022059541
2662.6743,99.71173008775202
2663.9279,110.30697450193179
2665.1808,105.93428696634885
2666.433,108.24351789578907
2667.6846,110.98451664569563
2668.9354,127.25713148907744
2670.1856,126.96120958909773
2671.4351,118.04659683634895
2672.6839,125.96313785181155
2673.9321,134.76067607600055
2675.1795,137.38905368979943
2676.4263,135.59811152648552
2677.6724,139.88768904544605
2678.9179,134.3076243500871
2680.1626,137.35775414493804
2681.4067,134.73791379145206
2682.6501,138.84793727750514
2683.8928,138.9376572435944
2685.1348,131.20690494173772
2686.3761,133.7055102345766
2687.6168,126.98330167268404
2688.8568,121.79010646957829
2690.0961,117.97575056894453
2691.3348,112.09005869656727
2692.5727,118.38285439847357
2693.81,115.35396009979013
2695.0466,105.90319704181502
2696.2826,120.68038531230735
2697.5178,119.48534393999444
2698.7524,112.9178907467998
2699.9863,114.97784235979418
2701.2195,117.61501427686949
2702.452,118.32922084613926
2703.6839,125.470275239567
2704.9151,135.18798944582437
2706.1456,127.33217419888041
2707.3755,139.95263888082445
2708.6046,154.34919160042472
2709.8331,160.77163906692317
2711.0609,158.76978644607004
2712.2881,163.29343729589976
2713.5145,173.44239358674906
2714.7403,188.31645565602048
2715.9654,185.36542210669285
2717.1899,199.43908965858088
2718.4136,205.78725317784506
2719.6367,231.10970553625532
2720.8591,230.7062375477086
2722.0809,243.02663771500568
2723.3019,243.92069223388512
2724.5223,268.7381848698195
2725.7421,273.52889694907475
2726.9611,269.74260711053523
2728.1795,267.1790912577962
2729.3972,263.1381225970277
2730.6142,252.86947166260893
2731.8306,245.12290635753794
2733.0462,220.94819205611856
2734.2612,206.84509168142586
2735.4756,194.46336594705275
2736.6892,182.3027734981422
2737.9022,164.16307103520364
2739.1145,144.49401343571895
2740.3262,141.7453539355397
2741.5372,128.86684432557792
2742.7475,112.00823497929161
2743.9571,110.16927498147095
2745.1661,97.04971229682423
2746.3744,84.79929378836692
2747.582,78.8677653486182
2748.7889,71.25487202210377
2749.9952,62.510358064672346
2751.2008,52.98396701962429
2752.4057,54.17544180515648
2753.61,44.28452480962642
2754.8136,47.210957879637476
2756.0165,37.804482418948055
2757.2188,36.71483935920725
2758.4204,40.54176925401919
2759.6213,36.58501228984045
2760.8215,36.19430824770984
2762.0211,35.769396542816196
2763.22,36.51001622840619
2764.4182,31.96590600003242
2765.6158,27.23680418814763
2766.8127,19.672448803545706
2768.009,24.52257758465271
2769.2045,13.43692807317018
2770.3994,15.365237565574546
2771.5936,2.4572432239733075
2772.7872,0.06268205682164307
2773.9801,-1.368708951997462
2775.1723,-5.637193444795059
2776.3639,-6.7930213904802486
2777.5548,-17.436386442399623
2778.745,-10.117414391616421
2779.9346,-13.436056839693492
2781.1235,-13.092164315224352
2782.3117,-13.735453120594912
2783.4992,-14.165508767469646
2784.6861,-15.581779550336591
2785.8723,-14.633572250251575
2787.0579,-10.870037986293141
2788.2428,-6.090181688153393
2789.427,-5.99289969384472
2790.6106,3.372972499534967
2791.7935,7.408659263955656
2792.9757,12.515384937658041
2794.1573,19.544373784795994
2795.3382,26.596849944370206
2796.5184,27.724037359936688
2797.698,39.32715970908305
2798.8769,47.00744039215715
2800.0551,57.41610241623539
2801.2327,61.95436831832012
2802.4096,75.17346006125297
2803.5859,93.02459898833229
2804.7615,109.25900569112162
2805.9364,124.02789983093896
2807.1106,141.88249997651246
2808.2842,161.47402345629155
2809.4572,188.10368617990127
2810.6294,224.22270244222636
2811.801,243.18228465711525
2812.972,282.8836429961891
2814.1423,313.67798519924713
2815.3119,356.86651617725227
2816.4808,402.8004377043875
2817.6491,442.48094798617103
2818.8167,492.9092412001173
2819.9837,541.2365070989315
2821.15,587.2139305062267
2822.3157,643.7426908332509
2823.4807,692.3739616191142
2824.645,754.8589099654994
2825.8086,800.5986960503496
2826.9716,856.64447250302
2828.134,901.6973839468782
2829.2957,955.6585664388482
2830.4567,981.8291470188801
2831.617,1003.6102431703388
2832.7767,1015.7029625582975
2833.9358,1011.0084028117279
2835.0941,998.9776514025715
2836.2519,993.3117856926863
2837.4089,965.811873054154
2838.5653,955.678970925939
2839.7211,932.1641270888867
2840.8761,925.8683797670546
2842.0306,923.0927578628582
2843.1843,947.1882810200298
2844.3374,980.8059596513746
2845.4899,1007.7467946978154
2846.6417,1058.0117772922156
2847.7928,1113.8518884899715
2848.9433,1169.7180987663614
2850.0931,1244.461367458146
2851.2422,1298.0826422049047
2852.3907,1363.6828582016033
2853.5385,1404.9129376623828
2854.6857,1460.9237891645553
2855.8323,1498.666307236303
2856.9781,1540.3413717965723
2858.1233,1610.9998477776453
2859.2679,1642.392584708392
2860.4118,1683.5204160076833
2861.555,1742.4841586704647
2862.6976,1776.384612856479
2863.8395,1809.9225613006254
2864.9808,1860.2487689739598
2866.1214,1874.3639827483112
2867.2614,1879.7189308930215
2868.4007,1904.1143229337936
2869.5393,1904.500849599141
2870.6773,1928.6791825764344
2871.8146,1932.149974508036
2872.9513,1934.1138587495166
2874.0874,1915.571449334948
2875.2227,1908.623340957263
2876.3574,1902.2701091536808
2877.4915,1874.3123103751882
2878.6249,1854.8504820500698
2879.7577,1824.9351428634884
2880.8898,1803.216792952102
2882.0212,1789.9959142032176
2883.152,1762.372970471974
2884.2821,1766.6484077135515
2885.4116,1764.9726542594021
2886.5405,1748.5461207744936
2887.6686,1748.969200274067
2888.7962,1762.092268287903
2889.923,1776.96568285609
2891.0493,1784.839784397796
2892.1748,1801.3148955625297
2893.2997,1802.891321151404
2894.424,1821.019347952383
2895.5476,1829.4492447245168
2896.6706,1836.6312620166634
2897.7929,1860.5156320831888
2898.9145,1889.9025688121471
2900.0355,1916.9922674864351
2901.1559,1950.0849044899257
2902.2756,1982.5306370365688
2903.3946,2014.4796028394658
2904.513,2035.0819197864116
2905.6308,2041.8876856204063
2906.7479,2091.2469777336296
2907.8643,2111.9598530993844
2908.9801,2116.7763477785065
2910.0953,2141.5964767122314
2911.2098,2121.8702336740316
2912.3236,2134.5475910214163
2913.4368,2120.4284998931926
2914.5494,2095.962890082692
2915.6613,2078.8006701789614
2916.7725,2038.5917278114189
2917.8831,2016.685929821477
2918.9931,1997.4331226646293
2920.1024,1962.033132629513
2921.211,1942.7357660304326
2922.319,1927.0908095613618
2923.4264,1921.7980304889184
2924.5331,1898.0071768088108
2925.6391,1892.6179772987678
2926.7445,1891.0301417564467
2927.8493,1902.2933610533255
2928.9534,1904.7073071505815
2930.0569,1906.821632986458
2931.1597,1913.9859724521257
2932.2619,1908.5499403705398
2933.3634,1924.913132424795
2934.4643,1929.575125212488
2935.5645,1904.6854760820831
2936.6641,1888.7437230862956
2937.763,1880.1993852309836
2938.8613,1845.1019626345708
2939.959,1803.4509366134853
2941.056,1746.095770033137
2942.1523,1676.7859077244264
2943.248,1610.2207770572963
2944.3431,1545.5497886338305
2945.4375,1443.4723369539054
2946.5313,1345.1378010619005
2947.6244,1264.5455455674705
2948.7169,1161.1449216288947
2949.8087,1065.435267758996
2950.8999,987.4159108591482
2951.9904,913.1861671763745
2953.0803,846.1953430835383
2954.1696,785.5927358216418
2955.2582,727.077634169734
2956.3462,696.0993190509366
2957.4335,655.3070641175956
2958.5202,615.0501360610641
2959.6062,598.9277950196249
2960.6916,576.4392949810594
2961.7764,553.8838839438716
2962.8605,544.4108041421732
2963.9439,530.669292271237
2965.0267,529.1085795822279
2966.1089,517.4778920196185
2967.1905,512.1264502367957
2968.2714,510.5534697123685
2969.3516,510.0581608036813
2970.4312,525.3397287625444
2971.5102,526.7973737401866
2972.5885,542.2302906344395
2973.6662,544.7376690751616
2974.7432,531.8186932699085
2975.8196,544.9225419788589
2976.8954,539.0983886440055
2977.9705,534.7954012581155
2979.045,534.2627424229726
2980.1188,521.599569392407
2981.192,505.30503407762126
2982.2645,496.37828317382264
2983.3364,473.96845832316853
2984.4077,446.2746962040337
2985.4783,435.1961287551085
2986.5483,412.0818834523364
2987.6177,378.88108341969996
2988.6864,352.6428476603628
2989.7545,325.2662913886784
2990.8219,301.0005262925719
2991.8887,261.49466080730605
2992.9548,237.54780035813843
2994.0204,212.4090477553802
2995.0852,185.52750343386458
2996.1495,165.50226570433432
2997.2131,140.53243102225758
2998.276,123.31709418807992
2999.3383,106.00534859692277
3000.4,87.09628641073704
3001.4611,79.23899873142017
3002.5215,58.78257578990679
3003.5812,52.77610702474175
3004.6404,32.918681286644414
3005.6989,26.109386898573348
3006.7567,23.24731185430045
3007.8139,6.031543886503982
3008.8705,11.561170495389376
3009.9264,0.4352791208467579
3010.9818,3.252957087154698
3012.0364,-2.1367082857607897
3013.0905,-8.984629710503327
3014.1439,0.20830144603894496
3015.1966,-16.90871642657146
3016.2487,-14.936484940854996
3017.3002,-11.425636791255386
3018.3511,-7.526655456732215
3019.4013,-4.489910274133649
3020.4509,-8.365695389020289
3021.4998,-4.6542600927492686
3022.5481,-9.555770103381008
3023.5958,0.7296553570822653
3024.6428,-3.3480074712186365
3025.6892,1.3112176445606565
3026.735,3.8573403838589684
3027.7802,12.640370413002984
3028.8247,6.160317359746045
3029.8685,11.767190725438184
3030.9118,21.810999949826055
3031.9544,22.441754354984937
3032.9963,26.109463044879874
3034.0376,29.114134899058968
3035.0783,39.905778535975685
3036.1184,52.83440228294228
3037.1578,56.15001406821352
3038.1966,50.9026212916998
3039.2348,61.892230791811755
3040.2723,63.368848897934015
3041.3092,72.58248132052898
3042.3455,63.78313313637102
3043.3811,67.62080869640954
3044.4161,83.49551171376311
3045.4505,74.75724522534199
3046.4842,77.10601143310163
3047.5173,71.8418117914253
3048.5498,75.96464698363599
3049.5816,70.27451697463869
3050.6128,75.3214209696921
3051.6434,73.45535747130998
3052.6734,76.87632422879187
3053.7027,74.33431825688399
3054.7314,77.87933580156943
3055.7594,73.61137236548831
3056.7868,75.68042267248785
3057.8136,74.78648071030142
3058.8398,69.47953970985833
3059.8653,71.25959215422313
3060.8902,79.7766298316651
3061.9145,80.28064381785794
3062.9381,73.37162439070892
3063.9612,71.19956102531938
3064.9835,80.16444246307424
3066.0053,70.26625673336315
3067.0264,74.15499106393145
3068.0469,67.78063197986194
3069.0668,69.9931652646876
3070.086,71.04257602413526
3071.1046,63.328848664000304
3072.1226,58.0519668796523
3073.1399,66.46191373317251
3074.1567,58.758671706122584
3075.1727,45.59222261544525
3076.1882,44.96254769049668
3077.203,43.269627704710985
3078.2173,41.36344298189678
3079.2308,34.54397341316658
3080.2438,35.61119847599872
3081.2561,29.265097302431855
3082.2678,20.005648668392695
3083.2789,20.432831057157216
3084.2893,19.59662275194509
3085.2991,16.54700183164772
3086.3083,9.983946179190553
3087.3169,11.907433512029115
3088.3248,11.217441447779606
3089.3321,6.763947484984129
3090.3388,7.7969290100102455
3091.3449,1.216363341586117
3092.3503,3.1222277204706756
3093.3551,8.364499375259356
3094.3593,-0.6068444966747677
3095.3629,4.308173218396547
3096.3658,-1.3904643034221635
3097.3681,2.39722607089206
3098.3698,2.4712413651003544
3099.3708,0.3315785789916674
3100.3713,-1.371765312357411
3101.3711,-0.7887966463403302
3102.3702,1.7804919435847921
3103.3688,0.136115704038275
3104.3667,-0.12191013616435953
3105.364,-0.293571708003725
3106.3607,0.7711460754218251
3107.3568,-1.5777387662047317
3108.3522,1.5597917790880444
3109.347,-2.8162285151181266
3110.3412,1.494234109160658
3111.3348,-1.4587584559689049
3112.3277,1.0248556666576292
3113.32,-1.6048470727983215
3114.3117,-2.2477902344239453
3115.3028,1.9961186541158327
3116.2932,6.776994520580416
3117.2831,2.69495227276812
3118.2723,5.950106750707306
3119.2608,-0.15742723252307655
3120.2488,7.122465076654862
3121.2361,6.989900004516954
3122.2229,3.794993806114576
3123.209,5.437862666600097
3124.1944,5.168622733176079
3125.1793,6.087390098666532
3126.1635,8.544280804209393
3127.1471,7.039410830068789
3128.1301,13.822896071066069
3129.1125,11.494852351628637
3130.0942,8.005395357954939
3131.0753,11.454640661294945
3132.0558,15.442703752844707
3133.0357,11.16970000925403
3134.015,8.435744652745782
3134.9936,17.1409527938458
3135.9716,14.485439458722922
3136.949,18.16931950213643
3137.9258,13.942707633991247
3138.902,18.70571838249917
3139.8775,19.358466136445102
3140.8524,22.251065097556662
3141.8267,15.133629273976936
3142.8004,25.40627245133834
3143.7735,21.0191082639371
3144.7459,22.472250092006774
3145.7178,20.915811105589896
3146.689,21.199904250006497
3147.6596,23.924642261418583
3148.6295,25.290137663989114
3149.5989,25.346502742634712
3150.5676,29.543849529370647
3151.5357,27.83228980274717
3152.5032,32.76193504587613
3153.4701,29.18289646354647
3154.4364,28.595284932927925
3155.402,34.649211039361234
3156.367,30.19478508223429
3157.3315,36.48211701444298
3158.2952,35.66131648693532
3159.2584,35.182492785838235
3160.221,36.69575484066547
3161.1829,37.10121122910597
3162.1442,38.348970161891046
3163.105,39.78913947874008
3164.065,37.97182663588272
3165.0245,40.99713869165734
3165.9834,43.71518232468401
3166.9416,41.12606380361151
3167.8993,45.67988895993679
3168.8563,42.37676321389622
3169.8127,48.266791528927314
3170.7684,46.70007844469995
3171.7236,48.726728018216136
3172.6782,48.646843839477114
3173.6321,49.660529011216845
3174.5854,49.217886149700874
3175.5381,49.41901737458949
3176.4902,52.41402431336412
3177.4417,52.45300809931609
3178.3926,52.636069341596475
3179.3428,52.813308124826314
3180.2924,55.93482400726593
3181.2415,54.400716019042626
3182.1899,56.91108263093545
3183.1377,57.46602176971627
3184.0848,56.915630793046205
3185.0314,56.06000648392613
3185.9773,58.54924505620062
3186.9227,62.78344216311424
3187.8674,64.11269287241907
3188.8115,62.73709162403283
3189.755,63.65673221674625
3190.6979,62.62170782197922
3191.6402,67.7321109745843
3192.5818,64.33803358319696
3193.5229,68.53956687913163
3194.4633,68.73680145032233
3195.4031,63.679827199307475
3196.3423,70.21873334125746
3197.2809,65.70360845454438
3198.2189,74.23454041535305
3199.1563,73.21161644283215
3200.0931,74.48492301378502
3201.0292,77.45454587289878
3201.9648,73.07057002001136
3202.8997,78.53307968041521
3203.834,78.79215834869713
3204.7677,77.99788873411305
3205.7008,79.40035275799738
3206.6333,82.6996315617056
3207.5652,80.9458054925897
3208.4964,84.8389540710053
3209.4271,87.17915600784998
3210.3571,83.91648916563182
3211.2865,86.90103053506724
3212.2154,83.28285626770787
3213.1436,86.41204164609493
3214.0712,87.73866111994114
3214.9982,87.91278827483877
3215.9246,91.08449581899349
3216.8503,90.75385558148304
3217.7755,88.72093848054026
3218.7001,93.98581452685931
3219.624,92.74855284392513
3220.5473,94.35922161536433
3221.4701,94.36788809731812
3222.3922,99.12461860233539
3223.3137,96.22947849928617
3224.2346,101.03253216579431
3225.1549,96.63384301718882
3226.0746,97.38347345847339
3226.9937,102.83148492831327
3227.9121,101.22793789153896
3228.83,104.32289178466607
3229.7473,103.66640503193085
3230.6639,108.15853501434057
3231.5799,104.69933807623846
3232.4954,106.6388694803824
3233.4102,105.67718344253682
3234.3244,106.21433311207741
3235.238,108.85037058160806
3236.151,108.18534688158925
3237.0634,109.91931195397778
3237.9752,115.00231465887691
3238.8864,112.98440275719676
3239.797,114.4656228598243
3240.7069,114.7460204478025
3241.6163,111.92563985751798
3242.5251,115.50452427789723
3243.4332,115.13271577861029
3244.3408,118.01025527428192
3245.2477,118.98718252820969
3246.154,117.81353612358856
3247.0598,117.63935345374169
3247.9649,119.16467073385678
3248.8694,123.28952300272803
3249.7733,121.26394410750282
3250.6766,121.13796666243337
3251.5793,125.71162206913233
3252.4814,127.0849405178327
3253.3829,127.50795094165123
3254.2838,126.23068100285516
3255.1841,126.85315708863222
3256.0838,125.77540432386328
3256.9829,133.24744656489767
3257.8814,130.11930641033047
3258.7792,128.09100512628234
3259.6765,128.71256267768086
3260.5731,128.2339977485434
3261.4692,130.35532773576176
3262.3647,134.7265687538877
3263.2595,134.14773561391956
3264.1538,132.26884177959005
3265.0474,132.98989937315434
3265.9404,137.96091919417924
3266.8329,133.3819107123325
3267.7247,134.85288201767275
3268.616,138.4238398664393
3269.5066,132.84478966634276
3270.3966,136.4657354408552
3271.286,133.03667988500084
