RamanShift,CorrectedData
30.1047,1488.0895432605143
32.3739,1378.667881111403
34.6426,1272.846204081396
36.9109,1172.6744835029194
39.1787,1067.9526779799362
41.4461,961.530734389664
43.7131,857.1085889297938
45.9796,752.2861681827086
48.2456,645.3633901597051
50.5112,544.0901653492182
52.7764,442.5163977860484
55.0411,339.19198606409475
57.3054,235.01682435209216
59.5692,131.84080342685542
61.8326,35.913811715031144
64.0955,-63.51426367514205
66.3579,-164.29353599456357
68.6199,-256.57348398663885
70.8815,-337.451945102349
73.1426,-363.32419362357024
75.4032,-279.73213268724714
77.6634,120.08596417836918
79.9231,1209.5946179690327
82.1824,3718.5083484796396
84.4412,8426.741663409139
86.6995,15047.709033271396
88.9574,21582.824844312865
91.2148,26096.503332302906
93.4717,28210.208517182626
95.7282,28587.304157928113
97.9842,28312.853731413357
100.2398,27561.47042863931
102.4949,26745.767157478396
104.7495,25826.806550188317
107.0036,24948.40097156913
109.2573,24053.362528152815
111.5105,23295.40307698733
113.7632,22568.93423458704
116.0154,21986.017384512248
118.2672,21591.963684633938
120.5185,21081.68407296291
122.7693,20702.68927159034
125.0197,20378.38979179055
127.2696,20052.99593781098
129.519,19809.667810115167
131.7679,19429.2153086367
134.0163,19098.348135212476
136.2642,18698.42579738725
138.5117,18262.457611722304
140.7587,17844.602707794646
143.0052,17471.770032556728
145.2512,17048.618354514976
147.4967,16662.506267458106
149.7417,16306.892194688655
151.9863,16040.634392884112
154.2304,15793.990955653033
156.4739,15542.569816197636
158.717,15380.828749780223
160.9596,15131.975376237413
163.2017,14809.76716159753
165.4433,14443.01142056915
167.6844,14047.165319763182
169.925,13656.385881360413
172.1651,13203.979987069988
174.4047,12873.104382037181
176.6439,12562.915679367485
178.8825,12262.320363435338
181.1206,12068.374792986027
183.3582,11823.535204141637
185.5954,11635.557712340507
187.832,11468.598314785628
190.0681,11323.262892324414
192.3037,11236.657211118298
194.5388,11089.886924096081
196.7734,11067.207571819998
199.0075,11018.674583953409
201.2411,11020.843279487613
203.4742,10994.918867227156
205.7068,11054.10644576816
207.9389,11043.461003757562
210.1704,11112.487419301231
212.4015,11093.840460070434
214.632,11129.174782611562
216.862,11179.644932532605
219.0915,11180.20534414981
221.3205,11168.51033998298
223.549,11166.664130749872
225.777,11188.17081548314
228.0044,11163.734381548804
230.2314,11236.158704431185
232.4578,11266.797547977254
234.6837,11258.154563672404
236.909,11237.733290334058
239.1339,11130.0371541981
241.3582,11001.269469123084
243.582,10815.783437667193
245.8053,10677.482152375924
248.0281,10506.168597636944
250.2503,10456.995651063107
252.472,10359.916085205577
254.6932,10397.232568045572
256.9139,10390.197663965144
259.134,10477.813833374032
261.3536,10555.983432779993
263.5727,10759.608713912656
265.7912,10886.941822941817
268.0092,11077.684798441198
270.2267,11190.889570115092
272.4436,11208.307956890962
274.6601,11170.441665787368
276.8759,11012.042291739805
279.0913,10867.911317979355
281.3061,10681.05011761668
283.5204,10567.209955083334
285.7341,10509.541988000377
287.9473,10413.447268316762
290.16,10417.526742886039
292.3721,10413.381254427284
294.5837,10502.161541484316
296.7947,10595.968238467141
299.0052,10701.651874764151
301.2152,10599.212873804063
303.4246,10426.001551999085
305.6334,10059.268119769291
307.8418,9607.012683274748
310.0495,9173.135248082846
312.2568,8694.785723690862
314.4635,8239.413927864707
316.6696,7891.119591422452
318.8752,7631.952362788026
321.0802,7479.211811474172
323.2847,7396.0474306741
325.4887,7376.458638788927
327.692,7348.544780259286
329.8949,7223.7551257612395
332.0972,7016.9888724854045
334.2989,6776.495145384857
336.5001,6452.572999242782
338.7007,6252.221421077433
340.9008,6057.539333381328
343.1003,5814.725596124794
345.2992,5666.979008702756
347.4976,5490.448312362896
349.6955,5373.682191683098
351.8927,5328.129276336784
354.0895,5144.438142260551
356.2856,5129.207312109707
358.4812,4968.835257095192
360.6763,4948.27039713587
362.8707,4838.711102462263
365.0646,4834.405693822202
367.258,4803.402443576404
369.4508,4811.799575741539
371.643,4868.495266300246
373.8346,4851.8376431171855
376.0257,4875.424785372061
378.2162,4856.704723726216
380.4062,4783.425440086754
382.5956,4623.134867793728
384.7844,4539.280892352948
386.9726,4313.96135303888
389.1603,4230.474043733191
391.3474,4064.6667151779384
393.5339,4026.087075810452
395.7199,3891.9327934213925
397.9052,3896.7514955405604
400.09,3915.990770778433
402.2743,4010.248168777978
404.4579,4085.2212000222626
406.641,4244.0573348918715
408.8235,4353.6540029152
411.0054,4443.208591180059
413.1868,4591.668443237739
415.3675,4602.28085820745
417.5477,4564.793089291723
419.7273,4509.402343670285
421.9064,4373.1557828749355
424.0848,4292.500523343455
426.2627,4071.433637782078
428.4399,3846.3521559720302
430.6166,3530.603066980215
432.7928,3220.6333214100196
434.9683,2884.789834558809
437.1432,2623.71948951762
439.3176,2418.9691405295926
441.4914,2260.1856156006797
443.6645,2203.665718547152
445.8371,2099.8562305834275
448.0091,2030.0539108872654
450.1806,1974.0554976378753
452.3514,1916.9577087139332
454.5216,1907.207242253564
456.6913,1857.2007772253219
458.8603,1872.4349735256965
461.0288,1890.356472479174
463.1967,1824.461896685898
465.3639,1853.6978498424542
467.5306,1781.7109174008165
469.6967,1778.1976662759844
471.8622,1726.6546455658536
474.0271,1725.7783865863457
476.1914,1717.1154033868352
478.3551,1765.5621927589182
480.5182,1772.1652343230362
482.6807,1829.870990044019
484.8426,1963.0259041650515
487.0039,2213.976402630613
489.1647,2549.9688917549265
491.3248,2846.899755712466
493.4843,2905.6153531780274
495.6432,2845.7620143574095
497.8015,2715.536040400264
499.9592,2590.233703998636
502.1163,2392.351250689215
504.2728,2117.0349001063605
506.4287,1867.8808479609233
508.5839,1581.3352687934203
510.7386,1355.4443184655593
512.8927,1252.4541370257084
515.0461,1237.710850967791
517.199,1231.5105742611977
519.3512,1340.0994084982103
521.5029,1588.7734429560114
523.6539,1804.0787535107957
525.8043,1888.4114001510316
527.9541,1845.8174248244086
530.1033,1671.9928505945063
532.2519,1505.1836820667395
534.3999,1436.3859071265997
536.5472,1462.8954986077479
538.694,1621.5584149799888
540.8401,1842.5206000841736
542.9856,2024.37798154558
545.1305,2062.176468564292
547.2748,1994.161950096608
549.4185,1826.280294477072
551.5615,1680.4273500986055
553.704,1682.6989470913377
555.8458,1728.5408987811297
557.987,1855.2990016668537
560.1276,2021.5190349619825
562.2675,2357.8967593270027
564.4069,2780.2779152072053
566.5456,3165.45821946893
568.6837,3356.283361175736
570.8212,2994.3489977366044
572.958,2428.4507529976854
575.0942,1878.0842208616468
577.2299,1429.8449709466513
579.3648,1225.2285540900193
581.4992,1145.2305068306305
583.6329,1156.4963534550843
585.766,1342.221606797686
587.8985,1437.351768127779
590.0304,1468.8323252925002
592.1616,1497.3587517654705
594.2922,1351.3265063319905
596.4222,1156.031032803783
598.5515,991.6677614793134
600.6802,828.3821110967347
602.8083,687.2194904775333
604.9358,657.1753001593734
607.0626,654.6449338077382
609.1888,730.3737785163557
611.3144,879.1572148325176
613.4393,974.2406159997809
615.5636,1074.719346470134
617.6873,1136.688760953164
619.8103,1090.4942034112773
621.9327,919.1310064399986
624.0544,711.6944917299188
626.1756,604.0299717803282
628.2961,446.9327519735707
630.4159,359.7981316517016
632.5351,339.02140568745745
634.6537,303.3978653555914
636.7716,348.32279854065564
638.8889,321.4914900932363
641.0056,395.49922138069996
643.1216,370.94127055550416
645.237,331.91291181512133
647.3518,240.75941564760615
649.4659,218.07604922189057
651.5793,156.50807729931148
653.6922,148.10076246044991
655.8043,136.1493657208175
657.9159,116.6991466149193
660.0268,81.79536331577765
662.137,78.73327282942773
664.2466,125.90813134394557
666.3556,98.71519426008854
668.4639,45.69971571953647
670.5716,59.7069488768193
672.6786,9.781690346311734
674.785,-34.381859730046926
676.8907,-45.689598929402564
678.9958,-1.7470813541367534
681.1002,-52.60940466753709
683.204,-18.381649079543422
685.3072,-54.16836923215669
687.4097,-82.27393613471031
689.5115,-79.75217965452794
691.6127,-46.35610774232009
693.7132,-71.33793162452821
695.8131,-63.399399430085396
697.9123,-25.591546621990346
700.0109,8.035224696750447
702.1089,17.330768082676514
704.2061,67.74485682042177
706.3028,110.37709106024886
708.3987,186.37707027497163
710.4941,195.2943928336481
712.5887,252.1286552415586
714.6827,336.6294520510528
716.7761,480.14637529319225
718.8688,644.1290136327607
720.9608,736.6269509330741
723.0522,883.3897646161622
725.1429,955.4170247377915
727.233,1033.9582925198301
729.3224,1097.7131196299906
731.4112,1049.0310473963964
733.4993,927.0116061700519
735.5867,754.7043158116576
737.6735,564.3586869118008
739.7596,394.12422251403586
741.845,262.2504200183266
743.9298,166.73677288340696
746.014,102.58277194551738
748.0974,143.2879063735254
750.1802,154.90166431048965
752.2624,185.97353246657804
754.3439,179.20299600295402
756.4247,279.48953822105614
758.5048,407.63264063029055
760.5843,695.0317819451866
762.6631,1044.9364368039478
764.7413,1530.896072894473
766.8188,2175.4601474553056
768.8956,2704.528102416025
770.9718,3102.349357951618
773.0473,3096.873307191794
775.1221,2921.1993122427775
777.1962,2676.8767042420623
779.2697,2595.3547851151507
781.3426,2652.9328300187863
783.4147,2780.2100881561582
785.4862,2868.935782201137
787.557,2699.209107025503
789.6271,2334.8792288116783
791.6966,1778.3952867499993
793.7654,1240.306396682021
795.8335,845.8116566653498
797.901,560.8601523545221
799.9678,419.35096094596884
802.0339,331.6331540275205
804.0993,292.00579899350487
806.1641,243.5179599219191
808.2282,173.86869797071267
810.2916,135.70707186265645
812.3544,52.7821385818479
814.4164,19.942953755322378
816.4778,81.08857248229833
818.5385,121.51804966256896
820.5986,227.03043938505652
822.658,461.02479452350235
824.7166,744.4001656813452
826.7747,1233.1055988517928
828.832,1712.0901325840478
830.8886,2062.952793096265
832.9446,2271.192589485707
834.9999,2178.2585102201174
837.0545,1954.149521055313
839.1085,1713.964565964534
841.1618,1393.0525693795262
843.2143,1175.7624385923828
845.2662,986.2430669646837
847.3175,868.393336100391
849.368,748.6121177410423
851.4179,685.6982749442504
853.467,593.900663281509
855.5155,557.7681314673373
857.5633,471.6495222772519
859.6105,411.0936729090954
861.6569,364.69941584422486
863.7027,284.6155794530623
865.7478,268.19098845905137
867.7922,218.07446473947493
869.8359,200.61482748972048
871.8789,241.0108937244313
873.9212,318.161478452108
875.9629,426.16539427115094
878.0039,497.27145059834584
880.0441,611.928452588827
882.0837,707.4352004250195
884.1226,720.1404881700673
886.1609,800.6431028127699
888.1984,909.341824140527
890.2352,1051.8854239343145
892.2714,1058.522664881688
894.3069,1069.5522991513608
896.3416,900.0230683268292
898.3757,790.4837032960677
900.4091,745.6329259468275
902.4418,711.3694502620274
904.4739,752.8919827682639
906.5052,795.199222878442
908.5358,792.6898624765618
910.5658,711.7625854946309
912.595,521.066067937767
914.6236,359.3989786934726
916.6515,245.30998143858778
918.6786,160.44773625596645
920.7051,147.76090077536355
922.7309,221.69813102206172
924.756,208.55808154373335
926.7804,299.78940467107714
928.8041,287.9907506492109
930.8272,357.960766725364
932.8495,351.4480972668571
934.8711,361.3013830614109
936.892,336.419261382267
938.9123,322.9003658896563
940.9318,348.6433268796227
942.9506,375.89677141920765
944.9688,344.50932308902884
946.9862,272.9796017107401
949.003,144.10622366090138
951.019,61.1878025862934
953.0344,16.07295069263273
955.0491,-6.589720426234635
957.063,38.44840066281722
959.0763,126.43592545881438
961.0888,165.87146507629768
963.1007,224.95362936545644
965.1119,239.28102651777226
967.1223,273.6522624751924
969.1321,258.9659407868621
971.1412,256.42066226540373
973.1495,249.71502513378982
975.1572,277.04762505078907
977.1641,305.26705517802657
979.1704,282.47190590665014
981.1759,272.96076457514755
983.1808,271.93221569729394
985.1849,293.6348410572591
987.1884,342.86721971989937
989.1911,485.37792781372445
991.1932,547.5155380385786
993.1945,580.9286182405303
995.1951,536.5157307905029
997.1951,542.62543225013
999.1943,526.7062738159002
1001.1928,515.1568012580519
1003.1906,567.3255550797676
1005.1877,699.7110706326639
1007.1841,779.9118775951065
1009.1798,821.4764986483497
1011.1748,746.0534486745346
1013.1691,635.7412343410433
1015.1627,472.0883548547281
1017.1556,298.64330306503325
1019.1477,212.80456710052022
1021.1392,120.17063210331435
1023.1299,58.689981087507476
1025.12,77.01109586548046
1027.1093,132.58245766272194
1029.0979,248.20254693460993
1031.0859,344.16984281070836
1033.0731,383.6328219385541
1035.0596,335.03995752399896
1037.0454,248.68971893656635
1039.0304,166.58057219539114
1041.0148,65.71098083270408
1042.9985,0.029406714947981527
1044.9814,-17.565688948547177
1046.9636,-102.07584494873845
1048.9452,-89.40242459535693
1050.926,-56.44577146044503
1052.9061,-15.655335985826241
1054.8855,2.769995279924842
1056.8642,65.53149218503859
1058.8421,131.4304245500498
1060.8194,160.21806154018486
1062.7959,197.44567100636414
1064.7717,267.11451919733554
1066.7469,327.37587038739
1068.7213,393.93098617967553
1070.695,488.13112490357344
1072.6679,526.1275409491682
1074.6402,575.7214838252385
1076.6117,558.1141977792922
1078.5826,474.70692130162934
1080.5527,359.15088730140997
1082.5221,273.847323940734
1084.4908,276.34745579019364
1086.4587,261.5025046819155
1088.426,295.86368968454735
1090.3925,317.43222725171836
1092.3584,359.5093308784217
1094.3235,380.39621088533204
1096.2879,451.6940739980382
1098.2515,559.2041231381718
1100.2145,727.1275567104349
1102.1767,873.365567527484
1104.1382,1092.9193411307097
1106.099,1333.3400543278512
1108.0591,1518.8788729974567
1110.0185,1675.0369496846697
1111.9771,1787.6654217458536
1113.9351,1749.0154097870045
1115.8923,1620.8380165374601
1117.8488,1536.1343272364156
1119.8045,1376.6054109146808
1121.7596,1241.552321241733
1123.7139,1124.5760981209996
1125.6675,1081.8777690403813
1127.6204,1143.308350242024
1129.5726,1081.1688471493044
1131.524,1016.8602537525194
1133.4748,895.1335532302792
1135.4248,733.2897185926022
1137.3741,601.8797138981745
1139.3226,507.704495872782
1141.2705,450.0650152234293
1143.2176,390.66221758007396
1145.164,366.19704407203153
1147.1097,308.57043192199853
1149.0546,230.93331469071018
1150.9989,135.4366228532017
1152.9424,31.23128457517396
1154.8852,-31.131773332033845
1156.8272,-38.70162436939063
1158.7686,-53.12703103145577
1160.7092,-22.75636918356031
1162.6491,13.812516047999452
1164.5883,97.78200687305343
1166.5267,203.80448536331187
1168.4644,357.03233261267087
1170.4014,555.4179276769801
1172.3377,768.3636460417747
1174.2732,1069.721857638412
1176.2081,1412.9449247146167
1178.1421,1824.5851988208997
1180.0755,2362.495017378331
1182.0082,2730.726699562125
1183.9401,2909.1825409225576
1185.8713,2826.764809702635
1187.8017,2546.825745053542
1189.7315,2236.6675578588183
1191.6605,1823.842433533755
1193.5888,1532.4025351269684
1195.5163,1397.550007448659
1197.4432,1295.9369799850047
1199.3693,1255.5155682466848
1201.2947,1220.1378747850058
1203.2193,1182.1559895961254
1205.1432,1168.9719904748245
1207.0664,1162.6379433943312
1208.9889,1142.1559026381528
1210.9106,1122.2779108634295
1212.8316,1138.0059993057448
1214.7519,1182.5421879779078
1216.6715,1228.1884855126727
1218.5903,1292.9468887173707
1220.5084,1369.269382117449
1222.4257,1465.0079373088938
1224.3424,1535.9145121950069
1226.2583,1656.9410500290069
1228.1735,1807.089478704981
1230.0879,1942.4617095475978
1232.0016,2128.5596358106413
1233.9146,2264.835131323275
1235.8269,2309.6400486290786
1237.7384,2293.126217623275
1239.6492,2183.4454451046904
1241.5592,2163.1495149408947
1243.4686,2217.1401891650003
1245.3772,2373.369208178631
1247.285,2593.538290212012
1249.1922,2772.4991297616825
1251.0986,2960.653395388801
1253.0042,3068.0527279295356
1254.9092,3196.798738613522
1256.8134,3279.343007989871
1258.7169,3435.787084639711
1260.6196,3542.932484350741
1262.5216,3765.930688552795
1264.4229,3950.133143246384
1266.3234,4148.291256772709
1268.2232,4293.056397971652
1270.1223,4358.579894200177
1272.0207,4388.213029884696
1273.9183,4417.8570458658105
1275.8151,4347.413139102011
1277.7113,4361.632462373212
1279.6067,4430.916124985206
1281.5014,4635.115192627455
1283.3953,5030.630686680268
1285.2885,5543.513582172804
1287.181,6057.064803827915
1289.0727,6588.085220933327
1290.9637,6942.875642206112
1292.854,7150.386810482496
1294.7435,7191.569399169954
1296.6323,7091.574010172089
1298.5204,6934.251173476826
1300.4077,6722.201348156347
1302.2943,6451.974923940334
1304.1802,6174.522223336445
1306.0653,5760.793504332597
1307.9497,5353.3389631714845
1309.8333,4900.358738487873
1311.7162,4589.602915383142
1313.5984,4414.3215299550875
1315.4798,4273.764572405475
1317.3605,4205.631988792859
1319.2405,4138.773682438156
1321.1197,3911.2395146059616
1322.9982,3648.529305173136
1324.876,3393.99283490415
1326.753,3098.829848078187
1328.6293,2894.390055034507
1330.5048,2732.2231351240716
1332.3796,2594.5787387539494
1334.2537,2486.756489008979
1336.127,2407.205983028216
1337.9996,2392.1767930831584
1339.8714,2374.868467373245
1341.7426,2372.2305301761508
1343.6129,2404.262482020873
1345.4826,2413.213799714101
1347.3515,2443.033936019905
1349.2196,2431.4223195702198
1351.087,2431.5783545666436
1352.9537,2513.4514208965547
1354.8197,2639.3908741315445
1356.6849,2769.0960447086927
1358.5493,2944.2162366711773
1360.4131,3156.7007263712185
1362.276,3296.8987607188756
1364.1383,3352.559555057206
1365.9998,3227.88229176028
1367.8606,2977.016119676572
1369.7206,2662.9101553757446
1371.5799,2404.3134856572988
1373.4384,2144.4751706916377
1375.2962,1945.7442466060365
1377.1533,1664.769728083018
1379.0096,1357.9006103476659
1380.8652,1084.3858719773734
1382.7201,833.8244779705301
1384.5742,624.1653824816694
1386.4275,470.20753132707887
1388.2802,334.29986408139484
1390.132,244.19131561718496
1391.9832,195.43081746402004
1393.8336,124.81729870956224
1395.6832,87.2496864871664
1397.5322,69.6769066820134
1399.3803,50.94788430679455
1401.2278,24.011543677428563
1403.0745,61.316808600358854
1404.9204,20.662602641918056
1406.7656,54.64784875527221
1408.6101,74.27146968696252
1410.4538,131.08238763705685
1412.2968,175.02952406291206
1414.139,229.46179911106265
1415.9805,317.87813117775386
1417.8213,370.12743636461255
1419.6613,488.958627594493
1421.5006,631.7206140889721
1423.3391,850.9623001800474
1425.1769,1107.3825838825096
1427.0139,1461.3303547015312
1428.8502,1937.6044910684604
1430.6858,2423.3538568013455
1432.5206,2809.277296342193
1434.3547,3037.823629899477
1436.188,3101.0916495889005
1438.0206,3029.230117147934
1439.8524,2894.137763303137
1441.6835,2820.913288488776
1443.5139,2751.805364197732
1445.3435,2679.062633713763
1447.1724,2695.7837128025767
1449.0005,2668.6671904392497
1450.8279,2627.061628641034
1452.6545,2628.5655627385067
1454.4804,2682.127501791633
1456.3056,2693.6459285747214
1458.13,2645.8192990407997
1459.9536,2560.3960422064483
1461.7766,2344.7245606300557
1463.5987,2071.303231266049
1465.4202,1823.1304076216184
1467.2409,1542.1544224909203
1469.0608,1296.6235904368095
1470.88,1085.1362106005981
1472.6984,915.9905691573649
1474.5161,735.8349414308277
1476.3331,616.117593584805
1478.1493,521.7867844247648
1479.9648,469.8907665950064
1481.7795,410.1277875219648
1483.5935,366.69608993316433
1485.4067,347.84391245485676
1487.2192,323.06949004633134
1489.031,323.9710541884415
1490.842,299.3968331313481
1492.6522,265.94505188550374
1494.4618,272.41393246739426
1496.2705,254.85169423406114
1498.0785,209.90655381840588
1499.8858,209.42672530481832
1501.6924,175.16042067862145
1503.4981,184.35584983087665
1505.3032,157.81122090104418
1507.1075,136.27474018502562
1508.911,126.79461240061573
1510.7138,83.16904090286334
1512.5159,69.9962277788718
1514.3172,55.474374284058285
1516.1178,32.50168097387632
1517.9176,12.476347849040394
1519.7166,-0.30342541474601603
1521.515,-11.389439266541558
1523.3126,-10.983491124188731
1525.1094,-27.087264625037278
1526.9055,-30.852333681360506
1528.7008,-34.080001603659184
1530.4954,-51.921263487626675
1532.2893,-30.076773969740316
1534.0824,-48.196668993058665
1535.8747,-26.980784033673444
1537.6663,-14.578473082958226
1539.4572,-0.4888205942488639
1541.2473,3.9892346180549794
1543.0367,27.906758622874804
1544.8253,51.26481744923967
1546.6132,72.76447684711366
1548.4003,96.25680205381559
1550.1867,164.24285757902362
1551.9723,245.5737069698489
1553.7572,347.90041213097356
1555.5414,438.874032511344
1557.3247,607.1456240809093
1559.1074,758.3662384208765
1560.8893,960.9369210410023
1562.6705,1105.4087098673835
1564.4509,1241.3826332167491
1566.2305,1325.1597083517418
1568.0094,1403.4409401211842
1569.7876,1429.0273201223035
1571.565,1414.319825917918
1573.3417,1424.8194207805727
1575.1176,1435.1770538396158
1576.8928,1474.1436599762037
1578.6672,1478.620159719725
1580.4409,1535.9074588581334
1582.2138,1560.4064483931825
1583.986,1635.418003967553
1585.7575,1743.892985619861
1587.5282,1828.132237034547
1589.2981,1942.1865844571212
1591.0673,2073.5568358517758
1592.8358,2163.193779760839
1594.6035,2294.1981839910695
1596.3704,2364.5707947172905
1598.1366,2456.712335172346
1599.9021,2545.273504943376
1601.6668,2640.5049790503945
1603.4308,2754.4574070606886
1605.194,2917.831412136492
1606.9564,3098.2275898954695
1608.7182,3329.896506776975
1610.4791,3621.738698238085
1612.2394,3936.8046664369185
1613.9988,4234.994877314208
1615.7576,4537.309757442639
1617.5156,4757.249691044952
1619.2728,4879.315016970788
1621.0293,4825.156026497296
1622.785,4648.872962108477
1624.54,4361.116018036771
1626.2942,4046.6353420258924
1628.0477,3661.4310382083986
1629.8005,3341.8031702504936
1631.5525,3036.3017652040758
1633.3037,2776.27681670301
1635.0542,2558.128288018146
1636.804,2393.85611465757
1638.553,2254.510206548081
1640.3013,2196.890449677924
1642.0488,2157.2467074902384
1643.7955,2170.8788214592614
1645.5416,2191.6366114867633
1647.2868,2292.3198757657296
1649.0313,2384.9283905727834
1650.7751,2511.1119092613512
1652.5181,2658.370161335575
1654.2604,2790.652851188479
1656.0019,3007.259656629387
1657.7427,3228.490227561094
1659.4828,3463.1941838138
1661.222,3647.821112932807
1662.9606,3678.420567831473
1664.6984,3491.592064944949
1666.4354,3200.5850839241843
1668.1717,2727.4990695042075
1669.9072,2243.6334344141987
1671.642,1851.23756410835
1673.3761,1525.5108216045219
1675.1094,1245.6025514082016
1676.8419,1043.2120827697704
1678.5737,877.1887324835857
1680.3048,729.6318069118865
1682.0351,619.4906036450279
1683.7646,529.564412977048
1685.4934,482.80251900707935
1687.2215,409.5042005386131
1688.9488,358.91873154711584
1690.6754,318.345381913015
1692.4012,289.8834179275523
1694.1263,273.0821026985159
1695.8506,257.9906964348602
1697.5742,226.1584566147203
1699.297,189.28463813632743
1701.0191,174.36849363632973
1702.7404,154.70927385853065
1704.461,130.95622780304893
1706.1808,118.158602922912
1707.8999,111.31564536158521
1709.6182,107.97660008094908
1711.3358,83.54071092973027
1713.0527,80.05722067689112
1714.7688,59.375371255988284
1716.4841,44.044403800009604
1718.1987,56.06355884818959
1719.9126,56.132076499321556
1721.6257,39.69919629156357
1723.338,56.0641572017571
1725.0496,38.92619780975474
1726.7605,45.384556134766626
1728.4706,35.33846980674434
1730.18,21.68717600179434
1731.8886,33.12991154263909
1733.5964,44.81591303513096
1735.3036,35.294416753826226
1737.0099,43.56465852512292
1738.7156,23.07587382247675
1740.4204,4.727297683697998
1742.1246,4.9181649158413165
1743.8279,2.6477102786898286
1745.5306,-13.184831517156454
1747.2325,-9.430225787572908
1748.9336,-15.339106131968947
1750.634,-17.462011941799574
1752.3336,-15.199329370852865
1754.0325,-19.80127012741832
1755.7307,6.032105921513448
1757.4281,-9.899063276360266
1759.1247,-8.944639833663132
1760.8206,4.895613028624211
1762.5158,24.222021446472354
1764.2102,21.034911506896606
1765.9039,4.584609054696102
1767.5968,16.87143972432068
1769.289,11.595729104376005
1770.9804,-3.0421973852457995
1772.6711,13.507985559391727
1774.361,20.69663363377549
1776.0502,29.42410239831497
1777.7386,34.09074720645276
1779.4263,22.24692311739227
1781.1132,34.94298484943056
1782.7994,39.47928689839728
1784.4849,44.55618341069567
1786.1696,39.67402813793569
1787.8535,44.383174386167866
1789.5367,25.483975064703827
1791.2192,52.376782639023986
1792.9009,38.6119493197707
1794.5818,43.13982679381934
1796.2621,45.0107663619292
1797.9415,50.77511889346124
1799.6202,53.833234807669214
1801.2982,45.635464016057085
1802.9755,60.23215589179836
1804.6519,64.1236593517151
1806.3277,45.560322710309265
1808.0027,49.24249364084562
1809.6769,53.92051936098824
1811.3504,58.99474659597536
1813.0231,74.61552153183675
1814.6951,65.83318976465716
1816.3664,84.39809614436899
1818.0369,95.5105848625717
1819.7067,84.87099926688734
1821.3757,88.27968174983243
1823.044,85.73697385521518
1824.7115,93.39321624404693
1826.3783,88.54874871997163
1828.0443,80.55391015270243
1829.7096,99.85903852646652
1831.3741,112.41447101995436
1833.0379,102.4705438132678
1834.701,99.22759196236393
1836.3633,102.88594949849676
1838.0248,117.7959494606448
1839.6856,121.4579238589281
1841.3457,132.82220352550758
1843.005,116.68911807796712
1844.6636,123.85899580566957
1846.3214,113.98216383108729
1847.9785,147.00894803810297
1849.6349,135.9896731707786
1851.2904,132.57466250308744
1852.9453,147.46423794910788
1854.5994,151.50872009717204
1856.2528,148.90842806097044
1857.9054,136.56367943910845
1859.5572,142.17479034110556
1861.2083,156.09207551084774
1862.8587,148.21584827047218
1864.5084,161.596420381195
1866.1572,156.93410212207618
1867.8054,163.67920215621143
1869.4528,160.13202757735735
1871.0994,164.59288384247702
1872.7453,167.81207480721787
1874.3905,164.88990268129692
1876.0349,160.17666799631343
1877.6786,177.4726696349694
1879.3215,178.52820487820054
1880.9637,181.1935692322163
1882.6051,179.76905641794474
1884.2458,175.1549583443807
1885.8858,167.10156512282947
1887.525,184.70916511304767
1889.1634,173.52804500377715
1890.8011,158.8584896366683
1892.4381,178.0007821180925
1894.0743,188.15520396583588
1895.7098,190.07203491767905
1897.3446,188.95155282985297
1898.9786,180.64403365786757
1900.6118,184.4997514677193
1902.2443,162.86897851896583
1903.8761,176.85198522616565
1905.5071,160.799040375191
1907.1374,184.86041098339456
1908.7669,178.4863624601394
1910.3957,176.67715836618618
1912.0237,172.1830604774318
1913.651,170.25432880300195
1915.2776,177.34122163019447
1916.9034,175.74399554376305
1918.5285,171.26290535505086
1920.1528,175.09820411796227
1921.7764,176.0001431737751
1923.3992,173.36897211278483
1925.0213,150.354938765287
1926.6427,149.7082892278895
1928.2633,157.27926809365135
1929.8832,179.46811845855063
1931.5023,180.27508184577346
1933.1207,156.65039798382713
1934.7383,172.44430479846915
1936.3552,173.85703864895368
1937.9714,167.7388341700912
1939.5868,168.13992425812512
1941.2015,152.31054013190942
1942.8154,142.0009113289036
1944.4286,143.96126586345986
1946.041,134.5918303299236
1947.6528,148.29282988302998
1949.2637,131.1644883315953
1950.8739,153.60702800150943
1952.4834,145.1206699070167
1954.0921,147.9556335262937
1955.7001,145.01213688630992
1957.3074,144.44039653447908
1958.9139,140.84062756809385
1960.5197,150.16304364004372
1962.1247,138.5078569948114
1963.729,133.27527837525054
1965.3325,131.06551713913882
1966.9353,137.07878131149937
1968.5374,136.41527760670328
1970.1387,122.42521136833238
1971.7393,131.90878657581743
1973.3392,130.01620598433692
1974.9383,130.89767102998098
1976.5366,120.80338184868037
1978.1342,138.13353726738933
1979.7311,129.53833490503098
1981.3273,123.91797099919268
1982.9227,129.32264049207993
1984.5173,125.10253708671985
1986.1112,105.45785319291394
1987.7044,122.63877996944007
1989.2968,114.09550752049722
1990.8885,120.27822472389926
1992.4795,120.98711931650541
1994.0697,104.52237783239366
1995.6592,110.63418559577121
1997.2479,114.02272688562289
1998.8359,123.53818487459239
2000.4232,103.18074159509752
2002.0097,105.10057784417563
2003.5955,117.79787338705682
2005.1805,115.67280693796806
2006.7648,114.72555603315618
2008.3484,121.70629705214196
2009.9312,116.11520522719024
2011.5133,126.25245457350411
2013.0946,118.46821794513585
2014.6752,117.96266693361372
2016.2551,113.18597194578479
2017.8342,112.18830220887025
2019.4126,121.21982581823295
2020.9902,114.23070974735356
2022.5672,108.77111975751609
2024.1433,126.74122046769776
2025.7188,116.04117540916491
2027.2935,117.82114684577209
2028.8674,118.08129588096267
2030.4406,116.97178243996882
2032.0131,118.59276526721078
2033.5849,112.54440193739151
2035.1559,112.82684883928573
2036.7261,113.74026123622662
2038.2957,106.43479326327974
2039.8645,103.06059791810821
2041.4325,114.16782713402813
2042.9998,110.10663181375071
2044.5664,111.97716171830939
2046.1323,106.57956550767244
2047.6974,126.81399072203817
2049.2617,116.6805838358091
2050.8254,113.8294900552487
2052.3883,120.31085341981452
2053.9504,112.12481683066972
2055.5118,114.62152198587023
2057.0725,106.5511094622259
2058.6325,108.26371869033073
2060.1917,98.55948803526871
2061.7502,104.03855477948719
2063.3079,94.50105521983983
2064.8649,112.19712461279528
2066.4212,97.67689726981234
2067.9767,101.09050638037957
2069.5315,108.18808415721878
2071.0856,106.26976180214751
2072.6389,105.88566943510341
2074.1915,93.78593611332667
2075.7433,79.77068983520189
2077.2945,105.14005766125342
2078.8448,92.79416585429976
2080.3945,85.58313962576017
2081.9434,81.80710325911218
2083.4916,84.71618018200343
2085.039,88.36049300401032
2086.5857,79.99016348755026
2088.1317,88.80531251143543
2089.677,93.70606015457793
2091.2215,95.94252560783843
2092.7652,91.91482712501784
2094.3083,89.82308200049192
2095.8506,98.41740660948972
2097.3921,97.99791642901096
2098.933,86.46472595188243
2100.4731,95.11794869095161
2102.0124,102.85769729442018
2103.5511,108.93408345931061
2105.089,116.94721785406864
2106.6261,94.29721005780084
2108.1626,100.88416848014162
2109.6983,95.85820058775334
2111.2332,94.71941283845672
2112.7675,99.71791073149097
2114.301,92.8037988189019
2115.8337,113.4271806555571
2117.3657,100.18815886828611
2118.897,95.53683494964753
2120.4276,81.22330939031895
2121.9575,84.6476817256098
2123.4866,96.61005067859696
2125.0149,100.0105141258814
2126.5426,94.94916897796543
2128.0695,84.77611114524575
2129.5956,88.3414355886282
2131.1211,91.89523642125823
2132.6458,84.38760687286913
2134.1698,93.16863925424127
2135.693,87.48842503228025
2137.2155,88.94705474220564
2138.7373,88.99461804435373
2140.2584,91.88120370959086
2141.7787,82.35689961883804
2143.2983,86.07179273420434
2144.8171,85.42596919423022
2146.3353,92.9695142767398
2147.8527,63.20251240529774
2149.3693,91.87504707377366
2150.8853,82.0872011440124
2152.4005,80.78905655910808
2153.9149,76.43069444128332
2155.4287,89.41219510487122
2156.9417,94.98363809989723
2158.454,76.44510208226552
2159.9655,79.69666475804547
2161.4764,82.88840306885618
2162.9865,74.92039315935085
2164.4958,76.1927103452997
2166.0045,75.30542919326854
2167.5124,84.80862350789721
2169.0195,80.85236634077319
2170.526,76.98672989539773
2172.0317,87.56178556674922
2173.5367,80.1276039799402
2175.0409,75.93425488446542
2176.5445,88.68180722854413
2178.0473,90.12032920105366
2179.5494,84.74988810405421
2181.0507,78.67055033840325
2182.5513,81.13238145745913
2184.0512,75.18544622787658
2185.5504,76.17980860498642
2187.0488,75.11553179226644
2188.5465,73.89267823139721
2190.0435,83.06130961290455
2191.5397,72.27148688838838
2193.0353,77.22327017883595
2194.5301,82.11671888251954
2196.0241,71.85189162547977
2197.5175,74.8288462125904
2199.0101,69.24763973020731
2200.502,74.60832851639816
2201.9931,77.76096821675469
2203.4835,70.80561373078535
2204.9733,62.69231918038986
2206.4622,71.8211379794111
2207.9505,70.59212291476979
2209.438,60.10532605517642
2210.9248,68.76079876341987
2212.4109,63.70859180123648
2213.8962,70.59875524275503
2215.3809,50.681338525019555
2216.8648,59.65639037908795
2218.3479,58.323959029203934
2219.8304,51.18409210304935
2221.3121,49.58683664506566
2222.7931,60.58223918785552
2224.2733,49.72034576815304
2225.7529,51.801201816870844
2227.2317,53.47485226771846
2228.7098,52.2913415363937
2230.1872,63.65071350384642
2231.6638,53.653011528112074
2233.1397,46.64827833072172
2234.6149,46.08655609667585
2236.0894,44.667886544492376
2237.5632,50.79231093182466
2239.0362,47.709870069648105
2240.5085,47.120604261015615
2241.9801,56.724553331882134
2243.4509,57.921756636997316
2244.921,39.31225296386583
2246.3904,43.146080520776195
2247.8591,42.92327712289398
2249.3271,51.24388015392515
2250.7943,35.257926568343464
2252.2608,40.16545280818377
2253.7266,36.36649496290306
2255.1917,38.26108872030363
2256.656,30.749269404522693
2258.1197,37.581071957087715
2259.5826,34.90653101203384
2261.0447,35.175680827586575
2262.5062,27.238555312906783
2263.9669,40.69518802539824
2265.4269,41.645612250080376
2266.8862,29.489860865020773
2268.3448,38.42796633183161
2269.8026,45.30996081722742
2271.2598,40.43587610364398
2272.7162,32.45574352041763
2274.1719,42.66959399252619
2275.6268,52.427458120391066
2277.0811,40.17936607773777
2278.5346,40.42534751401968
2279.9874,45.66543167689633
2281.4395,42.249647409774525
2282.8908,34.82802309940644
2284.3414,34.200586710049265
2285.7914,36.06736585767999
2287.2406,36.028387816271334
2288.689,39.3336794991219
2290.1368,46.88326745924678
2291.5838,33.07717785632485
2293.0302,38.36543638120247
2294.4758,44.04806839395587
2295.9206,37.02509887100723
2297.3648,30.546552348299656
2298.8082,47.81245299152533
2300.251,50.37282466091165
2301.693,40.37769073856202
2303.1343,46.57707410285161
2304.5748,40.12099722838093
2306.0147,36.95948212397889
2307.4538,46.942550397265904
2308.8922,41.17022328626717
2310.3299,43.492521559582656
2311.7669,33.809465574110845
2313.2031,41.02107525182532
2314.6387,40.7773701766057
2316.0735,37.4283695221211
2317.5076,38.274092054266475
2318.941,40.86455616465446
2320.3737,46.899779862157175
2321.8056,43.22978074700177
2323.2369,37.90457595041801
2324.6674,34.82418217133852
2326.0972,45.93861572965113
2327.5263,42.74789259700242
2328.9547,47.65202828565373
2330.3823,42.001037880387685
2331.8092,42.59493598946699
2333.2355,33.383736801144664
2334.661,42.51745407772478
2336.0858,29.29610124767487
2337.5098,40.11969131428884
2338.9332,34.83823698789911
2340.3558,35.251750577642724
2341.7778,35.46024404427442
2343.199,40.563728996033205
2344.6195,28.812216686555303
2346.0393,41.605717963841016
2347.4583,46.64424338776894
2348.8767,42.0778031021614
2350.2943,39.45640678439895
2351.7113,40.5300636910838
2353.1275,44.09878268425507
2354.543,47.262572220650554
2355.9578,38.4714403160217
2357.3718,52.32539451349419
2358.7852,41.52444197147986
2360.1978,40.11858932513667
2361.6098,44.1578427943781
2363.021,45.99220819793209
2364.4315,51.4716909129487
2365.8413,45.64629585665614
2367.2504,42.216027431565976
2368.6587,41.08088958372707
2370.0664,42.44088583702887
2371.4733,39.196019304551896
2372.8795,40.29629267496853
2374.285,47.99170824499129
2375.6899,47.882267908369954
2377.0939,40.5179730789373
2378.4973,48.098824691703385
2379.9,43.774823276499774
2381.3019,42.19596888216972
2382.7032,44.61226111980875
2384.1037,44.423699178553534
2385.5035,45.630281801418505
2386.9027,37.182007287181364
2388.3011,44.02887347831745
2389.6987,50.12087784548282
2391.0957,42.30801741904531
2392.492,27.390288728165274
2393.8876,32.267687878923425
2395.2824,32.44021070349811
2396.6765,37.75785271139148
2398.07,31.8206090877037
2399.4627,20.32847463995745
2400.8547,30.08144385746948
2402.246,38.929511026272735
2403.6366,33.67267013158562
2405.0265,32.86091476933268
2406.4156,28.744238198712424
2407.8041,39.57263335031462
2409.1918,37.24609286728787
2410.5789,24.614608997054347
2411.9652,23.97817361457578
2413.3508,30.986778348668054
2414.7358,30.84041458836532
2416.12,37.48907341283382
2417.5035,31.082745592836886
2418.8863,37.92142152424742
2420.2684,25.955091292111547
2421.6497,35.13374460226157
2423.0304,27.80737090097898
2424.4104,40.17595928320759
2425.7896,25.689498565818553
2427.1682,36.497977163922315
2428.546,37.501383235733215
2429.9232,26.599704574485827
2431.2996,30.842928598401045
2432.6753,42.08104245970344
2434.0503,35.76403300218851
2435.4246,29.391886648842046
2436.7982,16.814589465009362
2438.1711,34.28212722211765
2439.5433,31.794485523448316
2440.9148,26.701649629461713
2442.2856,25.853604482673973
2443.6557,28.55033475858488
2445.025,33.54182487415915
2446.3937,25.978058960858903
2447.7617,27.70902081472866
2449.1289,31.134693972032323
2450.4955,44.55506169194348
2451.8613,28.720106922289574
2453.2265,25.679812165347812
2454.5909,26.18415963619475
2455.9546,31.833131293109318
2457.3177,31.326708832528766
2458.68,30.314873632560307
2460.0416,30.197606758043776
2461.4025,35.824888970671054
2462.7627,32.39670073015793
2464.1222,38.313022137971984
2465.4811,46.42383297161405
2466.8392,42.72911262545449
2468.1966,33.3788400296263
2469.5533,46.672993686971495
2470.9093,50.76155176654402
2472.2645,35.194491970667855
2473.6191,44.42179149405217
2474.973,40.34342717946106
2476.3262,43.00937542544125
2477.6787,37.819612227104585
2479.0305,42.97411314947033
2480.3816,50.272853379361436
2481.7319,45.51580767386042
2483.0816,46.802950287321096
2484.4306,51.93425501894001
2485.7789,40.30969519988355
2487.1264,34.17924364197643
2488.4733,37.54287275394688
2489.8195,44.55055460273093
2491.165,48.402260879836376
2492.5097,45.49796283126511
2493.8538,41.137631218997285
2495.1972,37.07123635003359
2496.5398,31.648748119998686
2497.8818,35.42013605380498
2499.2231,36.83536935987797
2500.5637,44.74441689244213
2501.9035,31.597247137368754
2503.2427,44.69382813308573
2504.5812,43.73412760204849
2505.919,33.568112819774456
2507.256,38.645750624439984
2508.5924,41.917007518540686
2509.9281,37.931849618115166
2511.2631,43.24024262003206
2512.5974,36.592151841841655
2513.9309,45.43754216869252
2515.2638,40.47637811981144
2516.596,49.85862376005082
2517.9275,31.234242749499117
2519.2583,41.25319824965948
2520.5884,46.41545310969309
2521.9178,46.07096976622938
2523.2465,44.21971019174373
2524.5745,44.86163589800219
2525.9018,42.04670795457412
2527.2284,37.62488698241259
2528.5543,42.54613318200427
2529.8796,41.71040637758642
2531.2041,55.867665967935864
2532.5279,51.66787093472499
2533.851,50.410979700950634
2535.1735,49.49695017293129
2536.4952,50.075739752875734
2537.8163,49.3473053480235
2539.1366,47.21160336485707
2540.4562,59.46858971638642
2541.7752,60.568219843505744
2543.0935,53.91044859242436
2544.411,54.04523020366912
2545.7279,57.522518378662994
2547.0441,57.242266278377315
2548.3596,50.20442648855794
2549.6744,63.30895102252907
2550.9885,62.10579139157096
2552.3019,56.0448984738739
2553.6146,60.57622252657086
2554.9266,58.999713246345436
2556.2379,57.46531972411981
2557.5485,59.67299046081905
2558.8585,61.32267338271561
2560.1677,61.06431581935203
2561.4762,62.59786448704483
2562.7841,65.52326549146721
2564.0913,64.59046431231445
2565.3977,65.04940577404955
2566.7035,64.50003405523057
2568.0086,63.2422926839223
2569.313,67.32612454318905
2570.6167,63.151471883673025
2571.9197,66.96827628275548
2573.222,67.97647868630293
2574.5236,73.47601937049956
2575.8246,75.06683793176524
2577.1248,74.29887323175956
2578.4244,72.32206338147398
2579.7232,78.93634574891166
2581.0214,80.49165697885576
2582.3189,84.88793292672563
2583.6157,79.47510864302399
2584.9118,75.65311832937482
2586.2072,88.47189539265071
2587.5019,81.73137248319392
2588.7959,84.93148136662796
2590.0893,92.82215299126244
2591.3819,88.35331745609312
2592.6739,92.92490393189405
2593.9652,89.88684070590625
2595.2557,92.4890551361226
2596.5456,96.83147368166749
2597.8348,94.414021876775
2599.1234,92.13662428736438
2600.4112,95.59920453521556
2601.6983,106.10168532074226
2602.9848,104.8939883883661
2604.2705,103.07603442149218
2605.5556,101.14774305458559
2606.84,100.85903289135172
2608.1237,99.45982152401814
2609.4067,100.50002553622267
2610.689,99.67956051700492
2611.9707,100.44834105040457
2613.2516,94.85628072366615
2614.5319,91.60329211955082
2615.8115,98.78928687225755
2617.0903,95.06417569995256
2618.3685,83.07786833290947
2619.6461,91.63027355076042
2620.9229,83.1712993023591
2622.199,97.65085262025661
2623.4745,96.06883970529134
2624.7493,92.77516578179348
2626.0234,93.31973511340505
2627.2968,97.35245103601636
2628.5695,84.32321595232071
2629.8415,93.73193129148746
2631.1128,89.57849763945376
2632.3835,98.36281464483744
2633.6535,99.08478106047187
2634.9228,92.44429465556232
2636.1914,96.14125220846631
2637.4593,96.07554957309861
2638.7265,98.29708164196194
2639.9931,98.95574234680299
2641.259,94.95142463639866
2642.5242,98.28402046996808
2643.7887,91.80342085721668
2645.0525,92.50951582500966
2646.3156,93.85219448217805
2647.5781,82.28134501245842
2648.8398,96.29685466106571
2650.1009,82.49860985040135
2651.3613,93.83649603989898
2652.6211,88.66039786400648
2653.8801,84.97019901880714
2655.1385,91.8657823137803
2656.3961,84.99702970870356
2657.6531,88.66382224469692
2658.9094,96.7160401129101
2660.1651,84.95356261785531
2661.42,96.47626809688416
2662.6743,92.53403403781351
2663.9279,100.52673696369772
2665.1808,99.9542524722508
2666.433,101.2164551559199
2667.6846,106.01321860760964
2668.9354,100.5444154080605
2670.1856,111.40991707788044
2671.4351,107.25959413223399
2672.6839,112.94331597218667
2673.9321,121.41095092620844
2675.1795,117.41236619333608
2676.4263,119.99742775849751
2677.6724,122.51600043249664
2678.9179,121.3679478261638
2680.1626,113.95313232516935
2681.4067,123.37141510150434
2682.6501,121.37265618762876
2683.8928,117.30671438228865
2685.1348,107.92344727050397
2686.3761,117.62271126422758
2687.6168,108.15436169617846
2688.8568,108.2682527228481
2690.0961,102.11423741918514
2691.3348,100.29216777745592
2692.5727,103.85189476878435
2693.81,95.19326836137327
2695.0466,105.26613748490644
2696.2826,96.97035011713541
2697.5178,100.80575318315039
2698.7524,102.22219263833836
2699.9863,99.26951343002878
2701.2195,102.14755948332976
2702.452,116.50617373065467
2703.6839,112.0451980829414
2704.9151,116.31447328606652
2706.1456,118.21383896545501
2707.3755,123.74313358338702
2708.6046,133.4521944200044
2709.8331,128.74085751801812
2711.0609,134.35895758561725
2712.2881,145.0563280435826
2713.5145,146.48280096910565
2714.7403,157.7882069888147
2715.9654,159.42237526451026
2717.1899,172.23513338011077
2718.4136,191.77630732531128
2719.6367,182.89572136745528
2720.8591,200.3931978561236
2722.0809,210.1685573119401
2723.3019,211.37161825159677
2724.5223,234.95219709010058
2725.7421,233.91010812874225
2726.9611,232.69516331929083
2728.1795,236.50717227441464
2729.3972,227.5959422798304
2730.6142,219.86127825618308
2731.8306,201.85298284815843
2733.0462,201.72085650182953
2734.2612,176.86469764473964
2735.4756,159.68430268722358
2736.6892,158.37946627096932
2737.9022,135.59998144082215
2739.1145,134.94563965783266
2740.3262,118.66623102705205
2741.5372,119.06154430407582
2742.7475,102.13136705783688
2743.9571,89.07548566665344
2745.1661,85.14368548752981
2746.3744,76.03575098671564
2747.582,70.00146577902404
2748.7889,55.540612718910324
2749.9952,53.95297396081577
2751.2008,54.73833110377569
2752.4057,46.44646520729572
2753.61,41.37715678349855
2754.8136,40.4301858800423
2756.0165,37.255332130813656
2757.2188,33.75237476539775
2758.4204,28.471092640826328
2759.6213,24.06126427660763
2760.8215,32.92266790753939
2762.0211,26.755081527806965
2763.22,28.208282802369183
2764.4182,21.132049128634435
2765.6158,23.77615762192829
2766.8127,18.540385186256344
2768.009,8.12450848786267
2769.2045,11.528304007587906
2770.3994,7.851548145027664
2771.5936,5.344017184494533
2772.7872,4.555487331785912
2773.9801,-2.7642652607407854
2775.1723,-6.31546448628302
2776.3639,-4.048306623028282
2777.5548,-12.66292485767417
2778.745,-13.309411934335287
2779.9346,-15.037734094506959
2781.1235,-8.997724618659845
2782.3117,-6.0890665603011485
2783.4992,-8.161353085669191
2784.6861,-12.514116531227842
2785.8723,-11.146807701523699
2787.0579,-6.108752385079811
2788.2428,-10.949165013810386
2789.427,-8.417198993193495
2790.6106,1.0881016534507921
2791.7935,1.8677769906204276
2792.9757,2.872867071932319
2794.1573,9.004411932326207
2795.3382,17.913451578012825
2796.5184,23.201025925158888
2797.698,23.918174710796677
2798.8769,28.565937439948755
2800.0551,46.64535337845592
2801.2327,48.45746150649967
2802.4096,62.953300337808116
2803.5859,72.1839079015349
2804.7615,77.05032159730098
2805.9364,96.85357810288866
2807.1106,108.64471332557758
2808.2842,132.37476220411236
2809.4572,151.99475859079013
2810.6294,166.75573501416125
2811.801,195.658722482828
2812.972,228.8047503378359
2814.1423,254.34484596364314
2815.3119,291.83003445666077
2816.4808,330.91133836985136
2817.6491,369.5897773378779
2818.8167,401.5163676862901
2819.9837,458.94212204474
2821.15,493.76804902771653
2822.3157,542.295152660288
2823.4807,597.1244320298415
2824.645,643.5568808008137
2825.8086,698.1434866663975
2826.9716,733.7352308842167
2828.134,787.7830877304609
2829.2957,824.9880241439674
2830.4567,849.5009991857431
2831.617,871.8229636669142
2832.7767,888.9548599035976
2833.9358,867.6976214936807
2835.0941,861.2521731455024
2836.2519,849.7194308904258
2837.4089,848.2003021472926
2838.5653,826.1956858377504
2839.7211,816.306472401444
2840.8761,803.5335440160618
2842.0306,811.6277746962281
2843.1843,815.4900304212313
2844.3374,841.7711690540832
2845.4899,866.5720403028957
2846.6417,908.9934854580686
2847.7928,940.8863371442825
2848.9433,1001.1014188962827
2850.0931,1046.4395448399519
2851.2422,1095.2015190901584
2852.3907,1145.938135297375
2853.5385,1193.5501761600613
2854.6857,1234.3384129172932
2855.8323,1280.9536048726477
2856.9781,1323.6964989863156
2858.1233,1360.117829408954
2859.2679,1402.0683170542543
2860.4118,1444.9986692347304
2861.555,1482.2095792422133
2862.6976,1531.8517259185473
2863.8395,1542.3257732834813
2864.9808,1558.3323700382473
2866.1214,1583.4721494608198
2867.2614,1618.79572924585
2868.4007,1619.4537112532669
2869.5393,1629.7466811550435
2870.6773,1643.425208428616
2871.8146,1661.2398462539536
2872.9513,1669.1411313767737
2874.0874,1644.9295839303966
2875.2227,1635.5057073567295
2876.3574,1617.4199886483862
2877.4915,1603.472898442922
2878.6249,1572.014891203693
2879.7577,1561.8464053593261
2880.8898,1530.0678636183002
2882.0212,1531.4796730706305
2883.152,1519.632225505653
2884.2821,1498.6758973979083
2885.4116,1495.561050025614
2886.5405,1498.9880296802291
2887.6686,1506.857167697603
2888.7962,1500.768780423704
2889.923,1501.7731691359306
2891.0493,1518.1706201039926
2892.1748,1518.91140457987
2893.2997,1542.0957786338345
2894.424,1544.8239831470455
2895.5476,1562.1462435797048
2896.6706,1578.4127699437747
2897.7929,1605.9737566297538
2898.9145,1618.829382244015
2900.0355,1634.8298093331932
2901.1559,1661.2751842556297
2902.2756,1689.6656370213686
2903.3946,1710.5012810277012
2904.513,1727.182212775263
2905.6308,1762.258511659678
2906.7479,1782.3802398047471
2907.8643,1789.1974417116862
2908.9801,1806.160144057911
2910.0953,1820.4683556288614
2911.2098,1824.8720671483761
2912.3236,1802.221251135611
2913.4368,1806.4158618610027
2914.5494,1794.055835572774
2915.6613,1754.3910904549903
2916.7725,1739.1715267511595
2917.8831,1720.2970271608774
2918.9931,1697.3674569920267
2920.1024,1667.0826643495186
2921.211,1644.89248036459
2922.319,1627.9467194976519
2923.4264,1634.5951797601901
2924.5331,1608.2376428842244
2925.6391,1599.9238742558214
2926.7445,1619.9036231786731
2927.8493,1612.5266229572326
2928.9534,1627.0425906969167
2930.0569,1631.3512273778765
2931.1597,1628.7522177098367
2932.2619,1626.6452300890114
2933.3634,1646.5299166240911
2934.4643,1638.4059131573158
2935.5645,1643.722839065625
2936.6641,1628.5802973419006
2937.763,1609.2278745417966
2938.8613,1583.4651409351627
2939.959,1558.691650699571
2941.056,1505.006942177943
2942.1523,1447.9605381262836
2943.248,1383.5519462505276
2944.3431,1322.7306597770055
2945.4375,1254.1461580965279
2946.5313,1174.1979073726
2947.6244,1079.1853612272644
2948.7169,1017.057961540586
2949.8087,939.4151394007762
2950.8999,853.356315725467
2951.9904,796.1809020381394
2953.0803,730.7883013287117
2954.1696,683.7779086252925
2955.2582,654.749111648108
2956.3462,595.6012912796054
2957.4335,569.1838218547413
2958.5202,540.2460717524596
2959.6062,518.537403659866
2960.6916,503.8071748616062
2961.7764,483.95473745695165
2962.8605,480.0294385071029
2963.9439,473.080620233713
2965.0267,462.2076200581412
2966.1089,448.65977067094036
2967.1905,453.386400140588
2968.2714,452.73683204896366
2969.3516,449.31038544408364
2970.4312,458.3563748465961
2971.5102,467.6741102840455
2972.5885,467.96289720041256
2973.6662,475.2220363629374
2974.7432,470.2508238592308
2975.8196,483.8485510246838
2976.8954,479.16450449217893
2977.9705,472.99796605611397
2979.045,468.2982127192415
2980.1188,464.21451675433497
2981.192,446.8461457511857
2982.2645,439.6423626574407
2983.3364,423.75242595228536
2984.4077,404.87558971848205
2985.4783,388.1611038012689
2986.5483,367.7082139971284
2987.6177,338.61616222093227
2988.6864,311.6841867104702
2989.7545,290.96152231737074
2990.8219,264.39740077642057
2991.8887,236.79105091279177
2992.9548,214.8416989076826
2994.0204,186.2485685743814
2995.0852,179.21088157775932
2996.1495,152.52785772020218
2997.2131,133.39871501198718
2998.276,118.87266993811335
2999.3383,100.34893764959264
3000.4,77.52673210871052
3001.4611,76.10526627426339
3002.5215,47.633752329780464
3003.5812,46.31140169773863
3004.6404,43.48742532427741
3005.6989,30.111033692422495
3006.7567,28.531436850325576
3007.8139,13.647844545027965
3008.8705,13.459466238256994
3009.9264,6.165511255261663
3010.9818,-0.6348112133034078
3012.0364,3.357707961561573
3013.0905,-3.5577157493797813
3014.1439,-8.031866908940742
3015.1966,-10.365494538354255
3016.2487,-10.009267420503136
3017.3002,-3.8137507869801084
3018.3511,-6.679409876796512
3019.4013,-9.506671829593529
3020.4509,-6.8458970577077025
3021.4998,-4.597351001824052
3022.5481,-3.6112307121161393
3023.5958,-5.1876873112214525
3024.6428,-5.326835845582707
3025.6892,-4.378739536646776
3026.735,5.206591609229292
3027.7802,5.029191329296509
3028.8247,1.9890933087399958
3029.8685,7.186331182453273
3030.9118,10.52093856543894
3031.9544,16.442949000836506
3032.9963,24.30239592657614
3034.0376,23.099312616158272
3035.0783,31.833732100060104
3036.1184,34.80568717776566
3037.1578,43.815210330421905
3038.1966,37.812333691118965
3039.2348,45.797088954795356
3040.2723,46.81950743826599
3041.3092,55.229620000375235
3042.3455,51.027457031772485
3043.3811,61.063048370811146
3044.4161,57.586423345570324
3045.4505,58.147610673498434
3046.4842,63.09663849617999
3047.5173,59.88353437372359
3048.5498,54.80832523527141
3049.5816,64.57103741113048
3050.6128,62.371696683524874
3051.6434,65.81032818896807
3052.6734,60.43695644025689
3053.7027,61.25160529208489
3054.7314,55.50429799477638
3055.7594,66.69505718613959
3056.7868,63.62390494893998
3057.8136,65.59086269899251
3058.8398,62.24595121587325
3059.8653,62.78919062324965
3060.8902,64.77060042232992
3061.9145,65.3401994864303
3062.9381,65.84800604116126
3063.9612,68.74403765873117
3064.9835,67.67831125286887
3066.0053,70.05084304986264
3067.0264,67.0616485992179
3068.0469,61.610742749931745
3069.0668,61.49813968038495
3070.086,51.57385295285073
3071.1046,55.53789551462131
3072.1226,57.740279797250196
3073.1399,52.13101767691222
3074.1567,47.360120452379505
3075.1727,43.02759890111403
3076.1882,44.78346332697677
3077.203,34.227723603552874
3078.2173,38.46038915659298
3079.2308,36.88146906957056
3080.2438,34.640972041355184
3081.2561,24.638906402001908
3082.2678,26.52528013515615
3083.2789,19.550100978074425
3084.2893,18.66337640276049
3085.2991,17.815113685717193
3086.3083,17.005319916813647
3087.3169,10.184002007767958
3088.3248,13.50116670024508
3089.3321,6.906820634070016
3090.3388,6.950970314056121
3091.3449,5.283622175948608
3092.3503,7.154782585983128
3093.3551,4.064457857559347
3094.3593,4.062654232529155
3095.3629,2.299377912099999
3096.3658,4.874635056852895
3097.3681,4.188431804375227
3098.3698,5.340774243508093
3099.3708,0.08166842120829187
3100.3713,3.61112033102512
3101.3711,-0.5708648493598503
3102.3702,-2.1642819783759535
3103.3688,-1.1191202115128362
3104.3667,0.8646529169167536
3105.364,3.7870810526109153
3106.3607,5.198207832621307
3107.3568,-1.8519231438711188
3108.3522,0.5867316703325685
3109.347,-2.0857656768565676
3110.3412,-0.9193531433947726
3111.3348,0.7860521495607884
3112.3277,0.7805422651908032
3113.32,2.3142092588155094
3114.3117,-0.3628548220501955
3115.3028,0.44944204696653856
3116.2932,2.701195515158105
3117.2831,0.442501227322623
3118.2723,0.7234548012462483
3119.2608,6.494151850290336
3120.2488,1.2046879805816104
3121.2361,3.605158733305373
3122.2229,1.6956596376001443
3123.209,3.8762861865529175
3124.1944,0.19713385629417246
3125.1793,6.058298084191563
3126.1635,3.9098723382455347
3127.1471,8.05195002587358
3128.1301,8.28462451539454
3129.1125,10.207989094607754
3130.0942,13.372136968466435
3131.0753,6.17716123984394
3132.0558,8.873154877892318
3133.0357,13.060210789992041
3134.015,13.988421794792032
3134.9936,10.007880580339204
3135.9716,13.96867969479625
3136.949,14.270911586247166
3137.9258,12.564668563089128
3138.902,14.450042791010276
3139.8775,14.577126310052122
3140.8524,8.946011015755843
3141.8267,13.406788657891397
3142.8004,16.05955089676877
3143.7735,17.054389258629953
3144.7459,20.491395109121285
3145.7178,18.470659643345172
3146.689,19.992273851489983
3147.6596,18.80632853903758
3148.6295,18.362914311547158
3149.5989,24.11212158651469
3150.5676,21.604040597807057
3151.5357,23.688761338169954
3152.5032,27.366373584308718
3153.4701,26.636966876041143
3154.4364,24.150630479521283
3155.402,25.957453394533502
3156.367,27.45752437935596
3157.3315,31.800931932692237
3158.2952,26.587764278670775
3159.2584,27.56810932341071
3160.221,25.092054707153608
3161.1829,28.60968779445993
3162.1442,26.02109569896968
3163.105,30.17636524822604
3164.065,30.925583009561286
3165.0245,29.118835248544016
3165.9834,29.606207921487048
3166.9416,33.73778669351484
3167.8993,31.963656933689812
3168.8563,33.03390367369652
3169.8127,36.59861162558298
3170.7684,35.3578651710582
3171.7236,36.211748325845065
3172.6782,40.110344752087876
3173.6321,37.30373774981345
3174.5854,35.69201021794524
3175.5381,40.87524468236928
3176.4902,42.703523312051594
3177.4417,41.02692786720571
3178.3926,42.69553968100995
3179.3428,43.95943967637342
3180.2924,40.51870834924985
3181.2415,43.22342575599854
3182.1899,46.47367154779181
3183.1377,46.86952494356767
3184.0848,48.46106469752743
3185.0314,42.49836909517721
3185.9773,47.181515937412414
3186.9227,47.51058260014487
3187.8674,50.535645987471185
3188.8115,51.20678252838217
3189.755,50.57406814651219
3190.6979,52.48757825342783
3191.6402,48.64738775495495
3192.5818,50.853571032043654
3193.5229,54.40620197917022
3194.4633,55.30535398227521
3195.4031,55.55109988323715
3196.3423,57.093511970881096
3197.2809,59.33266197852105
3198.2189,57.618621068535965
3199.1563,71.95145980997816
3200.0931,60.481248195713746
3201.0292,59.60805549909424
3201.9648,56.58195038865869
3202.8997,63.4530009368656
3203.834,59.52127465035395
3204.7677,62.78683840123273
3205.7008,63.49975846639819
3206.6333,69.71010049487822
3207.5652,63.517929500703055
3208.4964,66.623309800802
3209.4271,73.07630507692505
3210.3571,66.47697834458909
3211.2865,67.47539188854795
3212.2154,70.47160732878567
3213.1436,74.1156856105324
3214.0712,71.25768697430219
3214.9982,70.54767091945226
3215.9246,67.88569623276291
3216.8503,74.92182099553777
3217.7755,72.7061026102235
3218.7001,72.7385977300485
3219.624,75.56936228118022
3220.5473,78.69845146240007
3221.4701,79.32591971679585
3222.3922,76.45182070047083
3223.3137,78.22620727626908
3224.2346,78.44913154251647
3225.1549,82.82064481527675
3226.0746,78.2907976261224
3226.9937,80.00963967841939
3227.9121,83.07721989262573
3228.83,82.89358638910306
3229.7473,84.15878645744073
3230.6639,84.82286655829225
3231.5799,86.13587231072326
3232.4954,86.19784848557072
3233.4102,86.70883899231285
3234.3244,88.31888687844936
3235.238,88.22803432439154
3236.151,87.03632262736184
3237.0634,91.0937922023023
3237.9752,90.85048259379172
3238.8864,84.506432435471
3239.797,94.51167945247614
3240.7069,92.16626052487885
3241.6163,93.12021158763395
3242.5251,93.82356765403368
3243.4332,92.27636280616818
3244.3408,95.62863018789184
3245.2477,94.28040202029545
3246.154,97.43170956818349
3247.0598,96.93258315355635
3247.9649,97.08305212409732
3248.8694,101.5331448581639
3249.7733,101.33288876328297
3250.6766,99.58231023164997
3251.5793,99.98143464213146
3252.4814,100.7802863777708
3253.3829,103.128888821797
3254.2838,100.07726434963617
3255.1841,103.17543430542551
3256.0838,104.42341903252961
3256.9829,104.87123784255864
3257.8814,105.8189090028886
3258.7792,105.56644973218309
3259.6765,104.11387619091657
3260.5731,107.16120348389902
3261.4692,104.20844567480158
3262.3647,105.05561575568333
3263.2595,109.50272567651885
3264.1538,106.2497863367265
3265.0474,110.09680754069737
3265.9404,108.04379803032464
3266.8329,106.99076544653343
3267.7247,109.08771634981085
3268.616,110.13465623073625
3269.5066,109.13158948901187
3270.3966,108.97851942299329
3271.286,111.72544823972021
