RamanShift,CorrectedData
30.1047,1515.9721848176928
32.3739,1411.5925595695592
34.6426,1303.0129191617034
36.9109,1196.1832343184783
39.1787,1089.4534627341066
41.4461,982.1735501409781
43.7131,877.2434313769481
45.9796,767.4630314581357
48.2456,665.1822666282249
50.5112,559.4010454562698
52.7764,453.9692698595015
55.0411,347.0868361611402
57.3054,242.50363614471348
59.5692,138.3195581228805
61.8326,36.084487983263884
64.0955,-66.50168976970909
66.3579,-160.28909099245615
68.6199,-263.8271671895142
70.8815,-345.6137685774014
73.1426,-376.3441097392358
75.4032,-298.8599525765877
77.6634,82.20070068662858
79.9231,1118.6028334374246
82.1824,3564.011428240806
84.4412,8225.54145647575
86.6995,14823.50785388112
88.9574,21494.025473940364
91.2148,26192.95902190186
93.4717,28475.772988073717
95.7282,29017.38160083447
97.9842,28969.24880380491
100.2398,28412.88825043202
102.4949,27747.513304470303
104.7495,26902.987045545364
107.0036,26013.12227580769
109.2573,25149.981528377895
111.5105,24272.327076245365
113.7632,23390.67094089968
116.0154,22617.774901107154
118.2672,22045.850501727382
120.5185,21433.459061442216
122.7693,20905.411678475008
125.0197,20528.369236714512
127.2696,20103.642410995373
129.519,19865.591670868547
131.7679,19560.527284848555
134.0163,19355.709322794017
136.2642,19058.09765895827
138.5117,18766.90197403757
140.7587,18464.68175814719
143.0052,18196.4463137334
145.2512,17849.704758595635
147.4967,17534.56602856888
149.7417,17266.188880991078
151.9863,17066.031897854507
154.2304,16871.55348848956
156.4739,16631.261891566308
158.717,16476.01517703929
160.9596,16173.971248550444
163.2017,15791.68784498153
165.4433,15434.92254347462
167.6844,14957.8327632549
169.925,14514.225769198332
172.1651,14014.008676602558
174.4047,13614.53845562295
176.6439,13210.871936274802
178.8825,12822.965812428036
181.1206,12607.626645843837
183.3582,12295.760870053753
185.5954,12064.524792513046
187.832,11839.774597719392
190.0681,11707.016349525209
192.3037,11591.705993385174
194.5388,11483.899357683806
196.7734,11425.802154888554
199.0075,11372.069982627876
201.2411,11450.15832427223
203.4742,11404.472549471351
205.7068,11426.417913373414
207.9389,11412.299557081868
210.1704,11472.822507435976
212.4015,11491.891677152016
214.632,11585.311864218042
216.862,11688.387751703187
219.0915,11733.82390682348
221.3205,11867.324779911072
223.549,12068.34470395988
225.777,12317.387893290583
228.0044,12658.15844154041
230.2314,13089.560319172728
232.4578,13511.597370069307
234.6837,13803.823307216331
236.909,13959.791708484008
239.1339,13832.606013704324
241.3582,13458.019523111343
243.582,12937.53539861309
245.8053,12452.456667537379
248.0281,11986.936227836692
250.2503,11584.176852938937
252.472,11318.881196402675
254.6932,11122.501795944694
256.9139,10887.091076092967
259.134,10736.30135015047
261.3536,10616.834822549255
263.5727,10521.443590358376
265.7912,10317.029644478538
268.0092,10196.094870596016
270.2267,10012.141051226796
272.4436,9878.76986692591
274.6601,9748.332898126991
276.8759,9593.53162647598
279.0913,9478.6174361355
281.3061,9438.091615332847
283.5204,9450.055357509164
285.7341,9480.159761724664
287.9473,9609.50583253903
290.16,9818.54447971033
292.3721,10070.626516901599
294.5837,10424.652659590422
296.7947,10777.173522548124
299.0052,10889.939616299505
301.2152,10657.101343597642
303.4246,10203.008998296218
305.6334,9478.112767677896
307.8418,8879.26273699527
310.0495,8351.458896719796
312.2568,7987.651148530322
314.4635,7690.889310591096
316.6696,7550.273121189875
318.8752,7496.2022417055105
321.0802,7494.926258014133
323.2847,7564.344681029861
325.4887,7575.906946717545
327.692,7436.2624153986035
329.8949,7237.110371635386
332.0972,6855.950025627635
334.2989,6517.980515203984
336.5001,6161.700909633579
338.7007,5888.960213005768
340.9008,5712.357367792896
343.1003,5537.141257577716
345.2992,5420.210708819408
347.4976,5362.6644926057525
349.6955,5292.551325822415
351.8927,5334.269871728433
354.0895,5216.6687406573255
356.2856,5256.346489599933
358.4812,5188.951623380397
360.6763,5121.682594259413
362.8707,5053.137802608162
365.0646,5007.8655975810125
367.258,4928.964277800951
369.4508,4923.932091812318
371.643,4907.51723886981
373.8346,4812.767868988809
376.0257,4728.632083109533
378.2162,4608.00793404453
380.4062,4447.393427320041
382.5956,4245.836522382218
384.7844,4071.6851342032915
386.9726,3916.487135297135
389.1603,3813.8903574607775
391.3474,3688.992593326384
393.5339,3641.6915973872274
395.7199,3547.4850872466486
397.9052,3517.3207440910883
400.09,3501.5462136321385
402.2743,3475.5091064081935
404.4579,3494.6069979421864
406.641,3615.487429001965
408.8235,3817.747905409322
411.0054,4114.385896831174
413.1868,4561.248834756972
415.3675,4909.234109532315
417.5477,5135.03906589032
419.7273,5109.610999471766
421.9064,4937.2971545670425
424.0848,4751.894724370444
426.2627,4503.10085270329
428.4399,4173.7626358679645
430.6166,3743.477125135849
432.7928,3299.341330040699
434.9683,2950.2522226815217
437.1432,2687.5067421639014
439.3176,2486.9017980909102
441.4914,2348.3342731905595
443.6645,2256.2510253218516
445.8371,2177.4488888604465
448.0091,2062.424675619499
450.1806,2005.5251756376783
452.3514,1873.8971583294206
454.5216,1846.287373053914
456.6913,1754.6425504313756
458.8603,1740.559402619163
461.0288,1774.3346242282078
463.1967,1802.6148924638583
465.3639,1912.696866788121
467.5306,1999.4771886368635
469.6967,2153.952480318987
471.8622,2306.5693441486237
474.0271,2452.7743609003865
476.1914,2477.8140882831976
478.3551,2441.2850594782376
480.5182,2400.483782888541
482.6807,2360.5067425043108
484.8426,2347.5003983109164
487.0039,2651.3611866886567
489.1647,3041.285520542844
491.3248,3458.5697862651796
493.4843,3656.2103398345334
495.6432,3640.6535026440597
497.8015,3539.4955595248393
499.9592,3570.7327589014167
502.1163,3536.9113138033845
504.2728,3272.1274015530234
506.4287,2921.377164103502
508.5839,2446.106710686725
510.7386,2086.3121213208306
512.8927,1821.6894515628992
515.0461,1672.0847361068936
517.199,1575.5939914298851
519.3512,1522.1132172881007
521.5029,1510.1883976818317
523.6539,1533.365501390248
525.8043,1522.6404820906355
527.9541,1556.0592781266423
530.1033,1556.7678126155115
532.2519,1633.961993113904
534.3999,1774.8877116108088
536.5472,2122.290843755598
538.694,2622.9172474487714
540.8401,3286.5627593679274
542.9856,3872.4231899614933
545.1305,4012.8943168122805
547.2748,3817.971878778877
549.4185,3386.4015745909182
551.5615,2969.0290647983347
553.704,2781.449976087044
555.8458,2656.459905452679
557.987,2626.804422076373
560.1276,2556.229068574674
562.2675,2468.429361296083
564.4069,2362.400791026812
566.5456,2280.6888238687898
568.6837,2122.1389022999356
570.8212,1862.3964459912931
572.958,1601.0568533925161
575.0942,1393.0155043292962
577.2299,1277.317762616758
579.3648,1299.5589781398794
581.4992,1375.9844880104683
583.6329,1580.0896163447414
585.766,1849.969673499083
587.8985,2003.4699540289912
590.0304,1956.935733990269
592.1616,1901.512269404022
594.2922,1828.3947967220047
596.4222,1669.6285333808555
598.5515,1510.9586785332758
600.6802,1314.430414635679
602.8083,1111.6889090348996
604.9358,1035.7293159334695
607.0626,952.4967784170458
609.1888,883.686429213989
611.3144,785.4433915277059
613.4393,648.2627797247387
615.5636,511.0397003172038
617.6873,408.5692533345973
619.8103,335.4465336960202
621.9327,319.51663223489595
624.0544,265.27463643018746
626.1756,299.9156305657016
628.2961,220.7346962724987
630.4159,193.42691218249638
632.5351,160.7373547202642
634.6537,100.81109837610711
636.7716,72.59321603297394
638.8889,76.77877956570592
641.0056,104.46286012322707
643.1216,100.49052808667875
645.237,144.55685279257887
647.3518,152.25690257253518
649.4659,164.4357443125973
651.5793,186.5384433762374
653.6922,178.3600634825798
655.8043,167.89566648537584
657.9159,158.4403124547789
660.0268,63.789059781991455
662.137,53.38696527381762
664.2466,-10.970914900826756
666.3556,-42.03952510689123
668.4639,-56.873700109890706
670.5716,29.922145299507974
672.6786,125.39416449889904
674.785,200.98821194363518
676.8907,294.4501408351389
678.9958,378.32580236495414
681.1002,373.76104478013076
683.204,344.35171254446504
685.3072,296.093646384159
687.4097,219.28268358189416
689.5115,177.11465845942985
691.6127,126.43540314569691
693.7132,53.24074799847949
695.8131,-28.92347788877305
697.9123,-36.96144595502483
700.0109,-70.87703869369761
702.1089,-103.87376935337124
704.2061,-98.15444312101863
706.3028,-16.420827484662368
708.3987,19.27629063054883
710.4941,134.38628834352858
712.5887,358.4585425804362
714.6827,664.8424289235736
716.7761,1079.0873193706684
718.8688,1480.292579271023
720.9608,1670.6075631830736
723.0522,1709.581610862333
725.1429,1449.1640453582477
727.233,1112.804172624452
729.3224,821.0012841229527
731.4112,498.05466018771403
733.4993,297.16357294269073
735.5867,144.7772895313028
737.6735,87.99507412534149
739.7596,29.56618944883121
741.845,24.13989734585448
743.9298,3.5154593648367154
746.014,36.142136812819444
748.0974,42.16915587739277
750.1802,17.64574238473324
752.2624,60.57112173932546
754.3439,94.09451916921353
756.4247,162.86515929673624
758.5048,270.3322658033012
760.5843,489.29506074166784
762.6631,742.3027634612772
764.7413,1215.054588418625
766.8188,1811.1497426471815
768.8956,2271.937421029881
770.9718,2641.6668003381637
773.0473,2487.187034624105
775.1221,2147.397251523116
777.1962,1773.7465537987464
779.2697,1603.8840227405872
781.3426,1664.6587219007542
783.4147,1975.0696987925403
785.4862,2323.7659842826615
787.557,2352.446589487141
789.6271,2031.2105022843516
791.6966,1469.1566870282059
793.7654,930.0840877605133
795.8335,622.8416338315183
797.901,470.32824529063146
799.9678,405.2928359588477
802.0339,424.38431495388613
804.0993,521.1515873405551
806.1641,513.5935539398142
808.2282,433.40911036112084
810.2916,349.3471470780096
812.3544,282.45655022991923
814.4164,228.48620246282553
816.4778,202.28498359815057
818.5385,204.35177117245075
820.5986,252.68544069944437
822.658,371.18486564933664
824.7166,424.94891696547893
826.7747,589.5764618793783
828.832,755.1163633730575
830.8886,854.1174785327803
832.9446,1027.9286568936514
834.9999,1111.5487394496067
837.0545,1147.82655691531
839.1085,1222.710928889932
841.1618,1229.4506634943882
843.2143,1232.1445566224793
845.2662,1169.1913918735227
847.3175,1135.1399405253796
849.368,1020.238962164005
851.4179,919.0372050239603
853.467,782.5334071374291
855.5155,683.9262973462191
857.5633,585.9145966668166
859.6105,500.29701927644965
861.6569,403.0222734932031
863.7027,355.23906263220306
865.7478,380.59608597835904
867.7922,400.3920392641958
869.8359,457.6256144162835
871.8789,593.8454993572741
873.9212,786.6503774335633
875.9629,952.6389260530996
878.0039,1172.2598147573299
880.0441,1254.6117035613188
882.0837,1275.5432407575372
884.1226,1156.5030620923371
886.1609,1029.439790556642
888.1984,910.8020375763463
890.2352,896.0884042829493
892.2714,856.0474826999252
894.3069,840.2278558898743
896.3416,772.9280983549233
898.3757,753.046776194924
900.4091,763.5324477804515
902.4418,795.8336639516219
904.4739,801.0989679132254
906.5052,824.7268949117206
908.5358,744.3659721825843
910.5658,621.364718714025
912.595,453.62164605060025
914.6236,323.98525952322416
916.6515,300.204059926602
918.6786,296.37654481559
920.7051,381.60120874300446
922.7309,503.67654329790275
924.756,593.3010362533296
926.7804,676.7731703455629
928.8041,649.9914223778851
930.8272,699.1542623858404
932.8495,628.9601539050691
934.8711,592.0075534796742
936.892,446.94491136416036
938.9123,284.77067189295485
940.9318,162.7332749310408
942.9506,71.48115749569479
944.9688,-17.58724502313271
946.9862,-42.8234979502995
949.003,-83.87899091408326
951.019,-64.7546857360212
953.0344,-24.100706286537388
955.0491,16.8334704632598
957.063,100.99860830830949
959.0763,201.6954708752237
961.0888,255.32482078063185
963.1007,363.63741862421375
965.1119,436.03402245240795
967.1223,466.06538667528366
969.1321,504.23226134257493
971.1412,550.935391843368
973.1495,587.9755185244285
975.1572,633.7033762231713
977.1641,678.0196938972585
979.1704,672.5751941673279
981.1759,668.3705928738182
983.1808,738.1065991314172
985.1849,850.8839153711215
987.1884,1034.0032366428622
989.1911,1254.6652494877362
991.1932,1418.2206301068163
993.1945,1475.7200421545276
995.1951,1453.9641351030896
997.1951,1425.1535436675258
999.1943,1376.5388880232258
1001.1928,1339.2207740940466
1003.1906,1313.6497940384688
1005.1877,1354.7265266227587
1007.1841,1326.8515374767012
1009.1798,1287.6253786828129
1011.1748,1100.4985890551034
1013.1691,871.9716945313266
1015.1627,666.5952100442628
1017.1556,483.0196418069736
1019.1477,431.6954893665752
1021.1392,360.6732474399796
1023.1299,372.65340642715637
1025.12,398.3864531213276
1027.1093,471.72287058919756
1029.0979,563.2131379136063
1031.0859,644.7577294601579
1033.0731,668.9571139623367
1035.0596,568.9117537060465
1037.0454,468.17210428762155
1039.0304,344.5886156142915
1041.0148,242.01173291156192
1042.9985,148.24189795905477
1044.9814,145.6795501162851
1046.9636,86.62512726034583
1048.9452,88.57906581153293
1050.926,104.29180132389774
1052.9061,96.21376846571002
1054.8855,94.14540086232228
1056.8642,159.48713117696207
1058.8421,202.48939113139932
1060.8194,248.3526108525366
1062.7959,295.7272184423882
1064.7717,310.91363951944186
1066.7469,325.8122967449199
1068.7213,321.52360967090954
1070.695,309.24799459137193
1072.6679,238.9858645850436
1074.6402,197.4376296381788
1076.6117,199.60369734718188
1078.5826,231.83447333408094
1080.5527,313.7303612248752
1082.5221,451.09176232722984
1084.4908,675.1190748115005
1086.4587,890.2126923371388
1088.426,1051.8730018124052
1090.3925,1086.3503812434392
1092.3584,1010.0451981176457
1094.3235,887.9578090589348
1096.2879,761.2385605907721
1098.2515,754.0377903570434
1100.2145,813.2558283892522
1102.1767,897.6429971785237
1104.1382,1064.9496110834343
1106.099,1276.6759754861314
1108.0591,1508.9223851192764
1110.0185,1676.0391219487692
1111.9771,1660.7764528512907
1113.9351,1439.6846279431384
1115.8923,1138.8638807328407
1117.8488,811.5644303320887
1119.8045,550.3364844639309
1121.7596,433.73024273577903
1123.7139,383.89589925168275
1125.6675,397.133643778393
1127.6204,460.1436622437059
1129.5726,474.67613660408824
1131.524,506.2312442145703
1133.4748,571.509157683422
1135.4248,590.3100445566106
1137.3741,619.9840666650107
1139.3226,611.0813799364023
1141.2705,565.7021340987276
1143.2176,492.8964727691191
1145.164,526.3145339076918
1147.1097,574.856450545597
1149.0546,572.9723504508456
1150.9989,482.9623556428887
1152.9424,334.67658241146
1154.8852,154.31514221667385
1156.8272,57.678143171887314
1158.7686,-16.284308152696212
1160.7092,-32.02210576364541
1162.6491,-17.084980987297968
1164.5883,50.42765475084616
1166.5267,132.7165607042425
1168.4644,307.78249562207293
1170.4014,498.8762169263573
1172.3377,722.898478961296
1174.2732,990.3500310823283
1176.2081,1212.8316154159165
1178.1421,1399.8939641850284
1180.0755,1546.2877974843168
1182.0082,1623.3638214094954
1183.9401,1573.4227265934023
1185.8713,1400.9151874352456
1187.8017,1192.5918626000039
1189.7315,943.1533967435134
1191.6605,682.3004225956911
1193.5888,528.9835634549318
1195.5163,439.7534357966215
1197.4432,333.0106508063218
1199.3693,304.75581527206214
1201.2947,237.83953265176842
1203.2193,268.01240335581497
1205.1432,335.5750254161785
1207.0664,356.0779941847186
1208.9889,432.87190165755055
1210.9106,500.85733627001355
1212.8316,595.5348821287316
1214.7519,687.7551183317573
1216.6715,717.3686180217974
1218.5903,738.4259474640103
1220.5084,678.8276657498727
1222.4257,687.5743245866051
1224.3424,630.9664688931525
1226.2583,714.9046367127194
1228.1735,820.6393597788501
1230.0879,953.3711626760442
1232.0016,1078.8005617824156
1233.9146,1123.1780639423678
1235.8269,1058.9541652123035
1237.7384,940.3293504168514
1239.6492,747.8040937911001
1241.5592,649.9288601668459
1243.4686,597.4041068978477
1245.3772,545.2302848385771
1247.285,507.907838869467
1249.1922,480.5372084186529
1251.0986,481.7188278351932
1253.0042,504.65312666277623
1254.9092,579.8405296279025
1256.8134,676.8814564105414
1258.7169,835.3763208922637
1260.6196,1006.4255301858257
1262.5216,1202.429483050223
1264.4229,1370.2385681801961
1266.3234,1505.4031622461935
1268.2232,1572.6236282162827
1270.1223,1564.850314004505
1272.0207,1583.7835517986696
1273.9183,1534.3236581380834
1275.8151,1470.6709337242237
1277.7113,1413.0756639153296
1279.6067,1267.6381193629368
1281.5014,1130.658556587823
1283.3953,1038.8372194343901
1285.2885,998.4243404404524
1287.181,958.6201417554621
1289.0727,1022.0748355446285
1290.9637,1081.288624386967
1292.854,1183.4617006407407
1294.7435,1341.7942458513335
1296.6323,1549.2864297295146
1298.5204,1805.9384085681095
1300.4077,2055.650323167084
1302.2943,2251.7722962670214
1304.1802,2340.3544300520034
1306.0653,2272.7968041883914
1307.9497,2162.199474939005
1309.8333,2059.9124758386997
1311.7162,2067.2358188003345
1313.5984,2138.7694951376507
1315.4798,2300.96347549203
1317.3605,2444.267709117167
1319.2405,2604.6321222571205
1321.1197,2654.906616713277
1322.9982,2587.1910682407015
1324.876,2572.235326045403
1326.753,2554.639213461476
1328.6293,2588.202528100667
1330.5048,2615.77504202833
1332.3796,2601.7065014277896
1334.2537,2587.8966263246257
1336.127,2556.045110727354
1337.9996,2532.651622765523
1339.8714,2521.865805008236
1341.7426,2448.537274698083
1343.6129,2466.365623859001
1345.4826,2389.200420029555
1347.3515,2372.591206084656
1349.2196,2347.037501007214
1351.087,2364.0388000542243
1352.9537,2426.4945750123143
1354.8197,2554.904274027721
1356.6849,2731.0173209817376
1358.5493,2850.1331142066156
1360.4131,2884.3510247244394
1362.276,2817.9703950559633
1364.1383,2686.1905388784335
1365.9998,2462.7107416893987
1367.8606,2186.1802621245015
1369.7206,1928.6983341922814
1371.5799,1782.4141700394784
1373.4384,1678.3269625258508
1375.2962,1543.6358866870178
1377.1533,1356.1901007753286
1379.0096,1095.6387476067757
1380.8652,831.6309564354488
1382.7201,577.0158455590554
1384.5742,392.59252495899364
1386.4275,261.4600988465063
1388.2802,166.26766750691058
1390.132,94.66432861093108
1391.9832,46.79917816661691
1393.8336,8.17131123537456
1395.6832,-0.7701775893719969
1397.5322,-17.426193795913605
1399.3803,-23.6476351784695
1401.2278,-33.33522544358675
1403.0745,-0.48945205793552304
1404.9204,11.48953053070909
1406.7656,52.35157276419977
1408.6101,80.64652496948838
1410.4538,103.3742369500178
1412.2968,173.7345577027645
1414.139,235.12733519096582
1415.9805,348.8524156405174
1417.8213,441.0096429260393
1419.6613,600.2988574336323
1421.5006,791.6198951392998
1423.3391,1090.4225860160577
1425.1769,1444.1567521207262
1427.0139,1994.8722046059038
1428.8502,2590.5687401826235
1430.6858,3194.496135613199
1432.5206,3640.1041417542574
1434.3547,3893.6924775174675
1436.188,3967.1108254134633
1438.0206,3920.0088290159492
1439.8524,3772.8360922275306
1441.6835,3678.442179750722
1443.5139,3589.376618559686
1445.3435,3542.238898844157
1447.1724,3535.6284749001134
1449.0005,3458.9947656011364
1450.8279,3370.637154464531
1452.6545,3352.504990417655
1454.4804,3411.997588681498
1456.3056,3413.7642309520006
1458.13,3332.6541648051325
1459.9536,3109.9166036792194
1461.7766,2773.6007276860473
1463.5987,2376.0056858382404
1465.4202,2015.6805994124143
1467.2409,1675.1245659251317
1469.0608,1424.986662736149
1470.88,1164.615950453982
1472.6984,960.0114754372808
1474.5161,763.4722723985378
1476.3331,650.6973664501338
1478.1493,530.5857750697241
1479.9648,465.736509227997
1481.7795,384.8485745897842
1483.5935,329.6709721625566
1485.4067,287.1026991052986
1487.2192,268.89274928029135
1489.031,223.09011367878702
1490.842,203.14378060311537
1492.6522,185.55273612470592
1494.4618,173.76596428355424
1496.2705,161.33244726412613
1498.0785,152.55116551323135
1499.8858,139.17109786435685
1501.6924,140.14122162547847
1503.4981,120.81051271286469
1505.3032,119.17794564137421
1507.1075,103.54249371776223
1508.911,104.05312905700976
1510.7138,92.2088227386721
1512.5159,74.40854480177313
1514.3172,39.50126436324899
1516.1178,30.735949795952365
1517.9176,18.511569077723834
1519.7166,10.07708987904607
1521.515,12.531479685290833
1523.3126,7.073705881059141
1525.1094,-14.247264274357804
1526.9055,-1.8824635924056565
1528.7008,-29.282782554361802
1530.4954,-30.599092835693227
1532.2893,-26.681973576874952
1534.0824,-41.781698233445695
1535.8747,3.5517262919693167
1537.6663,-4.731289504094548
1539.4572,-7.48033516061605
1541.2473,-14.79495295099423
1543.0367,8.325389579920284
1544.8253,9.331372688851843
1546.6132,52.77367654927639
1548.4003,31.452981241355246
1550.1867,70.41996631751681
1551.9723,96.77531101566274
1553.7572,144.0196938694976
1555.5414,180.85379244497335
1557.3247,250.8782828678477
1559.1074,290.7438394553419
1560.8893,356.20113401589606
1562.6705,440.0008354505121
1564.4509,542.8936090981806
1566.2305,624.2801158978882
1568.0094,729.0110113596829
1569.7876,798.7869447508187
1571.565,866.6085580484369
1573.3417,922.4264852418119
1575.1176,917.6413516541347
1576.8928,905.0037733843324
1578.6672,844.1643573549222
1580.4409,744.4237014383816
1582.2138,643.182395065548
1583.986,528.2910202230228
1585.7575,462.75015246558496
1587.5282,422.660362065104
1589.2981,373.6722146659472
1591.0673,348.43627168587955
1592.8358,350.2530908059448
1594.6035,370.6232262228268
1596.3704,372.3472286306783
1598.1366,401.5756450174231
1599.9021,450.60901864751486
1601.6668,490.5978887696524
1603.4308,563.4927901264446
1605.194,630.5942525545229
1606.9564,767.7028002555921
1608.7182,875.7189511254151
1610.4791,1033.3432153827284
1612.2394,1195.47609448908
1613.9988,1370.718079572588
1615.7576,1603.6196498066088
1617.5156,1874.4812706573211
1619.2728,2110.8533915547096
1621.0293,2267.586443183946
1622.785,2343.5308351216695
1624.54,2291.8869542686575
1626.2942,2184.355164090378
1628.0477,1961.9358051334334
1629.8005,1753.0791961008772
1631.5525,1543.9856360764043
1633.3037,1363.2554066129205
1635.0542,1232.188773823475
1636.804,1140.5359901885658
1638.553,1061.8972958668019
1640.3013,1043.772919611435
1642.0488,1026.2630795567447
1643.7955,1033.1179833992824
1645.5416,1086.9878285729692
1647.2868,1166.4228021805475
1649.0313,1272.223080454888
1650.7751,1401.7888279646359
1652.5181,1598.0701965562112
1654.2604,1844.5673240581486
1656.0019,2176.0303323182775
1657.7427,2515.559324738761
1659.4828,2858.604382961456
1661.222,3073.0655634726286
1662.9606,3114.3928941725007
1664.6984,2952.5863722306412
1666.4354,2603.3959636726895
1668.1717,2129.521604998423
1669.9072,1687.0632066736584
1671.642,1321.420657869
1673.3761,1014.4938308844189
1675.1094,797.1825848056837
1676.8419,634.5867685736243
1678.5737,494.8062231572467
1680.3048,410.34078317969033
1682.0351,345.9902783160346
1683.7646,299.45453413795076
1685.4934,256.28337275721196
1687.2215,238.6266132910473
1688.9488,201.43407229385184
1690.6754,164.05556393375628
1692.4012,164.3409003645511
1694.1263,143.13989209947204
1695.8506,137.20234800834942
1697.5742,127.27807552961258
1699.297,117.66688072966917
1701.0191,85.5185684021485
1702.7404,85.33294216401009
1704.461,70.05980477703133
1706.1808,53.59895814966103
1707.8999,61.400203489752585
1709.6182,46.91334146916961
1711.3358,60.388172145776025
1713.0527,44.22449510830256
1714.7688,35.67210934160221
1716.4841,29.03081338828406
1718.1987,40.05040543423729
1719.9126,26.88068337504501
1721.6257,15.871444705787326
1723.338,18.322486652736643
1725.0496,11.333606283454628
1726.7605,6.854600482277874
1728.4706,8.035266020207928
1730.18,0.8753995997017228
1731.8886,-0.07520215713702783
1733.5964,11.133257363043867
1735.3036,9.200575524865144
1737.0099,4.876549581615109
1738.7156,2.2609766945797674
1740.4204,2.6036539762794746
1742.1246,-1.2456214833732702
1743.8279,-4.437052620502072
1745.5306,0.17917007252617623
1747.2325,-9.94709957050054
1748.9336,-7.166007717582033
1750.634,-4.627601165196211
1752.3336,-2.3818551214053514
1754.0325,0.42130143546546606
1755.7307,3.9319633218206036
1757.4281,-0.8997746501463553
1759.1247,4.776182292439444
1760.8206,13.159937911198995
1762.5158,15.851595919992178
1764.2102,14.051259901080357
1765.9039,-11.490966721787572
1767.5968,13.275019334622357
1769.289,7.3994361483028115
1770.9804,9.482501664495885
1772.6711,13.274433754451366
1774.361,7.5754501945912125
1776.0502,26.28576862859927
1777.7386,16.755606624402844
1779.4263,12.28518148707417
1781.1132,23.224710354132185
1782.7994,7.274410240244833
1784.4849,15.534497927834309
1786.1696,28.70519012658042
1787.8535,24.486703390817638
1789.5367,15.379253987830452
1791.2192,39.33305794003627
1792.9009,17.0483311160624
1794.5818,34.27528899120625
1796.2621,23.66414687028464
1797.9415,20.51511971536138
1799.6202,36.87842225186114
1801.2982,38.8042690000575
1802.9755,30.942874111440688
1804.6519,44.19445134945772
1806.3277,31.559214168130893
1808.0027,25.987375579535183
1809.6769,45.52914828015855
1811.3504,41.034744706611946
1813.0231,44.4043768402189
1814.6951,52.53825625195623
1816.3664,55.18659406875713
1818.0369,49.59960089217384
1819.7067,48.62748677189484
1821.3757,58.22046126161422
1823.044,58.32873342875337
1824.7115,66.00251175852736
1826.3783,66.6920041528656
1828.0443,52.197417853672505
1829.7096,61.96895943593336
1831.3741,73.35683495265994
1833.0379,73.41124983717646
1834.701,65.58240878924153
1836.3633,71.07051577450193
1838.0248,78.67577410278045
1839.6856,81.59838637319672
1841.3457,87.28855439811423
1843.005,88.04647917391367
1844.6636,98.57236082409054
1846.3214,77.91639859167935
1847.9785,95.0787907339909
1849.6349,96.10973472917249
1851.2904,98.10942710458585
1852.9453,100.72806342649665
1854.5994,91.0158382800787
1856.2528,96.97294524322433
1857.9054,109.24957698367098
1859.5572,94.2959251994248
1861.2083,121.66218049599865
1862.8587,103.29853253594638
1864.5084,103.90516976520121
1866.1572,112.83227959671217
1867.8054,99.18004840437652
1869.4528,106.79866143377103
1871.0994,115.03830293867327
1872.7453,110.2991561048741
1874.3905,96.5814029677822
1876.0349,99.93522445981648
1877.6786,114.06080054758127
1879.3215,109.40831019832945
1880.9637,113.67793123870683
1882.6051,110.01984040127695
1884.2458,116.18421328182535
1885.8858,105.72122437594066
1887.525,115.48104701736929
1889.1634,108.46385348264789
1890.8011,118.71981489350264
1892.4381,106.19910128702122
1894.0743,111.75188151309544
1895.7098,111.97832335962539
1897.3446,121.82859349699402
1898.9786,111.60285747580178
1900.6118,113.60127962836418
1902.2443,105.77402317096926
1903.8761,96.32125018389297
1905.5071,108.74312168967094
1907.1374,109.53979774762706
1908.7669,110.36143732965479
1910.3957,116.40819831225076
1912.0237,108.13023746829776
1913.651,113.32771040659668
1915.2776,123.5507716546474
1916.9034,105.2495746066727
1918.5285,108.174271421389
1920.1528,112.4750132050176
1921.7764,103.75194998203688
1923.3992,96.20523065217685
1925.0213,98.9850030776488
1926.6427,100.34141415861336
1928.2633,82.72460980538176
1929.8832,134.63473492485286
1931.5023,106.82193359668008
1933.1207,94.18634855416985
1934.7383,100.97812146241085
1936.3552,103.14739304463001
1937.9714,99.39430301427251
1939.5868,102.31899005331161
1941.2015,92.67159184977709
1942.8154,85.65224506851041
1944.4286,82.86108544763806
1946.041,81.49824786876525
1947.6528,88.26386638488634
1949.2637,82.40807423401384
1950.8739,82.38100377152296
1952.4834,80.68278652870822
1954.0921,82.66355321305514
1955.7001,77.27343372522205
1957.3074,81.91255713923215
1958.9139,83.1310517563752
1960.5197,74.37904505881602
1962.1247,72.25666369740998
1963.729,57.11403357922336
1965.3325,58.65127988875565
1966.9353,78.36852723936818
1968.5374,68.31589965790931
1970.1387,61.643520387543276
1971.7393,76.85151198827589
1973.3392,61.53999640367738
1974.9383,62.25909480880432
1976.5366,55.10892776331434
1978.1342,63.93961520427524
1979.7311,58.35127651766652
1981.3273,56.69403045007152
1982.9227,70.56799516456272
1984.5173,61.17328825727259
1986.1112,51.610026618653364
1987.7044,59.27832652742654
1989.2968,52.87830374621285
1990.8885,55.910073444849786
1992.4795,54.27375026439404
1994.0697,56.769448286801435
1995.6592,61.3472810512917
1997.2479,61.107361529390346
1998.8359,56.84980207915146
2000.4232,50.374714447556926
2002.0097,51.13220981309155
2003.5955,49.57239885049398
2005.1805,61.0453917231805
2006.7648,47.55129809884511
2008.3484,56.69022703472774
2009.9312,65.36228711255671
2011.5133,39.86758634715807
2013.0946,53.75623209973605
2014.6752,50.47833133281915
2016.2551,52.383990471374545
2017.8342,57.52331543558694
2019.4126,64.19641162180187
2020.9902,53.20338385113291
2022.5672,52.79433630272888
2024.1433,54.019372623706204
2025.7188,48.12859593323833
2027.2935,55.62210881030501
2028.8674,56.15001335260172
2030.4406,52.11241110160199
2032.0131,48.65940303727939
2033.5849,51.99108961848401
2035.1559,59.55757081747174
2036.7261,63.30894608658923
2038.2957,47.39531428260875
2039.8645,51.266773629212594
2041.4325,62.2734218761309
2042.9998,53.56535626042751
2044.5664,49.742673396432565
2046.1323,62.00546936282353
2047.6974,55.20383974085121
2049.2617,46.2378794917131
2050.8254,53.70768302456736
2052.3883,64.4633442861957
2053.9504,63.60495668630256
2055.5118,67.78261298995926
2057.0725,56.24640532618923
2058.6325,65.34642514618895
2060.1917,63.58276333869321
2061.7502,73.75551013897234
2063.3079,59.664755146470725
2064.8649,56.51058722307857
2066.4212,56.843094634038835
2067.9767,53.812365079490064
2069.5315,46.06848569114027
2071.0856,36.26154306257354
2072.6389,43.24162332669084
2074.1915,44.75881225377748
2075.7433,43.563195181702895
2077.2945,42.80485700074996
2078.8448,44.28388216557096
2080.3945,35.2503547027693
2081.9434,49.004358196109706
2083.4916,39.995975876854345
2085.039,35.825290486222
2086.5857,34.54238436547189
2088.1317,36.147339497610574
2089.677,36.14023752022126
2091.2215,29.021159709413496
2092.7652,34.79018697989545
2094.3083,45.74739995616483
2095.8506,31.092878914817447
2097.3921,40.77670367497649
2098.933,44.59895374483631
2100.4731,51.90970822482495
2102.0124,47.309045769383374
2103.5511,45.097044513855735
2105.089,35.97378212049534
2106.6261,49.18933580058683
2108.1626,41.193782405676984
2109.6983,38.63719829541924
2111.2332,43.16965941753028
2112.7675,45.59124133335513
2114.301,43.75201917254276
2115.8337,48.952067608829566
2117.3657,49.14146087843301
2118.897,43.57027272805044
2120.4276,27.18857641296495
2121.9575,40.54644475275791
2123.4866,41.543950295125114
2125.0149,52.88116518229913
2126.5426,44.40816114107315
2128.0695,39.025009369429426
2129.5956,40.88178062126917
2131.1211,46.428545260244846
2132.6458,35.115373241190355
2134.1698,43.342334054655794
2135.693,45.659496840038855
2137.2155,51.516930303314666
2138.7373,40.56470269386364
2140.2584,42.55288174589714
2141.7787,44.781534787980945
2143.2983,46.25072872315195
2144.8171,46.76053000663387
2146.3353,36.91100463114253
2147.8527,42.752218121790065
2149.3693,41.884235634578545
2150.8853,38.607121897988236
2152.4005,38.22094122165754
2153.9149,43.625757529154725
2155.4287,38.221634361839506
2156.9417,45.708634824814
2158.454,35.33682164096513
2159.9655,46.1562570760932
2161.4764,32.96700304263163
2162.9865,28.269120991451018
2164.4958,38.7626720437529
2166.0045,34.347717038047676
2167.5124,39.22431642521951
2169.0195,46.442530312676354
2170.526,45.502418415583406
2172.0317,50.15403998467991
2173.5367,44.49745381568232
2175.0409,46.582718202766046
2176.5445,42.659890995132855
2178.0473,34.079029576158746
2179.5494,48.14019090262059
2181.0507,48.793431590505634
2182.5513,45.838807774399356
2184.0512,44.07637510095424
2185.5504,47.556188758433564
2187.0488,35.47830349433889
2188.5465,43.492773580609764
2190.0435,41.799652934403866
2191.5397,39.59899503795191
2193.0353,35.640852955488526
2194.5301,39.92527935525959
2196.0241,27.502326549102918
2197.5175,33.722046449603795
2199.0101,41.33449069432481
2200.502,40.23971058360871
2201.9931,32.38775700445353
2203.4835,26.778680441459983
2204.9733,30.412531055353156
2206.4622,34.03935873907062
2207.9505,27.75921308142597
2209.438,18.422143330838935
2210.9248,19.928198458138013
2212.4109,17.277427249930497
2213.8962,35.6698782935423
2215.3809,37.55560000352648
2216.8648,39.38464043773729
2218.3479,28.607047278474283
2219.8304,20.672867814190795
2221.3121,15.08214904727015
2222.7931,14.284937773367574
2224.2733,26.93128063731706
2225.7529,16.67122414110463
2227.2317,15.454814517402838
2228.7098,28.58209783217376
2230.1872,14.253119996830947
2231.6638,25.867926636968377
2233.1397,15.926563235648246
2234.6149,19.079075017254354
2236.0894,10.975507046904568
2237.5632,9.71590419892732
2239.0362,10.150311237895949
2240.5085,15.62877283122566
2241.9801,12.901333544829868
2243.4509,13.618037788334277
2244.921,17.528929842351545
2246.3904,8.234053851314684
2247.8591,8.633453784367475
2249.3271,8.777173528314506
2250.7943,13.915256883626057
2252.2608,6.947747563000917
2253.7266,11.374689139985662
2255.1917,12.346125118650093
2256.656,4.962098889317758
2258.1197,9.822653718850916
2259.5826,7.777832824492066
2261.0447,12.277679325257282
2262.5062,5.422236262385013
2263.9669,10.411546554337065
2265.4269,10.44565306535344
2266.8862,1.0745985555591915
2268.3448,6.298425680622813
2269.8026,14.267166360972737
2271.2598,14.680852454053934
2272.7162,9.389515674639824
2274.1719,10.643187590696357
2275.6268,10.341899676294588
2277.0811,10.785683299074321
2278.5346,21.82456972325747
2279.9874,18.55859010520885
2281.4395,25.837775383048665
2282.8908,10.962156309311354
2284.3414,14.131763378154233
2285.7914,16.99662697411361
2287.2406,16.506777340408917
2288.689,11.312244550293826
2290.1368,5.713058511954955
2291.5838,21.55924902045581
2293.0302,18.55084581373012
2294.4758,10.887878414118973
2295.9206,23.82037615845593
2297.3648,21.69836827469544
2298.8082,16.17188375258945
2300.251,16.590951364906573
2301.693,8.905599722697048
2303.1343,18.615857271101845
2304.5748,15.021752366206556
2306.0147,7.573313177938985
2307.4538,18.3705677260092
2308.8922,16.36354395439514
2310.3299,17.30226962336951
2311.7669,16.536772329569658
2313.2031,13.217079496610609
2314.6387,9.393218382740656
2316.0735,12.315216114037526
2317.5076,14.38309972264733
2318.941,16.946896117564506
2320.3737,11.956632063952839
2321.8056,9.862334157507576
2323.2369,15.214028874358291
2324.6674,13.061742592011342
2326.0972,7.255501535833673
2327.5263,8.645331800574581
2328.9547,14.78125940842915
2330.3823,17.213310295139195
2331.8092,12.791510248634268
2333.2355,7.865884884711022
2334.661,14.636459691251503
2336.0858,17.053260077479308
2337.5098,24.766311306254238
2338.9332,15.92563846990447
2340.3558,7.381266413095318
2341.7778,10.783219821236457
2343.199,25.631523305925043
2344.6195,19.876201370926765
2346.0393,18.217278263692037
2347.4583,24.904778032909917
2348.8767,27.638724545097148
2350.2943,27.619141417723085
2351.7113,25.946051991870377
2353.1275,26.21947933243041
2354.543,19.689446244834812
2355.9578,36.05597527232078
2357.3718,23.419088761230796
2358.7852,23.778808697348154
2360.1978,16.635156832265693
2361.6098,26.088154679788317
2363.021,25.537823587370212
2364.4315,21.484184641583624
2365.8413,30.977258673623624
2367.2504,28.567066299843532
2368.6587,21.70362782682446
2370.0664,26.836963275477387
2371.4733,22.81709244967692
2372.8795,18.444034884928556
2374.285,24.06780988856781
2375.6899,18.038436583489784
2377.0939,27.955933851912164
2378.4973,21.520320395668364
2379.9,28.5316146370335
2381.3019,29.039834783079414
2382.7032,25.594998755562415
2384.1037,19.497124185840676
2385.5035,12.69622844932303
2386.9027,26.492328726447113
2388.3011,18.885442070689123
2389.6987,23.625585270601505
2391.0957,19.412774925883014
2392.492,9.297027399976514
2393.8876,16.37835886219773
2395.2824,20.80678538889208
2396.6765,5.332322892622074
2398.07,18.354987077882583
2399.4627,16.12474037926279
2400.8547,20.641545047802765
2402.246,15.80536317329529
2403.6366,17.066156639118276
2405.0265,19.57388717059598
2406.4156,16.4285163223916
2407.8041,15.380005453430158
2409.1918,15.07831575835155
2410.5789,17.423408277996487
2411.9652,22.615243902422435
2413.3508,18.753783347453805
2414.7358,14.738987102762394
2416.12,22.420815470482694
2417.5035,27.44922860535962
2418.8863,23.824186437929825
2420.2684,22.345648624238606
2421.6497,24.16357458208961
2423.0304,13.427923505830677
2424.4104,25.23865434817344
2425.7896,24.54572592755153
2427.1682,26.899096810011883
2428.546,25.44872531614442
2429.9232,24.14456949754856
2431.2996,23.536587151336903
2432.6753,29.774735833176578
2434.0503,32.158972863369854
2435.4246,25.88925526447167
2436.7982,23.965539737447898
2438.1711,21.637782724372073
2439.5433,30.555940427662904
2440.9148,14.519968833361759
2442.2856,21.779823621950868
2443.6557,25.38546032871261
2445.025,21.786834271132193
2446.3937,27.183900512840523
2447.7617,25.02661389960042
2449.1289,27.164929005336035
2450.4955,27.648800153705338
2451.8613,29.628181396717196
2453.2265,30.85302650989331
2454.5909,26.423288972473415
2455.9546,32.488921955167484
2457.3177,35.74987836445291
2458.68,26.056110781918278
2460.0416,30.407571431653878
2461.4025,36.15421227718912
2462.7627,32.54598497797815
2464.1222,40.08284083193291
2465.4811,30.36473081150598
2466.8392,39.94160548832156
2468.1966,40.163415130357066
2469.5533,37.68010960617437
2470.9093,38.09163838270092
2472.2645,50.097950550063274
2473.6191,43.89899481747216
2474.973,36.89471939315831
2476.3262,41.73507204636314
2477.6787,48.42000017738121
2479.0305,47.69945076915678
2480.3816,46.97337032043447
2481.7319,35.14170485296472
2483.0816,43.95439991876458
2484.4306,44.46140071843422
2485.7789,44.96265201302981
2487.1264,44.4580981189938
2488.4733,44.74768290314273
2489.8195,43.081349787712156
2491.165,41.90904174746129
2492.5097,39.030701326335816
2493.8538,39.346270649191865
2495.1972,38.555691450578024
2496.5398,44.858905071581034
2497.8818,41.65585246773071
2499.2231,54.94647414596807
2500.5637,44.48071019667623
2501.9035,45.50850016077368
2503.2427,38.7297831343725
2504.5812,49.54449775849946
2505.919,49.552582286884444
2507.256,45.95397447781238
2508.5924,44.99861159404293
2509.9281,50.58643043879613
2511.2631,48.21736736530647
2512.5974,45.791358220943835
2513.9309,52.45833837090481
2515.2638,49.96824272247284
2516.596,50.57100565834787
2517.9275,48.816561061547645
2519.2583,50.95484230938007
2520.5884,56.23578229098803
2521.9178,51.059313385966334
2523.2465,59.775367411552224
2524.5745,50.38387567439031
2525.9018,52.234768883371885
2527.2284,49.97797724354973
2528.5543,49.91343043762913
2529.8796,53.14105764853582
2531.2041,55.810787560061385
2532.5279,54.92254832458741
2533.851,59.526267536387536
2535.1735,62.07187224051063
2536.4952,60.5092888867423
2537.8163,59.738443304149996
2539.1366,56.2092607167084
2540.4562,55.17166575100816
2541.7752,53.87558247154789
2543.0935,51.92093439110937
2544.411,53.20764448371875
2545.7279,62.53563520419317
2547.0441,65.1548284752734
2548.3596,59.41514559434387
2549.6744,58.51650720724132
2550.9885,56.7588333656509
2552.3019,69.79204353609356
2553.6146,65.96605661750192
2554.9266,65.48079081088804
2556.2379,59.73616365760364
2557.5485,67.63209204419269
2558.8585,63.968492259837774
2560.1677,64.5452799174007
2561.4762,65.01236999005903
2562.7841,65.41967680553734
2564.0913,73.11711404143665
2565.3977,63.45459472116141
2566.7035,65.48203113694524
2568.0086,66.99933494647593
2569.313,77.40641715262097
2570.6167,63.85318808825491
2571.9197,63.189557312188526
2573.222,75.7154337447007
2574.5236,72.88072567417515
2575.8246,76.43534063184154
2577.1248,76.67918542012222
2578.4244,75.3121660770866
2579.7232,72.68418787401203
2581.0214,81.6951553290549
2582.3189,83.19497223352982
2583.6157,87.53354156180058
2584.9118,84.0607654562807
2586.2072,90.2265451840488
2587.5019,86.5807811715759
2588.7959,84.97337294306755
2590.0893,99.45421915692185
2591.3819,98.9232176218033
2592.6739,95.38026515183469
2593.9652,109.07525757190689
2595.2557,104.00808975310804
2596.5456,108.27865547577403
2597.8348,110.83684748015997
2599.1234,101.13255742373468
2600.4112,117.66567585559892
2601.6983,115.1360923135286
2602.9848,114.09369515864256
2604.2705,110.83837160069828
2605.5556,117.62000770851665
2606.84,114.73848844253473
2608.1237,115.79369758698988
2609.4067,116.0355177787348
2610.689,119.06383049668517
2611.9707,110.77851605940202
2613.2516,117.97945359480838
2614.5319,115.36652112304199
2615.8115,110.38959548444655
2617.0903,111.19855236570078
2618.3685,111.14326634958746
2619.6461,116.97361090690424
2620.9229,120.53945839701629
2622.199,119.09068000955256
2623.4745,121.82714572874801
2624.7493,111.94872434793064
2626.0234,116.80528344215753
2627.2968,123.14668946699868
2628.5695,118.82280770997136
2629.8415,119.08350222712636
2631.1128,117.9286358862862
2632.3835,127.95807036443898
2633.6535,122.02166615928661
2634.9228,121.61928248895026
2636.1914,123.95077735133486
2637.4593,121.91600752815282
2638.7265,120.21482856160878
2639.9931,124.24709477474784
2641.259,121.26265928846664
2642.5242,123.91137398119116
2643.7887,122.34308951872083
2645.0525,120.35765532774172
2646.3156,117.90491961150906
2647.5781,115.23472936970165
2648.8398,111.89693042294965
2650.1009,100.99136743953608
2651.3613,121.4178839687749
2652.6211,115.57632255006666
2653.8801,117.566524508633
2655.1385,114.2883300139327
2656.3961,124.49157805975943
2657.6531,118.67610649702334
2658.9094,117.7917519317192
2660.1651,120.28834978308089
2661.42,124.81573429242479
2662.6743,126.02373849818417
2663.9279,130.8621941906349
2665.1808,129.2809318998158
2666.433,134.22978084714367
2667.6846,131.00856896122622
2668.9354,134.01712282837343
2670.1856,146.0552677248097
2671.4351,152.37282758658864
2672.6839,142.8696248892113
2673.9321,145.59548058445057
2675.1795,147.45021419538335
2676.4263,144.58364378913183
2677.6724,151.7955859583165
2678.9179,150.53585584972183
2680.1626,152.20426709217594
2681.4067,145.6006318091492
2682.6501,156.27476060206897
2683.8928,151.67646261635713
2685.1348,148.7055454346874
2686.3761,145.71181512296948
2687.6168,137.84507626005774
2688.8568,136.10513196768846
2690.0961,137.1917839891475
2691.3348,128.7548327066699
2692.5727,127.64407713057278
2693.81,133.8593149836252
2695.0466,136.60034271215574
2696.2826,132.71695542390012
2697.5178,123.40894686059079
2698.7524,128.52610943679093
2699.9863,125.91823433297424
2701.2195,132.23511144435366
2702.452,136.37652940695983
2703.6839,131.64227553447228
2704.9151,142.8821357768055
2706.1456,154.74589476745143
2707.3755,152.7833357110809
2708.6046,161.44424026490606
2709.8331,167.22838855830554
2711.0609,175.235559106216
2712.2881,182.21552875129026
2713.5145,188.01807258382559
2714.7403,202.04296387196422
2715.9654,210.13997400366787
2717.1899,212.70887234646887
2718.4136,234.14942616649984
2719.6367,243.46140060280504
2720.8591,249.24455845293443
2722.0809,262.3486600798244
2723.3019,266.2234633539658
2724.5223,281.91872352236305
2725.7421,277.68419316978657
2726.9611,283.4196220618191
2728.1795,283.32475718720224
2729.3972,279.4993427004813
2730.6142,265.1431199229545
2731.8306,249.95582738092662
2733.0462,236.5372009492715
2734.2612,205.68697400330495
2735.4756,201.80487755297077
2736.6892,184.69064055134317
2737.9022,168.74398993344795
2739.1145,152.41465078740475
2740.3262,142.2023465138932
2741.5372,125.50679898944708
2742.7475,118.07772866857664
2743.9571,109.71485475072461
2745.1661,86.4678952545566
2746.3744,82.08656710158976
2747.582,76.52058634866262
2748.7889,64.91966823174783
2749.9952,61.13352722161267
2751.2008,48.31187713982786
2752.4057,52.05443119662891
2753.61,46.660902119132686
2754.8136,42.731002113911984
2756.0165,33.76444292093083
2757.2188,32.56093585284344
2758.4204,37.52019188465988
2759.6213,34.841921665781115
2760.8215,31.82583547040616
2762.0211,32.32164322431544
2763.22,28.079054535030764
2764.4182,14.597778686858192
2765.6158,16.327524683313186
2766.8127,15.468001381933675
2768.009,6.268917476982551
2769.2045,0.6799815080426583
2770.3994,0.10090195200837115
2771.5936,1.881387278973932
2772.7872,-6.228855048976925
2773.9801,-9.430117588574205
2775.1723,-18.972630670286264
2776.3639,-16.45653041770663
2777.5548,-21.631763417848788
2778.745,-18.64811185698767
2779.9346,-14.455141820082076
2781.1235,-10.902233097453575
2782.3117,-16.43862107255717
2783.4992,-14.913432215539444
2784.6861,-10.675628774722497
2785.8723,-5.874024013240955
2787.0579,-0.10732454469774666
2788.2428,1.4758216988037134
2789.427,8.276766786233509
2790.6106,7.09686277180333
2791.7935,27.03746162695768
2792.9757,30.599915252172764
2794.1573,48.83557527755033
2795.3382,54.44579302719325
2796.5184,66.18191933684864
2797.698,79.2453044978065
2798.8769,89.18729813953769
2800.0551,103.85924909906043
2801.2327,125.76250532152005
2802.4096,137.64841371346915
2803.5859,154.96831992383568
2804.7615,180.82356822506335
2805.9364,204.71550133991258
2807.1106,227.69546018290885
2808.2842,252.66478362142277
2809.4572,284.72480824587
2810.6294,318.47686812001916
2811.801,356.8222944603906
2812.972,391.3624152987361
2814.1423,428.24855509858526
2815.3119,477.8320344098436
2816.4808,515.3641694999313
2817.6491,564.6962718579488
2818.8167,607.479647819355
2819.9837,654.8655980726462
2821.15,697.6554172315224
2822.3157,740.100393361027
2823.4807,801.3018075496507
2824.645,825.3109334848787
2825.8086,864.1790368411802
2826.9716,902.4573750399151
2828.134,944.397196860653
2829.2957,970.5997420583908
2830.4567,1006.5662409441534
2831.617,1020.347914122969
2832.7767,1014.845972134203
2833.9358,1026.5616153137425
2835.0941,1002.0460338490151
2836.2519,996.8004076618322
2837.4089,979.6259066535455
2838.5653,970.1736907575026
2839.7211,961.7449101107928
2840.8761,966.3407051487683
2842.0306,993.5622066893329
2843.1843,1022.3105358869832
2844.3374,1067.7868039605944
2845.4899,1130.2921119059365
2846.6417,1191.4775500409112
2847.7928,1256.1941973804996
2848.9433,1345.7431210249079
2850.0931,1428.2753755124002
2851.2422,1503.4420019238096
2852.3907,1558.994027057216
2853.5385,1617.6324626762794
2854.6857,1679.7583049547197
2855.8323,1735.8225338899329
2856.9781,1770.576112681731
2858.1233,1825.469987171703
2859.2679,1865.6050854956754
2860.4118,1918.2323175347756
2861.555,1947.9025745140807
2862.6976,1977.566728476345
2863.8395,2000.1256319852964
2864.9808,2037.7301178289968
2866.1214,2053.1809987942515
2867.2614,2065.9790672905647
2868.4007,2078.475095195631
2869.5393,2083.2198337273558
2870.6773,2083.364013318892
2871.8146,2120.2583435711954
2872.9513,2111.2035132515807
2874.0874,2107.7501899247814
2875.2227,2091.899020043494
2876.3574,2085.3006289829164
2877.4915,2049.8556211992545
2878.6249,2035.864580295709
2879.7577,2007.1780693769238
2880.8898,1985.6966311888996
2882.0212,1978.6707884058535
2883.152,1957.4010438450398
2884.2821,1937.8878805370032
2885.4116,1929.4317619382794
2886.5405,1930.3831321265245
2887.6686,1941.5424158850785
2888.7962,1939.5600186934494
2889.923,1931.2863266157228
2891.0493,1959.321706320382
2892.1748,1976.9665051630493
2893.2997,1985.021050906129
2894.424,2010.6856515423615
2895.5476,2029.660595214277
2896.6706,2051.846149957549
2897.7929,2078.592563511246
2898.9145,2104.050063095975
2900.0355,2133.4688551464164
2901.1559,2178.2491250567523
2902.2756,2205.8410368864743
2903.3946,2239.2447329125853
2904.513,2255.1103333536767
2905.6308,2292.387936035893
2906.7479,2314.877616234275
2907.8643,2337.2294262999876
2908.9801,2343.1433954354166
2910.0953,2351.3695294706545
2911.2098,2356.057810804362
2912.3236,2343.8081983215034
2913.4368,2327.8706273464654
2914.5494,2330.245009765554
2915.6613,2296.731234186368
2916.7725,2258.0791659140573
2917.8831,2226.088647286459
2918.9931,2195.40949806062
2920.1024,2183.341515732701
2921.211,2174.034475844768
2922.319,2135.988132105473
2923.4264,2128.302216483122
2924.5331,2111.876439586141
2925.6391,2102.960490739934
2926.7445,2106.904038151142
2927.8493,2082.6067289967996
2928.9534,2082.3681893849034
2930.0569,2088.7880245973815
2931.1597,2092.265819092481
2932.2619,2076.301136440569
2933.3634,2075.0435192893556
2934.4643,2068.342489523539
2935.5645,2037.097548277382
2936.6641,2001.1581760017243
2937.763,1955.7738327764296
2938.8613,1930.84395866978
2939.959,1859.117974192319
2941.056,1802.7452805461526
2942.1523,1719.9752603422062
2943.248,1634.407278163953
2944.3431,1541.1906813951139
2945.4375,1459.674801075338
2946.5313,1343.8089528323676
2947.6244,1242.3424376971984
2948.7169,1150.174543262735
2949.8087,1050.30454469846
2950.8999,972.9817056721097
2951.9904,893.4552793483756
2953.0803,816.3245091621332
2954.1696,754.6386296137038
2955.2582,710.0468670401656
2956.3462,654.6984402322101
2957.4335,633.5425608800609
2958.5202,597.0284341269569
2959.6062,574.7552587807126
2960.6916,564.7722276788578
2961.7764,541.5285279113698
2962.8605,529.0233409205042
2963.9439,527.8558427332316
2965.0267,515.2752040862889
2966.1089,502.7805904378557
2967.1905,506.92116209335916
2968.2714,512.8960743304211
2969.3516,505.5544773574518
2970.4312,516.9955162539011
2971.5102,515.1683310436742
2972.5885,514.4220565807221
2973.6662,518.8058225673121
2974.7432,522.8687535614908
2975.8196,522.2099689332476
2976.8954,515.8785828238847
2977.9705,509.42370415260484
2979.045,500.59443667982487
2980.1188,477.8898790717253
2981.192,482.0591249885423
2982.2645,452.65126331161287
2983.3364,419.96537810168377
2984.4077,404.4005488929889
2985.4783,380.0058510201088
2986.5483,358.1303557736186
2987.6177,321.2731306440346
2988.6864,290.08323954057045
2989.7545,268.8097431597082
2990.8219,233.80169929709803
2991.8887,200.50816306029333
2992.9548,176.47818721883033
2994.0204,153.01082253716413
2995.0852,129.25511801496805
2996.1495,103.41012112180749
2997.2131,89.37487803469696
2998.276,78.84843389655015
2999.3383,58.27983295653195
3000.4,43.21811867532301
3001.4611,38.612333930806415
3002.5215,28.961521168683817
3003.5812,9.114722448534167
3004.6404,9.720979540321025
3005.6989,2.2293341228611894
3006.7567,-4.21117222223819
3007.8139,-7.851497935663019
3008.8705,-4.992559388488928
3009.9264,-14.635194515327328
3010.9818,-1.030191375121774
3012.0364,-9.578191821222788
3013.0905,-15.37982741536905
3014.1439,-9.435634033163353
3015.1966,-4.39599390573278
3016.2487,-6.011195002220802
3017.3002,5.118518624208377
3018.3511,7.24296297222827
3019.4013,14.011953989327708
3020.4509,10.025307550566026
3021.4998,17.28283939088311
3022.5481,20.53436514496599
3023.5958,24.579700274673712
3024.6428,30.96866003652144
3025.6892,31.30105944122778
3026.735,44.37671318982461
3027.7802,48.24543567033368
3028.8247,53.35704082700943
3029.8685,67.81134212165239
3030.9118,61.958152482492665
3031.9544,78.39728415964737
3032.9963,81.0785487836522
3034.0376,95.40175720107027
3035.0783,100.76671944767952
3036.1184,113.87324460524081
3037.1578,116.97114074784758
3038.1966,122.36021481086124
3039.2348,132.64027255993176
3040.2723,130.46111853710738
3041.3092,131.12255595803367
3042.3455,133.67438673374517
3043.3811,138.61641146405094
3044.4161,134.09842941201651
3045.4505,126.92023845454361
3046.4842,129.53163512754952
3047.5173,127.18241469774927
3048.5498,122.02237113654184
3049.5816,121.40129714350178
3050.6128,121.46898419798043
3051.6434,112.87522256531622
3052.6734,118.06980129615795
3053.7027,112.45250831240224
3054.7314,106.02313035524782
3055.7594,108.3814530413685
3056.7868,106.72726092720677
3057.8136,103.41033748539087
3058.8398,97.73046512127632
3059.8653,99.18742520611539
3060.8902,106.88099813385594
3061.9145,97.31096330657147
3062.9381,103.52709905752559
3063.9612,100.97918274687251
3064.9835,93.91699069949561
3066.0053,87.69029823048629
3067.0264,84.49887971576618
3068.0469,79.09250865435402
3069.0668,81.07095770028005
3070.086,72.53399871664942
3071.1046,72.08140275585785
3072.1226,67.4629401449611
3073.1399,60.47838049020109
3074.1567,51.97749272319038
3075.1727,46.11004517075801
3076.1882,47.075805639958105
3077.203,39.62454147674438
3078.2173,34.50601955631282
3079.2308,26.420006357614
3080.2438,22.866268014538605
3081.2561,18.29457039677723
3082.2678,16.654679145357903
3083.2789,7.846359718362947
3084.2893,11.619377407328074
3085.2991,7.873497425325439
3086.3083,1.1084848692336209
3087.3169,2.2741047571961985
3088.3248,1.3201220962720583
3089.3321,0.39630187077909795
3090.3388,-3.1475909481659414
3091.3449,-1.11179534850217
3092.3503,-3.3965188737351752
3093.3551,-9.05195796053502
3094.3593,-3.328275114348372
3095.3629,-5.425542411561963
3096.3658,-7.5437986790942375
3097.3681,1.9169714573049816
3098.3698,-2.2931412655654526
3099.3708,-1.2740461300762433
3100.3713,-3.1256295101168803
3101.3711,0.5522349481439903
3102.3702,-0.7902951764235127
3103.3688,-0.4030678217765171
3104.3667,3.264076969176699
3105.364,-0.6386968198247871
3106.3607,2.6387747623174675
3107.3568,2.446662047283098
3108.3522,3.635135340364002
3109.347,6.00436492238552
3110.3412,8.554521037821615
3111.3348,10.335773871102731
3112.3277,8.648293521114155
3113.32,9.64224998338345
3114.3117,12.76781316695535
3115.3028,13.775152884452126
3116.2932,15.264438820818015
3117.2831,15.935840523245773
3118.2723,15.039527386283865
3119.2608,18.22566864512237
3120.2488,20.844433384556197
3121.2361,16.195990507123682
3122.2229,20.38050870691883
3123.209,22.29815651607585
3124.1944,26.749102262923856
3125.1793,24.883514052810483
3126.1635,25.50155972359238
3127.1471,30.703406864291196
3128.1301,31.03922280891325
3129.1125,29.559174584430792
3130.0942,31.263428907423986
3131.0753,31.152152198881268
3132.0558,39.47551056715686
3133.0357,34.733669809083494
3134.015,37.4767953267388
3134.9936,34.65505217486373
3135.9716,33.06860503343131
3136.949,36.11761823586406
3137.9258,39.15225578489848
3138.902,41.57268132209495
3139.8775,42.279058097491294
3140.8524,40.571548945398554
3141.8267,40.200316277337244
3142.8004,44.7655220991124
3143.7735,46.51732801452593
3144.7459,44.25589517972456
3145.7178,49.431384285681695
3146.689,52.19395558081183
3147.6596,53.4437688192157
3148.6295,53.03098323305443
3149.5989,54.005757520051525
3150.5676,52.56824984762066
3151.5357,55.21861784311795
3152.5032,54.60701860821703
3153.4701,55.2336086924054
3154.4364,60.1485440991003
3155.402,58.85198027938298
3156.367,59.4940720828492
3157.3315,60.124973770574954
3158.2952,60.64483900869556
3159.2584,60.80382086209654
3160.221,60.90207178921511
3161.1829,64.38974364045022
3162.1442,64.21698765718016
3163.105,67.03395443688574
3164.065,68.19079393487793
3165.0245,65.73765543612816
3165.9834,68.12468754369989
3166.9416,74.00203820328005
3167.8993,72.5198546793087
3168.8563,74.3782834962055
3169.8127,74.72747045319157
3170.7684,73.2175606057052
3171.7236,76.29869826190999
3172.6782,79.52102699779391
3173.6321,77.63468962635794
3174.5854,78.8898281653928
3175.5381,80.38658385634233
3176.4902,84.37509715175203
3177.4417,82.85550770030162
3178.3926,85.42795430691979
3179.3428,84.69257494798018
3180.2924,83.49950674557684
3181.2415,87.99888597487808
3182.1899,87.3908480760571
3183.1377,89.67552760929829
3184.0848,86.60305826087752
3185.0314,96.57357282031535
3185.9773,93.7372032111018
3186.9227,92.69408039099112
3187.8674,96.44433438036555
3188.8115,95.28809427266646
3189.755,95.92548819689188
3190.6979,101.8566433291589
3191.6402,95.1316858863297
3192.5818,101.80074106670003
3193.5229,101.8639331172487
3194.4633,102.02138526694716
3195.4031,101.77321972612744
3196.3423,99.66955768490774
3197.2809,105.0605193156741
3198.2189,106.64622379411688
3199.1563,108.12678924532125
3200.0931,107.80233272791014
3201.0292,110.52297021923852
3201.9648,110.08881661863802
3202.8997,112.44998572021056
3203.834,115.35659021716987
3204.7677,116.25874167822974
3205.7008,113.8565505185381
3206.6333,112.65012599065543
3207.5652,115.78957620857659
3208.4964,116.32500815979529
3209.4271,118.85652767390931
3210.3571,121.28423941726635
3211.2865,121.75824686764881
3212.2154,123.97865228999667
3213.1436,122.2455567316674
3214.0712,123.55906000023194
3214.9982,129.16926068080556
3215.9246,122.07625612291301
3216.8503,124.9801423843863
3217.7755,124.13101430229489
3218.7001,129.42896546390674
3219.624,127.42408821517964
3220.5473,132.2664736077817
3221.4701,132.9062114191401
3222.3922,134.24339010401718
3223.3137,136.3280967881132
3224.2346,136.56041725469453
3225.1549,135.8404359237465
3226.0746,136.66823584965016
3226.9937,137.04389872838215
3227.9121,141.36750488923684
3228.83,140.38913329106947
3229.7473,141.25886147906022
3230.6639,145.32676559449786
3231.5799,140.8429203660825
3232.4954,142.15739906924648
3233.4102,147.02027357099294
3234.3244,143.78161431675096
3235.238,146.84149028174681
3236.151,150.2499690033906
3237.0634,152.15711655067742
3237.9752,151.3629974901027
3238.8864,152.3676748665907
3239.797,151.2212102114355
3240.7069,150.9236635322545
3241.6163,155.07509332445295
3242.5251,155.92555657419953
3243.4332,154.32510871691176
3244.3408,155.0738036287516
3245.2477,158.0216936426299
3246.154,158.41882954071937
3247.0598,156.66526052497568
3247.9649,157.1610342131662
3248.8694,158.4061966564056
3249.7733,161.55079233419826
3250.6766,163.74486414198648
3251.5793,164.7384533597047
3252.4814,165.28159962983847
3253.3829,166.32434094748885
3254.2838,166.11671365494084
3255.1841,169.90875243123594
3256.0838,166.20049029424843
3256.9829,169.64195856276504
3257.8814,168.68318689356755
3258.7792,170.9242032470181
3259.6765,172.06503389664675
3260.5731,172.30570340674157
3261.4692,173.64623462094016
3262.3647,173.536648659823
3263.2595,172.92696490750814
3264.1538,173.41720101274703
3265.0474,172.80737289502142
3265.9404,175.59749473964098
3266.8329,179.53757900384159
3267.7247,174.17763638888422
3268.616,178.81767580065394
3269.5066,175.9577044032595
3270.3966,179.94772757263274
3271.286,181.68774892512846
