RamanShift,CorrectedData
30.1047,147.9372129436586
32.3739,136.30043284553113
34.6426,128.5636512680315
36.9109,117.17686536878323
39.1787,102.74007101977334
41.4461,93.00326292122013
43.7131,84.36643474594109
45.9796,72.02957923672109
48.2456,61.592688292680606
50.5112,48.70575309264433
52.7764,39.21876419950999
55.0411,30.131711689117836
57.3054,17.394585245120425
59.5692,6.157374249853204
61.8326,-4.329932088294239
64.0955,-10.967344622506044
66.3579,-20.454830949944817
68.6199,-29.69224910400037
70.8815,-35.97925277430138
73.1426,-35.71519902490796
75.4032,-22.749085487145095
77.6634,24.92044700250048
79.9231,141.894984870906
82.1824,415.9261142957442
84.4412,899.4154200357382
86.6995,1521.56448269035
88.9574,2129.8248738648867
91.2148,2579.598149949012
93.4717,2772.93584603414
95.7282,2805.539471415704
97.9842,2808.060507659778
100.2398,2783.250408277042
102.4949,2754.1105986975713
104.7495,2706.592476518936
107.0036,2672.997411797602
109.2573,2606.42674752411
111.5105,2545.431799959025
113.7632,2481.963859298647
116.0154,2414.4741902849573
118.2672,2346.9640328402984
120.5185,2278.384602742271
122.7693,2216.5870922988356
125.0197,2156.9726710341083
127.2696,2091.0424863063317
129.519,2059.4476639040245
131.7679,2024.1393087052793
134.0163,2003.1185049937121
136.2642,1980.1863168115467
138.5117,1972.293788169821
140.7587,1927.7419432777103
143.0052,1901.8817866214524
145.2512,1867.2643034098655
147.4967,1812.4904598329506
149.7417,1767.461203408066
151.9863,1724.5274635276644
154.2304,1709.4901519095877
156.4739,1689.400163026403
158.717,1690.1583742557766
160.9596,1692.6656460813733
163.2017,1679.1728220852738
165.4433,1685.9307289229023
167.6844,1668.8401764579557
169.925,1642.751957694824
172.1651,1581.1168489494944
174.4047,1546.7356101104365
176.6439,1513.7089852549502
178.8825,1482.6377029929804
181.1206,1455.7724767973818
183.3582,1435.5140053146324
185.5954,1425.3629726334862
187.832,1400.7200484875561
190.0681,1387.3358883568271
192.3037,1386.6111337140824
194.5388,1363.396412158747
196.7734,1374.6423374241342
199.0075,1358.2495096095947
201.2411,1380.4185150680553
203.4742,1374.6499265699476
205.7068,1363.0943030815208
207.9389,1373.9521898225228
210.1704,1371.32411838176
212.4015,1348.1106066085167
214.632,1338.9621586388375
216.862,1329.0292651276595
219.0915,1323.0624033402996
221.3205,1328.6620372517823
223.549,1315.828617606508
225.777,1302.6625818622572
228.0044,1291.3643543185246
230.2314,1276.5343462481799
232.4578,1261.522956010449
234.6837,1233.3305691992155
236.909,1222.3575587931334
239.1339,1201.904285437552
241.3582,1179.7710975542445
243.582,1155.9583315459417
245.8053,1167.166312017665
248.0281,1153.34535201485
250.2503,1143.6957529112724
252.472,1125.5178045472535
254.6932,1124.7617853261572
256.9139,1118.22796239617
259.134,1113.4165916578604
261.3536,1117.4279178295178
263.5727,1129.212174495266
265.7912,1141.7695840649512
268.0092,1163.5003576562963
270.2267,1191.2046949693313
272.4436,1213.182784069081
274.6601,1200.4348011085244
276.8759,1204.9609101088142
279.0913,1211.4112630867546
281.3061,1191.7360000095423
283.5204,1204.7852487302616
285.7341,1208.8591251846378
287.9473,1214.6577332605432
290.16,1191.1311647572593
292.3721,1182.6794993274912
294.5837,1149.0528047126315
296.7947,1106.901136827279
299.0052,1087.724540095504
301.2152,1075.2730478723674
303.4246,1069.496682635685
305.6334,1050.895456110542
307.8418,1021.4693693270594
310.0495,987.9184128064023
312.2568,969.5925668550431
314.4635,922.0918019002702
316.6696,893.5660786734468
318.8752,853.1653486850187
321.0802,821.9395545097709
323.2847,816.2386301908364
325.4887,813.2625015519518
327.692,802.5110862544684
329.8949,813.0842938271132
332.0972,835.2820257735018
334.2989,841.8041754664077
336.5001,832.5006279257841
338.7007,814.4212597535438
340.9008,778.715939226593
343.1003,738.7845264776258
345.2992,692.6768738521778
347.4976,662.4928263079389
349.6955,636.0822218758319
351.8927,616.444891961851
354.0895,596.680661611169
356.2856,596.1393497045101
358.4812,573.320769155792
360.6763,565.67472691754
362.8707,551.5510242090722
365.0646,547.7494565929605
367.258,533.9198141162674
369.4508,528.1118813485614
371.643,542.275437520213
373.8346,558.5102565804746
376.0257,573.9661070558452
378.2162,586.2927518877211
380.4062,588.989948277839
382.5956,553.8574475650073
384.7844,531.7449951981371
386.9726,494.5023310875638
389.1603,470.5291898261737
391.3474,454.32530106183094
393.5339,450.44038973710735
395.7199,436.32417625132257
397.9052,455.92637649939275
400.09,473.9967020129925
402.2743,496.68485976453303
404.4579,509.2905519864596
406.641,522.3634759443698
408.8235,552.4033238109562
411.0054,602.3597825352767
413.1868,657.3325335423572
415.3675,713.7712522336262
417.5477,716.7256074371878
419.7273,649.0452608434337
421.9064,553.3298669755004
424.0848,499.8290738660726
426.2627,447.0925240145366
428.4399,401.66985492198864
430.6166,376.01069961860026
432.7928,333.3146871178453
434.9683,299.43144267309026
437.1432,284.31058820455655
439.3176,265.65174263815106
441.4914,242.6045220566748
443.6645,247.41853988641242
445.8371,245.9934071276041
448.0091,240.0787323063048
450.1806,233.87412148863655
452.3514,224.8291783399336
454.5216,202.8435041867906
456.6913,198.41669810751
458.8603,209.34835715195982
461.0288,208.4380763858419
463.1967,197.13544878137532
465.3639,210.49006522639843
467.5306,185.7515146373962
469.6967,182.819383825954
471.8622,164.9432577461414
474.0271,158.3227195238353
476.1914,159.80735063548127
478.3551,156.24673097429786
480.5182,141.44043883543168
482.6807,156.8880509515625
484.8426,166.33914264096666
487.0039,191.84328765303985
489.1647,211.8000580737878
491.3248,239.60902407078402
493.4843,242.56975369360111
495.6432,233.1318125957223
497.8015,207.64476400493368
499.9592,188.15816881770343
502.1163,156.77158585405323
504.2728,126.08457205242257
506.4287,108.79668278353643
508.5839,98.30747215727388
510.7386,93.86649319554817
512.8927,89.12329793719823
515.0461,94.8274374824
517.199,105.92846204009629
519.3512,124.825920870956
521.5029,171.26936217636444
523.6539,201.35833290944856
525.8043,202.84237831064206
527.9541,167.32104160679592
530.1033,129.843863996339
532.2519,101.11038500448876
534.3999,79.4201428580252
536.5472,81.0226747726249
538.694,81.86751716976414
540.8401,90.35420566069274
542.9856,90.13227503798635
545.1305,89.75125919068
547.2748,96.61069110648577
549.4185,104.26010287560462
551.5615,107.24902562213174
553.704,112.32698942756019
555.8458,129.8435233008945
557.987,139.69815512786954
560.1276,163.14041149578497
562.2675,191.2698175949606
564.4069,242.13589698431224
566.5456,262.9881713100576
568.6837,261.1261597970563
570.8212,215.5993790402863
572.958,160.8573430234644
575.0942,136.99956357431324
577.2299,117.72555091198274
579.3648,88.98481388562755
581.4992,77.52686016714802
583.6329,67.40119653859642
585.766,94.80732900675775
587.8985,116.64476290440575
590.0304,141.9630026162406
592.1616,160.11155136051616
594.2922,150.93991093585646
596.4222,128.4475815397709
598.5515,89.6840618603701
600.6802,66.3988493012896
602.8083,31.54144036932462
604.9358,33.41133090728272
607.0626,25.608016442557755
609.1888,30.53099216843043
611.3144,56.029497454097736
613.4393,63.05277136344694
615.5636,103.55005240007154
617.6873,136.8205784370382
619.8103,148.06358631191347
621.9327,154.77831149405915
624.0544,133.91398797220245
626.1756,103.2198481872872
628.2961,59.24512324111788
630.4159,55.789043203300935
632.5351,68.85083755099299
634.6537,44.87973520345986
636.7716,49.87496439145957
638.8889,43.7357528969535
641.0056,55.11132800315454
643.1216,61.35091655591759
645.237,63.90374484998529
647.3518,37.41903856659269
649.4659,26.096022747937468
651.5793,29.533922062027614
653.6922,24.081960915911168
655.8043,20.08936342129755
657.9159,4.955353449077165
660.0268,0.5291546692476459
662.137,8.009941247824827
664.2466,12.096882064568263
666.3556,0.5391459191389458
668.4639,-1.664098509770838
670.5716,8.1863120704636
672.6786,1.1895575768105573
674.785,-12.555182155625516
676.8907,-17.898739175419678
678.9958,-11.791820104878298
681.1002,-15.63495275790342
683.204,-5.278547148115194
685.3072,-2.0728570959563513
687.4097,-7.268083689183868
689.5115,-8.764407307713782
691.6127,-8.36193572330626
693.7132,-0.4606891512942184
695.8131,1.4393957287284138
697.9123,1.2883822417741158
700.0109,6.486333698462886
702.1089,14.533313396530957
704.2061,18.829384568851765
706.3028,24.47461030296563
708.3987,42.169053498119865
710.4941,59.862776808815624
712.5887,57.555842467864295
714.6827,64.64831210944953
716.7761,57.890246792196876
718.8688,45.53170692824892
720.9608,48.12275235084621
723.0522,72.06344243791227
725.1429,78.95383608614384
727.233,106.14399147160361
729.3224,151.58396598081663
731.4112,175.72381593886848
733.4993,182.113596155006
735.5867,157.55335968123836
737.6735,117.84315774843913
739.7596,87.53304001194851
741.845,79.72305494867487
743.9298,87.06325016019741
746.014,101.25367245086477
748.0974,112.84436775439372
750.1802,113.63538099196558
752.2624,110.9267559563184
754.3439,100.66853530383719
756.4247,79.6607605816389
758.5048,78.00347233015623
760.5843,82.84671029321407
762.6631,101.24051343460337
764.7413,124.23491988964861
766.8188,181.97996678126947
768.8956,222.62568999003702
770.9718,254.62212357672342
773.0473,248.96929937584514
775.1221,247.01724667569738
777.1962,221.01599227488396
779.2697,250.96556050183608
781.3426,327.21597347482725
783.4147,360.3672508024747
785.4862,369.7194088212377
787.557,305.67246026390285
789.6271,235.2264141660637
791.6966,161.13127650658953
793.7654,96.7370509120866
795.8335,58.59373939784837
797.901,42.05134301179771
799.9678,45.05986221591991
802.0339,51.61929705168859
804.0993,48.57964710997862
806.1641,48.54091146547182
808.2282,47.90308870705485
810.2916,31.96617693820508
812.3544,26.230173783369423
814.4164,22.09507654733295
816.4778,31.260882272579806
818.5385,39.2775877806439
820.5986,59.645189580451415
822.658,91.71368378815293
824.7166,124.58306592344718
826.7747,178.90333058889632
828.832,224.97447114123167
830.8886,266.24647914815205
832.9446,287.6193439276126
834.9999,265.84305213510413
837.0545,225.96758754992413
839.1085,164.5929312929402
841.1618,127.06906222534474
843.2143,99.3459575624014
845.2662,80.37359324868248
847.3175,72.00194423530229
849.368,59.430984669639884
851.4179,60.9106879790545
853.467,65.2410269965967
855.5155,61.67197394621087
857.5633,73.8035003994313
859.6105,68.83557731107271
861.6569,66.06817489791581
863.7027,60.75126268838574
865.7478,51.9848095502266
867.7922,33.368783743669496
869.8359,41.60315300909849
871.8789,31.037884753209937
873.9212,39.87294596666936
875.9629,43.908303329763726
878.0039,60.44392312405057
880.0441,62.17977119200543
882.0837,84.71581277166501
884.1226,95.25201247926861
886.1609,124.88833408389837
888.1984,142.22474040211569
890.2352,174.16119300159983
892.2714,182.3976520277813
894.3069,150.03407588447988
896.3416,130.1704211515388
898.3757,105.45664290846082
900.4091,94.09269493304521
902.4418,97.22852994852542
904.4739,114.1640997372084
906.5052,134.09935510911612
908.5358,121.03424573263044
910.5658,99.46871993514026
912.595,100.75272483369247
914.6236,77.3362065506476
916.6515,58.11911020083937
918.6786,40.85138012573975
920.7051,47.882960085629975
922.7309,48.513793432277566
924.756,43.293823038620644
926.7804,59.3729912924598
928.8041,57.101240148657666
930.8272,67.07851096834804
932.8495,79.15474454165246
934.8711,78.02988098790763
936.892,80.45385963490344
938.9123,90.77661903013109
940.9318,107.9980969165432
942.9506,116.5182301293263
944.9688,106.036954423687
946.9862,99.05420438964984
949.003,76.41991355687026
951.019,71.13401446446176
953.0344,66.59643888733945
955.0491,61.30711788907831
957.063,59.265981867289725
959.0763,56.772960606514744
961.0888,42.47798329863417
963.1007,48.330978567800116
965.1119,52.38187461338498
967.1223,39.4305991514517
969.1321,44.67707937424473
971.1412,42.071242079702984
973.1495,39.16301361899491
975.1572,48.05231992257677
977.1641,43.93908652927507
979.1704,50.42323849739387
981.1759,42.35470044584656
983.1808,36.53339648931467
985.1849,39.10925031893282
987.1884,36.2821852605025
989.1911,39.552124248732525
991.1932,53.21898985551036
993.1945,50.88270425720248
995.1951,46.193189097985965
997.1951,50.05036551321075
999.1943,50.25415417629563
1001.1928,44.60447526015639
1003.1906,52.70124843516692
1005.1877,60.3443929256573
1007.1841,78.8338274289448
1009.1798,85.56947003890332
1011.1748,78.95123806106915
1013.1691,78.17904794528408
1015.1627,59.50281535187753
1017.1556,27.422455159389415
1019.1477,33.93788165133162
1021.1392,16.14900883699204
1023.1299,14.955750386279988
1025.12,13.808019807615551
1027.1093,20.65573045986139
1029.0979,33.04879556380047
1031.0859,38.48712813365876
1033.0731,44.270640853174655
1035.0596,48.349246021216004
1037.0454,41.822855493944644
1039.0304,26.39138064403039
1041.0148,28.204732425914585
1042.9985,20.662821530125257
1044.9814,7.865558365143329
1046.9636,4.162853132821738
1048.9452,12.75461595635818
1050.926,15.190756917322233
1052.9061,33.22118596973746
1054.8855,30.09581291571999
1056.8642,35.7645472251744
1058.8421,35.07729806704731
1060.8194,30.783974252640405
1062.7959,30.3344842424832
1064.7717,39.47873618926553
1066.7469,35.86663794233323
1068.7213,34.14809695624467
1070.695,48.82302032689245
1072.6679,60.24131480868914
1074.6402,61.0028866678166
1076.6117,77.30764156804412
1078.5826,56.45548456311269
1080.5527,47.14631993368664
1082.5221,31.180051395875694
1084.4908,10.206582194327098
1086.4587,2.4758152618873055
1088.426,5.687653429337388
1090.3925,6.491999502700423
1092.3584,5.038756231123216
1094.3235,6.87782629883327
1096.2879,19.45911233967115
1098.2515,30.332516918699753
1100.2145,52.697942406390666
1102.1767,64.45529086989063
1104.1382,93.50446384936731
1106.099,125.34536224043597
1108.0591,136.77788600366762
1110.0185,170.20193384617983
1111.9771,194.36740310731216
1113.9351,222.32418942438483
1115.8923,260.17218649104484
1117.8488,281.1112857776975
1119.8045,248.74137615302675
1121.7596,197.01234367460438
1123.7139,152.07407191258892
1125.6675,106.8264424670158
1127.6204,103.36933541717974
1129.5726,120.1026297741115
1131.524,123.5262035151485
1133.4748,99.2899334166026
1135.4248,67.89369501952376
1137.3741,36.53736287206323
1139.3226,26.570810843435538
1141.2705,27.043912437482618
1143.2176,28.60654089233833
1145.164,34.90856917569772
1147.1097,33.69986996919113
1149.0546,18.680315605363262
1150.9989,8.899778079760495
1152.9424,5.2081292011260985
1154.8852,-3.344759310793961
1156.8272,-5.109015788335569
1158.7686,-4.134735149688936
1160.7092,-12.771961273977126
1162.6491,1.9793032656809828
1164.5883,4.3691834880593206
1166.5267,17.547804392139028
1168.4644,20.015290933209826
1170.4014,36.47176789108346
1172.3377,67.01735984541881
1174.2732,84.45219101115742
1176.2081,138.82638493306752
1178.1421,212.69006431139564
1180.0755,276.3933504581249
1182.0082,308.63636255833785
1183.9401,299.3192170331837
1185.8713,240.34202721744794
1187.8017,187.35490345272422
1189.7315,113.25795367718638
1191.6605,79.10128395545962
1193.5888,52.734999219590236
1195.5163,33.609203610611644
1197.4432,28.27400074220759
1199.3693,7.979493891969923
1201.2947,10.675786054750688
1203.2193,5.062980145607298
1205.1432,5.141178972838816
1207.0664,-2.989514705884517
1208.9889,-7.878998184304464
1210.9106,-3.777138890910919
1212.8316,-2.233725543002606
1214.7519,9.201490875739069
1216.6715,19.67878169655046
1218.5903,24.74841815865318
1220.5084,36.110671304481684
1222.4257,37.51581192898641
1224.3424,34.06411046601124
1226.2583,50.755836974242584
1228.1735,67.59126117172582
1230.0879,89.97065226894824
1232.0016,107.3942788004847
1233.9146,123.1624084012036
1235.8269,142.57530763203113
1237.7384,145.2332418222694
1239.6492,137.73647487546737
1241.5592,147.635269242842
1243.4686,179.62988599824553
1245.3772,220.82058473917812
1247.285,263.25762326684116
1249.1922,310.2412571742303
1251.0986,344.8217394217655
1253.0042,381.5493198674543
1254.9092,436.4742449210876
1256.8134,478.4967571769631
1258.7169,525.9670948646364
1260.6196,552.7354914286959
1262.5216,554.4021750540592
1264.4229,552.4673683982896
1266.3234,532.5812885749284
1268.2232,501.7441471728439
1270.1223,470.2561504550912
1272.0207,450.3174996672848
1273.9183,446.4783913524775
1275.8151,445.63901755054735
1277.7113,457.7495658365888
1279.6067,506.2102193293066
1281.5014,605.9711565699105
1283.3953,686.1825510375081
1285.2885,789.2945701514956
1287.181,872.4573744694442
1289.0727,900.1711166559799
1290.9637,863.9859406511548
1292.854,818.8019813933104
1294.7435,740.9193651809289
1296.6323,692.288210124473
1298.5204,631.2586269252122
1300.4077,588.9307193615333
1302.2943,565.1045848992385
1304.1802,550.680315114822
1306.0653,529.5079959337327
1307.9497,519.8877077746166
1309.8333,506.6195257610405
1311.7162,493.55351981769394
1313.5984,468.83975480307157
1315.4798,467.8282906401333
1317.3605,460.0191825634413
1319.2405,466.2124811292753
1321.1197,456.5082322937236
1322.9982,425.9064773507497
1324.876,402.90725302923505
1326.753,351.96059179899646
1328.6293,304.16652210077825
1330.5048,250.97506885571926
1332.3796,207.38625394329375
1334.2537,181.75009673322512
1336.127,167.11661452137486
1337.9996,151.9358227861033
1339.8714,144.6577353346055
1341.7426,129.7823644547181
1343.6129,131.35972098770088
1345.4826,114.18981447699025
1347.3515,108.6226531524257
1349.2196,105.3582441019484
1351.087,99.39659332727376
1352.9537,99.4377057765343
1354.8197,108.38158540389696
1356.6849,113.77823516915191
1358.5493,114.87765694827368
1360.4131,120.7798514794543
1362.276,150.18481835210957
1364.1383,174.7425559478571
1365.9998,174.5030611464665
1367.8606,173.7163290802818
1369.7206,168.88235313661698
1371.5799,169.45112496562274
1373.4384,166.07263452862645
1375.2962,154.29687009244435
1377.1533,130.72381826316706
1379.0096,93.9534641039167
1380.8652,81.88579137057724
1382.7201,72.92078287949846
1384.5742,55.858420628172325
1386.4275,46.34868588488354
1388.2802,42.391559359332575
1390.132,38.237021297733236
1391.9832,28.635051522384003
1393.8336,30.085629473213316
1395.6832,21.738734303799163
1397.5322,19.39434486686372
1399.3803,16.002439797741545
1401.2278,10.162997537824083
1403.0745,6.725996368478604
1404.9204,4.241414469442589
1406.7656,3.759229953193767
1408.6101,1.2794208897958015
1410.4538,0.3519653117201642
1412.2968,-0.6231587613556826
1414.139,-2.645976825888056
1415.9805,6.833491847022572
1417.8213,8.215254419583914
1419.6613,27.449317985668984
1421.5006,39.83568955699826
1423.3391,59.324375870799315
1425.1769,83.21538326594305
1427.0139,125.15871748805671
1428.8502,173.85438345061397
1430.6858,210.30238481550145
1432.5206,217.50272350606224
1434.3547,219.3053993426156
1436.188,209.3104099704541
1438.0206,201.31775084181618
1439.8524,199.8274153158364
1441.6835,193.2393947384719
1443.5139,210.10367845740592
1445.3435,197.62025388792767
1447.1724,210.58910634429003
1449.0005,203.16021916454332
1450.8279,201.63357358084733
1452.6545,193.70914879375948
1454.4804,193.036921987502
1456.3056,192.11686840920555
1458.13,189.2989613756318
1459.9536,174.3831722823739
1461.7766,155.06947063203523
1463.5987,136.05782418338782
1465.4202,119.69819914450915
1467.2409,101.94056036289845
1469.0608,85.1348714890733
1470.88,76.48109515414603
1472.6984,57.879193137880236
1474.5161,44.82912645522913
1476.3331,37.48085554235371
1478.1493,33.73434038712435
1479.9648,40.03954060260253
1481.7795,35.896415464506845
1483.5935,38.40492384816059
1485.4067,41.365024269922856
1487.2192,44.12667486210398
1489.031,40.53983334336408
1490.842,42.90445699109671
1492.6522,46.52050267729726
1494.4618,40.2379268449169
1496.2705,47.35668547170144
1498.0785,30.876734133017862
1499.8858,28.29802793066642
1501.6924,36.07052165768039
1503.4981,31.744169824113385
1505.3032,26.168926579314075
1507.1075,26.59474575518965
1508.911,25.021580921958105
1510.7138,25.449385383890103
1512.5159,22.528112195040762
1514.3172,24.257714154971495
1516.1178,20.388143837962843
1517.9176,15.869353575718094
1519.7166,14.051295496059424
1521.515,15.133921568115625
1523.3126,13.117183620502772
1525.1094,10.851033330497785
1526.9055,7.785422244205847
1528.7008,0.6703017992222726
1530.4954,11.255623355288037
1532.2893,12.741338265441243
1534.0824,8.027397770163873
1535.8747,4.763752982524693
1537.6663,7.650354935318717
1539.4572,2.487154613703524
1541.2473,11.774102926333171
1543.0367,13.661150756990537
1544.8253,8.898248871717499
1546.6132,15.33534789994485
1548.4003,15.87239838212082
1550.1867,17.1593507053405
1551.9723,24.49615509797502
1553.7572,28.63276161680227
1555.5414,38.21912007363852
1557.3247,48.10517999397268
1559.1074,76.84089052110238
1560.8893,86.67620031727381
1562.6705,114.86105727632446
1564.4509,128.99540842532969
1566.2305,139.3291996427546
1568.0094,143.01237551711029
1569.7876,138.74487924361614
1571.565,135.12665258736752
1573.3417,130.3576359260113
1575.1176,136.63776828592802
1576.8928,146.216987389922
1578.6672,161.04522959441982
1580.4409,173.9724297936785
1582.2138,192.59852127150282
1583.986,211.07343557197362
1585.7575,228.84710231318638
1587.5282,249.51944900250243
1589.2981,260.590400858812
1591.0673,265.65988060581105
1592.8358,271.42780836129157
1594.6035,271.64410158644705
1596.3704,267.4086750281926
1598.1366,253.97144071700285
1599.9021,240.13230800926578
1601.6668,230.04118372165487
1603.4308,227.64797226952072
1605.194,234.80257576780244
1606.9564,243.30489405495925
1608.7182,272.5048246214249
1610.4791,314.05226252458425
1612.2394,354.547100096774
1613.9988,396.6892265298084
1615.7576,446.12852747003075
1617.5156,459.81488459689217
1619.2728,448.39817512855836
1621.0293,400.77827168504655
1622.785,347.355042402392
1624.54,293.3283514088479
1626.2942,243.09805935911663
1628.0477,186.7640239746177
1629.8005,156.32610054578979
1631.5525,124.08414249543156
1633.3037,107.98800168308063
1635.0542,87.48752872743333
1636.804,74.78257316730608
1638.553,61.57298366664011
1640.3013,56.608608141551
1642.0488,46.33929389242448
1643.7955,37.214887653560396
1645.5416,26.535235695865822
1647.2868,31.500183918099026
1649.0313,32.05957795366598
1650.7751,28.36326312097097
1652.5181,25.911084417822565
1654.2604,29.50288655839691
1656.0019,28.438513997759344
1657.7427,34.86781089594655
1659.4828,45.04062112861013
1661.222,63.156788222723634
1662.9606,74.66615525485457
1664.6984,94.16856467000258
1666.4354,100.66385816650603
1668.1717,92.10187650101753
1669.9072,73.43245942355122
1671.642,54.70544576310269
1673.3761,38.52067361434305
1675.1094,28.327980524888915
1676.8419,22.77720365715038
1678.5737,11.118179890257721
1680.3048,8.70074587556931
1682.0351,8.324738153261762
1683.7646,2.789993176504197
1685.4934,1.1963473152184179
1687.2215,2.0936369114263016
1688.9488,-1.9683017048136264
1690.6754,0.06036777562098905
1692.4012,1.379501325186368
1694.1263,3.338954915735144
1695.8506,2.4885845053250932
1697.5742,-2.1717539813755877
1699.297,2.757795355415624
1701.0191,-2.872889888696591
1702.7404,-0.46393214568550434
1704.461,-3.3154251473545457
1706.1808,3.3225420091749243
1707.8999,-2.8000866521211947
1709.6182,1.416632859507473
1711.3358,-4.077327492322894
1713.0527,0.11800424183755354
1714.7688,-1.2973592560595648
1716.4841,3.6765946947573696
1718.1987,1.4898917356788672
1719.9126,-1.0574425286704354
1721.6257,0.4346174914352332
1723.338,1.4161079495723925
1725.0496,-3.162935005028544
1726.7605,3.097524762701994
1728.4706,4.497554985554075
1730.18,2.7372233653426292
1731.8886,5.366597558907216
1733.5964,0.9357451957152989
1735.3036,4.6947338515683725
1737.0099,5.543631092910573
1738.7156,7.132504439238801
1740.4204,5.261421354613788
1742.1246,7.180449231771178
1743.8279,14.63965541083249
1745.5306,4.239107160114855
1747.2325,4.678871601539015
1748.9336,10.259015814634523
1750.634,10.279606832142434
1752.3336,10.090711584213608
1754.0325,9.842396898202963
1755.7307,10.834729500558382
1757.4281,18.46777601930367
1759.1247,10.491602974115779
1760.8206,11.056276699994015
1762.5158,17.411863427021842
1764.2102,13.458429274720146
1765.9039,13.446040188491196
1767.5968,14.974761979153044
1769.289,16.244660323063414
1770.9804,14.155800746832455
1772.6711,17.808248614623807
1774.361,15.852069149043217
1776.0502,13.487327394613885
1777.7386,17.214088237338558
1779.4263,18.13241642834663
1781.1132,15.942376546626718
1782.7994,17.194032989843294
1784.4849,17.137449996237223
1786.1696,20.022691632108945
1787.8535,16.84982179238466
1789.5367,20.568904171763563
1791.2192,17.880002296446776
1792.9009,20.23317948694647
1794.5818,19.178498884974843
1796.2621,19.416023429912414
1797.9415,16.045815869354826
1799.6202,21.667938756737456
1801.2982,21.482454485037678
1802.9755,24.789425230553476
1804.6519,22.18891295475835
1806.3277,19.43097937123163
1808.0027,21.565685971663555
1809.6769,21.343094053434612
1811.3504,19.763264698268443
1813.0231,21.826258774457898
1814.6951,22.83213695266309
1816.3664,21.130959685281837
1818.0369,20.37278719639039
1819.7067,25.55767949875559
1821.3757,22.985696401416405
1823.044,22.65689745783513
1824.7115,20.921341991617098
1826.3783,21.27908909979871
1828.0443,19.6801976702031
1829.7096,26.524726377862535
1831.3741,25.312733701007346
1833.0379,25.444277852620687
1834.701,21.0694167925585
1836.3633,25.438208226234025
1838.0248,27.100709648366262
1839.6856,24.406978299292376
1841.3457,23.107071148342285
1843.005,24.80104492077629
1844.6636,24.288956110783886
1846.3214,24.920860964544275
1847.9785,30.196815485347074
1849.6349,23.466875427273365
1851.2904,26.28109624243602
1852.9453,25.439533148279253
1854.5994,26.19224109943633
1856.2528,24.58927479614519
1857.9054,29.480688676721442
1859.5572,25.966536933587932
1861.2083,26.096873464360755
1862.8587,27.921751906990607
1864.5084,29.24122563845951
1866.1572,26.805347756532086
1867.8054,25.014171066560635
1869.4528,29.017748105844063
1871.0994,29.616131161539627
1872.7453,22.559372230627176
1874.3905,29.997523013925246
1876.0349,29.930634986658674
1877.6786,26.658759324077195
1879.3215,25.981946902124193
1880.9637,28.70024833015546
1882.6051,25.613713957707375
1884.2458,28.67239384731387
1885.8858,27.47633780537174
1887.525,26.225595351553892
1889.1634,25.670215730769925
1890.8011,30.31024792567345
1892.4381,29.69574066221601
1894.0743,29.37674236324669
1895.7098,30.853301154657245
1897.3446,29.575464868572055
1898.9786,28.49328102858246
1900.6118,27.85679686252523
1902.2443,28.616059313304348
1903.8761,30.17111504525589
1905.5071,31.12201043655537
1907.1374,30.46879156366714
1908.7669,28.211504191835573
1910.3957,27.55019378161711
1912.0237,28.634905511453184
1913.651,25.965684284283327
1915.2776,29.64257471669805
1916.9034,27.015621165631003
1918.5285,26.584867691590176
1920.1528,26.45035808492736
1921.7764,30.06213587014578
1923.3992,26.170244307245127
1925.0213,27.32472635560366
1926.6427,28.72562471289733
1928.2633,26.07298180355481
1929.8832,31.2168397647486
1931.5023,26.80724047292138
1933.1207,23.04422549234748
1934.7383,29.377836119228817
1936.3552,24.60811341932508
1937.9714,27.435098164617642
1939.5868,26.508830881006816
1941.2015,23.7293518200419
1942.8154,24.996700968183987
1944.4286,27.01091807460064
1946.041,28.372042638492488
1947.6528,27.030113888950993
1949.2637,23.485170771347285
1950.8739,22.187251960751368
1952.4834,24.7363958973816
1954.0921,27.032640799583774
1955.7001,23.72602463833985
1957.3074,23.116585114305337
1958.9139,21.754359690875575
1960.5197,25.7893856002801
1962.1247,26.07169985720489
1963.729,24.301339218442052
1965.3325,24.628340180066772
1966.9353,25.902738995140936
1968.5374,21.27457167044301
1970.1387,24.0938739537241
1971.7393,22.660681379989697
1973.3392,22.275029243306548
1974.9383,25.13695261113469
1976.5366,22.296486328183917
1978.1342,18.453664987794525
1979.7311,27.90852296034197
1981.3273,26.16109443166502
1982.9227,20.961413308517336
1984.5173,20.459513236041573
1986.1112,20.655427649766324
1987.7044,20.499189780625088
1989.2968,23.290832652997096
1990.8885,19.130389086269716
1992.4795,25.867891666922134
1994.0697,21.50337279012959
1995.6592,22.03686459238847
1997.2479,22.418398995161496
1998.8359,22.548007699542723
2000.4232,20.52572218244225
2002.0097,20.90157369529014
2003.5955,19.17559328425922
2005.1805,22.497811786506716
2006.7648,26.11825984743392
2008.3484,17.13696788746411
2009.9312,21.753966065838
2011.5133,20.769284370426604
2013.0946,17.332952571561364
2014.6752,17.895000231880843
2016.2551,23.055456740694126
2017.8342,16.96435130836035
2019.4126,20.12171291468414
2020.9902,22.02757036982665
2022.5672,22.48195228273201
2024.1433,25.034887042068675
2025.7188,24.13640281168557
2027.2935,20.286527505082788
2028.8674,21.13528879439643
2030.4406,21.582714148897324
2032.0131,19.12883082650343
2033.5849,20.923665869305623
2035.1559,21.067246128106476
2036.7261,19.059598244472
2038.2957,21.2507486492958
2039.8645,18.040723582875515
2041.4325,19.029549073001306
2042.9998,21.167250967056162
2044.5664,19.40385492212765
2046.1323,19.489386383630816
2047.6974,23.47387060294217
2049.2617,13.807332636544459
2050.8254,22.489797306181742
2052.3883,22.571289295524807
2053.9504,18.4018330633465
2055.5118,22.63145284270685
2057.0725,20.46017268264758
2058.6325,19.038016405895917
2060.1917,22.765007630577415
2061.7502,17.091169784437525
2063.3079,21.11652606757164
2064.8649,22.241099509163448
2066.4212,19.114912927231472
2067.9767,20.08798891738327
2069.5315,18.2603498840773
2071.0856,21.182018030892166
2072.6389,16.503015378803013
2074.1915,20.22336373696477
2075.7433,22.74308474950226
2077.2945,23.51219985830666
2078.8448,20.73073027783832
2080.3945,17.548696987435648
2081.9434,21.366120759129757
2083.4916,16.13302218946481
2085.039,17.54942166132382
2086.5857,16.26533939625962
2088.1317,20.98079544033081
2089.677,17.195809676942673
2091.2215,21.0104017796926
2092.7652,20.974591250219873
2094.3083,13.938397380059769
2095.8506,18.401839251001704
2097.3921,23.11493580545111
2098.933,19.87770580179503
2100.4731,19.39016776727128
2102.0124,16.002340030340562
2103.5511,22.264240725562004
2105.089,19.67588782747133
2106.6261,20.087299087961867
2108.1626,19.848492062168162
2109.6983,20.359484104351793
2111.2332,22.270292370289454
2112.7675,23.08093381216308
2114.301,19.141425159451686
2115.8337,21.101782910825023
2117.3657,19.06202337353858
2118.897,19.872162643830123
2120.4276,20.632216627317177
2121.9575,19.2422010308957
2123.4866,18.60213135513952
2125.0149,19.812022908200504
2126.5426,19.221890812209182
2128.0695,19.18174999117592
2129.5956,19.141615176892202
2131.1211,22.101500909332046
2132.6458,15.511421537053437
2134.1698,22.021391187599335
2135.693,21.681423833398583
2137.2155,18.741533226666107
2138.7373,20.90173290280262
2140.2584,18.8620362097936
2141.7787,20.97245628660714
2143.2983,18.73300608359105
2144.8171,15.393698341368562
2146.3353,20.904545613232884
2147.8527,18.81556029854022
2149.3693,17.076754587601386
2150.8853,20.28814048257162
2152.4005,22.24972981483863
2153.9149,18.06153421290884
2155.4287,16.773565082791364
2156.9417,14.885833649880013
2158.454,18.298350971832946
2159.9655,16.76112795745
2161.4764,18.224175332547617
2162.9865,20.237503655330897
2164.4958,15.701123301763204
2166.0045,20.515044445432935
2167.5124,17.579277102917246
2169.0195,21.743831085642924
2170.526,19.458716029243988
2172.0317,21.223941351916196
2173.5367,20.78951627726815
2175.0409,19.55544981666911
2176.5445,19.271750773593183
2178.0473,19.988427755960004
2179.5494,16.805489178971655
2181.0507,17.972943257946042
2182.5513,15.64079804014618
2184.0512,17.609061393105634
2185.5504,18.577741027950097
2187.0488,18.046844479714636
2188.5465,17.41637909765697
2190.0435,16.886352050566387
2191.5397,16.306770333068442
2193.0353,15.227640770925134
2194.5301,16.348970026830855
2196.0241,20.270764611203646
2197.5175,17.693030870971825
2199.0101,16.86577495035614
2200.502,19.489002816647016
2201.9931,12.662720268477173
2203.4835,18.486932909589342
2204.9733,15.411646217099062
2206.4622,17.186865483252575
2207.9505,15.862595846179758
2209.438,13.13884227214183
2210.9248,14.115609568774076
2212.4109,17.092902412323397
2213.8962,12.320725337880617
2215.3809,13.999082709607578
2216.8648,16.12797876845889
2218.3479,13.507417615398396
2219.8304,13.38740319011022
2221.3121,13.067939297204362
2222.7931,13.199029607416747
2224.2733,10.480677660803963
2225.7529,15.562886865432333
2227.2317,12.14566052456145
2228.7098,13.129001785822084
2230.1872,9.51291367538846
2231.6638,12.347399088144769
2233.1397,14.432460823846128
2234.6149,13.318101558773662
2236.0894,11.554323824883951
2237.5632,11.291130020952608
2239.0362,14.62852243021203
2240.5085,13.01650322298336
2241.9801,13.805074423302614
2243.4509,13.594237925040773
2244.921,10.233995484018166
2246.3904,14.524348720112755
2247.8591,11.01529915086256
2249.3271,10.156848148562204
2250.7943,12.698996975353253
2252.2608,10.341746791808959
2253.7266,5.78509863151254
2255.1917,11.87905342462986
2256.656,10.073612043475777
2258.1197,7.368775241574696
2259.5826,12.01454367171489
2261.0447,7.960917912996962
2262.5062,7.857898424376117
2263.9669,9.205485585198431
2265.4269,8.903679696230995
2266.8862,11.052480966186053
2268.3448,9.801889514739074
2269.8026,8.801905351040816
2271.2598,12.902528386223153
2272.7162,9.103758443399002
2274.1719,9.90559521665601
2275.6268,9.158038309044287
2277.0811,9.011087224557954
2278.5346,10.214741375610842
2279.9874,6.919000084505939
2281.4395,8.273862571398851
2282.8908,6.779327987255172
2284.3414,9.83539540030192
2285.7914,8.092063810972888
2287.2406,10.149332121347982
2288.689,9.457199152586412
2290.1368,7.3656636243540845
2291.5838,4.824724161744939
2293.0302,11.334379316196262
2294.4758,7.844627590898213
2295.9206,7.655467375697086
2297.3648,9.816896981992983
2298.8082,8.528914644631385
2300.251,6.741518500288805
2301.693,9.904706600352625
2303.1343,10.068476928795079
2304.5748,8.582827370541366
2306.0147,6.19775570983191
2307.4538,7.263259645078932
2308.8922,7.079336812717131
2310.3299,9.345984776548605
2311.7669,10.413201029582154
2313.2031,9.03098297136681
2314.6387,7.69932789731962
2316.0735,7.4182330125477876
2317.5076,10.237695445165315
2318.941,9.457712249103835
2320.3737,9.128280375918138
2321.8056,10.9493966825858
2323.2369,8.671057934801695
2324.6674,9.693260788766672
2326.0972,12.616001813971131
2327.5263,16.739277482972817
2328.9547,15.663084142169538
2330.3823,16.73741797056639
2331.8092,9.762274990537634
2333.2355,5.487651057083454
2334.661,7.913541927581257
2336.0858,5.789943304532002
2337.5098,8.266850811301211
2338.9332,9.094260013355054
2340.3558,4.822166393491187
2341.7778,4.05056534356472
2343.199,6.429452207209067
2344.6195,7.408822287551999
2346.0393,6.288670823426777
2347.4583,6.2689929795784565
2348.8767,3.699783857865391
2350.2943,4.6810384974561146
2351.7113,10.962751900521368
2353.1275,4.794919022421489
2354.543,7.827534708889338
2355.9578,10.010593757708634
2357.3718,4.494090888387795
2358.7852,6.478020720329297
2360.1978,9.362377827994806
2361.6098,6.69715672106576
2363.021,5.882351815599861
2364.4315,10.667957460683347
2365.8413,6.403967946578874
2367.2504,3.1903774568695766
2368.6587,5.677180111098849
2370.0664,4.914369996906373
2371.4733,6.201941145159999
2372.8795,6.639887537583938
2374.285,6.978203093882975
2375.6899,4.766881667363037
2377.0939,7.955917041548048
2378.4973,5.595302952293125
2379.9,6.185033055894259
2381.3019,7.7751009526943875
2382.7032,3.465500181186158
2384.1037,6.70622420211123
2385.5035,4.447266441556295
2386.9027,3.788620258545812
2388.3011,5.730278967631605
2389.6987,9.522235845479322
2391.0957,6.614484111451837
2392.492,7.057016889689656
2393.8876,8.649827238188486
2395.2824,2.5429081443738752
2396.6765,5.136252509173154
2398.07,6.379853208084569
2399.4627,2.5237030652439003
2400.8547,8.267794840988437
2402.246,2.6121212704184487
2403.6366,2.2066750059563134
2405.0265,1.2514486739032051
2406.4156,2.6964348784935694
2407.8041,9.191626211447414
2409.1918,1.0870152375204398
2410.5789,0.5825944295520813
2411.9652,5.4783562495116485
2413.3508,2.97429315354254
2414.7358,5.870397543004643
2416.12,-0.283338210485077
2417.5035,2.8130782059864288
2418.8863,7.209641935880917
2420.2684,4.506348094529379
2421.6497,1.8531917251664183
2423.0304,6.400167825963223
2424.4104,5.397271376559075
2425.7896,2.044497292591643
2427.1682,2.7418404357258765
2428.546,2.9392956471817797
2429.9232,5.286857740760972
2431.2996,1.8845215008721397
2432.6753,0.7322816590554098
2434.0503,6.780132928005742
2435.4246,2.3280700130953065
2436.7982,4.826087551895
2438.1711,2.974180158695056
2439.5433,5.072342399524835
2440.9148,2.370568810671898
2442.2856,1.3688538777004098
2443.6557,1.4671920624688681
2445.025,0.36557781314724735
2446.3937,4.064005563233664
2447.7617,2.2124697425704625
2449.1289,2.010964740359988
2450.4955,4.609484923679901
2451.8613,2.3580246394982325
2453.2265,1.0565781886882135
2454.5909,3.2051398485428138
2455.9546,4.353703885789251
2457.3177,3.7022645351033816
2458.68,0.45081598762403985
2460.0416,3.2993523974674304
2461.4025,7.647867914241651
2462.7627,5.946356654561285
2464.1222,4.494812658562239
2465.4811,3.2932299069169204
2466.8392,3.691602335349593
2468.1966,3.689923846652256
2469.5533,3.088188306700907
2470.9093,5.386389544472323
2472.2645,-0.46547864193855304
2473.6191,4.082577491699347
2474.973,7.130556339748686
2476.3262,3.2284562557463943
2477.6787,4.726275521923824
2479.0305,4.274012388227831
2480.3816,2.7716650573425525
2481.7319,2.469231689212016
2483.0816,0.8667104160636185
2484.4306,3.514099345432477
2485.7789,5.661396576186611
2487.1264,4.608600172053102
2488.4733,4.505708140145096
2489.8195,8.452718441489772
2491.165,6.499628992057282
2492.5097,8.096437623290598
2493.8538,3.0431421016364197
2495.1972,2.5897401125771395
2496.5398,3.1362293111637385
2497.8818,1.4326073265497996
2499.2231,3.9788717565266793
2500.5637,4.875020184559666
2501.9035,4.721050154325361
2503.2427,2.2169591607501573
2504.5812,7.012744651549994
2505.919,0.45840405227122005
2507.256,1.1039347183327877
2508.5924,4.999334000569625
2509.9281,5.294599238777316
2511.2631,5.539727722758144
2512.5974,2.184716689368422
2513.9309,2.6295633200671915
2515.2638,2.3742647744663827
2516.596,0.26881818588231
2517.9275,3.713220663888663
2519.2583,1.507469315370983
2520.5884,0.35156121008262176
2521.9178,3.04549340270227
2523.2465,4.03926294439303
2524.5745,3.3328668558631094
2525.9018,5.276302117428095
2527.2284,2.269565676074933
2528.5543,4.462654426027541
2529.8796,1.7555652388142349
2531.2041,5.248294941336759
2532.5279,4.140840342941274
2533.851,4.283198200491022
2535.1735,5.725365229440868
2536.4952,3.6673381024137015
2537.8163,3.009113434778797
2539.1366,3.8006878052320445
2540.4562,2.8920577623782435
2541.7752,3.3832198168153127
2543.0935,5.824170450220613
2544.411,5.164906110439297
2545.7279,3.805423187074858
2547.0441,2.095718018081726
2548.3596,1.2357869033601077
2549.6744,6.625626121853074
2550.9885,6.815231940145843
2552.3019,7.054600558567415
2553.6146,6.3937281092944644
2554.9266,2.632610653957684
2556.2379,5.021244190250492
2557.5485,7.059624689540186
2558.8585,6.397748072981678
2560.1677,-0.1643898088664031
2561.4762,1.5232068305771378
2562.7841,2.01053542014764
2564.0913,3.7975933734484215
2565.3977,3.8843780839774453
2566.7035,5.570886907256785
2568.0086,8.607117159964695
2569.313,7.193066103070642
2570.6167,7.828730911472938
2571.9197,7.76410868813926
2573.222,-0.10080354224999866
2574.5236,6.2839911673444675
2575.8246,5.318490770989335
2577.1248,2.9526931599113837
2578.4244,6.0365961721525
2579.7232,6.070197616227645
2581.0214,5.5034952402858295
2582.3189,3.8364867317741016
2583.6157,4.569169723104565
2584.9118,3.801541808324494
2586.2072,5.433600535789488
2587.5019,6.265343415839716
2588.7959,8.246767904479405
2590.0893,4.227871395059353
2591.3819,6.008651198462701
2592.6739,5.689104583293883
2593.9652,6.569228758070842
2595.2557,6.649020874420472
2596.5456,6.428478018277389
2597.8348,8.257597209086022
2599.1234,5.786375402006023
2600.4112,6.814809469621096
2601.6983,5.992896226651212
2602.9848,2.870632419668219
2604.2705,5.548014735315064
2605.5556,5.625039831528383
2606.84,7.401704310764664
2608.1237,4.228004719230022
2609.4067,6.603937529113551
2610.689,4.9294991703242985
2611.9707,6.654686006731957
2613.2516,6.779494352911243
2614.5319,7.153920456890013
2615.8115,5.127960498901217
2617.0903,5.051610587638585
2618.3685,2.074866780516267
2619.6461,5.897725084432317
2620.9229,8.120181485536122
2622.199,5.792231910999838
2623.4745,6.213872206793795
2624.7493,6.185098160966028
2626.0234,2.705905499425846
2627.2968,5.1262898862316035
2628.5695,6.146246958382598
2629.8415,5.21577230161526
2631.1128,5.6348614402035295
2632.3835,5.003509846263675
2633.6535,6.27171293556335
2634.9228,2.3894660738351305
2636.1914,9.056764564094493
2637.4593,5.723603685462269
2638.7265,2.939978626491662
2639.9931,6.355884518499828
2641.259,7.321316463404184
2642.5242,7.386269499563287
2643.7887,5.500738592122566
2645.0525,1.1147186323647738
2646.3156,5.178204456565304
2647.5781,5.44119088985239
2648.8398,4.853672705572233
2650.1009,4.815644622659136
2651.3613,4.877101311510685
2652.6211,1.8880373943680517
2653.8801,4.798447444701395
2655.1385,8.20832601710051
2656.3961,4.167667618170743
2657.6531,1.8264666724341723
2658.9094,1.1847175627362283
2660.1651,4.192414653657675
2661.42,5.599552297932121
2662.6743,7.256124806369044
2663.9279,5.562126433782424
2665.1808,7.967551362424981
2666.433,1.2223937189282132
2667.6846,2.8766475502480837
2668.9354,6.330306891116646
2670.1856,5.183365747499504
2671.4351,9.235818062059202
2672.6839,5.837657725624652
2673.9321,5.8388785366665665
2675.1795,5.1394742352790885
2676.4263,7.089438503167614
2677.6724,4.038764970642802
2678.9179,3.887447197120938
2680.1626,7.335478701630681
2681.4067,8.68285296432622
2682.6501,6.679563392006969
2683.8928,7.425603304643815
2685.1348,8.970965955412023
2686.3761,4.61564452323082
2687.6168,5.35963209730982
2688.8568,8.952921720702214
2690.0961,3.9955063828648782
2691.3348,7.037378983725464
2692.5727,4.578532383256604
2693.81,4.468959371057135
2695.0466,4.708652690940582
2696.2826,4.747605042030898
2697.5178,19.985809076365516
2698.7524,6.823257398505838
2699.9863,4.8599424131551885
2701.2195,4.745856456784324
2702.452,4.430991817264577
2703.6839,7.765340735008728
2704.9151,3.1988954061196537
2706.1456,6.931647949046823
2707.3755,6.513590450250785
2708.6046,9.294714926875614
2709.8331,3.6250133309294696
2711.0609,2.9044775214733995
2712.2881,5.183099321318316
2713.5145,9.560870524230385
2714.7403,7.037782872144788
2715.9654,7.31382801138799
2717.1899,6.03899751790868
2718.4136,9.613282894517248
2719.6367,9.386675583634144
2720.8591,12.209166931546989
2722.0809,13.68074819067666
2723.3019,10.101410491352382
2724.5223,12.371144827095907
2725.7421,11.589942090414898
2726.9611,10.357793050105577
2728.1795,12.724688359064775
2729.3972,11.840618566611376
2730.6142,9.255574094817408
2731.8306,6.769545247348724
2733.0462,4.23252223531545
2734.2612,10.44449520213226
2735.4756,5.505454248888622
2736.6892,4.015389372229063
2737.9022,6.324290513743563
2739.1145,3.932147574868228
2740.3262,4.438950393796265
2741.5372,5.144688769399419
2742.7475,6.349352456159938
2743.9571,5.802931157113203
2745.1661,3.355414511801076
2746.3744,5.0567921017361215
2747.582,2.557053474876767
2748.7889,4.75618812861353
2749.9952,4.254185534766414
2751.2008,0.6010351175935362
2752.4057,1.2967262588111765
2753.61,3.291248334125264
2754.8136,1.7345907062744743
2756.0165,6.776742705085027
2757.2188,4.017693643037251
2758.4204,2.90743276484406
2759.6213,3.445949275041439
2760.8215,3.983232349091061
2762.0211,3.9692711279951176
2763.22,1.3540547129234888
2764.4182,1.1375721653533333
2765.6158,3.8198125332212847
2766.8127,1.9007648530882513
2768.009,2.380418123317021
2769.2045,1.6587613232627554
2770.3994,1.9857834084764399
2771.5936,1.4114733179214696
2772.7872,2.785819970703418
2773.9801,2.2088122718131586
2775.1723,2.380439098383345
2776.3639,3.0006893054585326
2777.5548,3.719551724278883
2778.745,4.037015156077686
2779.9346,2.8030683648927166
2781.1235,-0.8822999256083826
2782.3117,2.930898980211378
2783.4992,0.8926625921652054
2784.6861,-0.8470116092426636
2785.8723,4.361873847565388
2787.0579,0.11932489581293027
2788.2428,-2.224652574895181
2789.427,2.929947323852673
2790.6106,-0.6668472952526727
2791.7935,4.03499165118015
2792.9757,-0.5645010916530246
2794.1573,-0.015290818906265713
2795.3382,2.432662813632234
2796.5184,1.7294003029295624
2797.698,0.5749621216261893
2798.8769,2.0193887250685947
2800.0551,1.712720562853658
2801.2327,2.004998064384388
2802.4096,2.6462616419365936
2803.5859,2.9365516877361237
2804.7615,3.1759085675462124
2805.9364,4.364372617764591
2807.1106,3.0019841430299117
2808.2842,6.238783404337102
2809.4572,4.374810632661276
2810.6294,7.160105996589724
2811.801,6.4947096209616255
2812.972,5.92866155901514
2814.1423,6.862001799041344
2815.3119,6.494770270044718
2816.4808,10.077006832409737
2817.6491,5.4087512815731635
2818.8167,11.690043312201713
2819.9837,11.670922564874616
2821.15,16.151428563270677
2822.3157,17.08160071435951
2823.4807,22.011478263596416
2824.645,25.741100285620746
2825.8086,30.12050563495706
2826.9716,30.34973290871891
2828.134,33.57882040281482
2829.2957,38.50780610965599
2830.4567,36.23672768586544
2831.617,42.41562240298812
2832.7767,44.34452717020172
2833.9358,46.12347847252772
2835.0941,42.15251235154237
2836.2519,42.281664387587064
2837.4089,40.91096973947819
2838.5653,38.49046314321541
2839.7211,35.820178925688765
2840.8761,32.200151028883646
2842.0306,33.63041303658367
2843.1843,31.31099821057094
2844.3374,32.84193947632344
2845.4899,35.073269446209196
2846.6417,37.10502040417683
2847.7928,37.1372242834423
2848.9433,37.26991264617135
2850.0931,37.303116683157484
2851.2422,39.386867212495105
2852.3907,38.97119467924746
2853.5385,39.35612913460912
2854.6857,38.29170024006274
2855.8323,40.62793726352966
2856.9781,43.56486909001428
2858.1233,46.65252419824159
2859.2679,43.84093063128796
2860.4118,44.7301159657045
2861.555,43.870107339633044
2862.6976,49.26093144391427
2863.8395,47.752614530687765
2864.9808,51.14518235948384
2866.1214,51.088660212306664
2867.2614,51.48307285970857
2868.4007,46.8284445613553
2869.5393,54.4747990620819
2870.6773,55.07215963843897
2871.8146,49.22054902222916
2872.9513,52.41998939453349
2874.0874,54.370502444227554
2875.2227,58.57210933598705
2876.3574,53.77483069078266
2877.4915,63.178686543863954
2878.6249,58.58369639273227
2879.7577,63.53987910310204
2880.8898,62.247252954850744
2882.0212,64.45583559245709
2883.152,59.66564403792729
2884.2821,63.47669466870917
2885.4116,67.48900326559416
2886.5405,69.65258497460673
2887.6686,67.46745426688132
2888.7962,66.03362491702654
2889.923,66.60111002497646
2891.0493,66.16992203032893
2892.1748,66.0400727066707
2893.2997,64.51157316588933
2894.424,65.03443385947162
2895.5476,68.7586645937887
2896.6706,63.38427452486731
2897.7929,66.91127212114759
2898.9145,66.53966521722695
2900.0355,65.41946097859004
2901.1559,65.15066590532491
2902.2756,67.78328584332502
2903.3946,63.617325986977164
2904.513,66.2027908528353
2905.6308,65.38968432128011
2906.7479,63.92800961066442
2907.8643,64.21776928544418
2908.9801,64.75896527079527
2910.0953,67.9515988497159
2911.2098,62.04567065761459
2912.3236,62.69118065038394
2913.4368,62.98812816345982
2914.5494,60.03651190536631
2915.6613,61.88632995474623
2916.7725,64.78757978987724
2917.8831,58.49025827017378
2918.9931,61.89436160717446
2920.1024,60.04988542751531
2921.211,55.4068247388888
2922.319,56.865173948488476
2923.4264,56.574926909439725
2924.5331,54.13607690621616
2925.6391,53.39861665754219
2926.7445,58.212538340781414
2927.8493,54.72783359931128
2928.9534,57.09449349438391
2930.0569,57.212508539973044
2931.1597,58.78186867910752
2932.2619,58.002563282691085
2933.3634,57.37458113380886
2934.4643,59.94791043552027
2935.5645,59.87253881713899
2936.6641,62.0984533084996
2937.763,62.575640340711274
2938.8613,63.30408572389873
2939.959,62.733774642430205
2941.056,62.51469164763315
2942.1523,56.09682066349724
2943.248,48.83014498886527
2944.3431,52.01464736161181
2945.4375,46.70031003131002
2946.5313,42.837114727386606
2947.6244,38.97504271226515
2948.7169,37.91407481999811
2949.8087,34.854191494887544
2950.8999,31.595372802094726
2951.9904,29.13759845823908
2953.0803,27.33084786398627
2954.1696,25.07510012862601
2955.2582,23.870334088139536
2956.3462,22.66652832775708
2957.4335,19.513661194005568
2958.5202,21.461710806746634
2959.6062,19.41065509070532
2960.6916,21.110471755989572
2961.7764,20.661138318600784
2962.8605,18.51263208343565
2963.9439,23.464930148779487
2965.0267,19.2180094277913
2966.1089,23.82184659898081
2967.1905,19.726418148677652
2968.2714,20.13170032499299
2969.3516,24.08766917877384
2970.4312,20.29430055955021
2971.5102,23.251570075975415
2972.5885,19.30945313375982
2973.6662,20.867924906098064
2974.7432,22.52696037309027
2975.8196,19.136534306157326
2976.8954,25.696621251450512
2977.9705,23.607195563755774
2979.045,23.068231340892865
2980.1188,22.229702444609572
2981.192,22.941582505971393
2982.2645,21.953844933746794
2983.3364,20.616462907288437
2984.4077,17.579409386410518
2985.4783,19.042657124762627
2986.5483,19.606178700200257
2987.6177,17.31994650015233
2988.6864,14.283932715985994
2989.7545,13.998109365868938
2990.8219,18.86244832512954
2991.8887,11.976921329115097
2992.9548,13.541499924548418
2994.0204,9.65615553838311
2995.0852,7.520859462157798
2996.1495,8.98558289084955
2997.2131,10.25029694422685
2998.276,6.464972652202345
2999.3383,5.329580942185732
3000.4,4.044092676936986
3001.4611,4.7084786659202695
3002.5215,3.4227096781588298
3003.5812,4.086756435591141
3004.6404,4.650589625928582
3005.6989,2.964179896014981
3006.7567,4.227497846188282
3007.8139,0.8405140471446231
3008.8705,1.7031990273051854
3009.9264,3.465523306686004
3010.9818,-2.522542611728859
3012.0364,1.1889717403894267
3013.0905,2.8000620315703735
3014.1439,1.8107239184537818
3015.1966,1.8209530296788294
3016.2487,3.3307449757774634
3017.3002,3.2400953490721065
3018.3511,1.9489997085777322
3019.4013,0.3574535809083663
3020.4509,-0.5345475268119433
3021.4998,2.422991888966312
3022.5481,1.33007267192243
3023.5958,0.9866956415057917
3024.6428,0.3428616038650585
3025.6892,0.9485713552819472
3026.735,0.4038256886095617
3027.7802,-0.09137461278469772
3028.8247,1.8129712304283156
3029.8685,2.9168649104101334
3030.9118,2.2703081011925796
3031.9544,0.8733024476388351
3032.9963,1.175849571909005
3034.0376,2.2779510874301714
3035.0783,1.9296085958709366
3036.1184,4.130823676120395
3037.1578,3.0815978877715633
3038.1966,0.531932749109215
3039.2348,2.981829747602161
3040.2723,2.831290365399889
3041.3092,5.830316054833592
3042.3455,3.978908239921571
3043.3811,0.7770682863789666
3044.4161,3.374797520131846
3045.4505,2.5220972593356006
3046.4842,4.21896878839766
3047.5173,0.865413366504475
3048.5498,1.2614322106528189
3049.5816,4.157026529185332
3050.6128,4.202197517830346
3051.6434,2.1469463307459247
3052.6734,3.0412740800681686
3053.7027,2.5351818564637156
3054.7314,6.128670720186475
3055.7594,4.171741706138528
3056.7868,3.7643957879352588
3057.8136,5.90663389747464
3058.8398,4.698456929010698
3059.8653,1.6898657177311165
3060.8902,3.8808610518390214
3061.9145,2.6214437026388833
3062.9381,2.911614402626565
3063.9612,5.401373858083506
3064.9835,5.390722746174998
3066.0053,5.179661690052603
3067.0264,6.068191258960663
3068.0469,10.4063119703469
3069.0668,9.19402428097713
3070.086,3.7313285435540617
3071.1046,5.868225018840164
3072.1226,6.704713930284619
3073.1399,5.990795442654369
3074.1567,4.176469653669223
3075.1727,4.411736601141028
3076.1882,7.846596281116952
3077.203,3.8310486455267885
3078.2173,4.765093567834384
3079.2308,6.748730883193092
3080.2438,5.131960379105342
3081.2561,4.114781775586254
3082.2678,3.9471947413313506
3083.2789,3.7791989038883456
3084.2893,4.160793851333001
3085.2991,3.9919791339490978
3086.3083,4.0727542604124745
3087.3169,2.5031186994791916
3088.3248,1.2330718791777633
3089.3321,5.912613202505533
3090.3388,2.691742060129118
3091.3449,5.270457783589013
3092.3503,2.1987596775082903
3093.3551,5.726646993805453
3094.3593,6.704118962411406
3095.3629,3.1311747559905987
3096.3658,5.707813480166284
3097.3681,2.6840342092499787
3098.3698,3.3098359604750707
3099.3708,4.935217724234603
3100.3713,0.7601784578232609
3101.3711,1.9847170691835627
3102.3702,4.758832458656242
3103.3688,4.63252350673486
3104.3667,3.805789046324665
3105.364,5.878627864005665
3106.3607,3.1510387082999864
3107.3568,3.6230202689434803
3108.3522,2.8445712041616096
3109.347,4.365690135949635
3110.3412,4.086375657857112
3111.3348,5.006626319776689
3112.3277,1.926440630737269
3113.32,1.9458170497014917
3114.3117,3.514754016367597
3115.3028,2.983249950975652
3116.2932,4.651303238618196
3117.2831,3.2689122345552573
3118.2723,3.3860752475338467
3119.2608,3.552790553611846
3120.2488,1.2690563949863929
3121.2361,3.9348709783267193
3122.2229,5.800232497611498
3123.209,3.1651391074706927
3124.1944,3.0295889045319493
3125.1793,0.5435799537715171
3126.1635,3.2571102898697646
3127.1471,0.22017794207125796
3128.1301,2.682780907049464
3129.1125,5.444917179276077
3130.0942,3.1565847263949793
3131.0753,6.967781461600884
3132.0558,3.9285052665226603
3133.0357,-0.8112460468886393
3134.015,4.39852529403299
3134.9936,2.2078251663015553
3135.9716,1.3166594029458114
3136.949,3.3750338149162644
3137.9258,3.2329541999968265
3138.902,5.090426322221074
3139.8775,3.8474559132930417
3140.8524,3.6540486540125077
3141.8267,5.46021018670469
3142.8004,2.0659461171543243
3143.7735,3.1712619965440467
3144.7459,3.0761633553970347
3145.7178,2.6806556925238443
3146.689,3.434744475973403
3147.6596,3.6384351469880802
3148.6295,3.3917331124628056
3149.5989,1.394643742908158
3150.5676,3.2471723749173855
3151.5357,3.0993243311373013
3152.5032,3.751104901742998
3153.4701,2.252519345916323
3154.4364,5.3535728853280755
3155.402,2.5542707191238683
3156.367,4.75461799291358
3157.3315,1.4046198267643852
3158.2952,3.254281293197284
3159.2584,3.1036074506870737
3160.221,4.352603325165743
3161.1829,0.9512739115292081
3162.1442,4.849624161147352
3163.105,3.9976590158773244
3164.065,5.29538336908003
3165.0245,4.592802074139787
3165.9834,3.6399199314870816
3166.9416,1.936741695624379
3167.8993,3.583272084654947
3168.8563,3.9795157973146393
3169.8127,1.9254774965065904
3170.7684,2.3211618053387766
3171.7236,2.3165733276644023
3172.6782,3.8617166441250523
3173.6321,5.056596312196581
3174.5854,3.2512168507376744
3175.5381,2.4955827280410596
3176.4902,2.5396983798872936
3177.4417,2.7335682171011086
3178.3926,3.3271966251102505
3179.3428,2.270587962006786
3180.2924,0.9137465526108153
3181.2415,1.6066766990365595
3182.1899,2.399382694260775
3183.1377,3.191868815193451
3184.0848,4.23413931475075
3185.0314,3.7261984139301476
3185.9773,4.36805029138773
3186.9227,2.7596990885175967
3187.8674,4.401148903033347
3188.8115,6.2924038050515865
3189.755,1.2834678206774355
3190.6979,5.374344913091977
3191.6402,1.6650390326416153
3192.5818,5.005554075929308
3193.5229,2.3958939229076215
3194.4633,6.8360624034735835
3195.4031,4.32606332356528
3196.3423,4.2159004207601765
3197.2809,3.7055773893751045
3198.2189,3.495097881567892
3199.1563,1.2344655124405943
3200.0931,3.923683862144287
3201.0292,3.512756498485393
3201.9648,2.401686950033496
3202.8997,7.040478710230617
3203.834,3.7791352485019036
3204.7677,2.6176599638677227
3205.7008,6.706056217557085
3206.6333,3.3943273446224005
3207.5652,4.032476613055523
3208.4964,3.4705072569050275
3209.4271,6.158422469894727
3210.3571,4.44622541104336
3211.2865,5.133919177785442
3212.2154,2.6715068230932317
3213.1436,2.458991348599799
3214.0712,4.2963757292231435
3214.9982,3.5336629152913517
3215.9246,3.5208558141687547
3216.8503,2.807957297883053
3217.7755,3.79497020325339
3218.7001,3.9318973390193364
3219.624,4.1687414759707595
3220.5473,2.555505345578558
3221.4701,2.942191637626209
3222.3922,4.578803016342142
3223.3137,4.665342116532862
3224.2346,5.101811527216853
3225.1549,3.4382137907591717
3226.0746,2.074551398506759
3226.9937,4.660826807424421
3227.9121,3.947042453731448
3228.83,2.683200727038863
3229.7473,5.919303977487264
3230.6639,4.655354528385242
3231.5799,5.2413546438483465
3232.4954,3.627306541438585
3233.4102,5.263212386304416
3234.3244,5.249074307321233
3235.238,2.7848943807323083
3236.151,4.4706746302901665
3237.0634,4.7064170518983905
3237.9752,6.142123596753814
3238.8864,7.027796168989103
3239.797,2.5634366113156823
3240.7069,4.649046696167018
3241.6163,5.534628170342207
3242.5251,6.420182734149883
3243.4332,6.805712032552395
3244.3408,1.9912176463102682
3245.2477,5.526701088126903
3246.154,6.112163850793526
3247.0598,5.847607371834353
3247.9649,3.8830330276519573
3248.8694,7.318442136172843
3249.7733,5.953835976493179
3250.6766,7.439215754524717
3251.5793,7.1745826166408415
3252.4814,5.709937634822782
3253.3829,2.7452818093059417
3254.2838,3.4806160832263418
3255.1841,4.715941372267189
3256.0838,2.2012585573055237
3256.9829,3.0865684720589774
3257.8814,3.2718719282325903
3258.7792,4.95716970666572
3259.6765,7.742462555478997
3260.5731,5.627751173221357
3261.4692,5.713036181017109
3262.3647,3.698318143713048
3263.2595,5.233597569025609
3264.1538,4.718874927688043
3265.0474,5.7541506380976255
3265.9404,3.8894250714628806
3266.8329,4.174698541450828
3267.7247,4.9599713228342335
3268.616,4.8952436486388775
3269.5066,4.630515702290825
3270.3966,3.865787618263706
3271.286,4.9510594847259926
