RamanShift,CorrectedData
30.1047,504.89032268164135
32.3739,471.32839986459453
34.6426,428.1164719986444
36.9109,390.50452932160374
39.1787,355.1925577901204
41.4461,318.48053945579693
43.7131,284.46845281831
45.9796,247.6562731925308
48.2456,212.14397304864588
50.5112,174.78152238027897
52.7764,140.46888905961404
55.0411,104.35603921101978
57.3054,70.49293755417595
59.5692,32.07954776520188
61.8326,-0.8341671847124346
64.0955,-37.29824464517251
66.3579,-66.3127136324537
68.6199,-97.92723055336737
70.8815,-123.89078935071583
73.1426,-127.0014056742682
75.4032,-85.90585750480807
77.6634,87.25034592092334
79.9231,539.8725535657013
82.1824,1574.3661135197976
84.4412,3414.486368474759
86.6995,5959.388645378472
88.9574,8488.178237033955
91.2148,10270.410376650349
93.4717,11074.840212555004
95.7282,11236.022790371171
97.9842,11104.063044973698
100.2398,10783.915798877208
102.4949,10450.535763555688
104.7495,10049.577542643974
107.0036,9679.045635271541
109.2573,9322.54444007209
111.5105,8984.828258888863
113.7632,8684.001300339663
116.0154,8409.56768319401
118.2672,8228.331439381407
120.5185,8002.846516735683
122.7693,7873.866780807356
125.0197,7735.596017118474
127.2696,7597.337932452426
129.519,7468.296156236631
131.7679,7339.6242419251375
134.0163,7201.075668289026
136.2642,7027.053840703142
138.5117,6847.062092531568
140.7587,6659.853686867854
143.0052,6514.981818334925
145.2512,6338.949614957175
147.4967,6187.860139609175
149.7417,6046.816391776006
151.9863,5944.171309064141
154.2304,5864.177768611898
156.4739,5749.188588115876
158.717,5682.206526630902
160.9596,5594.634285719916
163.2017,5449.52451012379
165.4433,5321.829788637059
167.6844,5143.352655559011
169.925,4996.295591970637
172.1651,4831.661027519402
174.4047,4687.201341889816
176.6439,4554.218866449782
178.8825,4420.015885695184
181.1206,4334.844638579726
183.3582,4233.257319856948
185.5954,4185.256080931947
187.832,4122.143030877245
190.0681,4065.0702369128085
192.3037,4023.4397250371685
194.5388,3984.6534805981582
196.7734,3978.4634487092103
199.0075,3941.521534637228
201.2411,3963.029603864478
203.4742,3938.1394824580148
205.7068,3962.5029568545974
207.9389,4003.8217741095946
210.1704,4035.297641653343
212.4015,4006.332226877965
214.632,4046.477156822605
216.862,4055.034018463089
219.0915,4050.1043583104706
221.3205,4049.389682325465
223.549,4073.791455967744
225.777,4069.7611042030844
228.0044,4045.45001125935
230.2314,4102.609520666794
232.4578,4119.690935501174
234.6837,4090.7455178121504
236.909,4098.924488452476
239.1339,4060.429027367453
241.3582,3980.260273513135
243.582,3907.9693252412912
245.8053,3859.457241101085
248.0281,3805.025040561989
250.2503,3766.223704498906
252.472,3759.6541757364885
254.6932,3749.6673594371523
256.9139,3756.714123166772
259.134,3794.695296994551
261.3536,3860.9116734225504
263.5727,3930.014007005883
265.7912,3991.8530136905442
268.0092,4083.8293701223934
270.2267,4159.243713028757
272.4436,4178.246638298675
274.6601,4154.3887002287465
276.8759,4096.370411333111
279.0913,4059.3922425820206
281.3061,3999.304623982028
283.5204,3943.2079449457633
285.7341,3895.0025548928147
287.9473,3905.18876381069
290.16,3872.9668427368733
292.3721,3877.48702365696
294.5837,3870.999499826879
296.7947,3933.3044257276897
299.0052,3985.5519171304604
301.2152,3956.1920504732143
303.4246,3866.37486233846
305.6334,3736.7003497467895
307.8418,3595.268471055045
310.0495,3404.679147253071
312.2568,3217.2322633780227
314.4635,3020.8276704202704
316.6696,2897.315187197859
318.8752,2753.6946023205614
321.0802,2707.3656754249982
323.2847,2707.328138610847
325.4887,2680.331696904128
327.692,2656.6260282575836
329.8949,2652.8107838206392
332.0972,2579.9355881764604
334.2989,2473.400039380106
336.5001,2353.603709687281
338.7007,2263.4461466196935
340.9008,2183.326874163013
343.1003,2081.1453936684497
345.2992,2030.2011846539463
347.4976,1964.9937058259948
349.6955,1897.3223955890762
351.8927,1857.4366726977341
354.0895,1815.1359369332927
356.2856,1778.5695695027089
358.4812,1713.9369334615822
360.6763,1723.43737407982
362.8707,1681.820219487961
365.0646,1690.934780582173
367.258,1683.9803514404261
369.4508,1655.106209231344
371.643,1713.4616142837485
373.8346,1708.5458103754004
376.0257,1751.4080241494462
378.2162,1768.9474651635778
380.4062,1741.3633254614074
382.5956,1642.3047793970754
384.7844,1585.3709839110907
386.9726,1531.1610795209122
389.1603,1473.3241908902955
391.3474,1423.6594273713836
393.5339,1413.2158835830796
395.7199,1356.242639907694
397.9052,1393.1887625953796
400.09,1406.653304333865
402.2743,1450.3353038789928
404.4579,1500.1837859200732
406.641,1572.89776064307
408.8235,1639.876223232106
411.0054,1678.5681531423343
413.1868,1768.2725134301418
415.3675,1808.2882503662413
417.5477,1799.9642925386197
419.7273,1734.1495504523837
421.9064,1656.7929166130025
424.0848,1606.1932661844485
426.2627,1503.0994577627662
428.4399,1410.1603338820732
430.6166,1269.7747220454921
432.7928,1123.3414356545418
434.9683,985.3592754129995
437.1432,898.6770307912302
439.3176,798.2434814060052
441.4914,746.5073978873261
443.6645,741.5675428827681
445.8371,703.1226715748262
448.0091,691.171531730326
450.1806,679.5628640848718
452.3514,620.1454024623481
454.5216,644.0678738910165
456.6913,610.3789991976837
458.8603,626.677492768481
461.0288,655.662062885749
463.1967,629.9814115650588
465.3639,635.984234265361
467.5306,598.1692201457972
469.6967,585.6350520056658
471.8622,593.280406662574
474.0271,595.9539550777827
476.1914,593.3543622797515
478.3551,597.9802873374038
480.5182,613.08038338612
482.6807,632.6532975814853
484.8426,680.3476709482775
487.0039,811.6121381847488
489.1647,948.4453271856737
491.3248,1069.8958577297071
493.4843,1094.6623401110555
495.6432,1078.4433739249662
497.8015,997.5375478200631
499.9592,948.9934396605377
502.1163,834.3096173352105
504.2728,729.484639242969
506.4287,645.1670554396032
508.5839,525.8054086860611
510.7386,422.4982352916213
512.8927,383.8440663075098
515.0461,399.1914285599778
517.199,403.1888450368342
519.3512,471.98483473397664
521.5029,589.5279126154173
523.6539,671.1665889253227
525.8043,718.8493680125803
527.9541,694.074747514418
530.1033,620.1912178795701
532.2519,523.4972626160243
534.3999,475.9413590298582
536.5472,516.3719791921785
538.694,583.7875904146831
540.8401,677.4366548453518
542.9856,756.0176287942895
545.1305,747.2789617972412
547.2748,717.4690958297751
549.4185,657.2864653946745
551.5615,614.6794978200342
553.704,614.7466138610835
555.8458,624.0862281262598
557.987,683.846749076537
560.1276,770.0265789320283
562.2675,907.2741130743816
564.4069,1093.5877391849817
566.5456,1277.1658358724726
568.6837,1301.8067708096232
570.8212,1187.8088988975442
572.958,927.8205620192803
575.0942,710.890090179787
577.2299,526.7158041058156
579.3648,440.09601741521783
581.4992,403.67903845869205
583.6329,435.96317118597653
585.766,511.94671551002375
587.8985,547.4279669841553
590.0304,580.7552160422301
592.1616,582.5767476438241
594.2922,542.3908409409678
596.4222,462.39576925992696
598.5515,385.48980050305545
600.6802,316.5711979487578
602.8083,259.5882210205373
604.9358,236.339125976192
607.0626,234.47216647763526
609.1888,276.38559382339463
611.3144,347.7276569672795
613.4393,406.0966020992446
615.5636,459.64067193196934
617.6873,457.80810511716936
619.8103,459.49713571015127
621.9327,390.20599318814675
624.0544,291.2829024334151
626.1756,243.52608442615383
628.2961,176.23375723373283
630.4159,159.0041364882627
632.5351,146.98543605951636
634.6537,141.42586822722478
636.7716,146.57364380127
638.8889,152.22697217727364
641.0056,163.73406128512488
643.1216,142.8431175324431
645.237,148.3523456895091
647.3518,119.60994909817782
649.4659,102.86412961677979
651.5793,63.56308790755065
653.6922,48.355023604085545
655.8043,46.88813570435195
657.9159,54.36062272276649
660.0268,39.97068270486852
662.137,66.51651315258914
664.2466,50.1463111681569
666.3556,51.908273188636485
668.4639,36.700595149632136
670.5716,35.02147246766526
672.6786,22.269100192253063
674.785,-14.35832697729802
676.8907,-12.662614564373143
678.9958,-5.745424652673137
681.1002,-4.6582928263769645
683.204,-3.9026972728797773
685.3072,-18.880069643229945
687.4097,-24.741802600532537
689.5115,-33.98910019599862
691.6127,-27.922919310232373
693.7132,-34.74387727272779
695.8131,-0.15231246302028012
697.9123,-8.798216169310763
700.0109,8.11842184179659
702.1089,16.747699697880307
704.2061,36.03963442348004
706.3028,69.04424287566235
708.3987,110.3115415510988
710.4941,131.29154625602132
712.5887,141.33427169354763
714.6827,148.38973125388293
716.7761,192.50793691388844
718.8688,257.73889916653434
720.9608,320.8826265797102
723.0522,393.4891251439185
725.1429,407.65839764083967
727.233,437.3404429172665
729.3224,454.1852557434081
731.4112,459.5428265160731
733.4993,416.81314109021696
735.5867,322.24618072537487
737.6735,242.99192251294926
739.7596,164.30034032188587
741.845,138.77140559121517
743.9298,108.60508811696127
746.014,91.25135630744217
748.0974,104.66017748492595
750.1802,108.18151805916796
752.2624,116.21534339332402
754.3439,115.31161776873705
756.4247,148.77030430459718
758.5048,211.29136496698084
760.5843,306.3247602342599
762.6631,436.17044847189936
764.7413,634.7283849821142
766.8188,921.3985207054211
768.8956,1140.8808002350515
770.9718,1306.2751589502527
773.0473,1291.981520821466
775.1221,1204.39979675638
777.1962,1115.1798847428727
779.2697,1092.1716707248238
781.3426,1153.5750294943182
783.4147,1194.4898249217267
785.4862,1224.515909341671
787.557,1157.8531231438797
789.6271,987.6012944729246
791.6966,739.510239894847
793.7654,495.6297660996793
795.8335,341.15967238235044
797.901,225.64975308149633
799.9678,144.59979912415565
802.0339,146.60959918087428
804.0993,154.57894047619993
806.1641,114.00760876858658
808.2282,96.99538827070046
810.2916,78.19206205513183
812.3544,41.04741222452003
814.4164,13.311220099586535
816.4778,37.43326659058084
818.5385,56.16333247464445
820.5986,121.50119815458629
822.658,205.59664347158332
824.7166,325.99944705180405
826.7747,532.7093854654486
828.832,735.1262320227297
830.8886,869.1497547067634
832.9446,962.8297141494086
834.9999,918.8658622910239
837.0545,823.0079414436791
839.1085,690.7056847307827
841.1618,560.7088170456673
843.2143,475.6670563746111
845.2662,393.48011509680737
847.3175,353.64770083478106
849.368,313.26951727625783
851.4179,280.0452645724881
853.467,255.42463974202883
855.5155,248.90733700298506
857.5633,225.14304801921708
859.6105,173.8314619655166
861.6569,147.12226576524608
863.7027,130.2651446034547
865.7478,113.20978219397375
867.7922,96.15586094798209
869.8359,100.60306214456159
871.8789,120.50106610123748
873.9212,141.29955212950426
875.9629,168.64819833584625
878.0039,218.5966814137555
880.0441,260.04467637024163
882.0837,290.6918560263498
884.1226,306.8378906026801
886.1609,344.13244741291373
888.1984,384.6251907023566
890.2352,454.5157812749894
892.2714,477.75387608854453
894.3069,460.2391275555997
896.3416,392.82118331119227
898.3757,333.2996863879739
900.4091,301.724275890384
902.4418,295.0445875898681
904.4739,319.8602542406302
906.5052,353.8709056464286
908.5358,330.02616841242025
910.5658,282.525665605056
912.595,215.6690169905237
914.6236,138.65583950975633
916.6515,92.68574794699862
918.6786,59.55835569993769
920.7051,68.22327523940612
922.7309,85.78011844065622
924.756,87.32849649670698
926.7804,136.06801974277823
928.8041,131.34829764080678
930.8272,160.06893829205137
932.8495,143.0295484842868
934.8711,163.0297334046022
936.892,151.81909680979106
938.9123,137.49724082635475
940.9318,168.21376606260446
942.9506,167.068271751883
944.9688,149.01035544539673
946.9862,120.8396130236697
949.003,74.10563887712351
951.019,29.058026187785345
953.0344,0.196367396628375
955.0491,-6.129745345952415
957.063,12.729278148724461
959.0763,46.573089305496524
961.0888,73.15133942190732
963.1007,79.96367932977228
965.1119,100.25975912939566
967.1223,107.68922812144456
969.1321,103.35173460399074
971.1412,90.74692579821658
973.1495,96.32444789178817
975.1572,89.48394616490668
977.1641,114.92506493452811
979.1704,92.5974476227716
981.1759,100.50073650250533
983.1808,99.03457292062694
985.1849,105.24859721902703
987.1884,126.74244874925125
989.1911,170.81576581036188
991.1932,203.8681854339975
993.1945,217.89934294364048
995.1951,217.90887162409263
997.1951,218.04640258116297
999.1943,199.21156474157397
1001.1928,206.2039848515833
1003.1906,240.72328766533565
1005.1877,282.2690958749381
1007.1841,320.2410297652664
1009.1798,336.3387067985045
1011.1748,318.0117412344284
1013.1691,255.0097439694282
1015.1627,169.6323227197763
1017.1556,96.07908265165042
1019.1477,52.74962723490307
1021.1392,28.193558978600322
1023.1299,26.160479864311583
1025.12,32.899991591674734
1027.1093,53.91169559872242
1029.0979,102.09519299448857
1031.0859,156.6500843488925
1033.0731,171.22596921090326
1035.0596,152.62244556298901
1037.0454,101.8891096753614
1039.0304,71.57555629200624
1041.0148,41.88137913802211
1042.9985,-1.8438287772473814
1044.9814,-14.100474863270847
1046.9636,-23.088948109669673
1048.9452,-15.159496642322665
1050.926,-3.6621379285170406
1052.9061,14.35326200783038
1054.8855,7.436873727557668
1056.8642,31.78886764797062
1058.8421,51.20941411200647
1060.8194,72.34868314471578
1062.7959,88.10684425905674
1064.7717,117.88406624450272
1066.7469,149.78051700946025
1068.7213,161.34636328349507
1070.695,207.18177029836897
1072.6679,230.08690167238183
1074.6402,240.31191895201937
1076.6117,237.85698138289717
1078.5826,218.42224580751508
1080.5527,146.2078666898028
1082.5221,114.06399630946908
1084.4908,106.09078548414527
1086.4587,97.1383838908232
1088.426,118.3569401455884
1090.3925,121.34660189314263
1092.3584,149.85751559461823
1094.3235,149.13982649768377
1096.2879,180.79367835143375
1098.2515,232.61921341356583
1100.2145,295.3165721338414
1102.1767,368.68589263583135
1104.1382,456.02731008994033
1106.099,556.9409559797173
1108.0591,655.9769572284386
1110.0185,720.9354351899706
1111.9771,756.016504658412
1113.9351,737.7202732185101
1115.8923,712.2968408948468
1117.8488,646.5963003348038
1119.8045,602.3687370627963
1121.7596,519.9642301372769
1123.7139,467.2828525930131
1125.6675,443.5246722651327
1127.6204,450.23975231593386
1129.5726,443.5781514724704
1131.524,449.1899239593986
1133.4748,378.2251195655931
1135.4248,303.433783588031
1137.3741,217.8659575414399
1139.3226,200.37167990621174
1141.2705,180.30098698407983
1143.2176,143.15391307306209
1145.164,140.08049066816602
1147.1097,120.13075083286185
1149.0546,79.25472322981568
1150.9989,60.10243632038737
1152.9424,19.72391777339135
1154.8852,-7.130805343379961
1156.8272,-37.261706159373716
1158.7686,-30.318686567291024
1160.7092,-24.801276215392136
1162.6491,-0.9587018682559574
1164.5883,37.360057474284076
1166.5267,85.30603238982712
1168.4644,148.08025308237166
1170.4014,238.1837489028585
1172.3377,326.41754772142576
1174.2732,433.23267502637555
1176.2081,596.9301530418365
1178.1421,804.1609996596103
1180.0755,1001.1262268022001
1182.0082,1165.9768383505007
1183.9401,1217.8138281741458
1185.8713,1149.1881784830007
1187.8017,1016.5008593087932
1189.7315,862.7528291913718
1191.6605,693.4450365055759
1193.5888,598.3784209987198
1195.5163,520.5039154836672
1197.4432,475.72244678950074
1199.3693,452.78493654026397
1201.2947,451.49230160277966
1203.2193,435.89545431602073
1205.1432,427.9453025040416
1207.0664,417.24274963194193
1208.9889,422.8386948853695
1210.9106,430.8840332775453
1212.8316,439.0296555933073
1214.7519,457.02644830865347
1216.6715,471.37529350928844
1218.5903,511.67706871065275
1220.5084,537.4326467144351
1222.4257,586.7928952055545
1224.3424,612.2586764946063
1226.2583,655.3808470242561
1228.1735,722.8102571145855
1230.0879,793.0477505318677
1232.0016,867.6441638142751
1233.9146,943.3003255695035
1235.8269,938.1670557288089
1237.7384,938.6951647904452
1239.6492,885.7854538709948
1241.5592,892.2887147000915
1243.4686,913.1557301495154
1245.3772,986.5872741681605
1247.285,1095.2841115733668
1249.1922,1205.5469973166
1251.0986,1275.526675396487
1253.0042,1317.7238777561843
1254.9092,1383.8393235835842
1256.8134,1424.6737188893426
1258.7169,1495.4777558457204
1260.6196,1554.8521123782448
1262.5216,1647.597451457666
1264.4229,1699.914420506214
1266.3234,1776.853650470145
1268.2232,1815.4657552965728
1270.1223,1844.6013311640768
1272.0207,1855.1609560965799
1273.9183,1859.1951896719947
1275.8151,1836.4545729166239
1277.7113,1819.4396282648213
1279.6067,1879.9508597863955
1281.5014,1984.8387533567598
1283.3953,2186.3037760518205
1285.2885,2420.6963750990963
1287.181,2649.0169758630686
1289.0727,2878.415979501257
1290.9637,3024.0437606810106
1292.854,3112.30066528552
1294.7435,3115.987008957539
1296.6323,3070.453076216814
1298.5204,2986.2991204232267
1300.4077,2860.0253642321236
1302.2943,2745.6320004358663
1304.1802,2625.4691932265623
1306.0653,2408.687079339998
1307.9497,2221.585769257274
1309.8333,2058.365349372616
1311.7162,1935.5258838643972
1313.5984,1870.1674163273342
1315.4798,1800.739971000889
1317.3605,1762.4935534228484
1319.2405,1753.478151123601
1321.1197,1642.3437340086016
1322.9982,1526.7902544485228
1324.876,1412.0676483906018
1326.753,1285.6758365141732
1328.6293,1189.2147253778962
1330.5048,1111.8842086836735
1332.3796,1030.8841682412603
1334.2537,986.864474741571
1336.127,959.8249885666792
1337.9996,925.1655602300148
1339.8714,935.1860306467574
1341.7426,939.5362314804343
1343.6129,959.9159850427136
1345.4826,955.9751042499015
1347.3515,945.5633924191466
1349.2196,949.6306433078462
1351.087,958.2766412177648
1352.9537,965.2011609543624
1354.8197,998.1039677403328
1356.6849,1093.2848171463588
1358.5493,1150.0934547620823
1360.4131,1229.3296152443008
1362.276,1300.043021748878
1364.1383,1328.2333851383828
1365.9998,1285.750403274957
1367.8606,1179.7437607384072
1369.7206,1052.1631292510392
1371.5799,946.4081687377206
1373.4384,859.6285286016905
1375.2962,784.6238487821065
1377.1533,661.3437606218417
1379.0096,516.5378876175305
1380.8652,413.90584665236975
1382.7201,299.0972494441803
1384.5742,220.46170357172514
1386.4275,154.3988136227963
1388.2802,127.15818198056877
1390.132,89.03940948423178
1391.9832,80.59209570139319
1393.8336,45.91583930926754
1395.6832,35.460238179150565
1397.5322,33.724889723178876
1399.3803,34.909390998888284
1401.2278,21.513338726566417
1403.0745,18.686329277406003
1404.9204,15.077958807468804
1406.7656,20.787823285953436
1408.6101,33.86551853128094
1410.4538,53.61064015399552
1412.2968,79.9727834259852
1414.139,84.55154308303418
1415.9805,117.3965130611989
1417.8213,160.60728645102176
1419.6613,206.58345516908184
1421.5006,274.37460952588617
1423.3391,357.58033776610955
1425.1769,479.95022539067963
1427.0139,651.7838543247237
1428.8502,845.4308016938676
1430.6858,1064.7406381058975
1432.5206,1190.7629257142942
1434.3547,1273.1472160251326
1436.188,1290.743048636858
1438.0206,1269.0499504164447
1439.8524,1199.5674353234378
1441.6835,1180.6950046268835
1443.5139,1164.6821476001544
1445.3435,1141.2283417096749
1447.1724,1126.1330527750474
1449.0005,1115.195735203593
1450.8279,1090.8158321413023
1452.6545,1098.9427755822098
1454.4804,1128.2259866121929
1456.3056,1131.9148753276993
1458.13,1107.158840542919
1459.9536,1051.657269752895
1461.7766,970.3595393810817
1463.5987,842.4650153343634
1465.4202,736.2230538160284
1467.2409,622.9330026047171
1469.0608,526.5442021168394
1470.88,443.755986539476
1472.6984,363.1676847942663
1474.5161,286.52862136529234
1476.3331,246.83811710495888
1478.1493,207.34549000038646
1479.9648,184.75005557031545
1481.7795,163.40112726003326
1483.5935,148.44801666732747
1485.4067,137.3900337559753
1487.2192,127.77648700527584
1489.031,140.20668352062808
1490.842,123.27992912966761
1492.6522,101.89552825796409
1494.4618,112.60278409828948
1496.2705,102.10099882446093
1498.0785,98.73947348426827
1499.8858,85.81750810449262
1501.6924,80.38440172452033
1503.4981,79.28945252556446
1505.3032,70.58195788499347
1507.1075,61.661214387283735
1508.911,41.47651791109138
1510.7138,47.32716371846186
1512.5159,21.062446656675547
1514.3172,21.531661099742678
1516.1178,-1.615898788950517
1517.9176,4.719060938666416
1519.7166,9.63585037349253
1521.515,0.5337795592370185
1523.3126,-0.28784155674838985
1525.1094,-6.429703032449197
1526.9055,-12.04249205031465
1528.7008,-8.7268315600611
1530.4954,-28.083224206909563
1532.2893,-20.362085455033593
1534.0824,-15.613550217198963
1535.8747,-10.537549988938508
1537.6663,-4.583860286420304
1539.4572,-2.302151355688693
1541.2473,5.9579523499758125
1543.0367,17.246849375783086
1544.8253,18.76493820736414
1546.6132,44.36261715788237
1548.4003,51.590284352852905
1550.1867,71.89833747416537
1551.9723,95.38717368780749
1553.7572,136.55718944078353
1555.5414,181.75878022622783
1557.3247,254.19234017170334
1559.1074,310.2582615871863
1560.8893,390.6069342407304
1562.6705,466.4387447978056
1564.4509,527.3540760178146
1566.2305,573.2533059957727
1568.0094,597.3368075531562
1569.7876,589.9049477789074
1571.565,589.8580877886027
1573.3417,594.7965827987689
1575.1176,606.5707821273538
1576.8928,626.4810291443398
1578.6672,633.077661154002
1580.4409,638.4110091958066
1582.2138,662.481397978443
1583.986,706.68914582649
1585.7575,760.8845644397136
1587.5282,789.5679584509869
1589.2981,828.5896248843385
1591.0673,890.1998528681186
1592.8358,929.5489232447819
1594.6035,970.2371079547861
1596.3704,997.3646696430985
1598.1366,1022.1318612523162
1599.9021,1066.088925751391
1601.6668,1082.5860958879555
1603.4308,1139.9735937487537
1605.194,1203.4016305946693
1606.9564,1279.6204062868499
1608.7182,1397.230108652427
1610.4791,1514.18091272233
1612.2394,1643.3729795551862
1613.9988,1797.2064550678158
1615.7576,1914.1314687433082
1617.5156,2019.598132092691
1619.2728,2044.5565374856753
1621.0293,2019.9567570959925
1622.785,1924.3488426518102
1624.54,1799.7828256817274
1626.2942,1647.1087184708567
1628.0477,1478.7265153064825
1629.8005,1329.8861940048018
1631.5525,1201.1377175947478
1633.3037,1074.2310358063928
1635.0542,996.5160863584313
1636.804,915.9427962272489
1638.553,866.0110824240692
1640.3013,834.2708528006895
1642.0488,822.0220065487968
1643.7955,823.6644345173702
1645.5416,836.9480193351696
1647.2868,859.1226353943102
1649.0313,901.7381487174289
1650.7751,955.8444167359357
1652.5181,999.8412878638601
1654.2604,1063.278600956789
1656.0019,1127.756184871897
1657.7427,1222.2238578335734
1659.4828,1319.5314267886465
1661.222,1389.4286864617072
1662.9606,1392.7654183820323
1664.6984,1327.591390184611
1666.4354,1200.2063555767804
1668.1717,1021.7100549899635
1669.9072,836.6522168535207
1671.642,671.7325593797138
1673.3761,540.5007924142828
1675.1094,432.65661908564175
1676.8419,364.6997371171981
1678.5737,302.42983990579387
1680.3048,260.14661720127447
1682.0351,213.34975572918802
1683.7646,186.138939613616
1685.4934,159.71385084514418
1687.2215,145.6741695529688
1688.9488,124.51957426914873
1690.6754,106.2997420690026
1692.4012,102.31434878265259
1694.1263,86.26306917722445
1695.8506,90.0955769967004
1697.5742,79.36154512243274
1699.297,71.61064553481788
1701.0191,64.89254942063803
1702.7404,49.85692725056924
1704.461,38.75344884636252
1706.1808,35.6317835312002
1707.8999,27.691600240730168
1709.6182,26.88256755428256
1711.3358,21.30435377427284
1713.0527,13.50662693429058
1714.7688,19.289054854883034
1716.4841,12.651305221531175
1718.1987,17.89304552682688
1719.9126,14.21394313684823
1721.6257,16.913665238743988
1723.338,13.391878877523595
1725.0496,11.148250929059714
1726.7605,14.882448135308323
1728.4706,12.394137126742862
1730.18,20.232984385013197
1731.8886,6.498656267827755
1733.5964,11.640818930566866
1735.3036,5.059138463623867
1737.0099,11.603280840984326
1738.7156,12.522911986043141
1740.4204,-2.832302293837415
1742.1246,-1.0126963165237157
1743.8279,9.281423894817522
1745.5306,-6.000237566144165
1747.2325,-4.157976698553512
1748.9336,5.457970440817462
1750.634,-10.102590666616265
1752.3336,-6.98985459401888
1754.0325,3.396085010325919
1755.7307,-11.694795673218778
1757.4281,-1.4125204982506148
1759.1247,1.9930035126415078
1760.8206,6.221883447947448
1762.5158,-4.875773623772375
1764.2102,4.800139303824153
1765.9039,2.44977794605677
1767.5968,1.2232979702440616
1769.289,13.220855019207647
1770.9804,17.992604723536488
1772.6711,12.638702581611483
1774.361,10.009303911887855
1776.0502,4.954563906433918
1777.7386,13.074637657225821
1779.4263,10.219680206694079
1781.1132,8.689846466523136
1782.7994,8.985291246200745
1784.4849,15.706169268316785
1786.1696,16.152635165608444
1787.8535,25.874843413751137
1789.5367,17.672948326894357
1791.2192,30.797103960439244
1792.9009,7.997464193058249
1794.5818,21.12418259545268
1796.2621,20.877412658350295
1797.9415,18.007307661237064
1799.6202,15.014020674825815
1801.2982,25.447704589757677
1802.9755,21.00851214653335
1804.6519,28.496595831177615
1806.3277,25.012107919629898
1808.0027,31.305200402864443
1809.6769,31.876025021735245
1811.3504,32.07473320404483
1813.0231,34.35147605883583
1814.6951,40.2064043744042
1816.3664,42.139668595531134
1818.0369,33.15141876493476
1819.7067,34.74180450393635
1821.3757,39.76097510234388
1823.044,34.85907950254784
1824.7115,43.28626624932906
1826.3783,33.54268353887767
1828.0443,40.67847913452181
1829.7096,43.243800464163314
1831.3741,52.78879454891944
1833.0379,45.5636079774697
1834.701,50.668386810606194
1836.3633,46.50327665348516
1838.0248,49.16842260457952
1839.6856,48.61396929732996
1841.3457,49.040060873493076
1843.005,48.896840988685994
1844.6636,54.13445280812584
1846.3214,49.10303900806127
1847.9785,52.6527417233965
1849.6349,57.28370259800647
1851.2904,54.54606274923833
1852.9453,65.78996272160305
1854.5994,62.61554251415123
1856.2528,59.57294146803497
1857.9054,62.612298298250835
1859.5572,64.83375112406634
1861.2083,63.78743743862583
1862.8587,73.07349408673679
1864.5084,71.14205727533249
1866.1572,65.1932624806119
1867.8054,63.12724446735342
1869.4528,57.4441373484043
1871.0994,65.24407460533871
1872.7453,66.52718914528998
1874.3905,61.89361322295065
1876.0349,65.04347842774166
1877.6786,70.37691573014808
1879.3215,75.49405545022034
1880.9637,65.24502720423982
1882.6051,66.97995985354771
1884.2458,70.14898160703535
1885.8858,76.60222000379451
1887.525,70.03980188142782
1889.1634,74.01185331151623
1890.8011,72.21849966524326
1892.4381,73.85986557367437
1894.0743,71.88607494569021
1895.7098,69.89725095157314
1897.3446,74.19351604274527
1898.9786,75.42499197165625
1900.6118,76.09179974882124
1902.2443,78.14405963050558
1903.8761,68.63189111205645
1905.5071,66.65541290738156
1907.1374,66.56474304406993
1908.7669,73.60999888315666
1910.3957,77.14129712002944
1912.0237,69.1587537139767
1913.651,71.26248385287374
1915.2776,74.80260203300907
1916.9034,80.17922203804642
1918.5285,80.49245690362386
1920.1528,66.14241886358752
1921.7764,80.52921934685946
1923.3992,71.20296912093795
1925.0213,71.46377814802906
1926.6427,67.21175567830971
1928.2633,63.99701024731962
1929.8832,72.86964971848101
1931.5023,64.57978131524646
1933.1207,69.97751153237243
1934.7383,62.71294621881782
1936.3552,69.28619052376666
1937.9714,74.94734896927366
1939.5868,67.44652538453215
1941.2015,67.73382284926208
1942.8154,68.10934376871819
1944.4286,61.47318987081735
1946.041,58.325462202383164
1947.6528,63.116261195507946
1949.2637,63.995686699028965
1950.8739,64.36383793062123
1952.4834,65.87081346800369
1954.0921,58.61671124525685
1955.7001,57.80162853775323
1957.3074,68.6256620346993
1958.9139,56.038907847285145
1960.5197,60.39146140044443
1962.1247,59.033417558721794
1963.729,55.114870582747244
1965.3325,53.18591414281707
1966.9353,52.646641358079364
1968.5374,61.29714481582289
1970.1387,63.08751657687037
1971.7393,68.51784808907337
1973.3392,53.13823016940819
1974.9383,61.69875294967312
1976.5366,59.199506030284624
1978.1342,53.190578394672116
1979.7311,51.12205843427034
1981.3273,54.194034008608355
1982.9227,54.656592465995004
1984.5173,51.90982061279885
1986.1112,53.103804708823304
1987.7044,59.58863049477361
1989.2968,51.46438318031676
1990.8885,59.98114737923379
1992.4795,60.08900719066196
1994.0697,55.73804611392768
1995.6592,64.5283470474676
1997.2479,59.70999233233806
1998.8359,56.88306366431243
2000.4232,61.14764214206457
2002.0097,42.553808295437534
2003.5955,51.45164204279865
2005.1805,48.791222876977145
2006.7648,54.722629776285885
2008.3484,55.09594123112606
2009.9312,61.711235184672546
2011.5133,54.26858902914137
2013.0946,58.11807953963637
2014.6752,51.309782948576185
2016.2551,58.39377490719812
2017.8342,57.820130553642684
2019.4126,54.18892444211258
2020.9902,46.25023054860924
2022.5672,51.70412230724526
2024.1433,50.500672689630846
2025.7188,54.63995415033571
2027.2935,56.12203863892262
2028.8674,47.846997558555586
2030.4406,52.86490175117797
2032.0131,46.6758215802638
2033.5849,46.82982688063805
2035.1559,51.876987020368006
2036.7261,39.36737089922258
2038.2957,50.201046898201525
2039.8645,48.92808300463116
2041.4325,50.29854670382815
2042.9998,55.06250499182795
2044.5664,51.1200243616812
2046.1323,57.57117075581334
2047.6974,48.566009605450176
2049.2617,51.60460576610603
2050.8254,47.28702360763555
2052.3883,48.61332698384683
2053.9504,49.03357927567879
2055.5118,50.39784337793685
2057.0725,53.00618169509096
2058.6325,57.05865612763296
2060.1917,52.15532804599354
2061.7502,48.64625825001667
2063.3079,45.63150701799418
2064.8649,49.761134141755065
2066.4212,52.03519895681404
2067.9767,49.353760301074544
2069.5315,49.516876492088386
2071.0856,47.17460535387045
2072.6389,44.42700421526649
2074.1915,44.62412993337648
2075.7433,45.76603892103083
2077.2945,42.55278714481858
2078.8448,40.934430113668896
2080.3945,46.36102291098291
2081.9434,51.332620210817936
2083.4916,43.99927622362168
2085.039,38.261044646515586
2086.5857,47.46797873662911
2088.1317,41.47013136848142
2089.677,41.467554941912056
2091.2215,50.81030144205948
2092.7652,40.79842243938651
2094.3083,43.7819689962534
2095.8506,40.410991767036364
2097.3921,44.43554096829223
2098.933,41.005666412467974
2100.4731,42.121417467655874
2102.0124,37.68284309189113
2103.5511,47.689991821995704
2105.089,47.642911817963125
2106.6261,52.39165076288731
2108.1626,49.63625586343369
2109.6983,49.926773802350965
2111.2332,43.01325076602626
2112.7675,47.445732441578286
2114.301,46.574264085993775
2115.8337,44.24889048180239
2117.3657,44.669655945791476
2118.897,46.38660435225995
2120.4276,48.7997791288102
2121.9575,40.90922323917863
2123.4866,47.21497915910447
2125.0149,48.01708895523484
2126.5426,48.61559422206693
2128.0695,41.710536073927756
2129.5956,31.601955138988217
2131.1211,40.839891628314604
2132.6458,44.87438543695356
2134.1698,44.955476051553205
2135.693,44.38320251001829
2137.2155,47.35760340069868
2138.7373,41.57871686811268
2140.2584,46.19658058320283
2141.7787,42.061231801124734
2143.2983,41.57270731506782
2144.8171,40.331043497610096
2146.3353,33.036276305602314
2147.8527,38.73844129258538
2149.3693,37.487573681737274
2150.8853,37.73370830885182
2152.4005,40.57687963484716
2153.9149,37.96712174330469
2155.4287,36.80446831203756
2156.9417,38.188952639187846
2158.454,36.320607654853404
2159.9655,35.599465907242745
2161.4764,38.525559581358664
2162.9865,36.49892050620906
2164.4958,36.46958012554694
2166.0045,34.937569518136
2167.5124,43.55291939804437
2169.0195,42.415660129964806
2170.526,37.075821643060976
2172.0317,37.683433442340345
2173.5367,32.98852466205227
2175.0409,31.84112405961207
2176.5445,35.84126006254996
2178.0473,34.78896077998513
2179.5494,36.78425396262418
2181.0507,36.927167013284304
2182.5513,38.66772696694079
2184.0512,34.50596048929708
2185.5504,35.44189385937972
2187.0488,39.375553011155716
2188.5465,39.856963524173636
2190.0435,32.68615058422682
2191.5397,33.66313897853894
2193.0353,35.23795316747237
2194.5301,34.8106172747581
2196.0241,33.03115507174806
2197.5175,28.99958998168796
2199.0101,30.96594509751236
2200.502,30.680243222160243
2201.9931,33.7925068489111
2203.4835,34.952758164242596
2204.9733,32.31101901670712
2206.4622,34.61731090532993
2207.9505,28.9216550060263
2209.438,27.074072148538562
2210.9248,31.674582873392865
2212.4109,29.223207450374787
2213.8962,23.71996583252445
2215.3809,25.564877680650397
2216.8648,32.30796241836168
2218.3479,32.34923921361866
2219.8304,28.288726911302376
2221.3121,26.076444032801817
2222.7931,23.012408816618745
2224.2733,20.44663924049081
2225.7529,23.379153052031654
2227.2317,23.559967794388456
2228.7098,26.88910077691719
2230.1872,21.81656907337424
2231.6638,19.192389488624997
2233.1397,19.266578609369674
2234.6149,25.089152830384535
2236.0894,26.210128353780362
2237.5632,19.929521130776266
2239.0362,17.697346850490362
2240.5085,14.763621002745822
2241.9801,23.92835890039248
2243.4509,20.241575708644348
2244.921,15.253286353432088
2246.3904,24.06350555827089
2247.8591,23.372247894143413
2249.3271,19.079527691397516
2250.7943,20.385359046658834
2252.2608,15.639755865758048
2253.7266,13.392731850672305
2255.1917,18.944300546981594
2256.656,19.944475366338906
2258.1197,15.743269530954763
2259.5826,17.940696063595
2261.0447,16.486767829593077
2262.5062,15.98149751487557
2263.9669,13.424897640501626
2265.4269,15.616980567715416
2266.8862,19.307758523512405
2268.3448,18.74724357871844
2269.8026,21.985447611081895
2271.2598,13.272382310879095
2272.7162,14.958059148531959
2274.1719,22.14248946173899
2275.6268,10.575684438618339
2277.0811,13.307655045863385
2278.5346,15.588412144410825
2279.9874,23.617966462121103
2281.4395,17.296328570970672
2282.8908,16.373508806756377
2284.3414,24.599517332312075
2285.7914,18.574364146736684
2287.2406,17.5480590031342
2288.689,15.77061146886507
2290.1368,18.042030935809464
2291.5838,17.51232663814136
2293.0302,18.581507629614862
2294.4758,20.699582788860823
2295.9206,21.166560808695237
2297.3648,15.382450174938242
2298.8082,17.997259161744466
2300.251,16.91099588944411
2301.693,18.673668298395114
2303.1343,21.685284159845594
2304.5748,15.195851058307369
2306.0147,15.655376361439266
2307.4538,19.113867284941932
2308.8922,17.971330887962438
2310.3299,20.727774038509267
2311.7669,14.883203424877877
2313.2031,23.887625528086062
2314.6387,12.091046680319721
2316.0735,10.343472974888698
2317.5076,17.994910384192735
2318.941,17.745364777197096
2320.3737,13.244841842918163
2321.8056,14.843347092918634
2323.2369,19.640885906313372
2324.6674,11.837463513783916
2326.0972,17.48308494960304
2327.5263,17.427755129669265
2328.9547,16.221478795050245
2330.3823,17.614260512536475
2331.8092,14.206104686703611
2333.2355,10.49701554598488
2334.661,14.236997176752482
2336.0858,8.926053560408889
2337.5098,11.114188535986727
2338.9332,11.951405853258223
2340.3558,8.487709150854357
2341.7778,15.623101947892053
2343.199,12.157587678611264
2344.6195,19.391169621021106
2346.0393,13.023850931554875
2347.4583,13.505634572734209
2348.8767,16.13652337684283
2350.2943,11.266520041108095
2351.7113,15.195627101392347
2353.1275,20.0238469808927
2354.543,14.801181950850207
2355.9578,14.72763408226723
2357.3718,16.603205298134412
2358.7852,14.127897374166139
2360.1978,12.851711920044806
2361.6098,13.624650404174247
2363.021,16.996714166441052
2364.4315,14.817904410485596
2365.8413,15.438222169981316
2367.2504,12.857668330422996
2368.6587,7.926243622923266
2370.0664,15.593948650018262
2371.4733,14.910783934981623
2372.8795,17.076749845147617
2374.285,15.541846598742836
2375.6899,10.30607424322642
2377.0939,10.369432670639071
2378.4973,15.981921669960968
2379.9,8.043540926478329
2381.3019,7.70428996565812
2382.7032,10.864168232532052
2384.1037,5.973175095089005
2385.5035,8.331309812676409
2386.9027,11.538571584910017
2388.3011,13.09495952809283
2389.6987,12.100472643142155
2391.0957,7.255109800026219
2392.492,5.5588697477081155
2393.8876,8.46175116259991
2395.2824,9.613752665525055
2396.6765,8.064872792689755
2398.07,11.86510998416287
2399.4627,3.7144625993645946
2400.8547,9.412928879063998
2402.246,11.3605070268855
2403.6366,4.6071951523240955
2405.0265,5.40299125127018
2406.4156,4.447893273542036
2407.8041,5.291899114928299
2409.1918,3.235006626738823
2410.5789,4.47721360736432
2411.9652,17.51851782284575
2413.3508,8.658916994451602
2414.7358,8.198408668265415
2416.12,13.1869903037815
2417.5035,10.274659278510512
2418.8863,7.861412838093372
2420.2684,15.447248125424835
2421.6497,13.782162204785777
2423.0304,6.4661519859848795
2424.4104,7.549214241009224
2425.7896,3.281345677184561
2427.1682,9.262542926344281
2428.546,7.192802587508538
2429.9232,5.222121167072146
2431.2996,7.700495099502007
2432.6753,12.627920767043804
2434.0503,9.204394474938624
2435.4246,3.2299124021482157
2436.7982,7.354470635590701
2438.1711,8.278065229885101
2439.5433,8.450692166105966
2440.9148,5.47234734254738
2442.2856,6.9430265729963025
2443.6557,7.512725616516548
2445.025,13.531440162741546
2446.3937,0.9991658261778298
2447.7617,7.615898086017523
2449.1289,9.031622439786304
2450.4955,9.646324308850751
2451.8613,4.359989024261438
2453.2265,3.672601820605678
2454.5909,6.184147888871223
2455.9546,10.894612383319895
2457.3177,8.20398039637223
2458.68,3.1122369115025776
2460.0416,6.319366830145839
2461.4025,10.775355022614235
2462.7627,8.930186296026648
2464.1222,10.43384534974831
2465.4811,8.686316793842764
2466.8392,6.137585134035248
2468.1966,7.937634789187882
2469.5533,14.136450116786989
2470.9093,8.534015394942799
2472.2645,13.630314760400836
2473.6191,14.725332264566958
2474.973,14.819051822543855
2476.3262,12.861457202181185
2477.6787,14.152532023138207
2479.0305,19.79225977645976
2480.3816,7.830623811665333
2481.7319,9.417607280351973
2483.0816,11.053193255810669
2484.4306,9.437364717156242
2485.7789,14.77010453297163
2487.1264,9.201395477466434
2488.4733,9.881220177149117
2489.8195,8.309561166514413
2491.165,15.986400881244805
2492.5097,11.261721673927326
2493.8538,11.235505737285195
2495.1972,13.807735151424538
2496.5398,13.778391884096521
2497.8818,7.997457764975195
2499.2231,9.364914485950806
2500.5637,12.530743658939144
2501.9035,9.594926802206942
2503.2427,16.707445308713574
2504.5812,11.618280475469135
2505.919,13.527413432409446
2507.256,10.484825193287605
2508.5924,5.4404966365826795
2509.9281,18.194408535925703
2511.2631,11.546541610542732
2512.5974,19.346876397715903
2513.9309,9.79539331926216
2515.2638,12.542072603529874
2516.596,16.28689438091348
2517.9275,15.179838656386892
2519.2583,14.420885272055017
2520.5884,13.810013918224485
2521.9178,16.097204140993142
2523.2465,14.532435348358774
2524.5745,18.565686787347033
2525.9018,8.896937559659477
2527.2284,14.626166581340641
2528.5543,11.953352679465894
2529.8796,16.42847453484896
2531.2041,15.751510708770269
2532.5279,17.322439598225543
2533.851,18.341239442695525
2535.1735,15.707888308436651
2536.4952,13.072364078293049
2537.8163,18.8346444780301
2539.1366,18.244707102689432
2540.4562,19.652529358966518
2541.7752,15.15808847110975
2543.0935,16.861361466842595
2544.411,18.61232522230759
2545.7279,21.860956445033935
2547.0441,21.307231656427604
2548.3596,22.25112715928509
2549.6744,22.54261904333063
2550.9885,17.381683175777198
2552.3019,15.368295198411687
2553.6146,19.45243057920436
2554.9266,17.984064632442596
2556.2379,21.763172477889498
2557.5485,25.039729055467575
2558.8585,20.41370908746765
2560.1677,26.28508704578337
2561.4762,24.653837198171544
2562.7841,19.869933549538104
2564.0913,27.083349858250756
2565.3977,17.74405968397795
2566.7035,22.552036315554744
2568.0086,21.957252864375533
2569.313,24.109682216314525
2570.6167,22.65929703767347
2571.9197,16.706069753657374
2573.222,22.249972562878412
2574.5236,23.79097749688816
2575.8246,24.979056364738568
2577.1248,29.91418073757194
2578.4244,25.346321936740253
2579.7232,25.075450984453653
2581.0214,27.301538649459218
2582.3189,29.57455544974954
2583.6157,23.944471630302075
2584.9118,29.811257140348772
2586.2072,28.174881689676994
2587.5019,27.58531468996165
2588.7959,25.542525271129023
2590.0893,39.24648228725235
2591.3819,27.197154336979708
2592.6739,36.2945096264944
2593.9652,26.038516090008216
2595.2557,32.77914129878792
2596.5456,39.46635256371522
2597.8348,36.15011686788054
2599.1234,33.38040079971091
2600.4112,34.207170586132264
2601.6983,38.4803921202666
2602.9848,42.80003095316434
2604.2705,33.866052251072006
2605.5556,35.37842075223594
2606.84,36.537100856241864
2608.1237,36.7920566088915
2609.4067,37.39325169061564
2610.689,34.340649413924524
2611.9707,32.434212717396036
2613.2516,33.67390419620173
2614.5319,34.20968612117093
2615.8115,31.24152042639409
2617.0903,33.61936870386478
2618.3685,32.14319223316147
2619.6461,31.212951957669077
2620.9229,32.3786084993406
2622.199,35.490122167999886
2623.4745,31.847452949684623
2624.7493,34.90056047553148
2626.0234,37.34940405820262
2627.2968,33.34394266135462
2628.5695,33.48413487515023
2629.8415,36.169938956312734
2631.1128,37.80131282672423
2632.3835,34.82821404656741
2633.6535,37.150599798012024
2634.9228,34.518426914945564
2636.1914,35.38165185974975
2637.4593,30.240230749621986
2638.7265,34.99411934794318
2639.9931,38.64327311569198
2641.259,34.287647163905945
2642.5242,29.327196217189936
2643.7887,32.26187465727233
2645.0525,31.891636572609798
2646.3156,34.36643572904035
2647.5781,33.736225573485626
2648.8398,29.40095920920308
2650.1009,37.06058940208797
2651.3613,32.81506862402594
2652.6211,24.464348976296918
2653.8801,30.058382232030226
2655.1385,36.947119919711696
2656.3961,34.83051326724342
2657.6531,32.95851313305647
2658.9094,32.13107002727676
2660.1651,34.49813413044515
2661.42,33.00965530179187
2662.6743,32.66558305556589
2663.9279,35.81586657591964
2665.1808,32.51045472034991
2666.433,40.249295988194916
2667.6846,40.782338553688334
2668.9354,42.20953018857091
2670.1856,40.03081825676017
2671.4351,36.896149700078325
2672.6839,46.30547106003954
2673.9321,45.658728509196294
2675.1795,36.60586775704658
2676.4263,43.59683405650108
2677.6724,43.18157229441192
2678.9179,46.66002692166285
2680.1626,43.682141957322074
2681.4067,45.14786095385767
2682.6501,47.05712702691639
2683.8928,50.409882840666484
2685.1348,39.206070588705046
2686.3761,44.94563196053039
2687.6168,43.72850825358026
2688.8568,37.70464031583606
2690.0961,36.57396855799425
2691.3348,36.48643301370484
2692.5727,39.79197335087841
2693.81,33.94052887256126
2695.0466,39.18203848387998
2696.2826,36.36644075055605
2697.5178,36.69367384649058
2698.7524,39.26367558192044
2699.9863,40.22638340014581
2701.2195,43.581734351830136
2702.452,36.27966508537315
2703.6839,43.77011181335723
2704.9151,48.603010385568155
2706.1456,43.12829621409068
2707.3755,44.795904224979466
2708.6046,48.1057689130063
2709.8331,55.20782432498402
2711.0609,51.452004026667794
2712.2881,52.18824103173472
2713.5145,55.316467839341925
2714.7403,64.23661642676424
2715.9654,64.09861821811197
2717.1899,67.25240399512916
2718.4136,70.54790389857374
2719.6367,68.43504739667964
2720.8591,81.16376325220179
2722.0809,79.03397954354463
2723.3019,84.09562353747515
2724.5223,89.54862171042052
2725.7421,95.84289969785183
2726.9611,96.57838223975395
2728.1795,88.20499311768285
2729.3972,86.27265514741089
2730.6142,81.38129026266046
2731.8306,80.23081953442761
2733.0462,74.32116321989554
2734.2612,70.8522407739394
2735.4756,62.72397090822278
2736.6892,56.636271625886934
2737.9022,56.08906030283342
2739.1145,52.28225374860099
2740.3262,46.51576821183792
2741.5372,41.73951941836978
2742.7475,39.20342262886453
2743.9571,38.15739268659513
2745.1661,35.401344042800304
2746.3744,25.985190767144985
2747.582,22.90884657528062
2748.7889,21.772224923006803
2749.9952,18.57523903703492
2751.2008,20.317801926354065
2752.4057,19.199826414201056
2753.61,18.921225120634716
2754.8136,9.781910473715612
2756.0165,12.181794712292117
2757.2188,16.270789977393548
2758.4204,10.948808288231362
2759.6213,8.415761501309191
2760.8215,11.921561363642638
2762.0211,13.36611953808989
2763.22,11.149347568293507
2764.4182,10.27115686423494
2765.6158,3.931458724402262
2766.8127,6.030164344572029
2768.009,4.517184881206305
2769.2045,7.392431430465564
2770.3994,6.155815043338464
2771.5936,-1.392753303110453
2772.7872,1.0466373066251151
2773.9801,-2.076088298342995
2775.1723,1.5389947006308944
2776.3639,-3.6081681376856523
2777.5548,-6.317631269914955
2778.745,-1.839413107079622
2779.9346,-4.573468947066033
2781.1235,-5.119735712023726
2782.3117,-2.9281046351474345
2783.4992,-1.548415803472352
2784.6861,-1.7804800522682456
2785.8723,-8.12409274813109
2787.0579,-1.2290314706612548
2788.2428,-4.6949926397725505
2789.427,1.4283396026455932
2790.6106,-4.00867198232001
2791.7935,-0.15566464786576262
2792.9757,1.037764399444825
2794.1573,4.522019508138186
2795.3382,7.0475050163631465
2796.5184,7.76462521704849
2797.698,10.423784332647955
2798.8769,9.275386507969245
2800.0551,21.46983578358217
2801.2327,16.7075361073029
2802.4096,22.438891212249416
2803.5859,28.114304664464385
2804.7615,34.48417980560174
2805.9364,34.64891969617244
2807.1106,43.208927051845734
2808.2842,49.864604241801715
2809.4572,54.91635320313131
2810.6294,63.214575374279434
2811.801,79.1596716445276
2812.972,84.45204227101172
2814.1423,96.64208671927088
2815.3119,115.4802036103242
2816.4808,123.2667905987696
2817.6491,145.75224418440334
2818.8167,160.73695963435367
2819.9837,178.2713307582264
2821.15,197.40574975825785
2822.3157,208.8406070539712
2823.4807,234.77629109083213
2824.645,248.16318822590043
2825.8086,273.651682468473
2826.9716,286.74215534621493
2828.134,304.73498565027455
2829.2957,322.38054930437875
2830.4567,334.37921918490457
2831.617,339.0813649444236
2832.7767,346.4373528917154
2833.9358,337.44754594474614
2835.0941,337.06230355710807
2836.2519,326.43198180791865
2837.4089,322.20693340567163
2838.5653,319.3875077945419
2839.7211,309.77405119663433
2840.8761,310.7669066401793
2842.0306,306.91641405566645
2843.1843,313.12291026591697
2844.3374,326.4867290245875
2845.4899,338.80820095410616
2846.6417,354.7376534120333
2847.7928,374.725410367848
2848.9433,385.32179224365245
2850.0931,398.32711571429525
2851.2422,426.19169360140677
2852.3907,448.0158347433463
2853.5385,468.7498437165566
2854.6857,482.14402061732176
2855.8323,499.3986608544277
2856.9781,508.6640550152203
2858.1233,529.2404886930585
2859.2679,539.4782423946613
2860.4118,565.6275913343422
2861.555,565.8388053316332
2862.6976,586.7621485497903
2863.8395,602.3478794936807
2864.9808,602.8462508005514
2866.1214,613.4075090841698
2867.2614,620.531894929841
2868.4007,629.5196427887954
2869.5393,636.9209809069444
2870.6773,635.5861312350023
2871.8146,631.5653093544748
2872.9513,639.1087244910054
2874.0874,631.2665795545852
2875.2227,634.0390710641179
2876.3574,623.1263892258415
2877.4915,612.7787179056037
2878.6249,608.6462347379878
2879.7577,594.5291112297907
2880.8898,590.2775128013465
2882.0212,587.0415989276983
2883.152,589.4715231811145
2884.2821,591.3174332634476
2885.4116,584.9794709818345
2886.5405,581.7577722302389
2887.6686,582.0524670528287
2888.7962,588.3136796761951
2889.923,587.4915285064042
2891.0493,598.4361260663859
2892.1748,598.347579004154
2893.2997,604.525987983362
2894.424,602.2214476841873
2895.5476,606.7340467415472
2896.6706,617.2638677681454
2897.7929,614.6609873093446
2898.9145,624.375475737869
2900.0355,636.8573972798333
2901.1559,653.0568099175973
2902.2756,649.1237652649472
2903.3946,657.858308405101
2904.513,668.2104779300391
2905.6308,690.8803058531594
2906.7479,691.8178175057544
2907.8643,696.7230313103144
2908.9801,694.1459587711513
2910.0953,704.8866044253473
2911.2098,701.7949658685245
2912.3236,692.9710336474395
2913.4368,689.0147912908992
2914.5494,676.7262153980004
2915.6613,680.6052756776917
2916.7725,670.8019350716603
2917.8831,655.0661497155401
2918.9931,645.6478690369463
2920.1024,637.7470359128325
2921.211,628.813586763674
2922.319,631.9474516324753
2923.4264,620.3485542741057
2924.5331,621.8168121239595
2925.6391,615.8021364139458
2926.7445,615.7044321578055
2927.8493,623.0735982112583
2928.9534,607.5595272729797
2930.0569,619.4121058109093
2931.1597,628.9812142173914
2932.2619,632.9667266906495
2933.3634,631.218511139095
2934.4643,625.986429141472
2935.5645,629.0203359643399
2936.6641,624.0200806143934
2937.763,620.8855058081243
2938.8613,607.8164480218236
2939.959,596.6627375229267
2941.056,579.8241985007055
2942.1523,549.7006491778042
2943.248,532.2419019786249
2944.3431,499.44776383056376
2945.4375,470.61803633859756
2946.5313,436.60251611322565
2947.6244,403.6009950587671
2948.7169,374.9132607135161
2949.8087,349.03909657975623
2950.8999,325.87828241063954
2951.9904,297.18059446892636
2953.0803,276.39580575859475
2954.1696,257.1736863118168
2955.2582,247.11400339680688
2956.3462,229.71652171004226
2957.4335,217.93100347686033
2958.5202,213.15720862543355
2959.6062,205.59489490462417
2960.6916,198.54381793172257
2961.7764,193.45373126807027
2962.8605,183.4243864895706
2963.9439,187.3555332375898
2965.0267,173.74691931925025
2966.1089,178.54829066811888
2967.1905,175.0593914802937
2968.2714,177.12996416638995
2969.3516,183.30974938642888
2970.4312,183.09848602913226
2971.5102,184.54591115012445
2972.5885,189.2017599740451
2973.6662,186.71576588007494
2974.7432,190.98766035537707
2975.8196,191.2671730199572
2976.8954,190.8040315839444
2977.9705,188.1979618447962
2979.045,188.24868769192972
2980.1188,183.00593113278265
2981.192,179.36941229230587
2982.2645,174.038849465391
2983.3364,164.86395915323575
2984.4077,157.49445611664933
2985.4783,152.98005346780144
2986.5483,147.57046274391715
2987.6177,140.26539395242114
2988.6864,131.3645556250337
2989.7545,121.91765489082101
2990.8219,106.27439756520391
2991.8887,94.93448824442669
2992.9548,89.79763046198966
2994.0204,73.16352680204844
2995.0852,67.28187895078233
2996.1495,60.90238786273554
2997.2131,51.27475381963356
2998.276,45.49867649417803
2999.3383,39.12385504632309
3000.4,34.59998818103617
3001.4611,24.22677421204631
3002.5215,24.003911107082672
3003.5812,14.13109659160682
3004.6404,12.508028151041145
3005.6989,13.78440312949715
3006.7567,6.359918746006144
3007.8139,5.884272081755427
3008.8705,6.357160154333172
3009.9264,1.5782799224849384
3010.9818,1.4973282813848243
3012.0364,-1.63599788957589
3013.0905,-1.022001725979095
3014.1439,-2.760970019787834
3015.1966,-2.603179353167974
3016.2487,-2.9988787261949312
3017.3002,-3.248291133182448
3018.3511,-3.00160960964584
3019.4013,-2.7089947406720967
3020.4509,-4.120577125268227
3021.4998,-3.1364602995838027
3022.5481,2.2432933647969833
3023.5958,-1.1813471704716534
3024.6428,1.0895870338315063
3025.6892,-2.3439232814141064
3026.735,0.8681026137750933
3027.7802,6.975668865176175
3028.8247,3.978779609885194
3029.8685,2.027438915241518
3030.9118,5.571650808796861
3031.9544,3.8614192978285473
3032.9963,9.346748333897423
3034.0376,5.977641829950187
3035.0783,13.954103605466173
3036.1184,13.676137420148265
3037.1578,15.143746894158511
3038.1966,21.856935510897614
3039.2348,16.41570660232881
3040.2723,21.870063281846257
3041.3092,21.270008498686906
3042.3455,23.865544983387124
3043.3811,19.20667525378323
3044.4161,23.543401589056188
3045.4505,20.925726076320274
3046.4842,24.053650567255758
3047.5173,15.977176704285696
3048.5498,20.146305889296684
3049.5816,25.361039364403553
3050.6128,22.171378170258123
3051.6434,21.477323093901873
3052.6734,26.478874700662573
3053.7027,22.0760333410948
3054.7314,24.868799100964395
3055.7594,22.70717184527699
3056.7868,27.891151190350257
3057.8136,22.320736525430178
3058.8398,24.695926960851338
3059.8653,24.266721383740943
3060.8902,26.983118434267055
3061.9145,26.645116509930517
3062.9381,27.752713738401013
3063.9612,25.105907980897058
3064.9835,27.104696821110053
3066.0053,26.94907759167235
3067.0264,27.43904735416939
3068.0469,24.274602900695783
3069.0668,26.605740748955796
3070.086,23.83245717390767
3071.1046,26.10474818445229
3072.1226,24.872609551166008
3073.1399,18.68603678357765
3074.1567,19.04502514249006
3075.1727,16.849569701845752
3076.1882,16.799665345137015
3077.203,13.845306787360443
3078.2173,14.286488575516017
3079.2308,14.523205118150699
3080.2438,13.255450680946595
3081.2561,12.333219384353825
3082.2678,10.806505216268064
3083.2789,6.875302041252866
3084.2893,8.18960361580676
3085.2991,4.399403627675255
3086.3083,8.15469568270791
3087.3169,4.855473342760249
3088.3248,3.0017300881408744
3089.3321,3.093459350603709
3090.3388,5.480654531885378
3091.3449,3.8133090027879604
3092.3503,1.591416079307038
3093.3551,2.16496903930512
3094.3593,3.9839611447306
3095.3629,-0.05161436411777487
3096.3658,0.4582357132191177
3097.3681,4.213505092827866
3098.3698,-3.0358125137872705
3099.3708,2.760276562742966
3100.3713,0.8017963195547964
3101.3711,0.18877072618175106
3102.3702,0.47122374413940094
3103.3688,5.899179333055628
3104.3667,0.2726614478461258
3105.364,3.1916939844348065
3106.3607,1.3563008360190238
3107.3568,2.666505863879209
3108.3522,1.5723329157327868
3109.347,0.6238058126321917
3110.3412,0.17094835990653934
3111.3348,1.6137843566469385
3112.3277,1.6523358941703492
3113.32,2.9866250476558918
3114.3117,0.5166738757593592
3115.3028,-0.25749559272972533
3116.2932,1.0641386658114698
3117.2831,3.7316012473867204
3118.2723,2.244916737358423
3119.2608,3.0041096837730024
3120.2488,0.9092046122277253
3121.2361,2.7102260182787887
3122.2229,-1.4428016116096245
3123.209,3.5001461819244284
3124.1944,2.3891082718309704
3125.1793,4.574123496058576
3126.1635,5.905230668664771
3127.1471,7.732468557965866
3128.1301,1.8058758732258937
3129.1125,4.125491246384229
3130.0942,3.0413532913214922
3131.0753,4.603500580663443
3132.0558,5.911971656622306
3133.0357,6.21680501537535
3134.015,5.5180390939801285
3134.9936,6.465712267326168
3135.9716,7.009862855122634
3136.949,7.1005291124215475
3137.9258,6.137749224176346
3138.902,5.871561304335202
3139.8775,8.902003405468797
3140.8524,4.379113521432231
3141.8267,8.752929557060554
3142.8004,7.123489373397717
3143.7735,6.990830743958398
3144.7459,12.15499137102239
3145.7178,8.516008886961195
3146.689,8.42392080259642
3147.6596,10.42876454358959
3148.6295,8.430577451363053
3149.5989,10.7293967630515
3150.5676,13.575259631483878
3151.5357,9.068203102195188
3152.5032,9.858264084967832
3153.4701,9.19547939890219
3154.4364,11.92988576451604
3155.402,14.06151981037236
3156.367,12.240418045735307
3157.3315,12.516616839253842
3158.2952,12.590152437172737
3159.2584,13.961060960570617
3160.221,14.329378404624574
3161.1829,12.245140624901122
3162.1442,11.758383333672992
3163.105,12.469142120761529
3164.065,12.327452458404249
3165.0245,15.18334969414725
3165.9834,15.886869052262131
3166.9416,16.688045605186986
3167.8993,17.23691426649125
3168.8563,14.68350978286389
3169.8127,17.37786672862477
3170.7684,16.370019531258638
3171.7236,13.310002444471598
3172.6782,15.997849558269557
3173.6321,17.233594829558413
3174.5854,16.76727205526557
3175.5381,16.948914859982473
3176.4902,15.37855670062788
3177.4417,18.806230864631374
3178.3926,17.431970485636995
3179.3428,23.105808509226478
3180.2924,16.677777706661857
3181.2415,20.39791061814709
3182.1899,20.11623961710836
3183.1377,18.38279687299275
3184.0848,19.397614354084943
3185.0314,18.66072384484167
3185.9773,20.672156935743516
3186.9227,19.981945030663827
3187.8674,20.690119326754388
3188.8115,22.84671082134754
3189.755,22.35175030487443
3190.6979,20.6552683392991
3191.6402,22.057295263068102
3192.5818,22.557861208075295
3193.5229,31.106996085641597
3194.4633,22.40472958150932
3195.4031,24.2510910703508
3196.3423,24.896109702791097
3197.2809,21.68981438694436
3198.2189,22.18223378196364
3199.1563,23.723396330103835
3200.0931,25.113330251797528
3201.0292,23.85206353024333
3201.9648,28.08962389750655
3202.8997,27.22603884713185
3203.834,25.611335591767677
3204.7677,25.045541071802077
3205.7008,26.22868197150974
3206.6333,25.21078472470995
3207.5652,25.591875502935157
3208.4964,25.321980225609988
3209.4271,24.05112455624029
3210.3571,28.029333905112118
3211.2865,28.406633442000285
3212.2154,30.483048056386252
3213.1436,30.508602353685152
3214.0712,28.483320634481633
3214.9982,26.457226894274317
3215.9246,31.080344843728618
3216.8503,29.00269792893768
3217.7755,29.774309285191187
3218.7001,32.19520175775186
3219.624,32.615397894139306
3220.5473,34.58491991992113
3221.4701,28.30378973451093
3222.3922,28.67202889147311
3223.3137,32.889658661334174
3224.2346,33.00670002790032
3225.1549,33.57317364608118
3226.0746,30.53909984071934
3226.9937,32.10449860092568
3227.9121,34.769389610420056
3228.83,35.78379223187735
3229.7473,33.44772548027853
3230.6639,33.06120801276664
3231.5799,33.27425815200747
3232.4954,33.036893890054706
3233.4102,35.049132886219475
3234.3244,34.21099246944394
3235.238,35.272489618178916
3236.151,34.98364096876532
3237.0634,35.79446280481913
3237.9752,38.25497106011994
3238.8864,34.01518131050268
3239.797,38.42510874925258
3240.7069,37.98476822950303
3241.6163,39.54417422013637
3242.5251,38.80334081018721
3243.4332,36.362281693248434
3244.3408,34.8210101748795
3245.2477,39.17953919701702
3246.154,39.08788135338753
3247.0598,38.09604884592212
3247.9649,37.55405348567308
3248.8694,38.361906702732206
3249.7733,41.61961955165074
3250.6766,40.37720270336086
3251.5793,41.6846664125985
3252.4814,39.99202053032759
3253.3829,42.34927449066537
3254.2838,41.006437327808854
3255.1841,41.26351765246231
3256.0838,41.720523665265596
3256.9829,41.827463154223395
3257.8814,43.38434349013516
3258.7792,44.29117162552568
3259.6765,44.54795407907631
3260.5731,42.05469692655667
3261.4692,42.26140579825683
3262.3647,43.71808590391986
3263.2595,42.574742030674756
3264.1538,42.58137852846967
3265.0474,44.88799932150528
3265.9404,42.79460790816851
3266.8329,44.601207337966244
3267.7247,44.3578002324593
3268.616,42.21438876719637
3269.5066,42.87097467414817
3270.3966,44.427559263141504
3271.286,43.684143415293384
