RamanShift,CorrectedData
30.1047,255.8049126834667
32.3739,237.60498794653222
34.6426,216.65506065154855
36.9109,195.90512586441673
39.1787,177.05517648448705
41.4461,158.10520345205848
43.7131,139.90519593687813
45.9796,121.00514152764104
48.2456,100.05502641399025
50.5112,82.85483557551731
52.7764,62.054552991263535
55.0411,44.454161811721804
57.3054,23.65364456683949
59.5692,6.4529833420223355
61.8326,-12.347840013860374
64.0955,-28.748843716469146
66.3579,-47.74992262654282
68.6199,-64.35068440387153
70.8815,-70.20025968651835
73.1426,-65.3471362492093
75.4032,-27.48910056607619
77.6634,103.22671370664025
79.9231,442.20344752881374
82.1824,1149.744240828051
84.4412,2372.002229109925
86.6995,4002.080536382565
88.9574,5624.782262934079
91.2148,6718.660469031769
93.4717,7242.368158695117
95.7282,7342.958268756998
97.9842,7278.9836636266045
100.2398,7123.39713428355
102.4949,6977.25139891761
104.7495,6830.7491044845865
107.0036,6683.192828167771
109.2573,6507.485078842963
111.5105,6290.278298554035
113.7632,6056.274864270004
116.0154,5768.8770900571135
118.2672,5485.737229418848
120.5185,5155.807478169929
122.7693,4838.239977267703
125.0197,4566.336816111441
127.2696,4302.600035718019
129.519,4133.031631440941
131.7679,3979.933555607712
134.0163,3889.7577192155204
136.2642,3824.5559934622197
138.5117,3791.630210648086
140.7587,3733.3321648278375
143.0052,3624.263612139888
145.2512,3447.0262713893326
147.4967,3278.8218251386274
149.7417,3116.8519214799703
151.9863,2990.868175717338
154.2304,2913.972171986189
156.4739,2859.165464513302
158.717,2875.1995783857324
160.9596,2919.1260100988825
163.2017,2990.1462273961592
165.4433,3026.161668829709
167.6844,3025.423743050217
169.925,2948.333828446751
172.1651,2784.5432731541437
174.4047,2618.7533958238887
176.6439,2469.515487262047
178.8825,2351.2308120871467
181.1206,2265.1506102225608
183.3582,2211.7260980793553
185.5954,2163.558469417091
187.832,2122.6488958780665
190.0681,2102.9985274689966
192.3037,2102.1584929701075
194.5388,2087.5299001316407
196.7734,2063.9138356822523
199.0075,2079.6613654753
201.2411,2142.673534725006
203.4742,2170.2013678489757
205.7068,2210.2958678380833
207.9389,2264.7580159811896
210.1704,2281.838771464197
212.4015,2284.539070825428
214.632,2273.1098277848178
216.862,2257.251933216913
219.0915,2245.8162552651597
221.3205,2268.1536395004878
223.549,2289.864909035663
225.777,2276.700864301917
228.0044,2260.0622828318333
230.2314,2228.2999193909855
232.4578,2158.8145061443274
234.6837,2115.006752973814
236.909,2051.6773481732544
239.1339,1986.826958886393
241.3582,1939.9062317402
243.582,1926.015793493377
245.8053,1920.0062515055636
248.0281,1897.6781938762415
250.2503,1915.182189504832
252.472,1901.218788313974
254.6932,1921.038521074485
256.9139,1906.8418995449958
259.134,1911.5294162737507
261.3536,1949.7515447405785
263.5727,2031.058739310012
265.7912,2127.8014348490706
268.0092,2288.030045914188
270.2267,2456.7949657837826
272.4436,2571.396564855975
274.6601,2665.935188960937
276.8759,2693.7611582148725
279.0913,2772.32476607464
281.3061,2823.2262790594855
283.5204,2862.8659359654075
285.7341,2918.043947356144
287.9473,2998.860495166775
290.16,2988.165732151938
292.3721,2859.6097810776682
294.5837,2691.642734828345
296.7947,2547.264657692248
299.0052,2458.9755870412337
301.2152,2397.975534774509
303.4246,2363.81448820153
305.6334,2345.342410651998
307.8418,2319.6092418174703
310.0495,2253.2148979360804
312.2568,2154.9592720498713
314.4635,2027.2422346687354
316.6696,1866.063634752975
318.8752,1699.4233009904704
321.0802,1601.5710434084658
323.2847,1564.8566550399744
325.4887,1539.2299129022983
327.692,1577.2905783641754
329.8949,1702.388397402043
332.0972,1846.8731002194352
334.2989,1954.944399996001
336.5001,1984.2019914426598
338.7007,1918.2455497208891
340.9008,1755.0747301501453
343.1003,1543.2391688674313
345.2992,1363.6884844590027
347.4976,1204.372280078725
349.6955,1090.7401452435793
351.8927,1009.0416574268247
354.0895,952.82638319432
356.2856,925.5938790215082
358.4812,885.5936918555685
360.6763,859.725359387744
362.8707,808.0884104533402
365.0646,801.4823652904129
367.258,817.8067360561331
369.4508,844.7110268928509
371.643,939.7447337648487
373.8346,1023.6073441893009
376.0257,1143.4983362859343
378.2162,1235.3671779384035
380.4062,1285.3133255953812
382.5956,1228.4862233518693
384.7844,1120.135302449738
386.9726,954.8099818459937
389.1603,847.9096692962926
391.3474,765.6837630081914
393.5339,766.93165271015
395.7199,762.5027204737917
397.9052,840.7963407014245
400.09,972.0618801703304
402.2743,1128.5486972498284
404.4579,1208.4561405886188
406.641,1309.4335475499188
408.8235,1436.730243412383
411.0054,1544.8455403603334
413.1868,1629.728736210789
415.3675,1674.0791133323164
417.5477,1639.9459377961948
419.7273,1582.7284589329133
421.9064,1460.6759096735045
424.0848,1299.3875071217149
426.2627,1108.4124537745347
428.4399,914.3499391350792
430.6166,742.499141622342
432.7928,612.1592305118156
434.9683,497.77936765400364
437.1432,420.60870877781826
439.3176,377.99640463437845
441.4914,332.6916017687172
443.6645,314.54344294590555
445.8371,300.501067604097
448.0091,296.6136120360138
450.1806,294.1802095293683
452.3514,300.49999040573675
454.5216,307.8720820448957
456.6913,307.7956088216206
458.8603,333.56969203196877
461.0288,342.9934498940406
463.1967,334.8659972902424
465.3639,332.0364456730463
467.5306,314.0539031462663
469.6967,291.21747449335226
471.8622,268.0262613572163
474.0271,264.679362468597
476.1914,255.5758738779714
478.3551,243.3148889890249
480.5182,237.34549864968585
482.6807,248.46679127473453
484.8426,298.527852905499
487.0039,408.87776709863874
489.1647,590.8156144255358
491.3248,729.4904713687984
493.4843,773.7014085028759
495.6432,770.9474891073164
497.8015,671.5777687246527
499.9592,545.5912951879445
502.1163,377.1371096144744
504.2728,238.21424766561267
506.4287,170.72174123136028
508.5839,126.8086198195756
510.7386,91.97391123089983
512.8927,98.66664199789193
515.0461,114.3358377333725
517.199,153.78052306349628
519.3512,286.5997214710619
521.5029,488.09245490106105
523.6539,698.3577424324926
525.8043,730.4445982634325
527.9541,612.1520296083777
530.1033,389.4790363773823
532.2519,217.6246123589808
534.3999,144.13774744691636
536.5472,105.3674293586896
538.694,121.46264437042419
540.8401,153.17237770456995
542.9856,218.3956133689535
545.1305,270.18133383967734
547.2748,330.17851940889113
549.4185,330.8861476669308
551.5615,341.5031929023503
553.704,395.82862609484073
555.8458,452.311414809064
557.987,515.5505226513956
560.1276,610.0949087050976
562.2675,825.8435268979301
564.4069,1082.1953250567026
566.5456,1247.549242749792
568.6837,1196.5042087236216
570.8212,912.6091392491226
572.958,596.5629386321853
575.0942,400.314502052609
577.2299,279.96271872456373
579.3648,218.10647385907532
581.4992,202.0446498675442
583.6329,236.77612698030634
585.766,326.2497834072551
587.8985,466.5644949905218
590.0304,621.7691343097399
592.1616,764.112569278901
594.2922,828.4936615943052
596.4222,736.361265311129
598.5515,583.8642261996129
600.6802,383.0013826663844
602.8083,235.12156727943147
604.9358,182.47360877672827
607.0626,166.4563335450357
609.1888,181.01856614637836
611.3144,244.45912947821944
613.4393,362.37684462783955
615.5636,538.7705302379268
617.6873,717.1890013274005
619.8103,821.3810675274772
621.9327,868.5955312974847
624.0544,794.1811868829377
626.1756,597.1368198433979
628.2961,417.7112077966144
630.4159,318.7531223889687
632.5351,300.81133108972926
634.6537,278.58459818063557
636.7716,264.3716849353141
638.8889,244.27134984154645
641.0056,282.68234874339714
643.1216,333.05343504221946
645.237,369.2833593125433
647.3518,315.5708687983656
649.4659,226.5647070508512
651.5793,155.21361446545825
653.6922,119.1663291719974
655.8043,83.22158774814488
657.9159,50.87812557991401
660.0268,21.334677221103902
662.137,20.539976716731417
664.2466,41.29275789846906
666.3556,44.49175439259034
668.4639,25.18569941244141
670.5716,12.323325726451912
672.6786,-8.396634148804424
674.785,-31.575447819986948
676.8907,-35.31429901137972
678.9958,-20.364056008546413
681.1002,-23.525234307202027
683.204,-7.64814596614724
685.3072,7.717131972909101
687.4097,5.020598873232757
689.5115,0.3122540209192266
691.6127,9.19209665185872
693.7132,-13.539877117480046
695.8131,-21.58367126254643
697.9123,-5.289154495419552
700.0109,14.494020092698065
702.1089,52.26625224925601
704.2061,91.02794157676453
706.3028,158.72948715507437
708.3987,257.32128715375575
710.4941,312.75373815508647
712.5887,333.07723416813315
714.6827,322.29216607442413
716.7761,286.2989214247186
718.8688,268.8978845468514
720.9608,275.03943690567166
723.0522,294.52395727705016
725.1429,362.3018216864616
727.233,457.5734032141436
729.3224,652.0890713173164
731.4112,839.199190877468
733.4993,932.1541202551944
735.5867,826.5042094191031
737.6735,593.099799016258
739.7596,382.39122142868337
741.845,250.6288031074057
743.9298,184.5128666795406
746.014,188.19373226591642
748.0974,203.02171814223357
750.1802,194.09714070225778
752.2624,212.5203143095357
754.3439,191.84155138664642
756.4247,198.01116223096324
758.5048,233.3794552214472
760.5843,294.9467367569489
762.6631,403.21331090252374
764.7413,567.2794787737632
766.8188,828.0455374541241
768.8956,1121.5617783542689
770.9718,1337.7784846044074
773.0473,1319.9459281191296
775.1221,1201.9143674352435
777.1962,1143.7840478900985
779.2697,1304.5052028019022
781.3426,1676.4280540510217
783.4147,1981.1028104727743
785.4862,2005.129664138196
787.557,1757.1087873072954
789.6271,1365.940332188786
791.6966,928.3244334202943
793.7654,595.3612119800439
795.8335,382.40077956301525
797.901,267.9432419105776
799.9678,222.83870094009217
802.0339,237.987255889489
804.0993,262.83900376831207
806.1641,258.1440392062341
808.2282,232.15245420453812
810.2916,178.16433818306746
812.3544,117.5797782401421
814.4164,106.84885969243919
816.4778,122.77166668083896
818.5385,166.2482822777347
820.5986,261.5287883278031
822.658,445.213265013238
824.7166,655.6017899009476
826.7747,910.4444361057069
828.832,1155.3912701862764
830.8886,1352.442349596972
832.9446,1495.4977202381965
834.9999,1435.2074144859312
837.0545,1227.4714497611787
839.1085,957.1898291328696
841.1618,688.012543395221
843.2143,509.8395737705507
845.2662,396.52089460105367
847.3175,337.7564751305297
849.368,301.4462806375702
851.4179,288.7902730232015
853.467,298.13841117398874
855.5155,318.8906510885945
857.5633,352.1469457842986
859.6105,338.80724508947605
861.6569,296.4714953110315
863.7027,246.53963936779974
865.7478,224.51161721390167
867.7922,174.3873663380616
869.8359,138.31682198388876
871.8789,128.2499176511185
873.9212,133.4365854563182
875.9629,161.1767562335565
878.0039,197.2703594825366
880.0441,225.36732309119566
882.0837,292.617572974767
884.1226,354.87103279481266
886.1609,471.2276232867184
888.1984,638.7872616371633
890.2352,816.2998603205508
892.2714,879.6153254234116
894.3069,811.233554869279
896.3416,644.3044377855349
898.3757,491.77785518722544
900.4091,406.45368164635283
902.4418,406.5317868171428
904.4739,483.1620362892854
906.5052,580.9942915871541
908.5358,592.1784094035029
910.5658,546.814240621145
912.595,438.0516302011092
914.6236,326.1404176362839
916.6515,233.0304380390412
918.6786,164.92152326034966
920.7051,144.3135028208751
922.7309,136.75620459206948
924.756,128.84945500224921
926.7804,167.59307911216865
928.8041,205.08690069408863
930.8272,266.8807418443387
932.8495,308.67442260838106
934.8711,332.81776036287033
936.892,368.9605693977185
938.9123,407.7526606746583
940.9318,527.7938414658183
942.9506,595.4339149658013
944.9688,581.5726790912731
946.9862,536.6099258045604
949.003,427.89544125226485
951.019,361.57900621488807
953.0344,288.4603971939789
955.0491,248.78938707529733
957.063,221.9157458599998
959.0763,206.73924106135019
961.0888,194.60963797345585
963.1007,213.47669982303182
965.1119,177.74018789069896
967.1223,145.7998613223108
969.1321,135.5554774863199
971.1412,130.05679229318184
973.1495,115.70356029779828
975.1572,110.64553475450248
977.1641,133.08246776059332
979.1704,137.7641103069143
981.1759,142.94021205348554
983.1808,120.56052128268493
985.1849,102.02478484749076
987.1884,84.93274839527703
989.1911,98.98415655316967
991.1932,126.2287530989679
993.1945,149.0162808206294
995.1951,159.39648124382575
997.1951,161.11909440406748
999.1943,142.03385874290097
1001.1928,141.4905110906825
1003.1906,183.28878685743052
1005.1877,274.82842003825976
1007.1841,360.90914279539766
1009.1798,415.1806845427873
1011.1748,421.892771085282
1013.1691,346.5951240759282
1015.1627,245.63746094884573
1017.1556,143.56949567220386
1019.1477,87.34093975779706
1021.1392,49.401503281726946
1023.1299,33.950895446685536
1025.12,19.338824961351293
1027.1093,42.61500019489495
1029.0979,111.37912932309882
1031.0859,193.1809200955961
1033.0731,229.2200791482294
1035.0596,262.7463111850327
1037.0454,242.35931861783956
1039.0304,207.75880123102206
1041.0148,147.7444563853594
1042.9985,89.11597936404246
1044.9814,30.273063972819727
1046.9636,22.41540312627967
1048.9452,55.44268943627981
1050.926,112.80461529052559
1052.9061,176.5008725222956
1054.8855,206.78115183682394
1056.8642,217.34514217433616
1058.8421,199.49253040724716
1060.8194,176.97300123452146
1062.7959,179.68623736019958
1064.7717,181.03191971859133
1066.7469,172.10972744714604
1068.7213,193.1693378729949
1070.695,231.36042660217208
1072.6679,294.6326673090207
1074.6402,394.9857313542793
1076.6117,445.9192871523617
1078.5826,421.33299916782494
1080.5527,301.5765274060343
1082.5221,190.09952765902608
1084.4908,99.95165270307257
1086.4587,38.68255341345116
1088.426,3.241879665923534
1090.3925,-6.8207190505736435
1092.3584,16.594406720479583
1094.3235,41.93697457458438
1096.2879,98.30670194129925
1098.2515,158.0533058308131
1100.2145,261.0765022702494
1102.1767,352.77600570619825
1104.1382,492.7515279744864
1106.099,656.152777383181
1108.0591,842.2794573128356
1110.0185,969.3812645824755
1111.9771,1097.707887588335
1113.9351,1246.8090050328344
1115.8923,1461.834284641317
1117.8488,1645.8333816710356
1119.8045,1590.805936760902
1121.7596,1302.951574091494
1123.7139,932.0699019353315
1125.6675,670.5605155354197
1127.6204,630.023000814065
1129.5726,700.4069369879685
1131.524,742.8118969736026
1133.4748,641.1874466833699
1135.4248,440.28314460155593
1137.3741,268.19854280057075
1139.3226,167.23318894999534
1141.2705,127.83662803742459
1143.2176,162.0584033781231
1145.164,232.2980570089885
1147.1097,255.90512934633648
1149.0546,199.57915848350194
1150.9989,108.21967995476871
1152.9424,34.876227298630056
1154.8852,-17.051667028616748
1156.8272,-46.86447091943592
1158.7686,-42.562481920140044
1160.7092,-43.69552940097719
1162.6491,-22.763017533002312
1164.5883,11.38608603106718
1166.5267,49.50304104105794
1168.4644,120.43910713293735
1170.4014,214.29554344764256
1172.3377,325.1736079217212
1174.2732,480.57455634876624
1176.2081,717.5996412706354
1178.1421,1078.6001104234404
1180.0755,1531.2272043672979
1182.0082,1853.5821528763256
1183.9401,1908.116170412368
1185.8713,1666.2304529014498
1187.8017,1263.4261771884328
1189.7315,846.9045034558758
1191.6605,539.0665792520747
1193.5888,369.3135436562836
1195.5163,269.7465303570891
1197.4432,178.16666934994487
1199.3693,112.47508793283987
1201.2947,64.37291162209704
1203.2193,47.411264809289605
1205.1432,33.64127124226161
1207.0664,18.464054194745586
1208.9889,23.480736604062713
1210.9106,29.19244122289456
1212.8316,46.85029056911594
1214.7519,70.70540686867753
1216.6715,111.50891187902926
1218.5903,153.31192665056642
1220.5084,186.86557111859565
1222.4257,247.62096368530524
1224.3424,260.67922088422824
1226.2583,308.6914567726892
1228.1735,404.3587828012212
1230.0879,511.08230733344385
1232.0016,648.6631346893885
1233.9146,764.1023640782641
1235.8269,823.4510882226487
1237.7384,831.5103922040973
1239.6492,806.981352869655
1241.5592,845.465038751264
1243.4686,968.5125103110536
1245.3772,1187.7748195565018
1247.285,1451.653008809964
1249.1922,1726.6981085160471
1251.0986,1966.7611346028289
1253.0042,2161.7430857314075
1254.9092,2427.79494089527
1256.8134,2747.4676574704736
1258.7169,3112.0121685551258
1260.6196,3384.0793797726615
1262.5216,3579.82016562639
1264.4229,3621.0853667788297
1266.3234,3554.5757880942965
1268.2232,3359.8921982262545
1270.1223,3137.235330282409
1272.0207,2986.4058837715447
1273.9183,2908.904526830094
1275.8151,2886.4318977304297
1277.7113,2973.238605655882
1279.6067,3202.6752309254616
1281.5014,3642.242324125795
1283.3953,4269.490403816756
1285.2885,4964.069952135793
1287.181,5601.931408525456
1289.0727,5924.425162787594
1290.9637,5790.951548704741
1292.854,5393.410840815182
1294.7435,4879.703255747689
1296.6323,4378.228956196919
1298.5204,3953.4880560605066
1300.4077,3628.6806254537905
1302.2943,3398.206694957232
1304.1802,3245.5162588644844
1306.0653,3133.359277487141
1307.9497,3017.5856786816257
1309.8333,2931.845358970774
1311.7162,2883.688184701565
1313.5984,2830.0639929025233
1315.4798,2766.6225917652937
1317.3605,2798.0637611808797
1319.2405,2853.937253374062
1321.1197,2900.6427925889843
1322.9982,2841.930074530419
1324.876,2706.9487658967105
1326.753,2450.6985049669033
1328.6293,2158.6789029505553
1330.5048,1803.7395465502407
1332.3796,1495.6300008817448
1334.2537,1242.4998130234587
1336.127,1053.8985150974736
1337.9996,961.1756268008833
1339.8714,876.8806572917977
1341.7426,792.8131061165709
1343.6129,746.9724640527525
1345.4826,672.0582139497601
1347.3515,630.719831187289
1349.2196,575.5567844244524
1351.087,546.1685360131653
1352.9537,531.004542549776
1354.8197,535.7642551689476
1356.6849,564.4971196952986
1358.5493,612.5525765958066
1360.4131,690.7300606924784
1362.276,807.8290006817954
1364.1383,945.7988183529403
1365.9998,1019.488927416804
1367.8606,1009.6987321262925
1369.7206,983.3776265394206
1371.5799,1000.2249946172171
1373.4384,992.2402104869348
1375.2962,916.8726382735774
1377.1533,771.1216321797465
1379.0096,624.1365372393179
1380.8652,508.11669077495253
1382.7201,418.461423867946
1384.5742,331.82006251842904
1386.4275,264.29192854191865
1388.2802,199.6263404357312
1390.132,169.7226140542641
1391.9832,145.48006325565234
1393.8336,128.0980002008048
1395.6832,117.9257355958307
1397.5322,103.76257886585972
1399.3803,71.00783825676444
1401.2278,43.21082097679255
1403.0745,30.420833524113732
1404.9204,10.837181964790716
1406.7656,-6.4408279393219345
1408.6101,-27.013890534740767
1410.4538,-28.332635824112003
1412.2968,-28.14742394131622
1414.139,-17.958331977202533
1415.9805,6.884844170144561
1417.8213,46.7824880063763
1419.6613,114.38498296829721
1421.5006,189.74271202488603
1423.3391,329.9560570012725
1425.1769,487.82539782515937
1427.0139,755.3511111246899
1428.8502,1031.2335686497538
1430.6858,1277.3731345967303
1432.5206,1389.2201628496637
1434.3547,1391.4749945188667
1436.188,1347.7379568224515
1438.0206,1302.70936306378
1439.8524,1255.2895130688366
1441.6835,1245.5786936365112
1443.5139,1255.7771790128
1445.3435,1270.1352309879117
1447.1724,1289.203098794285
1449.0005,1286.8810189630058
1450.8279,1273.4192151331283
1452.6545,1246.167898074899
1454.4804,1249.5772658243718
1456.3056,1225.0975039559237
1458.13,1175.3287855481587
1459.9536,1098.0712714287076
1461.7766,991.9251106719119
1463.5987,884.540441371402
1465.4202,761.6173917015569
1467.2409,652.2060809913523
1469.0608,531.2566209535896
1470.88,431.8191167790105
1472.6984,352.7936683457899
1474.5161,271.28037121391276
1476.3331,221.57931741542666
1478.1493,181.24059626957705
1479.9648,174.56429487981472
1481.7795,172.35049853718556
1483.5935,170.69929078709197
1485.4067,192.51075345143204
1487.2192,196.53496664511135
1489.031,212.62200855792912
1490.842,220.92195541433534
1492.6522,222.8348813125599
1494.4618,222.01085814161434
1496.2705,218.64995556216127
1498.0785,209.60224101475546
1499.8858,191.21777975345253
1501.6924,192.09663493628636
1503.4981,181.0888678091137
1505.3032,164.84453769682568
1507.1075,145.4137021134252
1508.911,138.79641692446967
1510.7138,117.24273654138119
1512.5159,102.75271398761697
1514.3172,91.57640111420801
1516.1178,79.0138487446593
1517.9176,77.3151067867118
1519.7166,61.080224357968746
1521.515,45.60924980288269
1523.3126,32.15223085510547
1525.1094,25.159214792195826
1526.9055,12.93024857019077
1528.7008,8.865378893536445
1530.4954,0.5146523373750824
1532.2893,10.628115388196306
1534.0824,0.9558145273439322
1535.8747,2.2977961298810214
1537.6663,-1.8458934386869714
1539.4572,16.224792164167752
1541.2473,18.109917721448483
1543.0367,25.359547853910954
1544.8253,32.02374700121243
1546.6132,50.85257934941467
1548.4003,62.396108764342785
1550.1867,96.4543986032968
1551.9723,126.17751159961597
1553.7572,163.6655095220957
1555.5414,237.41845287775823
1557.3247,318.73640053697
1559.1074,431.9194089959137
1560.8893,579.3175315634089
1562.6705,716.0308172290813
1564.4509,838.2593091893821
1566.2305,912.4030434804545
1568.0094,940.0620477558489
1569.7876,948.5363405450856
1571.565,925.025930977065
1573.3417,933.5808186953237
1575.1176,971.8009940931403
1576.8928,1016.1364382279851
1578.6672,1103.8371224393195
1580.4409,1206.8530079052402
1582.2138,1348.1840447654745
1583.986,1498.2301710912197
1585.7575,1657.3413114718314
1587.5282,1806.8173755143662
1589.2981,1919.658256252466
1591.0673,1991.0138286516008
1592.8358,2023.6839484806578
1594.6035,2021.7684515983865
1596.3704,1982.2671536266985
1598.1366,1919.2798499698192
1599.9021,1833.156316209304
1601.6668,1733.2963087339099
1603.4308,1653.5495656008313
1605.194,1616.6658075343003
1606.9564,1677.444738723053
1608.7182,1842.4860471891689
1610.4791,2111.8894041802796
1612.2394,2485.754462519156
1613.9988,2900.130853909677
1615.7576,3288.9681851981763
1617.5156,3515.1660342296805
1619.2728,3521.673945959532
1621.0293,3290.5414301914175
1622.785,2903.9679615122814
1624.54,2451.752981603655
1626.2942,2027.1959031073904
1628.0477,1627.34611414781
1629.8005,1316.6029825772775
1631.5525,1045.7158599746965
1633.3037,856.1840847529403
1635.0542,705.8069848677246
1636.804,582.4838797129246
1638.553,491.864081624346
1640.3013,424.04689711295566
1642.0488,369.03162777108014
1643.7955,300.6175709505776
1645.5416,273.05402031299093
1647.2868,249.19026651368722
1649.0313,227.37559747749367
1650.7751,210.60929863733543
1652.5181,205.84065315238138
1654.2604,202.81894207570826
1656.0019,232.89344440198602
1657.7427,254.6634370976957
1659.4828,309.9281948003842
1661.222,426.48698960096465
1662.9606,544.3390904910677
1664.6984,697.9337621974546
1666.4354,790.670264003497
1668.1717,794.647848213228
1669.9072,689.1657592239799
1671.642,537.3732334866054
1673.3761,385.269500560301
1675.1094,261.3037846305306
1676.8419,178.12530603006348
1678.5737,129.73328247863185
1680.3048,90.9269299147154
1682.0351,74.5554629794608
1683.7646,43.36809540474576
1685.4934,47.164040176894105
1687.2215,28.54250984854889
1688.9488,19.252716500713404
1690.6754,25.093871928965655
1692.4012,16.615187736357257
1694.1263,10.815875275000622
1695.8506,11.395145730856825
1697.5742,9.152210181728378
1699.297,3.7362795914668823
1701.0191,9.546564832402169
1702.7404,11.632276739501435
1704.461,-8.30737394773314
1706.1808,0.6268233938776575
1707.8999,-7.865837621821015
1709.6182,-7.486063387252443
1711.3358,-4.584481715122138
1713.0527,-4.361645632362979
1714.7688,-3.818062366935692
1716.4841,-5.15419557396126
1718.1987,-1.02047076611791
1719.9126,-10.967261965670218
1721.6257,-1.8949330003806608
1723.338,-6.153738135064941
1725.0496,-7.293912704157719
1726.7605,-5.815630566250661
1728.4706,-7.66899271374723
1730.18,-4.904042040902482
1731.8886,-2.370744828733905
1733.5964,-8.369018366879686
1735.3036,3.0012437387628097
1737.0099,6.290231488789118
1738.7156,1.1981348537829035
1740.4204,6.525143741425609
1742.1246,11.171448047417698
1743.8279,11.23723760220878
1745.5306,6.322702124534203
1747.2325,-0.42196877924288856
1748.9336,6.503414434013962
1750.634,6.5490455229094096
1752.3336,8.815118181013702
1754.0325,18.751826036406612
1755.7307,18.65936262901721
1757.4281,20.68792131125616
1759.1247,15.837695248941031
1760.8206,17.158877401010102
1762.5158,25.45166056802509
1764.2102,22.06623737895893
1765.9039,22.45280020826857
1767.5968,21.21154120974836
1769.289,24.242652312665143
1770.9804,29.346325234170422
1772.6711,29.322751448989152
1774.361,31.372122138383418
1776.0502,34.644628190388005
1777.7386,28.190460179316574
1779.4263,37.259808333036744
1781.1132,37.00286259751198
1782.7994,41.71981254610773
1784.4849,34.71084738216098
1786.1696,42.02615589181062
1787.8535,47.56592651408755
1789.5367,40.43034726776125
1791.2192,43.06960569594224
1792.9009,39.93388893743804
1794.5818,37.02338370035994
1796.2621,49.48827629348068
1797.9415,42.87875265533904
1799.6202,50.294998229591386
1801.2982,44.287198031106755
1802.9755,52.25553657180461
1804.6519,47.800197920732614
1806.3277,48.22136562438311
1808.0027,42.61922275124658
1809.6769,49.59395188760027
1811.3504,48.79573519352914
1813.0231,48.32475433317893
1814.6951,55.23119048273776
1816.3664,54.865224335146536
1818.0369,58.82703603103437
1819.7067,65.11680516237828
1821.3757,52.534710732885344
1823.044,64.0809310950948
1824.7115,54.80564407619903
1826.3783,56.009026862581095
1828.0443,65.59125609256802
1829.7096,54.752507844396746
1831.3741,61.09295754039215
1833.0379,72.16278005535406
1834.701,66.412149653153
1836.3633,66.34123987603198
1838.0248,69.90022360211276
1839.6856,71.58927304610472
1841.3457,67.15855972371543
1843.005,70.95825443475945
1844.6636,76.03852730746627
1846.3214,75.39954776048307
1847.9785,80.19148445207185
1849.6349,78.51450528649917
1851.2904,74.91877736611724
1852.9453,72.75446700813302
1854.5994,77.82173978056619
1856.2528,77.57076052389186
1857.9054,76.70169330036794
1859.5572,80.66470139654501
1861.2083,88.55994733195683
1862.8587,80.93759281949042
1864.5084,91.69779868643337
1866.1572,88.69072495069776
1867.8054,84.71653071321748
1869.4528,84.02537418801978
1871.0994,88.46741274196654
1872.7453,84.49280290166638
1874.3905,88.35170030905385
1876.0349,84.39425976113569
1877.6786,88.17063517140161
1879.3215,89.33097960939938
1880.9637,83.52544526297015
1882.6051,87.70418342664561
1884.2458,83.46734455970306
1885.8858,85.06507824437824
1887.525,87.49753322823364
1889.1634,90.86485740818102
1890.8011,82.06719780615714
1892.4381,82.3047005354502
1894.0743,91.77751088867672
1895.7098,84.68577333540622
1897.3446,84.62963142743365
1898.9786,90.70922786969595
1900.6118,87.47470452083434
1902.2443,91.42620233239785
1903.8761,87.76386138118852
1905.5071,89.78782082974669
1907.1374,87.54821896297403
1908.7669,82.495193167894
1910.3957,85.7288799560481
1912.0237,86.19941501402587
1913.651,88.70693317112836
1915.2776,85.00156839466246
1916.9034,88.4334537648661
1918.5285,80.10272151196153
1920.1528,82.70950298183647
1921.7764,85.35392871935164
1923.3992,86.73612844227284
1925.0213,83.50623101482682
1926.6427,80.91436443387909
1928.2633,81.0606558612331
1929.8832,85.59523164954862
1931.5023,84.31821734087919
1933.1207,81.4797376213262
1934.7383,84.72991633380911
1936.3552,87.4688765064501
1937.9714,82.04674032007233
1939.5868,80.86362908081037
1941.2015,81.26966327433155
1942.8154,81.41496257766704
1944.4286,82.14964585515156
1946.041,87.22383115697028
1947.6528,85.23763571181212
1949.2637,75.2411758761279
1950.8739,82.28456715399216
1952.4834,81.51792429706785
1954.0921,83.74136123417213
1955.7001,84.25499107894319
1957.3074,81.45892610760552
1958.9139,76.15327775383395
1960.5197,82.7881566367139
1962.1247,81.86367261379814
1963.729,84.22993471475792
1965.3325,76.03705115062803
1966.9353,74.13512929014394
1968.5374,78.12427574167077
1970.1387,75.70459637222257
1971.7393,77.62619626757078
1973.3392,78.23917975644093
1974.9383,71.64365039129683
1976.5366,75.68971094221047
1978.1342,75.87746346281784
1979.7311,71.05700924985763
1981.3273,70.12844884129413
1982.9227,79.69188206452162
1984.5173,73.14740804564991
1986.1112,71.99512511387007
1987.7044,73.78513086689924
1989.2968,74.76752218250328
1990.8885,73.44239520059693
1992.4795,73.1598453134198
1994.0697,73.71996717878756
1995.6592,67.87285472291768
1997.2479,68.71860113482796
1998.8359,80.9572989248079
2000.4232,68.78903991596081
2002.0097,73.96391512181731
2003.5955,64.68201486801746
2005.1805,73.0434287405626
2006.7648,74.29824567863398
2008.3484,73.29655389097854
2009.9312,62.28844084336117
2011.5133,67.12399326858116
2013.0946,63.05329727655362
2014.6752,66.62643830595403
2016.2551,71.1935011649249
2017.8342,71.00456999534464
2019.4126,66.80972822715688
2020.9902,70.45905858025964
2022.5672,63.402643106453866
2024.1433,66.69056315294995
2025.7188,69.87289943293212
2027.2935,69.09973199267881
2028.8674,66.67114017973984
2030.4406,71.33720265066756
2032.0131,67.79799739530324
2033.5849,57.903601690116204
2035.1559,63.054092133595844
2036.7261,60.79954474519582
2038.2957,64.69003491382878
2039.8645,68.27563742041201
2041.4325,66.95642639896272
2042.9998,62.93247530074177
2044.5664,62.10385690744587
2046.1323,65.37064337144687
2047.6974,66.03290622407846
2049.2617,60.2407163429676
2050.8254,63.444143945412605
2052.3883,66.94325864630451
2053.9504,61.63812942609326
2055.5118,60.57882459579622
2057.0725,61.06541185004963
2058.6325,65.74795827770146
2060.1917,61.97653035694583
2061.7502,59.551193908497396
2063.3079,62.32201413330574
2064.8649,57.989055636808416
2066.4212,66.85238240122305
2067.9767,65.51205782887686
2069.5315,58.268144653573245
2071.0856,55.270704953995136
2072.6389,57.769800226144156
2074.1915,60.31549141331493
2075.7433,58.80783888110423
2077.2945,55.94690239195384
2078.8448,50.43274112022752
2080.3945,56.51541368081985
2081.9434,49.14497818429828
2083.4916,56.7214921760762
2085.039,56.04501271011725
2086.5857,57.21559627317029
2088.1317,54.68329879153421
2089.677,52.59817561935205
2091.2215,46.960281563934075
2092.7652,55.869670906608775
2094.3083,49.176397459101935
2095.8506,58.2305144744428
2097.3921,50.282074713896634
2098.933,53.53113035642383
2100.4731,51.327733078164044
2102.0124,52.271934019945746
2103.5511,55.563783809320086
2105.089,56.60333255111905
2106.6261,57.64062979453698
2108.1626,53.42572452273478
2109.6983,52.058665142467476
2111.2332,57.089499526232885
2112.7675,49.518275025942245
2114.301,53.39503842261192
2115.8337,56.719836002075596
2117.3657,55.592713516216804
2118.897,57.06371614972079
2120.4276,52.63288853134583
2121.9575,45.05027471921309
2123.4866,49.015918245115046
2125.0149,54.129862190341754
2126.5426,49.792149146024116
2128.0695,44.95282116199448
2129.5956,47.56191979016387
2131.1211,51.969486132914966
2132.6458,47.32556081701125
2134.1698,47.58018394952154
2135.693,43.03339516425913
2137.2155,47.335233619235765
2138.7373,48.73573804212916
2140.2584,49.03494668726495
2141.7787,40.98289732161152
2143.2983,48.329627221787916
2144.8171,44.12517325458424
2146.3353,44.31957180349454
2147.8527,40.96285881076136
2149.3693,42.6050697754315
2150.8853,48.89623978692336
2152.4005,49.736403508604724
2153.9149,50.22559511488129
2155.4287,38.663848282794504
2156.9417,44.551196187130245
2158.454,44.33767161603586
2159.9655,48.42330691214681
2161.4764,46.40813397472206
2162.9865,43.192184218787446
2164.4958,38.425488595287646
2166.0045,41.65807762324559
2167.5124,39.88998143742958
2169.0195,38.971229756027384
2170.526,44.151851898326925
2172.0317,42.481876793904064
2173.5367,43.66133293081606
2175.0409,45.290248372301306
2176.5445,46.418650744985115
2178.0473,48.79656722259023
2179.5494,40.42402451465318
2181.0507,41.551048842744706
2182.5513,42.82766602419531
2184.0512,41.75390146082532
2185.5504,40.82978012617846
2187.0488,38.00532657625939
2188.5465,38.280564958775045
2190.0435,41.555519041379284
2191.5397,42.08021220892047
2193.0353,37.904667430691916
2194.5301,41.0789072551849
2196.0241,36.70295385184423
2197.5175,39.626828979325694
2199.0101,41.50055402925585
2200.502,38.82414999699296
2201.9931,41.49763746288983
2203.4835,36.57103661905796
2204.9733,36.74436724263242
2206.4622,31.11764874503814
2207.9505,31.34090017025639
2209.438,33.11414025109224
2210.9248,37.18738740694178
2212.4109,30.360659726059907
2213.8962,29.633974924827726
2215.3809,33.3573504160197
2216.8648,34.580803316070785
2218.3479,29.104350407842446
2219.8304,29.328008128388177
2221.3121,33.55179262371814
2222.7931,30.62571974656248
2224.2733,24.599805014133352
2225.7529,27.124063637385945
2227.2317,27.398510581277378
2228.7098,25.873160539524264
2230.1872,21.348027931858184
2231.6638,23.573126919279304
2233.1397,23.24847144930746
2234.6149,29.174075233731486
2236.0894,26.249951751855605
2237.5632,28.27611419124341
2239.0362,21.052575476959163
2240.5085,22.129348251306112
2241.9801,26.156444946061896
2243.4509,20.53387777171082
2244.921,17.461658677172693
2246.3904,16.739799406028993
2247.8591,23.26831152724472
2249.3271,21.647206442387017
2250.7943,21.276495320339933
2252.2608,20.656189113515694
2253.7266,18.986298561561767
2255.1917,17.96683419756397
2256.656,18.547806364745327
2258.1197,19.879225226660367
2259.5826,22.1111007613859
2261.0447,15.693442748206394
2262.5062,17.426260745295508
2263.9669,17.30956415389241
2265.4269,17.29336220097383
2266.8862,16.67766394042104
2268.3448,16.11247825318182
2269.8026,18.94781385342739
2271.2598,18.383679294204313
2272.7162,13.970082939080925
2274.1719,16.807032967789183
2275.6268,11.144537420360194
2277.0811,21.382604168754938
2278.5346,15.921240973489006
2279.9874,17.31045538125207
2281.4395,18.250254779521384
2282.8908,20.340646382669746
2284.3414,17.131637222567548
2285.7914,20.32323412767863
2287.2406,18.81544375515068
2288.689,18.35827255889899
2290.1368,21.80172680468459
2291.5838,17.64581257468592
2293.0302,15.740535733064121
2294.4758,17.98590196752241
2295.9206,13.031916808358972
2297.3648,14.578585606013121
2298.8082,17.425913580605
2300.251,16.173905806468866
2301.693,12.37256718367999
2303.1343,18.721902450574618
2304.5748,19.47191622176348
2306.0147,9.472612924638213
2307.4538,15.523996791871298
2308.8922,15.426071961409178
2310.3299,13.828842415958434
2311.7669,13.032311983965002
2313.2031,17.886484355586646
2314.6387,11.491363090657984
2316.0735,13.096951570148889
2317.5076,15.90325306011573
2318.941,15.360270695645397
2320.3737,15.368007452792313
2321.8056,13.576466154008443
2323.2369,17.285649468065657
2324.6674,12.045559927971226
2326.0972,17.006199893875987
2327.5263,14.417571605475331
2328.9547,23.67967713240273
2330.3823,14.192518400115858
2331.8092,13.956097097276029
2333.2355,7.770414770619311
2334.661,12.78547282732103
2336.0858,8.551272596852357
2337.5098,11.71781528082991
2338.9332,9.23510199535761
2340.3558,15.75313373936146
2341.7778,8.771911419416568
2343.199,12.991435784566704
2344.6195,6.811707496136734
2346.0393,9.732727085537164
2347.4583,6.10449501606152
2348.8767,9.377011653676192
2350.2943,14.150277303302573
2351.7113,10.37429217609207
2353.1275,2.849056341693256
2354.543,9.774569766011865
2355.9578,12.50083238646323
2357.3718,10.177844042716856
2358.7852,9.905604449434236
2360.1978,10.184113219498386
2361.6098,11.863369866736406
2363.021,13.343373803134313
2364.4315,13.574124322044497
2365.8413,6.655620583385684
2367.2504,8.637861611335524
2368.6587,15.370846363515454
2370.0664,8.254573711168206
2371.4733,9.689042371828236
2372.8795,15.324250980484294
2374.285,10.710198075234786
2375.6899,15.496882040935787
2377.0939,9.084301155341507
2378.4973,13.122453541237377
2379.9,12.011337230565942
2381.3019,7.750950124045261
2382.7032,14.641290002280158
2384.1037,10.53235456836606
2385.5035,10.524141378985519
2386.9027,8.21664788549765
2388.3011,10.609871434020334
2389.6987,11.95380928850497
2391.0957,6.448458606804337
2392.492,8.793816427233338
2393.8876,7.18987972362234
2395.2824,5.08664538186369
2396.6765,4.684110215951108
2398.07,3.23227098901188
2399.4627,7.63112441733233
2400.8547,10.930667184876
2402.246,6.830895899295484
2403.6366,12.731807058936596
2405.0265,6.883397093836436
2406.4156,1.935662306713965
2407.8041,3.338598931454385
2409.1918,8.192203182586269
2410.5789,2.5964712412523454
2411.9652,8.90139920667346
2413.3508,7.106983152105784
2414.7358,9.113219061791625
2416.12,10.320102848903474
2417.5035,5.4276303354817514
2418.8863,9.835797240365821
2420.2684,4.594599228118739
2421.6497,8.15403186494595
2423.0304,8.514090671106771
2424.4104,6.124771085320418
2425.7896,7.436068461165263
2427.1682,4.697978090972015
2428.546,7.260495192710749
2429.9232,4.023614937371974
2431.2996,9.437332423341331
2432.6753,10.701642708768276
2434.0503,5.416540757429061
2435.4246,10.28202142608356
2436.7982,1.4980795173262322
2438.1711,0.5147097309315427
2439.5433,5.481906751693202
2440.9148,6.299660122454696
2442.2856,7.017959331240604
2443.6557,7.086793803078876
2445.025,9.856152892818073
2446.3937,3.926025884438758
2447.7617,2.296401963360097
2449.1289,7.017270275741112
2450.4955,9.9886199447769
2451.8613,8.310440023489946
2453.2265,1.9827194650167144
2454.5909,5.055447139389258
2455.9546,10.178611896812498
2457.3177,2.7022025369370795
2458.68,3.126207757627526
2460.0416,9.700616229726478
2461.4025,5.125416592814446
2462.7627,4.900597389465986
2464.1222,3.526147111001478
2465.4811,6.9520541997353575
2466.8392,3.178307062720677
2468.1966,7.5548940374900155
2469.5533,7.981803429793018
2470.9093,3.009023469830481
2472.2645,5.9365423079853485
2473.6191,4.914348064550353
2474.973,8.242428800452927
2476.3262,6.970772527477067
2477.6787,13.599367174982632
2479.0305,10.478200602621826
2480.3816,6.657260534053194
2481.7319,10.136534588153438
2483.0816,11.666010317226636
2484.4306,12.245675172211776
2485.7789,10.925516487387654
2487.1264,8.705521474576386
2488.4733,8.98567723634494
2489.8195,11.115970788205203
2491.165,9.996389055812415
2492.5097,10.82691885366205
2493.8538,11.75754689628593
2495.1972,11.63825978994663
2496.5398,15.91904402333131
2497.8818,18.549885968744604
2499.2231,15.48077183930073
2500.5637,10.361687662615083
2501.9035,13.5426193114954
2503.2427,13.873552555132534
2504.5812,8.854473027291277
2505.919,14.78536622300092
2507.256,8.81621754874621
2508.5924,13.797012263158251
2509.9281,16.727735536706035
2511.2631,16.808372401888505
2512.5974,13.988907723927326
2513.9309,15.119326199960398
2515.2638,14.24961238723671
2516.596,11.179750691811961
2517.9275,10.109725377245894
2519.2583,10.489520595300746
2520.5884,9.319120396641608
2521.9178,10.748508727038484
2523.2465,10.477669439070183
2524.5745,16.00658627783062
2525.9018,9.335242883636965
2527.2284,14.663622736740734
2528.5543,14.091709224040898
2529.8796,11.619485585800476
2531.2041,13.69693492136534
2532.5279,13.174040213886599
2533.851,14.450784309546151
2535.1735,11.077149922785424
2536.4952,14.303119623538322
2537.8163,13.8786758709671
2539.1366,8.90380098120312
2540.4562,10.678477131590938
2541.7752,11.202686410437167
2543.0935,11.92641079926375
2544.411,14.999632167565892
2545.7279,21.422332265574852
2547.0441,15.19449269352549
2548.3596,15.466094837429466
2549.6744,11.337119931353755
2550.9885,9.757549054704413
2552.3019,16.177363173516284
2553.6146,14.896543156248896
2554.9266,10.66506970958801
2556.2379,12.58292339125407
2557.5485,17.450084652316917
2558.8585,14.766533818017194
2560.1677,13.382251039094683
2561.4762,14.847216318623964
2562.7841,13.961409525857164
2564.0913,14.174810381574332
2565.3977,15.237398466941443
2566.7035,15.299153221376457
2568.0086,19.86005393192326
2569.313,21.47007973263439
2570.6167,15.87920955896189
2571.9197,18.13742213165699
2573.222,17.294696012678912
2574.5236,18.351009582612733
2575.8246,12.456341049096608
2577.1248,18.660668436258746
2578.4244,19.76396964366404
2579.7232,20.466222384270736
2581.0214,22.017404173397452
2582.3189,23.217492321700647
2583.6157,20.366463919662635
2584.9118,19.41429582559107
2586.2072,18.010964694128944
2587.5019,21.106446985776415
2588.7959,23.450718980923995
2590.0893,24.243756748897766
2591.3819,22.28553612451664
2592.6739,23.976032700162122
2593.9652,29.165221845360307
2595.2557,29.60307868987711
2596.5456,26.839578071826267
2597.8348,27.874694533290707
2599.1234,36.65840234795779
2600.4112,30.040675510767883
2601.6983,32.07148765007756
2602.9848,31.80081209383654
2604.2705,34.87862184927987
2605.5556,35.65488960563441
2606.84,37.37958770334083
2608.1237,33.70268812629101
2609.4067,33.52416248458104
2610.689,35.19398205128019
2611.9707,29.512117764216185
2613.2516,26.128540209276906
2614.5319,31.04321967722923
2615.8115,33.05612619755453
2617.0903,28.26722948930221
2618.3685,24.526498940960337
2619.6461,28.183903658344832
2620.9229,29.789412502006655
2622.199,24.442994050657774
2623.4745,30.494616585116106
2624.7493,33.04424814176963
2626.0234,28.491856452060176
2627.2968,27.787408916987133
2628.5695,26.030872652631416
2629.8415,29.172214497200002
2631.1128,29.611401028591047
2632.3835,26.398398532980835
2633.6535,31.0831730004315
2634.9228,29.26569015702131
2636.1914,29.045915417996852
2637.4593,34.973813905947864
2638.7265,32.59935045300499
2639.9931,27.272489541560788
2641.259,31.643195328014386
2642.5242,26.8614316960401
2643.7887,28.37716221288038
2645.0525,26.59035017716343
2646.3156,28.150958603745764
2647.5781,24.65895024158057
2648.8398,29.664287558111397
2650.1009,23.266932774192313
2651.3613,29.81684781403453
2652.6211,24.663994369180045
2653.8801,24.258333833002396
2655.1385,25.39982735223515
2656.3961,24.438435831028727
2657.6531,25.924119919535244
2658.9094,26.056840023522568
2660.1651,24.18655628951747
2661.42,23.863228603478305
2662.6743,22.48681660949802
2663.9279,26.25727971303722
2665.1808,28.82457709468852
2666.433,30.68866767247161
2667.6846,27.94951007616065
2668.9354,34.70706262864306
2670.1856,35.36128337331121
2671.4351,32.962130006486944
2672.6839,39.009559870879215
2673.9321,35.45352997957576
2675.1795,39.393996955568724
2676.4263,40.430917067315065
2677.6724,38.514246189331814
2678.9179,38.893939791826824
2680.1626,43.1699529598656
2681.4067,41.292240389574175
2682.6501,38.010756345379264
2683.8928,38.42545467878503
2685.1348,34.686288861188245
2686.3761,35.793211979731126
2687.6168,32.14617677469312
2688.8568,35.29513562842149
2690.0961,32.79004060180185
2691.3348,29.630843402768505
2692.5727,28.26749541135537
2693.81,24.649947711287894
2695.0466,24.778151103616622
2696.2826,27.552056142892667
2697.5178,23.37161313588568
2698.7524,29.93677211384481
2699.9863,28.247482874303103
2701.2195,32.25369491542601
2702.452,31.805357452904147
2703.6839,35.90241937989131
2704.9151,35.49482927148772
2706.1456,36.332535343769464
2707.3755,38.76548545786444
2708.6046,42.543627111575105
2709.8331,36.16690741504917
2711.0609,37.385273052997974
2712.2881,42.898670348463995
2713.5145,46.20704525063687
2714.7403,50.710343279719694
2715.9654,47.508509493845224
2717.1899,53.75148844404279
2718.4136,54.839224206256674
2719.6367,58.42166031891648
2720.8591,63.59873977205949
2722.0809,62.170404971506485
2723.3019,66.83659768709094
2724.5223,76.34725906694226
2725.7421,68.55232959082387
2726.9611,69.50174897502677
2728.1795,65.44545625031856
2729.3972,57.783389752449494
2730.6142,51.41548716271535
2731.8306,53.04168558457795
2733.0462,50.611921607344286
2734.2612,49.52613128990461
2735.4756,43.68425018502994
2736.6892,42.386213350230065
2737.9022,38.13195540617237
2739.1145,39.02141054966212
2740.3262,36.75451259618512
2741.5372,34.93119497101307
2742.7475,28.901390731872567
2743.9571,31.615032587178348
2745.1661,29.47205295633114
2746.3744,22.022383942581513
2747.582,20.815957354459442
2748.7889,21.702704780271134
2749.9952,19.982557600163318
2751.2008,16.55544697725577
2752.4057,18.871303874842695
2753.61,11.830059090663866
2754.8136,14.181643233746087
2756.0165,11.625986794815645
2757.2188,12.513020122782436
2758.4204,9.492673450296607
2759.6213,9.964876884878109
2760.8215,13.979560439120206
2762.0211,12.68665402596747
2763.22,13.136087418568934
2764.4182,13.827790263207078
2765.6158,11.211692074803565
2766.8127,5.337722230002214
2768.009,6.555809993330001
2769.2045,7.065884575936721
2770.3994,6.5678751234140975
2771.5936,5.211710710695101
2772.7872,5.3473203470339286
2773.9801,-0.6753670104322538
2775.1723,-1.0064224580394665
2776.3639,-1.6459103452073691
2777.5548,1.1561150328046779
2778.745,-0.8503841766183768
2779.9346,-3.065445837652689
2781.1235,-1.1890993191365737
2782.3117,-5.67134336610448
2783.4992,-2.5121648444886944
2784.6861,-3.4614939635013116
2785.8723,-0.919235835827692
2787.0579,0.06473900617150719
2788.2428,1.4905692133015975
2789.427,-6.391606564279442
2790.6106,-0.5316496913192452
2791.7935,-2.5293576804160125
2792.9757,-3.93452273298756
2794.1573,1.703088217831521
2795.3382,-0.36625245521139504
2796.5184,-0.44227239639972993
2797.698,-1.5246955911548952
2798.8769,3.1867583934028545
2800.0551,2.3423852218622443
2801.2327,0.5924805269443567
2802.4096,1.187339917946474
2803.5859,6.477258998241098
2804.7615,4.0125333593274775
2805.9364,8.793458527932216
2807.1106,12.920329990656612
2808.2842,9.243443146167309
2809.4572,18.113093263927937
2810.6294,12.479575520967586
2811.801,23.69318491318448
2812.972,25.45421631168128
2814.1423,33.31296435062886
2815.3119,40.06972340965591
2816.4808,45.47478753526151
2817.6491,55.92845037324763
2818.8167,69.88100511466847
2819.9837,80.43274439129365
2821.15,97.83396013608296
2822.3157,116.73494347766864
2823.4807,138.83598456634343
2824.645,169.9373723850507
2825.8086,200.4893945283742
2826.9716,227.04233689152375
2828.134,251.44648336481544
2829.2957,281.65211556814205
2830.4567,294.4595126069316
2831.617,310.2689507700909
2832.7767,316.5807034019317
2833.9358,320.8450407440764
2835.0941,309.3122298723405
2836.2519,300.78253465408886
2837.4089,293.20621586356447
2838.5653,277.5835312671846
2839.7211,270.9647356993048
2840.8761,258.4000812184452
2842.0306,258.7398171734786
2843.1843,252.33419032927716
2844.3374,252.53344486331468
2845.4899,262.18782242972327
2846.6417,262.74756215730065
2847.7928,272.9629005529662
2848.9433,284.43407149616405
2850.0931,280.7613061367091
2851.2422,282.89483278007566
2852.3907,279.03487692412546
2853.5385,284.43166123777144
2854.6857,279.13540559957835
2855.8323,288.94632704379393
2856.9781,301.46463981331226
2858.1233,304.54055526156424
2859.2679,315.3742817273342
2860.4118,337.8660245040012
2861.555,343.8659857312015
2862.6976,358.674364169911
2863.8395,363.091355142446
2864.9808,370.16715038437934
2866.1214,377.80193800037
2867.2614,386.3959023934061
2868.4007,392.0992241884558
2869.5393,406.1120801465288
2870.6773,408.6846431076425
2871.8146,417.2170818506936
2872.9513,422.85956106773244
2874.0874,441.21224127863877
2875.2227,436.1252787746966
2876.3574,449.0988254350679
2877.4915,454.5330287776618
2878.6249,457.87803182939933
2879.7577,467.6839730718712
2880.8898,481.20098640788785
2882.0212,494.32920106342027
2883.152,501.7187414524293
2884.2821,517.0197270455842
2885.4116,525.9822722963665
2886.5405,521.3064864880612
2887.6686,528.1924736441297
2888.7962,533.5903325749692
2889.923,527.5001568090522
2891.0493,523.0720345389481
2892.1748,527.0060486822244
2893.2997,516.2022769257287
2894.424,524.760791686248
2895.5476,521.0316602185464
2896.6706,534.6649445297807
2897.7929,529.9107014167903
2898.9145,533.9689823297658
2900.0355,525.8398334197909
2901.1559,520.0732954982595
2902.2756,512.3194041181673
2903.3946,513.1781896317768
2904.513,503.89967726815723
2905.6308,498.333887124595
2906.7479,494.5308342593807
2907.8643,491.64052874746574
2908.9801,496.0629757184935
2910.0953,498.2981753857016
2911.2098,493.69612300169877
2912.3236,492.6068088361115
2913.4368,493.6802182216054
2914.5494,494.46633156477753
2915.6613,480.0651243354239
2916.7725,467.0265670586761
2917.8831,467.2506254590154
2918.9931,461.9872605906571
2920.1024,450.1864288353104
2921.211,443.34808195481196
2922.319,435.9721672091343
2923.4264,432.308627424769
2924.5331,420.90740106848585
2925.6391,420.8684222839688
2926.7445,421.19162100582764
2927.8493,429.5769229599882
2928.9534,425.27424966045976
2930.0569,429.83351832548294
2931.1597,438.7046419205555
2932.2619,438.3875291128403
2933.3634,452.3820841824539
2934.4643,449.68820702563767
2935.5645,454.855793014812
2936.6641,462.1347330255156
2937.763,474.92491338472905
2938.8613,471.72621579808583
2939.959,462.73851722197026
2941.056,462.96168989550466
2942.1523,436.5456014304261
2943.248,414.8901148088547
2944.3431,388.5950886474547
2945.4375,362.2103774139895
2946.5313,330.53583169027115
2947.6244,310.0212984360083
2948.7169,295.46662130555126
2949.8087,262.97164085303723
2950.8999,238.88619467793754
2951.9904,221.7601177500069
2953.0803,198.59324265013845
2954.1696,191.23539974162398
2955.2582,181.43641740182295
2956.3462,167.89612209574082
2957.4335,165.26433847401904
2958.5202,163.2408895083378
2959.6062,162.4255965177339
2960.6916,163.96827918883537
2961.7764,163.56875558401433
2962.8605,169.5268421259602
2963.9439,167.4923536016749
2965.0267,171.965103102892
2966.1089,166.84490204642162
2967.1905,167.1815601294229
2968.2714,157.87488538060597
2969.3516,156.47468415686546
2970.4312,158.4307612363471
2971.5102,155.9929198324498
2972.5885,160.96096157426496
2973.6662,156.58468653095485
2974.7432,158.91389316207204
2975.8196,162.74837836132258
2976.8954,165.83793743327342
2977.9705,165.98236405500785
2979.045,168.43145024522985
2980.1188,164.3849863628198
2981.192,162.44276108234365
2982.2645,165.15456143451752
2983.3364,151.82017282563
2984.4077,144.4893790104241
2985.4783,133.0119622254412
2986.5483,132.287703262329
2987.6177,119.16638158261553
2988.6864,116.09777532495183
2989.7545,109.33166143632523
2990.8219,102.21781570274526
2991.8887,99.1560128169049
2992.9548,92.09602644931906
2994.0204,82.28762927894246
2995.0852,74.43059306376978
2996.1495,62.27468873891925
2997.2131,58.06968649520341
2998.276,49.86535590068786
2999.3383,42.9614659427414
3000.4,37.95778511007927
3001.4611,27.904081461802292
3002.5215,22.75012267743341
3003.5812,25.54567615745485
3004.6404,16.440509074847654
3005.6989,15.134388347136081
3006.7567,13.527080727439383
3007.8139,10.068352817532912
3008.8705,8.507971083921305
3009.9264,4.595701892425765
3010.9818,1.2813115237878065
3012.0364,1.8145662127919877
3013.0905,2.64523218140981
3014.1439,1.5230756334671156
3015.1966,-0.7521372536625819
3016.2487,4.319359682163636
3017.3002,-0.5626598830603058
3018.3511,0.40157768346601586
3019.4013,0.31185163551515416
3020.4509,-4.332058777156021
3021.4998,-1.930374307909176
3022.5481,-2.983272432838774
3023.5958,-2.540911343600044
3024.6428,-0.20341942895660736
3025.6892,-2.7708996939677633
3026.735,-2.3934531115328213
3027.7802,-2.0211529732631845
3028.8247,-4.554048660173692
3029.8685,-0.2421693619609755
3030.9118,4.814501226624358
3031.9544,-2.184018169896362
3032.9963,4.162291124853212
3034.0376,4.553469605590891
3035.0783,3.489557725411629
3036.1184,8.420595891875777
3037.1578,10.196624477648157
3038.1966,9.31768377118766
3039.2348,9.68381395898696
3040.2723,10.045055134361945
3041.3092,12.101447293790386
3042.3455,12.70303033329958
3043.3811,13.799844027902395
3044.4161,12.741928025581473
3045.4505,14.879321836321068
3046.4842,16.162064842686178
3047.5173,12.84019627844863
3048.5498,18.31375521575967
3049.5816,17.082780598368636
3050.6128,15.49731118688728
3051.6434,22.007385571099647
3052.6734,19.263042185816673
3053.7027,20.814319245775494
3054.7314,20.661254773082824
3055.7594,18.8538865817022
3056.7868,22.84225227898466
3057.8136,22.226389283742385
3058.8398,26.806334786365085
3059.8653,23.5821257549786
3060.8902,31.653798889645458
3061.9145,31.071390654606994
3062.9381,30.93493719756659
3063.9612,34.144474355513694
3064.9835,35.150037656088486
3066.0053,35.701662285486364
3067.0264,38.3993830784024
3068.0469,39.393234512515065
3069.0668,35.68325068150909
3070.086,34.56946528513688
3071.1046,38.90191166631834
3072.1226,35.980622822278804
3073.1399,32.35563136122449
3074.1567,35.27696953155541
3075.1727,31.194669258115333
3076.1882,34.45876211297831
3077.203,30.91927935627176
3078.2173,28.426251903535487
3079.2308,25.17971036111657
3080.2438,23.879685051099564
3081.2561,24.626206043772008
3082.2678,22.019303170624575
3083.2789,18.059006016885867
3084.2893,22.045343947591476
3085.2991,18.528346147186944
3086.3083,17.50804157966438
3087.3169,14.834459023732435
3088.3248,16.907627083019364
3089.3321,14.527574212808844
3090.3388,14.944328699308336
3091.3449,13.857918683449533
3092.3503,15.21837215672091
3093.3551,15.82571697203172
3094.3593,17.529980830107547
3095.3629,13.081191273416835
3096.3658,10.129375669128216
3097.3681,14.77456125359847
3098.3698,16.266775161890592
3099.3708,17.556044381321996
3100.3713,11.642395736542362
3101.3711,12.625855876640948
3102.3702,9.206451334283067
3103.3688,14.434208515875504
3104.3667,13.909153735760526
3105.364,10.881313163938323
3106.3607,12.600712831317601
3107.3568,11.067378659993906
3108.3522,12.231336446055714
3109.347,12.592611874917715
3110.3412,10.651230509681255
3111.3348,9.257217787521562
3112.3277,9.960599039101595
3113.32,10.71139950251213
3114.3117,11.90964431623797
3115.3028,9.555358511649956
3116.2932,11.048567001022494
3117.2831,7.139294601076415
3118.2723,7.5275660180468975
3119.2608,10.163405886776175
3120.2488,10.546838766830842
3121.2361,9.92788911614345
3122.2229,8.906581287178192
3123.209,11.332939533120367
3124.1944,11.356988018089464
3125.1793,6.278750792875616
3126.1635,5.598251794699099
3127.1471,7.5655148979926885
3128.1301,7.4805639212066595
3129.1125,8.843422607136159
3130.0942,6.2541146237707075
3131.0753,8.162663550665627
3132.0558,8.01909290483507
3133.0357,11.323426121666568
3134.015,4.125686556356758
3134.9936,9.02589745086799
3135.9716,6.424082005905792
3136.949,7.770263331916713
3137.9258,5.96446447510651
3138.902,8.50670840397833
3139.8775,10.347018027390675
3140.8524,8.78541616913499
3141.8267,5.971925549532557
3142.8004,8.206568801050501
3143.7735,8.639368496436713
3144.7459,7.920347126373407
3145.7178,9.349527095149124
3146.689,9.776930727848953
3147.6596,11.002580256062704
3148.6295,9.726497813610905
3149.5989,7.09870542428828
3150.5676,9.819225014624582
3151.5357,7.488078440162518
3152.5032,7.255287458252546
3153.4701,10.320873751364356
3154.4364,5.484858929414774
3155.402,10.347264499111905
3156.367,10.858111912315266
3157.3315,9.717422517411745
3158.2952,9.175217554207105
3159.2584,5.531518165332896
3160.221,11.736345401668506
3161.1829,9.689720258778143
3162.1442,9.291663614862586
3163.105,9.692196251225415
3164.065,9.291338856253583
3165.0245,8.839112021412104
3165.9834,13.035536245252606
3166.9416,9.230631937935604
3167.8993,7.874419379266268
3168.8563,12.766918756743447
3169.8127,10.158150179121813
3170.7684,10.998133627486842
3171.7236,11.08688898134252
3172.6782,11.124436010211504
3173.6321,12.310794372747567
3174.5854,11.195983616360131
3175.5381,12.93002316535067
3176.4902,13.212932332060838
3177.4417,8.744730299532055
3178.3926,12.825436118676423
3179.3428,12.355068752958745
3180.2924,12.18364703758947
3181.2415,13.11118968422838
3182.1899,10.43771528269877
3183.1377,9.413242291712042
3184.0848,13.037789065602453
3185.0314,12.96137386457185
3185.9773,12.68401481844418
3186.9227,13.40572992742966
3187.8674,11.92653706489836
3188.8115,12.19645397016306
3189.755,12.315498263271166
3190.6979,13.08368744230555
3191.6402,13.9010388821941
3192.5818,16.217569827027834
3193.5229,17.13329738188738
3194.4633,15.348238489677662
3195.4031,14.062409921970648
3196.3423,13.125828296855914
3197.2809,13.93851009179895
3198.2189,15.000471653006956
3199.1563,12.611729187302048
3200.0931,15.172298751501625
3201.0292,15.132196276305795
3201.9648,12.791437540691675
3202.8997,17.350038172314417
3203.834,17.8580136709148
3204.7677,15.315379362733228
3205.7008,13.67215039542995
3206.6333,14.72834176351144
3207.5652,16.13396832476266
3208.4964,18.389044789685162
3209.4271,16.99358570744082
3210.3571,13.197605443301056
3211.2865,17.101118192601447
3212.2154,15.904138018701513
3213.1436,17.0066788139496
3214.0712,19.258754311652662
3214.9982,17.56037807505088
3215.9246,16.361563474796878
3216.8503,19.012323705939515
3217.7755,16.812671799912014
3218.7001,18.512620598024345
3219.624,19.41218277345978
3220.5473,16.261370814275374
3221.4701,18.510197014406362
3222.3922,18.458673505174254
3223.3137,17.756812232798588
3224.2346,18.754624958912174
3225.1549,19.25212326757969
3226.0746,17.949318555319568
3226.9937,18.946222026129007
3227.9121,20.792844704512028
3228.83,16.78919742551041
3229.7473,20.0852908162375
3230.6639,20.831135335914666
3231.5799,20.92674124291036
3232.4954,19.9221185872817
3233.4102,21.36727720981837
3234.3244,18.662226752088877
3235.238,18.856976641988943
3236.151,20.65153612079203
3237.0634,20.295914241201835
3237.9752,21.440119849406678
3238.8864,18.684161588635735
3239.797,20.72804788771699
3240.7069,23.37178698863678
3241.6163,20.71538692610099
3242.5251,22.858855501097608
3243.4332,21.00220030746075
3244.3408,21.94542871043599
3245.2477,21.488547865246886
3246.154,20.231564707662706
3247.0598,23.674485958567246
3247.9649,21.217318136528643
3248.8694,23.810067523370193
3249.7733,21.002740188741992
3250.6766,23.34534196419345
3251.5793,22.9378784712466
3252.4814,21.680355097970015
3253.3829,22.372777003053503
3254.2838,22.765149128383307
3255.1841,24.757476192117885
3256.0838,23.24976268476421
3256.9829,20.742012849254476
3257.8814,22.834230696023248
3258.7792,26.676420028084955
3259.6765,24.36858442011172
3260.5731,25.210727180011453
3261.4692,19.852851372006224
3262.3647,24.54495980821082
3263.2595,22.6870551022115
3264.1538,22.729139622144938
3265.0474,23.721215509277247
3265.9404,25.213284677583125
3266.8329,22.805348803825126
3267.7247,22.247409312632932
3268.616,23.289467400582737
3269.5066,25.93152404177662
3270.3966,25.82357997742198
3271.286,22.36563568941098
