RamanShift,CorrectedData
30.1047,1556.595359609334
32.3739,1445.0278269887583
34.6426,1338.210278802229
36.9109,1228.7426850335137
39.1787,1116.5250022842777
41.4461,1009.9071748687583
43.7131,899.4391359359425
45.9796,789.7708085357453
48.2456,679.8521067236898
50.5112,571.8329366575907
52.7764,460.06319769674144
55.0411,356.1427834821063
57.3054,250.421583054017
59.5692,146.74948189137746
61.8326,39.7763629688759
64.0955,-67.29789220629436
66.3579,-167.92340252470356
68.6199,-266.4996145709789
70.8815,-347.7242973749565
73.1426,-388.79255763532336
75.4032,-301.44602828503554
77.6634,67.57754178060122
79.9231,1140.293415112103
82.1824,3641.8168535842115
84.4412,8356.263107668736
86.6995,15114.597391419315
88.9574,21868.834835326958
91.2148,26664.4904187367
93.4717,28983.82890230523
95.7282,29477.214780044334
97.9842,29377.21225612751
100.2398,28808.185239956096
102.4949,28169.39734715933
104.7495,27320.06190528458
107.0036,26414.84196018526
109.2573,25507.000284514143
111.5105,24598.0493867756
113.7632,23741.801520404
116.0154,23003.418692853218
118.2672,22412.56267415911
120.5185,21768.79500432335
122.7693,21293.226999221988
125.0197,20867.31975704313
127.2696,20487.28416304259
129.519,20245.230893803015
131.7679,19905.820421034197
134.0163,19660.06301399362
136.2642,19382.318742880565
138.5117,19084.49748129369
140.7587,18716.908909008467
143.0052,18436.562514955393
145.2512,18132.917600895882
147.4967,17798.233284225724
149.7417,17536.318501011534
151.9863,17290.732009337597
154.2304,17106.932391925006
156.4739,16844.678058587546
158.717,16690.97724806968
160.9596,16385.388030669084
163.2017,16061.168309773677
165.4433,15605.325824917487
167.6844,15159.868155022861
169.925,14710.052722958895
172.1651,14197.936799996005
174.4047,13816.677510304075
176.6439,13408.831836073627
178.8825,13026.206621328407
181.1206,12749.95857600385
183.3582,12450.144279773325
185.5954,12225.820184810607
187.832,12048.442618788042
190.0681,11883.917787119775
192.3037,11763.701774735524
194.5388,11637.800547725827
196.7734,11601.519954544208
199.0075,11554.415727266187
201.2411,11579.593481952095
203.4742,11521.158719118092
205.7068,11562.966823484425
207.9389,11582.873064559742
210.1704,11648.632596223037
212.4015,11656.300456524563
214.632,11726.581567028265
216.862,11803.380732735073
219.0915,11905.402641380111
221.3205,11992.0518626647
223.549,12190.332847236139
225.777,12461.799925821222
228.0044,12784.107307243406
230.2314,13200.459075708168
232.4578,13585.659187579902
234.6837,13892.61146721842
236.909,13989.719603126952
239.1339,13849.187144882617
241.3582,13514.867502165338
243.582,12971.863946163177
245.8053,12546.179612915525
248.0281,12080.31750874313
250.2503,11691.580514504958
252.472,11447.821390256808
254.6932,11267.492779138664
256.9139,11031.247209812309
259.134,10901.187098264596
261.3536,10771.414750169912
263.5727,10697.832362190778
265.7912,10512.342023275574
268.0092,10404.79571539436
270.2267,10285.095315393777
272.4436,10114.592596072516
274.6601,9956.739227378319
276.8759,9817.73677811301
279.0913,9703.736717511023
281.3061,9605.590416629431
283.5204,9611.249149487947
285.7341,9664.514094050377
287.9473,9741.936332168045
290.16,9930.866849047137
292.3721,10198.25653247448
294.5837,10581.106170928242
296.7947,10894.066450904025
299.0052,11032.93795308637
301.2152,10756.671149219172
303.4246,10289.566400716936
305.6334,9610.123961427467
307.8418,8987.843982302913
310.0495,8471.676518194177
312.2568,8083.571534073742
314.4635,7802.878910197322
316.6696,7650.048445984914
318.8752,7526.779862827736
321.0802,7544.472805616531
323.2847,7600.626843974236
325.4887,7553.54147207907
327.692,7459.766108103
329.8949,7290.250094682568
332.0972,6910.342699856676
334.2989,6558.943118761725
336.5001,6204.950477430697
338.7007,5934.46383630715
340.9008,5793.882193785148
343.1003,5571.404488914124
345.2992,5457.229602804691
347.4976,5358.7063608534245
349.6955,5288.733533884606
351.8927,5332.459839135461
354.0895,5245.083940955887
356.2856,5253.154450371185
358.4812,5137.719925955824
360.6763,5121.428873752737
362.8707,5039.129748427666
365.0646,5040.370953432062
367.258,4980.0008418261
369.4508,4933.167716266233
371.643,4954.169829608922
373.8346,4841.955385378942
376.0257,4759.772537559387
378.2162,4626.869391713806
380.4062,4464.044005808035
382.5956,4257.194391539204
384.7844,4091.618515964021
386.9726,3902.8143035672547
389.1603,3819.9296379174975
391.3474,3695.51236355521
393.5339,3678.0102868215545
395.7199,3564.171177102584
397.9052,3515.2927670042445
400.09,3515.1727534907895
402.2743,3517.6587983735426
404.4579,3503.6485283121037
406.641,3662.939534789499
408.8235,3839.9793742522706
411.0054,4150.165566517577
413.1868,4562.245593002786
415.3675,4913.9668936236285
417.5477,5090.0268626733705
419.7273,5082.872845305621
421.9064,4945.5521357737325
424.0848,4744.61197750232
426.2627,4447.749564460495
428.4399,4099.462043171252
430.6166,3716.896515680097
432.7928,3260.750043037915
434.9683,2892.5196491266506
437.1432,2640.3523252207397
439.3176,2444.1950336694317
441.4914,2299.3447104184543
443.6645,2230.1982669716
445.8371,2138.4525918392173
448.0091,1988.404551229667
450.1806,1955.150989966798
452.3514,1855.3887329904228
454.5216,1824.814585688844
456.6913,1711.2253348964841
458.8603,1698.9177491996325
461.0288,1747.2885800723216
463.1967,1730.3845619994208
465.3639,1866.202411992921
467.5306,1940.4388297609657
469.6967,2055.3404963496923
471.8622,2214.354073400844
474.0271,2336.0762020027687
476.1914,2409.403501100269
478.3551,2350.8825662773907
480.5182,2293.5099690241495
482.6807,2251.9822573217407
484.8426,2326.94595621627
487.0039,2607.0975682340213
489.1647,3005.583572631829
491.3248,3427.650422595567
493.4843,3592.7445412552697
495.6432,3554.512317464487
497.8015,3431.0001041493215
499.9592,3407.454218690764
502.1163,3388.1709441598196
504.2728,3125.6965295529444
506.4287,2808.177189984901
508.5839,2342.7591093134943
510.7386,1990.288443314761
512.8927,1761.9613243371605
515.0461,1622.3738648262643
517.199,1528.272159608041
519.3512,1470.902287284718
521.5029,1499.010311175809
523.6539,1512.5422798918153
525.8043,1546.144227053137
527.9541,1543.8621711547603
530.1033,1527.192115230242
532.2519,1579.3300468745165
534.3999,1735.0719384106123
536.5472,2045.9137463682564
538.694,2563.2014099264616
540.8401,3205.5308478051065
542.9856,3732.5979530920667
545.1305,3877.2485868199146
547.2748,3696.9285726952494
549.4185,3273.9336956521856
551.5615,2867.3097036555537
553.704,2677.6523119308586
555.8458,2569.8572070305054
557.987,2559.3200487303893
560.1276,2483.0364711078346
562.2675,2416.352082646972
564.4069,2372.312467001564
566.5456,2315.813183661865
568.6837,2195.849768395001
570.8212,1890.217733809981
572.958,1603.362570557314
575.0942,1369.5797503853337
577.2299,1217.9147290087567
579.3648,1238.2129484465004
581.4992,1322.7698385383464
583.6329,1542.830816741949
585.766,1789.5412872872748
587.8985,1904.6966389759855
590.0304,1889.742242714341
592.1616,1836.4734503616382
594.2922,1706.5855948797507
596.4222,1579.4239908658292
598.5515,1416.533935851172
600.6802,1236.6607115728457
602.8083,1054.3995856025795
604.9358,997.2958131454998
607.0626,888.1446388627483
609.1888,825.4412974425086
611.3144,748.1810146915268
613.4393,611.5090081621438
615.5636,496.5704879248933
617.6873,377.91065793522466
619.8103,303.57471718289526
621.9327,230.25786087855522
624.0544,238.50528119712544
626.1756,190.01216801095507
628.2961,171.77370880733724
630.4159,136.5850891734608
632.5351,112.24149297877557
634.6537,45.48810272688206
636.7716,17.770099798988667
638.8889,30.282211150144576
641.0056,55.01898621209875
643.1216,54.42467189730996
645.237,74.74296547855738
647.3518,76.61702052614783
649.4659,139.639989862957
651.5793,140.00502554569357
653.6922,141.2052782346782
655.8043,117.5338971901856
657.9159,89.08403026045016
660.0268,27.648824118365155
662.137,-48.72857545401166
664.2466,-49.855298886381206
666.3556,-66.9879898099789
668.4639,-53.78279380161075
670.5716,36.604812771927755
672.6786,86.8698908339502
674.785,121.40713562568817
676.8907,242.36124151968033
678.9958,321.9769016743958
681.1002,308.2488068246985
683.204,307.77164448568874
685.3072,254.84009908998632
687.4097,189.49885199249547
689.5115,142.89258199971118
691.6127,83.81596602316131
693.7132,1.763679545447303
695.8131,-48.21960278897859
697.9123,-57.23922395482623
700.0109,-87.95004521297778
702.1089,-135.15635600447422
704.2061,-126.51156714940953
706.3028,-39.267739255888955
708.3987,20.874330918539272
710.4941,104.41423890102487
712.5887,344.4013716841491
714.6827,628.3351152163523
716.7761,1027.0648520020768
718.8688,1442.0399582624104
720.9608,1643.809799947805
723.0522,1702.8237285883297
725.1429,1477.381079275954
727.233,1133.1811700744202
729.3224,841.5733042736683
731.4112,540.9067738318354
733.4993,329.7808622913399
735.5867,181.4948477855287
737.6735,94.29800514995623
739.7596,36.2896074052187
741.845,2.268926628956251
743.9298,-13.714765464088487
746.014,30.287780174239742
748.0974,44.275949602591936
750.1802,65.79912857675663
752.2624,86.9567024097687
754.3439,123.29805575667342
756.4247,161.7225724029613
758.5048,313.929634901142
760.5843,512.8186241865169
762.6631,818.0389180550937
764.7413,1296.9398891747023
766.8188,1888.770902032782
768.8956,2380.7813081473887
770.9718,2713.970440148869
773.0473,2594.687606859761
775.1221,2239.732089962903
777.1962,1874.653145194261
779.2697,1677.2000058924841
781.3426,1715.321886649699
783.4147,2023.8679852860405
785.4862,2383.8874824684244
787.557,2410.679538625096
789.6271,2054.243290345432
791.6966,1476.5278501120192
793.7654,959.6323098650155
795.8335,631.6057467793125
797.901,458.7472284334781
799.9678,400.505816090028
802.0339,433.33056642401425
804.0993,488.4705321054407
806.1641,469.5247614710079
808.2282,450.1422979727213
810.2916,370.62218036733975
812.3544,287.26344291020723
814.4164,203.9151161504451
816.4778,222.17622776454664
818.5385,207.04580338985943
820.5986,272.8228664419712
822.658,385.75643826600754
824.7166,459.5455374788762
826.7747,632.5891788399185
828.832,822.2363725130253
830.8886,958.4861223361968
832.9446,1136.837423925077
834.9999,1187.0392633104475
837.0545,1255.5906151547224
839.1085,1295.0404422499287
841.1618,1278.687694832186
843.2143,1257.8813101872183
845.2662,1176.970212813876
847.3175,1110.9033146322
849.368,1026.4795157925382
851.4179,894.4477053362061
853.467,794.1567620397291
855.5155,687.0555557351672
857.5633,561.1429483130105
859.6105,490.66779479320394
861.6569,413.52894458427
863.7027,379.17524218805374
865.7478,381.4055279711192
867.7922,419.46863850828777
869.8359,461.0134065603215
871.8789,607.7386606933087
873.9212,767.8432248632107
875.9629,955.0759169486046
878.0039,1161.5355471496423
880.0441,1253.670916115725
882.0837,1271.7808128809065
884.1226,1167.41401394254
886.1609,1056.4192830801785
888.1984,950.8453723992407
890.2352,931.8910234409632
892.2714,906.8049682381243
894.3069,876.6359295045986
896.3416,825.232620886225
898.3757,803.4937472624788
900.4091,769.6180052605159
902.4418,802.7040834725522
904.4739,824.9506627946357
906.5052,828.056416095782
908.5358,748.8700079955088
910.5658,609.7900948327751
912.595,452.11532545784394
914.6236,318.19434262308096
916.6515,292.52578455970615
918.6786,301.1082863169995
920.7051,385.7904800189881
922.7309,493.72099477861775
924.756,570.1484558509437
926.7804,669.2214835538052
928.8041,653.6886925035742
930.8272,719.3986906244081
932.8495,656.4000793035902
934.8711,598.3414527344266
936.892,456.4213985462193
938.9123,290.3884983848711
940.9318,177.94132933207402
942.9506,79.228465565644
944.9688,-17.451520516005985
946.9862,-28.250057306746385
949.003,-80.81839885977024
951.019,-50.45751701019981
953.0344,-40.06757621736506
955.0491,12.501763129997926
957.063,92.45124091822981
959.0763,212.7315969086576
961.0888,275.2435699380985
963.1007,364.9878967160621
965.1119,423.1653111996202
967.1223,457.67654369597767
969.1321,483.72232028069266
971.1412,544.4033624525564
973.1495,582.2203868731503
975.1572,628.8241047600222
977.1641,663.9152215085251
979.1704,662.6944362257746
981.1759,650.0124413797439
983.1808,739.4699228114641
985.1849,848.4175598618476
987.1884,1029.656024477119
989.1911,1219.9859801193197
991.1932,1404.0080799539428
993.1945,1474.4229649466306
995.1951,1443.2312620229513
997.1951,1398.0835833642432
999.1943,1333.8305267195392
1001.1928,1284.5226758570407
1003.1906,1288.6606012066495
1005.1877,1328.944860353051
1007.1841,1304.7259979943228
1009.1798,1257.3045455391057
1011.1748,1093.8310213487766
1013.1691,893.2559312116791
1015.1627,682.429769977849
1017.1556,487.50302356477187
1019.1477,390.82617106563885
1021.1392,339.4496866986192
1023.1299,354.42404077362335
1025.12,388.79970020607107
1027.1093,445.22712836714345
1029.0979,553.4067847400293
1031.0859,632.1891243556529
1033.0731,664.2745967108676
1035.0596,596.1636449806429
1037.0454,424.1567056972108
1039.0304,321.0042094311666
1041.0148,210.756582511538
1042.9985,148.26424805732677
1044.9814,91.57762707996699
1046.9636,92.34713910826031
1048.9452,63.12320275523234
1050.926,68.15623571044671
1052.9061,94.04665503223441
1054.8855,86.69487709737041
1056.8642,139.20131734216739
1058.8421,184.06639033599095
1060.8194,233.8405092562043
1062.7959,275.3740854395055
1064.7717,311.2175278841878
1066.7469,317.1212428348117
1068.7213,322.3856334237553
1070.695,312.46109961219736
1072.6679,251.59803813745384
1074.6402,216.09684261224356
1076.6117,212.50790413330833
1078.5826,241.5816116364258
1080.5527,283.41835193229963
1082.5221,434.1185094158209
1084.4908,651.3824656477045
1086.4587,881.460597847482
1088.426,1043.6032767208599
1090.3925,1037.7108641589439
1092.3584,981.1337116168161
1094.3235,847.4221601724485
1096.2879,773.6765410924845
1098.2515,751.4471771693452
1100.2145,809.6843834586962
1102.1767,898.6884675017345
1104.1382,1062.8097287428209
1106.099,1304.448457639428
1108.0591,1531.7049340209333
1110.0185,1664.0294246722324
1111.9771,1693.0221810611774
1113.9351,1499.533438015328
1115.8923,1193.5634134320317
1117.8488,874.4123102133071
1119.8045,616.8803193255408
1121.7596,462.1676229909963
1123.7139,440.5743972631408
1125.6675,450.8008135737682
1127.6204,551.9470389489279
1129.5726,552.5132359066638
1131.524,565.9495614455527
1133.4748,576.5061670390514
1135.4248,593.9831985011197
1137.3741,632.4807958806632
1139.3226,618.9990932867568
1141.2705,587.0382185036715
1143.2176,519.8482931256904
1145.164,536.8294328767215
1147.1097,557.9317482821916
1149.0546,543.1053444992376
1150.9989,484.8003211056857
1152.9424,316.6667722483089
1154.8852,126.90478722587886
1156.8272,43.664452170502955
1158.7686,-21.554148054754478
1160.7092,-24.35092902346878
1162.6491,-34.82559098328329
1164.5883,55.32240908394033
1166.5267,163.74396210398936
1168.4644,288.48995844943147
1170.4014,502.81128685539534
1172.3377,774.8088331721146
1174.2732,998.4334782217138
1176.2081,1251.5360950782306
1178.1421,1448.8675468313759
1180.0755,1664.9786840555025
1182.0082,1731.120342836297
1183.9401,1706.593342609658
1185.8713,1575.6484855002936
1187.8017,1338.436556566976
1189.7315,1100.3583251119999
1191.6605,832.6645470532976
1193.5888,645.0059673052265
1195.5163,540.483322455495
1197.4432,446.9473426417617
1199.3693,429.8987525968487
1201.2947,418.8882725841104
1203.2193,409.41661856791325
1205.1432,430.2345023237458
1207.0664,468.24263153293396
1208.9889,528.3417095744626
1210.9106,634.3324351448928
1212.8316,676.7655016573763
1214.7519,778.0415961817407
1216.6715,790.0613990201646
1218.5903,805.225582694412
1220.5084,804.5348118256334
1222.4257,783.3897429827266
1224.3424,756.8910246892519
1226.2583,820.2892976348694
1228.1735,926.8851949403361
1230.0879,1061.829341523514
1232.0016,1183.1723530334157
1233.9146,1248.064834500764
1235.8269,1155.7573791245586
1237.7384,1032.000567623155
1239.6492,854.4449691573336
1241.5592,756.8411425678714
1243.4686,681.989638151108
1245.3772,638.64099863497
1247.285,620.1457599274909
1249.1922,618.4544515502985
1251.0986,608.217596823567
1253.0042,618.8857128829322
1254.9092,671.3593107818524
1256.8134,790.6388953849328
1258.7169,962.8749648431922
1260.6196,1138.4680094012529
1262.5216,1315.168509674998
1264.4229,1502.4769348956324
1266.3234,1647.8437411426794
1268.2232,1719.1693694709002
1270.1223,1730.3542444566183
1272.0207,1725.5987734844712
1273.9183,1676.6533466355559
1275.8151,1643.1683367349888
1277.7113,1577.4440998413502
1279.6067,1437.5309755815406
1281.5014,1328.7792878080245
1283.3953,1219.4893459979576
1285.2885,1214.011446340708
1287.181,1210.245872830752
1289.0727,1279.2428973224532
1290.9637,1356.7527795677188
1292.854,1478.4757665260304
1294.7435,1614.312091589345
1296.6323,1819.5619733648655
1298.5204,2058.3256143166773
1300.4077,2308.5031987132515
1302.2943,2466.344890239804
1304.1802,2540.750829496521
1306.0653,2450.8711324201468
1307.9497,2355.005889539915
1309.8333,2248.105166876355
1311.7162,2226.069006899933
1313.5984,2278.397429600075
1315.4798,2426.9404327055154
1317.3605,2561.7979911610173
1319.2405,2699.9200556419482
1321.1197,2730.4565512056897
1322.9982,2675.0073759104334
1324.876,2659.9224005098094
1326.753,2616.551469007374
1328.6293,2639.0943988074714
1330.5048,2642.00098114893
1332.3796,2620.020980879636
1334.2537,2604.504136427471
1336.127,2614.3501600201125
1337.9996,2592.5087378402013
1339.8714,2559.329529926882
1341.7426,2508.5621703942143
1343.6129,2495.3562677629634
1345.4826,2460.711405468276
1347.3515,2431.477141991735
1349.2196,2424.8030112078204
1351.087,2432.288522676232
1352.9537,2493.2831617086485
1354.8197,2651.086389293865
1356.6849,2855.3976414878434
1358.5493,2932.616327835688
1360.4131,2977.2418293285264
1362.276,2932.3734976313262
1364.1383,2826.560654636638
1365.9998,2563.802592913278
1367.8606,2308.7985767644623
1369.7206,2032.9478448553828
1371.5799,1854.8496127632507
1373.4384,1716.9530757357988
1375.2962,1594.707410472266
1377.1533,1379.36177650236
1379.0096,1108.515317408719
1380.8652,861.4171629803659
1382.7201,603.5164319211681
1384.5742,425.66223432082734
1386.4275,275.9036742338849
1388.2802,177.2898514582639
1390.132,93.11986303285539
1391.9832,63.79280422365446
1393.8336,-0.9422306345359175
1395.6832,-14.486147844838342
1397.5322,-16.389844297495074
1399.3803,-6.6540721661340285
1401.2278,-9.879419889841301
1403.0745,-16.21640943352122
1404.9204,0.7345359333239685
1406.7656,49.323154943118425
1408.6101,79.54918632094086
1410.4538,122.61236829864265
1412.2968,166.71243831258653
1414.139,254.2491325730125
1415.9805,362.1721856230406
1417.8213,453.23132946330225
1419.6613,609.0262924727122
1421.5006,803.6567984978728
1423.3391,1107.522565295124
1425.1769,1483.0233025842417
1427.0139,2016.35870900978
1428.8502,2603.828468386061
1430.6858,3211.8822443638246
1432.5206,3655.8696745555317
1434.3547,3913.740364454815
1436.188,3971.4938829966186
1438.0206,3904.579759978482
1439.8524,3792.3974854830067
1441.6835,3677.646510547007
1443.5139,3607.9762482833203
1445.3435,3559.2360750283187
1447.1724,3524.3753310386137
1449.0005,3474.64332097846
1450.8279,3386.7393142683604
1452.6545,3372.26254558239
1454.4804,3392.7622157272326
1456.3056,3423.9374917869472
1458.13,3335.637506917971
1459.9536,3133.011360037366
1461.7766,2784.658116705823
1463.5987,2378.626811153922
1465.4202,2014.7164497656613
1467.2409,1686.0260151387765
1469.0608,1420.3544697238403
1470.88,1170.2507591111626
1472.6984,998.5638146875126
1474.5161,780.7925561371512
1476.3331,644.0358931587089
1478.1493,530.5427276428854
1479.9648,461.36195504003445
1481.7795,396.14246549507607
1483.5935,340.0831445393169
1485.4067,260.6828737426349
1487.2192,251.99053127407842
1489.031,241.10499269587308
1490.842,193.87513105034122
1492.6522,185.24981696875602
1494.4618,152.32791914364134
1496.2705,172.75830441502512
1498.0785,139.18983809965903
1499.8858,117.32138378670788
1501.6924,110.4518036734471
1503.4981,127.12995878393576
1505.3032,124.45470903771911
1507.1075,101.32491308304452
1508.911,100.48942832361263
1510.7138,77.94711114987876
1512.5159,61.846816947406296
1514.3172,33.23740032229216
1516.1178,14.917715262165984
1517.9176,19.286615422289287
1519.7166,7.642954308746084
1521.515,-1.7144147652415995
1523.3126,11.763361437117055
1525.1094,-15.674846720381538
1526.9055,-23.83016899157701
1528.7008,-30.95357853858968
1530.4954,-37.245810460154644
1532.2893,-19.407290628758346
1534.0824,-20.18807283123897
1535.8747,-11.488016975609753
1537.6663,-10.356781291033712
1539.4572,-4.493909241388337
1541.2473,-4.198840826308242
1543.0367,4.379028848724374
1544.8253,-7.609653375356174
1546.6132,48.33575929859762
1548.4003,65.76598968816552
1550.1867,82.7817601275733
1551.9723,113.38379229338807
1553.7572,156.27280703436054
1555.5414,206.64952406540579
1557.3247,268.0146615387107
1559.1074,342.61893553996833
1560.8893,419.8630594747292
1562.6705,482.34774332235475
1564.4509,593.4236928635796
1566.2305,667.341609055663
1568.0094,791.1021869216297
1569.7876,855.1061148110889
1571.565,927.1540731626305
1573.3417,949.6467338637835
1575.1176,970.184759530538
1576.8928,944.8188032824187
1578.6672,861.8995085371057
1580.4409,788.3275092640929
1582.2138,673.0534308138822
1583.986,579.8778906537032
1585.7575,515.6514995202506
1587.5282,459.22486235144424
1589.2981,434.3985789286885
1591.0673,428.22324444114156
1592.8358,421.8494497339743
1594.6035,439.627781370129
1596.3704,458.5088216940544
1598.1366,486.543148653921
1599.9021,533.7813356128117
1601.6668,583.2239510683808
1603.4308,671.6215581804695
1605.194,756.0247142766812
1606.9564,881.7339699684067
1608.7182,1014.3998683067884
1610.4791,1185.8229435256353
1612.2394,1340.9037197147604
1613.9988,1564.9427091057428
1615.7576,1787.740410521129
1617.5156,2028.9473071340412
1619.2728,2254.5138642401957
1621.0293,2408.1405268458407
1622.785,2484.977717412085
1624.54,2416.7258343186377
1626.2942,2292.93525109543
1628.0477,2063.4063171051403
1629.8005,1873.5393587810913
1631.5525,1683.1346819225487
1633.3037,1491.4425735933828
1635.0542,1370.6633040261213
1636.804,1280.3971285388693
1638.553,1187.9442887430982
1640.3013,1170.705013446313
1642.0488,1165.1795195765753
1643.7955,1207.7680123548962
1645.5416,1265.0206853504965
1647.2868,1363.6877200549138
1649.0313,1462.2192853094816
1650.7751,1629.26553631866
1652.5181,1822.1766136647152
1654.2604,2067.352641637264
1656.0019,2354.993726304154
1657.7427,2704.0499530597126
1659.4828,3029.371383748328
1661.222,3236.0080531738918
1662.9606,3265.5599658465826
1664.6984,3095.8270939165
1666.4354,2738.0093768781458
1668.1717,2256.2567232677507
1669.9072,1794.3190142414537
1671.642,1412.0961083928296
1673.3761,1090.3878463722622
1675.1094,864.9940547091783
1676.8419,668.3145490291254
1678.5737,551.5991363077123
1680.3048,463.447616837404
1682.0351,385.2597853946754
1683.7646,323.53543212152726
1685.4934,279.9243433073643
1687.2215,247.77630200623662
1688.9488,210.79108847295402
1690.6754,193.16848048456268
1692.4012,191.90825371019992
1694.1263,176.7101818873175
1695.8506,151.7740368342861
1697.5742,152.39958860237448
1699.297,123.6366057251139
1701.0191,106.83485521204148
1702.7404,99.84410283632815
1704.461,83.81411330279889
1706.1808,62.94465031783966
1707.8999,72.38547674969823
1709.6182,65.9863548371768
1711.3358,66.29704609522469
1713.0527,52.36731137892912
1714.7688,27.84691088040836
1716.4841,46.18560426810791
1718.1987,46.783150932004446
1719.9126,36.83930980022069
1721.6257,37.6038393330482
1723.338,21.626497622388342
1725.0496,21.307042384104534
1726.7605,23.295231117795538
1728.4706,18.24082110999234
1730.18,18.093569414273134
1731.8886,-0.4467670981880474
1733.5964,16.01956826284595
1735.3036,20.192336650814468
1737.0099,12.62129905896245
1738.7156,8.456216278613283
1740.4204,-1.7031510251226791
1742.1246,5.842957728304555
1743.8279,3.794320133921701
1745.5306,-0.6992862716715535
1747.2325,-8.338083989819097
1748.9336,-11.87228853599754
1750.634,-18.402032128225073
1752.3336,-2.0773283803596314
1754.0325,3.451992930040433
1755.7307,-2.913877222073552
1757.4281,1.5752521037288716
1759.1247,6.919600957512557
1760.8206,10.419389373588274
1762.5158,1.8748373170742525
1764.2102,-1.0138353511051719
1765.9039,10.65359121122674
1767.5968,4.727346974460033
1769.289,6.907661802451003
1770.9804,15.994765511783498
1772.6711,13.03888784996434
1774.361,13.14025840455588
1776.0502,12.199106632731855
1777.7386,10.765661860265027
1779.4263,0.5901532909392699
1781.1132,28.822810020882116
1782.7994,21.313861140319204
1784.4849,19.313535451251028
1786.1696,28.672061542541087
1787.8535,21.889667809917682
1789.5367,30.566582362390363
1791.2192,40.70303309007295
1792.9009,12.049247577415372
1794.5818,49.65545300183794
1796.2621,48.27187642027138
1797.9415,30.04874439309151
1799.6202,41.486282997956096
1801.2982,38.084718012036774
1802.9755,40.04427479764536
1804.6519,39.96517833624512
1806.3277,40.74765320885763
1808.0027,42.54192359685567
1809.6769,47.69821327413729
1811.3504,56.616745589183665
1813.0231,54.147743413494936
1814.6951,56.44142905240324
1816.3664,56.69802426976548
1818.0369,56.71775026502564
1819.7067,60.850827670648414
1821.3757,62.44747655192168
1823.044,66.90791636562608
1824.7115,67.7823659440678
1826.3783,58.671043450474826
1828.0443,59.97416637025117
1829.7096,76.74195160209274
1831.3741,72.17461544495154
1833.0379,75.17237343036368
1834.701,66.88544036811982
1836.3633,68.61403031628697
1838.0248,64.05835666407984
1839.6856,78.71863211457276
1841.3457,87.89506873025812
1843.005,84.28787778644255
1844.6636,99.69726967948282
1846.3214,101.17345396285646
1847.9785,111.66663919307257
1849.6349,101.37703291490425
1851.2904,98.55484155646172
1852.9453,99.2502705320835
1854.5994,105.01352427056099
1856.2528,99.34480620818431
1857.9054,111.89431873110925
1859.5572,102.66226323204319
1861.2083,94.1988399847528
1862.8587,117.90424823638114
1864.5084,121.72868629208551
1866.1572,117.32235127798049
1867.8054,101.58543910289654
1869.4528,111.31814450243883
1871.0994,115.02066119636038
1872.7453,104.19318179123184
1874.3905,105.38589774341881
1876.0349,112.14899946735522
1877.6786,110.28267632361849
1879.3215,120.13711655129646
1880.9637,108.16250728665091
1882.6051,120.8590344645745
1884.2458,119.5268829383358
1885.8858,121.1662363526134
1887.525,124.57727715681835
1889.1634,116.71018658870071
1890.8011,124.11514464023867
1892.4381,112.49233013630942
1894.0743,118.24192066064006
1895.7098,104.06409267203685
1897.3446,121.45902144688694
1898.9786,119.3268812209385
1900.6118,121.06784501535094
1902.2443,110.53208465801526
1903.8761,119.76977076614389
1905.5071,112.83107285163032
1907.1374,110.26615922866972
1908.7669,125.92519708314853
1910.3957,119.45835249829338
1912.0237,109.51579029807863
1913.651,116.99767411189737
1915.2776,116.4041664739857
1916.9034,112.33542874860473
1918.5285,122.84162113597517
1920.1528,117.7229027129647
1921.7764,118.07943132802552
1923.3992,127.01136365238199
1925.0213,108.21885517646388
1926.6427,114.80206012058966
1928.2633,84.36113162288893
1929.8832,137.19622167347416
1931.5023,105.60748141884642
1933.1207,102.19506063354675
1934.7383,99.95910803604193
1936.3552,115.84977132284939
1937.9714,102.96719719089651
1939.5868,103.41153117861609
1941.2015,99.7329177947679
1942.8154,93.43150051399812
1944.4286,93.15742181362407
1946.041,87.51082323664855
1947.6528,91.79184539450057
1949.2637,88.05062802350176
1950.8739,79.93730994205839
1952.4834,82.50202908806932
1954.0921,82.19492260006223
1955.7001,84.76612679154596
1957.3074,79.36577715408066
1958.9139,82.59400833156565
1960.5197,86.2009541742434
1962.1247,63.63674770641683
1963.729,70.6515210903815
1965.3325,61.195405852065505
1966.9353,66.76853281088461
1968.5374,66.12103217430035
1970.1387,66.10303348209072
1971.7393,70.11466561282373
1973.3392,73.30605678403776
1974.9383,72.67733451212575
1976.5366,63.328625580420976
1978.1342,66.91005604548536
1979.7311,67.42175133059459
1981.3273,64.61383618992477
1982.9227,65.73643470343563
1984.5173,51.28967030494891
1986.1112,63.523665770924026
1987.7044,59.338543364923225
1989.2968,61.534424715274326
1990.8885,49.211430856918696
1992.4795,68.76968220945605
1994.0697,53.759298700372256
1995.6592,57.38039956945727
1997.2479,67.88310351890914
1998.8359,61.01752867712344
2000.4232,61.98379249366576
2002.0097,65.58201180792776
2003.5955,59.862302839463155
2005.1805,60.27478115200779
2006.7648,70.46956171067472
2008.3484,57.746758877830416
2009.9312,75.90648631114459
2011.5133,65.39885709082137
2013.0946,67.27398353799936
2014.6752,58.43197731983037
2016.2551,64.0229494307273
2017.8342,49.797010280783525
2019.4126,68.10426963986333
2020.9902,58.594836779861
2022.5672,54.71882029162907
2024.1433,73.02632818007328
2025.7188,61.96746790291104
2027.2935,64.99234618759738
2028.8674,65.4010691419137
2030.4406,60.493742223719664
2032.0131,60.57047023686437
2033.5849,54.881357380260624
2035.1559,54.57650724711698
2036.7261,54.4060228818289
2038.2957,58.07000678302802
2039.8645,47.618560905287495
2041.4325,54.60178662248018
2042.9998,58.2697848322955
2044.5664,47.72265588640539
2046.1323,69.51049955378517
2047.6974,58.3334151261829
2049.2617,47.741501200242055
2050.8254,49.08485578927298
2052.3883,63.61357642917142
2053.9504,65.8277601649852
2055.5118,54.72750340562743
2057.0725,54.562901901734676
2058.6325,51.98405085666923
2060.1917,49.641044928165
2061.7502,51.13397825411607
2063.3079,47.51294447600503
2064.8649,49.87803672397581
2066.4212,53.02934765304326
2067.9767,62.5669694194421
2069.5315,44.540993649114625
2071.0856,47.001511342334425
2072.6389,45.89861305396539
2074.1915,40.082388868856924
2075.7433,39.55292841287337
2077.2945,43.060320911055214
2078.8448,31.654655192915243
2080.3945,34.436019657363886
2081.9434,35.05450238676394
2083.4916,36.76019111911887
2085.039,30.653173241887544
2086.5857,28.53353577492817
2088.1317,32.501365431567365
2089.677,33.60674863979739
2091.2215,34.249771502597696
2092.7652,31.230519786881587
2094.3083,40.94907891706407
2095.8506,41.955534005256595
2097.3921,45.49996975408044
2098.933,39.73247044660229
2100.4731,37.9531199108892
2102.0124,35.112001577684396
2103.5511,45.109198498199476
2105.089,41.294793372527465
2106.6261,46.2188684496698
2108.1626,51.681505565679345
2109.6983,39.382786094422045
2111.2332,45.42279089294857
2112.7675,47.3016004244821
2114.301,37.51929469801962
2115.8337,45.52595324954132
2117.3657,43.871655239835945
2118.897,50.406479374433275
2120.4276,39.88050392014816
2121.9575,42.44380663972947
2123.4866,53.646464897122314
2125.0149,43.23855563183338
2126.5426,43.52015524690523
2128.0695,49.441339712996296
2129.5956,51.052184565564176
2131.1211,44.80276484565343
2132.6458,43.393155083786496
2134.1698,46.77342936246032
2135.693,41.14366133024055
2137.2155,37.553924167960304
2138.7373,44.90429064501518
2140.2584,41.294833155262495
2141.7787,37.9756236435162
2143.2983,46.69673364164328
2144.8171,39.658234301754646
2146.3353,39.96019630899491
2147.8527,42.25268995192732
2149.3693,49.485785119513366
2150.8853,47.35955127818784
2152.4005,37.92405739952915
2153.9149,32.979371981520444
2155.4287,35.47556314290523
2156.9417,32.96269867263413
2158.454,30.490846004902778
2159.9655,39.710072244279445
2161.4764,49.220444190424814
2162.9865,38.32202824589922
2164.4958,39.96489032105933
2166.0045,40.29909594304195
2167.5124,47.67471023933558
2169.0195,44.29179793443882
2170.526,44.50042327610208
2172.0317,51.55065006915902
2173.5367,49.34254167343943
2175.0409,48.6261609332671
2176.5445,59.35157019954113
2178.0473,45.61883133690003
2179.5494,46.42800561646732
2181.0507,41.129153853179105
2182.5513,43.972336397690924
2184.0512,50.60761318936761
2185.5504,40.335043727851144
2187.0488,36.25468700670763
2188.5465,53.06660161615332
2190.0435,34.07084578385911
2191.5397,36.81747720682961
2193.0353,38.95655324136055
2194.5301,31.988130875574825
2196.0241,41.2122667080298
2197.5175,33.179017017402884
2199.0101,39.88843767024832
2200.502,47.39058420133142
2201.9931,36.98551174653335
2203.4835,28.72327496783032
2204.9733,25.003928157343807
2206.4622,36.427525319963024
2207.9505,29.444120210538586
2209.438,30.053766219646832
2210.9248,29.206516443423652
2212.4109,33.50242367746728
2213.8962,18.041540425312178
2215.3809,26.6739188554684
2216.8648,17.599610956031484
2218.3479,16.768668448357857
2219.8304,24.381142877809225
2221.3121,20.837085622061295
2222.7931,19.736547814978394
2224.2733,27.0295803820552
2225.7529,22.966234051421225
2227.2317,18.89655928091088
2228.7098,23.720606298696794
2230.1872,24.33842514398657
2231.6638,19.500065618782855
2233.1397,19.55557728170379
2234.6149,17.305009496368257
2236.0894,22.248411430840406
2237.5632,25.835832080134423
2239.0362,20.41732021678081
2240.5085,19.24292435495181
2241.9801,13.31269280464835
2243.4509,16.626673683442277
2244.921,0.8849149757782016
2246.3904,5.487464499835369
2247.8591,4.334370064943869
2249.3271,11.975679425559974
2250.7943,9.061440292796533
2252.2608,0.5417002580095414
2253.7266,1.7165068219414934
2255.1917,11.585907479918887
2256.656,12.04994971010342
2258.1197,2.8586808747988925
2259.5826,14.762148215810384
2261.0447,7.8103989463565995
2262.5062,1.1034801320339511
2263.9669,10.041438760336291
2265.4269,9.924321807722094
2266.8862,6.302176150235937
2268.3448,16.37504856467956
2269.8026,6.29298576483302
2271.2598,11.806034300726765
2272.7162,5.41424065946137
2274.1719,4.817651210077315
2275.6268,10.366312267473404
2277.0811,11.260270098371734
2278.5346,16.09957086583222
2279.9874,15.18426062031267
2281.4395,17.564385251275894
2282.8908,8.33999049634258
2284.3414,8.761121917490527
2285.7914,7.927824993297804
2287.2406,14.490145114731945
2288.689,13.248127593482536
2290.1368,19.101817596337582
2291.5838,10.251260157604065
2293.0302,12.84650012057125
2294.4758,8.737582226016343
2295.9206,22.024551086251563
2297.3648,6.507451226213902
2298.8082,24.636326950595958
2300.251,16.41122249901582
2301.693,4.832181864728113
2303.1343,22.499248876876322
2304.5748,16.162467316282232
2306.0147,16.771880738776076
2307.4538,19.22753253856365
2308.8922,11.579465942132742
2310.3299,13.077723983696046
2311.7669,17.822349581672256
2313.2031,15.563385523703118
2314.6387,12.400874419206843
2316.0735,12.384858721968612
2317.5076,8.365380761765664
2318.941,10.992482744527138
2320.3737,6.616206792528942
2321.8056,6.9865949181225915
2323.2369,11.803689067497658
2324.6674,4.46753111697808
2326.0972,16.67816282485137
2327.5263,15.985625904730227
2328.9547,15.239961903445874
2330.3823,16.891212207973922
2331.8092,17.439418052890687
2333.2355,10.534620503861447
2334.661,2.026860452157166
2336.0858,16.11617868370388
2337.5098,14.252595736090825
2338.9332,4.036131985745897
2340.3558,20.016807666571367
2341.7778,16.89460269151084
2343.199,13.319496773339552
2344.6195,24.591469455887363
2346.0393,18.460500149789937
2347.4583,28.72656801976825
2348.8767,18.339652045938806
2350.2943,23.249730921153287
2351.7113,26.206783154867367
2353.1275,34.66078702404002
2354.543,33.61172054356291
2355.9578,33.209561381720164
2357.3718,30.85428687067929
2358.7852,18.3458740105134
2360.1978,27.484299492753166
2361.6098,34.61953982547095
2363.021,28.801571241896227
2364.4315,26.030369629064467
2365.8413,25.055910585996003
2367.2504,20.02816945140887
2368.6587,24.497121313462344
2370.0664,24.762741060034955
2371.4733,27.97500333403491
2372.8795,21.583882530743153
2374.285,31.289352765691547
2375.6899,20.091387938572666
2377.0939,21.539961636186604
2378.4973,18.53504724441973
2379.9,25.97661793375937
2381.3019,21.214646689342544
2382.7032,22.549106236540524
2384.1037,17.729969088578514
2385.5035,24.50720753319149
2386.9027,23.580793680814963
2388.3011,18.450699396812865
2389.6987,20.16689631074121
2391.0957,22.879355867649224
2392.492,22.78804931091713
2393.8876,18.89294765513273
2395.2824,23.344021687003078
2396.6765,20.79124200430681
2398.07,13.184578971382734
2399.4627,27.62400274465699
2400.8547,25.55948334871084
2402.246,18.740990531885245
2403.6366,18.418493786926433
2405.0265,18.64196241917125
2406.4156,18.911365549771972
2407.8041,18.576672113461427
2409.1918,26.6378508558588
2410.5789,18.044870336817098
2411.9652,27.04769884981124
2413.3508,24.646304507867853
2414.7358,22.290655153536704
2416.12,24.380718382905002
2417.5035,19.01646156915365
2418.8863,29.84785184165719
2420.2684,25.224856139626013
2421.6497,35.39744110379263
2423.0304,20.46557312264099
2424.4104,21.529218230681295
2425.7896,28.488342257768636
2427.1682,32.39291081846579
2428.546,22.192889242452452
2429.9232,31.188242535479503
2431.2996,23.728935481369263
2432.6753,25.21493255206144
2434.0503,26.99619798220715
2435.4246,26.222695754308347
2436.7982,36.89438958090511
2438.1711,31.41124291231108
2439.5433,27.323218829896405
2440.9148,25.58028010091914
2442.2856,27.382389219405354
2443.6557,26.779508423578704
2445.025,23.621599677839413
2446.3937,26.20862467879283
2447.7617,25.890544886828593
2449.1289,30.76732150025066
2450.4955,35.78891545845795
2451.8613,35.90528739317642
2453.2265,33.16639757824362
2454.5909,27.972205928444737
2455.9546,32.922672026900955
2457.3177,33.06775517701158
2458.68,31.957414352949854
2460.0416,42.79160819821118
2461.4025,36.52029503671747
2462.7627,36.193432764475006
2464.1222,42.110978912286896
2465.4811,44.822890649022725
2466.8392,43.92912472244211
2468.1966,53.97963743207674
2469.5533,46.574384638166975
2470.9093,41.313321661157374
2472.2645,53.79640335574834
2473.6191,50.6235841635073
2474.973,47.1448179880382
2476.3262,46.16005822670934
2477.6787,43.81925780544111
2479.0305,44.32236918855358
2480.3816,53.11934440217476
2481.7319,54.660135029208845
2483.0816,44.14469212136737
2484.4306,51.97296618376049
2485.7789,45.24490728005162
2487.1264,54.01046495417506
2488.4733,42.36958829761602
2489.8195,53.322225861755555
2491.165,49.36832577427924
2492.5097,48.15783562965032
2493.8538,40.24070252864942
2495.1972,37.56687309047845
2496.5398,51.28629353193264
2497.8818,52.748909694139115
2499.2231,55.25466690536166
2500.5637,48.05350996637583
2501.9035,49.19538312540999
2503.2427,46.88023015015813
2504.5812,55.50799431636074
2505.919,48.27861843095593
2507.256,55.342044745802355
2508.5924,48.148215029972334
2509.9281,46.84707049911822
2511.2631,53.48855188741015
2512.5974,50.972599460547826
2513.9309,51.899152949345876
2515.2638,46.918151574893386
2516.596,59.47953403928818
2517.9275,46.933238575447035
2519.2583,48.9792028214913
2520.5884,53.917363946210344
2521.9178,59.64765862860111
2523.2465,59.67002300848776
2524.5745,57.88439262921759
2525.9018,49.94070243743761
2527.2284,61.88888680095158
2528.5543,58.87887958815611
2529.8796,64.66061404855964
2531.2041,59.9840228428817
2532.5279,56.499037985236214
2533.851,60.10559088989726
2535.1735,62.1036124061485
2536.4952,63.74303278221885
2537.8163,63.27378164530057
2539.1366,69.79578798515672
2540.4562,60.458980158812324
2541.7752,73.01328582533483
2543.0935,69.20863203920237
2544.411,65.64494512476006
2545.7279,65.87215071426749
2547.0441,69.89017378353458
2548.3596,63.69893864965047
2549.6744,65.8483689308024
2550.9885,75.88838760818874
2552.3019,66.36891700452412
2553.6146,68.83987868363954
2554.9266,68.25119354567721
2556.2379,65.15278180238084
2557.5485,68.8445629829825
2558.8585,71.72645596518686
2560.1677,74.94837893825297
2561.4762,63.860249374176306
2562.7841,68.16198399546806
2564.0913,73.05349888603769
2565.3977,76.18470944817454
2566.7035,71.60553035363318
2568.0086,76.76587551232109
2569.313,78.86565811809061
2570.6167,75.95479059713546
2571.9197,80.38318458699285
2573.222,72.55075096565224
2574.5236,78.55739980727162
2575.8246,75.9030404605017
2577.1248,76.98758148841961
2578.4244,77.66093069507167
2579.7232,79.87299511462908
2581.0214,85.32368100465385
2582.3189,92.26289382397806
2583.6157,84.09053817819705
2584.9118,90.75651775027757
2586.2072,89.66073538228096
2587.5019,98.65309300870376
2588.7959,92.53349166743499
2590.0893,106.55183140983314
2591.3819,101.80801136192213
2592.6739,109.1019295842076
2593.9652,113.03348311911549
2595.2557,114.65256791805263
2596.5456,112.05907880209134
2597.8348,111.30290944577814
2599.1234,111.18395240306938
2600.4112,121.75209911489213
2601.6983,118.8572399103345
2602.9848,119.94926390096367
2604.2705,118.62805900977452
2605.5556,126.59351196026995
2606.84,120.44550828967232
2608.1237,119.28393226926914
2609.4067,118.15866696589308
2610.689,118.11959425353746
2611.9707,119.86659482460925
2613.2516,122.84954819031987
2614.5319,122.81833266321479
2615.8115,107.02282532734387
2617.0903,124.6129020385743
2618.3685,111.68843758254508
2619.6461,119.79930549876633
2620.9229,121.49537820986404
2622.199,116.97652694047133
2623.4745,115.14262170026768
2624.7493,114.59353132916766
2626.0234,124.17912351565968
2627.2968,121.69926480229736
2628.5695,120.85382048984292
2629.8415,123.54265466206641
2631.1128,120.81563019419968
2632.3835,126.2226087260484
2633.6535,120.66345068926199
2634.9228,126.18801525326415
2636.1914,127.14616038084415
2637.4593,128.78774277291086
2638.7265,121.41261785891197
2639.9931,130.3206397804177
2641.259,127.01166146487236
2642.5242,126.8355345365141
2643.7887,125.34210934946469
2645.0525,126.68123498949069
2646.3156,127.5527592889378
2647.5781,120.20652881333956
2648.8398,124.79238885270212
2650.1009,114.9101834949663
2651.3613,122.60975558014923
2652.6211,120.49094679916595
2653.8801,115.25359761683478
2655.1385,122.04754729306433
2656.3961,124.87263393522738
2657.6531,119.42869443022153
2658.9094,124.11556441621832
2660.1651,121.58307833710228
2661.42,131.93106939560244
2662.6743,125.40936957861749
2663.9279,135.21780955373526
2665.1808,129.00621873445016
2666.433,136.77442518207897
2667.6846,129.92225566787613
2668.9354,136.3495355953521
2670.1856,145.1560890687952
2671.4351,143.89173882899854
2672.6839,143.50630616519453
2673.9321,150.64961092769806
2675.1795,145.72147153176155
2676.4263,151.47170488614114
2677.6724,158.20012644237863
2678.9179,153.10655013729865
2680.1626,149.04078832572515
2681.4067,152.50265183141659
2682.6501,157.14194998772376
2683.8928,156.55849060297083
2685.1348,149.10207991406287
2686.3761,146.8225225923199
2687.6168,142.7196218180415
2688.8568,142.0431793033024
2690.0961,140.59299533298065
2691.3348,144.66886877152302
2692.5727,135.6705970774466
2693.81,134.0479762625793
2695.0466,126.70080098204403
2696.2826,130.27886455048366
2697.5178,124.63195901553343
2698.7524,134.30987512204007
2699.9863,136.61240236853098
2701.2195,130.5893289104352
2702.452,132.99044153705728
2703.6839,143.01552573180896
2704.9151,150.96436564819788
2706.1456,154.3367440095766
2707.3755,146.63244202965438
2708.6046,158.75123937877316
2709.8331,175.09291426095064
2711.0609,177.10724329269226
2712.2881,187.34400133957496
2713.5145,185.5029614961029
2714.7403,206.13389498334055
2715.9654,211.48657116732284
2717.1899,220.01075735274617
2718.4136,232.15621872944166
2719.6367,244.622718287133
2720.8591,260.91001669398196
2722.0809,269.5678721719234
2723.3019,278.44604033379187
2724.5223,286.24427409674365
2725.7421,286.01232359347483
2726.9611,296.3499360942386
2728.1795,275.9068560091653
2729.3972,282.4828247848861
2730.6142,262.72758110896365
2731.8306,248.19086084413277
2733.0462,235.32239722585257
2734.2612,213.02192100767382
2735.4756,202.43916058992374
2736.6892,180.67384224271052
2737.9022,169.9756902117507
2739.1145,156.1944269360228
2740.3262,143.7797731547488
2741.5372,128.13144804520613
2742.7475,119.24916934687519
2743.9571,111.48265351792207
2745.1661,90.63161582402142
2746.3744,79.44577041602167
2747.582,79.0748305384551
2748.7889,65.26850864139641
2749.9952,65.87651638417242
2751.2008,63.64856477342522
2752.4057,50.084364157031814
2753.61,43.23362424638367
2754.8136,41.74605425202901
2756.0165,36.87136295217954
2757.2188,36.859258707587
2758.4204,39.30944951028948
2759.6213,30.62164298373301
2760.8215,36.29554635826918
2762.0211,26.180866558033415
2763.22,24.927310144205876
2764.4182,26.084583416158125
2765.6158,16.05239242398858
2766.8127,15.030442956950026
2768.009,10.818440643771453
2769.2045,-1.9839090371223165
2770.3994,2.2730992845092715
2771.5936,-6.410809201842085
2772.7872,-4.685909329415381
2773.9801,-17.602411887465962
2775.1723,-18.610480853015304
2776.3639,-13.01010435499046
2777.5548,-16.351084603614936
2778.745,-19.533093838169577
2779.9346,-7.15564095060023
2781.1235,-11.668039697245263
2782.3117,-11.469532349590338
2783.4992,-18.05924461540502
2784.6861,-5.3861876218309135
2785.8723,-10.199192084156152
2787.0579,-3.197034909654917
2788.2428,5.371608884327486
2789.427,10.25809621882405
2790.6106,13.513783961151432
2791.7935,14.890028876045562
2792.9757,34.03818759310468
2794.1573,42.75961659302692
2795.3382,54.50567201612887
2796.5184,60.027709575130984
2797.698,81.12708443769714
2798.8769,92.3551511712144
2800.0551,105.96326353179938
2801.2327,122.15277435201727
2802.4096,138.52503540480058
2803.5859,153.83139724155455
2804.7615,176.22320902843398
2805.9364,204.8018183932801
2807.1106,224.1185712017027
2808.2842,249.27481127129317
2809.4572,274.07188017845795
2810.6294,306.4611170068555
2811.801,350.99385809942623
2812.972,388.5714367344997
2814.1423,422.34518268046713
2815.3119,464.71642182000573
2816.4808,516.7364758123407
2817.6491,566.856661669534
2818.8167,600.0282912362829
2819.9837,655.7026706887178
2821.15,684.781100202687
2822.3157,752.1648733970117
2823.4807,784.0552770427031
2824.645,841.4535903891232
2825.8086,870.2110848450822
2826.9716,904.6790234048549
2828.134,946.0586603606052
2829.2957,979.5512409577076
2830.4567,1008.90800098095
2831.617,1027.080166419608
2832.7767,1027.8689531738776
2833.9358,1032.1755668731535
2835.0941,1016.3512028681407
2836.2519,1006.8970461877893
2837.4089,983.3642716975372
2838.5653,983.9040441938523
2839.7211,968.76751863956
2840.8761,979.9558401584457
2842.0306,983.07014418662
2843.1843,1022.4115563606356
2844.3374,1073.1811924863437
2845.4899,1133.3801581454804
2846.6417,1200.55954818797
2847.7928,1276.6204461299353
2848.9433,1342.5139234819044
2850.0931,1421.3910389881999
2851.2422,1489.5528379680072
2852.3907,1563.7503515266003
2853.5385,1624.7845958737262
2854.6857,1683.0065715816277
2855.8323,1734.7672629747028
2856.9781,1780.8676375472835
2858.1233,1827.208645446029
2859.2679,1872.991219008924
2860.4118,1915.816272301865
2861.555,1972.534700660838
2862.6976,2001.5473802636666
2863.8395,2028.455167562826
2864.9808,2042.0088989953201
2866.1214,2047.2593907136002
2867.2614,2068.05743845003
2868.4007,2072.7038174643776
2869.5393,2086.99928233584
2870.6773,2106.6945669165734
2871.8146,2119.1903841887433
2872.9513,2120.087426067569
2874.0874,2114.486363276368
2875.2227,2099.637845337582
2876.3574,2109.0425006287896
2877.4915,2067.9509365311924
2878.6249,2040.6137393355657
2879.7577,2017.6814746531777
2880.8898,1987.0046876891583
2882.0212,1972.3339034718229
2883.152,1963.5196271594405
2884.2821,1955.5123441869423
2885.4116,1963.0625203540626
2886.5405,1933.5706019054128
2887.6686,1956.5870154549798
2888.7962,1954.8621682810444
2889.923,1957.4964480960182
2891.0493,1979.340223063691
2892.1748,1974.3438417728885
2893.2997,1997.1576330190346
2894.424,2006.8319058541151
2895.5476,2033.866949358539
2896.6706,2054.8130325443967
2897.7929,2070.920404085111
2898.9145,2105.089292105974
2900.0355,2131.369904023074
2901.1559,2166.1624262016076
2902.2756,2207.967023693072
2903.3946,2242.2338398873403
2904.513,2263.862996094617
2905.6308,2287.9545912027666
2906.7479,2314.2587014610262
2907.8643,2326.025380239086
2908.9801,2360.454657764051
2910.0953,2377.1465410027695
2911.2098,2370.0510133175476
2912.3236,2351.018034299223
2913.4368,2361.347539838126
2914.5494,2336.939442314405
2915.6613,2312.5936304947345
2916.7725,2285.109969776393
2917.8831,2254.938302430726
2918.9931,2222.1284478779767
2920.1024,2188.130202989008
2921.211,2176.8933424133975
2922.319,2157.2676189194212
2923.4264,2140.7027635064223
2924.5331,2122.7484856010683
2925.6391,2109.3044732229987
2926.7445,2116.6703931643688
2927.8493,2105.1958911242887
2928.9534,2098.1305916351666
2930.0569,2089.974098177451
2931.1597,2103.0759932502847
2932.2619,2101.58583845307
2933.3634,2101.903174354449
2934.4643,2083.8775205072066
2935.5645,2070.5083754450957
2936.6641,2027.8452168630947
2937.763,1984.087501751098
2938.8613,1933.3346668205495
2939.959,1882.4361289420167
2941.056,1813.9912856527217
2942.1523,1743.5495156655259
2943.248,1656.3101795533785
2944.3431,1557.772620453732
2945.4375,1446.3361649409399
2946.5313,1358.100124011628
2947.6244,1246.2137941990607
2948.7169,1157.0764584555013
2949.8087,1075.0873872710763
2950.8999,968.8958395651467
2951.9904,903.1010635062011
2953.0803,824.0022975737695
2954.1696,767.9487712163719
2955.2582,716.5397056425056
2956.3462,676.2243143811796
2957.4335,637.5518037960065
2958.5202,600.1213734883562
2959.6062,589.4322166840802
2960.6916,557.5835206078168
2961.7764,543.3244665898821
2962.8605,537.2542303847578
2963.9439,516.4219823136804
2965.0267,518.4768873253455
2966.1089,502.71810520422855
2967.1905,509.94479055003615
2968.2714,510.60609293529444
2969.3516,515.0011568330822
2970.4312,520.8791216104173
2971.5102,522.8391214843064
2972.5885,521.7802854629648
2973.6662,523.2017373262178
2974.7432,537.4025956360867
2975.8196,535.8319737225767
2976.8954,515.6889795416668
2977.9705,506.12271569101654
2979.045,506.1822796113961
2980.1188,494.6167636823492
2981.192,477.32525522159676
2982.2645,463.60683660069253
2983.3364,440.81058541793846
2984.4077,412.98557463556824
2985.4783,398.58087280770985
2986.5483,362.5955443586363
2987.6177,332.7286497268118
2988.6864,289.22924572474585
2989.7545,265.79638583766155
2990.8219,241.5291206584899
2991.8887,211.67649812219804
2992.9548,180.8375637484628
2994.0204,158.16136094019566
2995.0852,137.94693129193286
2996.1495,113.59331481659746
2997.2131,91.74955014764299
2998.276,75.11467478259004
2999.3383,63.68772530146384
3000.4,43.267737533142906
3001.4611,26.903746669629413
3002.5215,15.394787470248161
3003.5812,10.839894425286616
3004.6404,8.588101871084575
3005.6989,-0.2615559644169707
3006.7567,-1.96004493915774
3007.8139,-8.458328298133665
3008.8705,-9.107349705491856
3009.9264,-6.557968326679941
3010.9818,-15.410952344722205
3012.0364,-5.917004428539599
3013.0905,-5.676673291639247
3014.1439,-9.84044853665398
3015.1966,-5.058763056250825
3016.2487,-9.781951437016005
3017.3002,3.589702271506667
3018.3511,3.6560117414682054
3019.4013,8.76679060912278
3020.4509,10.371852474164484
3021.4998,8.671010848619858
3022.5481,13.664079140796957
3023.5958,25.100870672294093
3024.6428,32.98119862806902
3025.6892,33.80487594207068
3026.735,37.37171521843652
3027.7802,45.78152872325512
3028.8247,48.734128348898025
3029.8685,52.579325529921505
3030.9118,62.56693121354107
3031.9544,74.64675582117917
3032.9963,82.468609148589
3034.0376,88.53230024505632
3035.0783,89.58763733518094
3036.1184,102.03442775823999
3037.1578,107.17247795763421
3038.1966,115.15159335642028
3039.2348,127.17157830593055
3040.2723,126.03223600598113
3041.3092,129.18336838467258
3042.3455,128.52477610978337
3043.3811,126.35625855725851
3044.4161,129.8776138177954
3045.4505,124.8886387185288
3046.4842,132.2391287878175
3047.5173,123.07887830513408
3048.5498,128.20768022755993
3049.5816,119.77532628138789
3050.6128,106.031606910834
3051.6434,115.72631136236123
3052.6734,109.2592278221166
3053.7027,109.28014331898407
3054.7314,110.13884378925553
3055.7594,110.13511407642164
3056.7868,104.06873792258443
3057.8136,102.13949796849505
3058.8398,100.8971758142174
3059.8653,97.79155203842032
3060.8902,97.1224062108011
3061.9145,101.78951692314172
3062.9381,97.09266179600002
3063.9612,95.68161743203899
3064.9835,88.25615946299521
3066.0053,87.36606256378923
3067.0264,84.71110052678
3068.0469,87.1410462706661
3069.0668,83.9556718670353
3070.086,74.05474851606505
3071.1046,66.28804657837608
3072.1226,61.15533567404185
3073.1399,58.70638476025542
3074.1567,56.19096218265642
3075.1727,48.158835699821026
3076.1882,42.209772508415796
3077.203,37.44353932351885
3078.2173,30.50990243811094
3079.2308,27.85862777073737
3080.2438,29.089480934844516
3081.2561,18.202227265292578
3082.2678,18.396631806047196
3083.2789,10.922459419051762
3084.2893,10.429474782283506
3085.2991,5.667442464495082
3086.3083,6.486126930144337
3087.3169,1.5852925870148624
3088.3248,-0.6352962219710605
3089.3321,-3.225875169743972
3090.3388,2.4633264173747023
3091.3449,-7.917888560443714
3092.3503,-1.2197172276609933
3093.3551,-2.2422776090323
3094.3593,-1.9356755443378404
3095.3629,-2.9499944730045797
3096.3658,-5.0852984970608475
3097.3681,-2.091622248090374
3098.3698,-3.668949555544941
3099.3708,-3.1172433535702453
3100.3713,-2.2364299235059377
3101.3711,-0.07640440543067939
3102.3702,-4.487039597488177
3103.3688,5.331792465457795
3104.3667,1.1802645740691275
3105.364,8.608549465689748
3106.3607,3.46681986586114
3107.3568,1.1052484140393517
3108.3522,8.774007715012218
3109.347,6.073270362515174
3110.3412,6.803208862543656
3111.3348,5.91399566036047
3112.3277,10.905803133196358
3113.32,9.72880359914221
3114.3117,7.283169267230903
3115.3028,10.51907224920734
3116.2932,14.936684583984743
3117.2831,15.886178205285717
3118.2723,19.667724897466
3119.2608,17.381496286019598
3120.2488,21.927663799763295
3121.2361,18.25639869369904
3122.2229,20.667872003552134
3123.209,26.26225458248392
3124.1944,27.28971707697704
3125.1793,23.45042987089181
3126.1635,25.594563075191473
3127.1471,25.67228656633509
3128.1301,27.93376996483633
3129.1125,28.129182634485943
3130.0942,33.108693659737014
3131.0753,33.32247184375086
3132.0558,33.12068565860187
3133.0357,37.003503243139804
3134.015,34.57109240500753
3134.9936,38.27362058181295
3135.9716,36.41125486545311
3136.949,41.43416196508887
3137.9258,42.092508225768555
3138.902,42.336459578198955
3139.8775,44.216181532161784
3140.8524,37.831839174074155
3141.8267,46.033597148191454
3142.8004,43.92161972045068
3143.7735,47.196070696452864
3144.7459,51.60711344258286
3145.7178,48.15491085326484
3146.689,49.53962530685189
3147.6596,53.86141870014795
3148.6295,53.22045243456075
3149.5989,54.36688737288382
3150.5676,52.0508838457062
3151.5357,52.87260163994807
3152.5032,57.5822000220208
3153.4701,59.72983772960974
3154.4364,60.91567292457826
3155.402,60.83986317149137
3156.367,59.802565425757344
3157.3315,60.80393603438581
3158.2952,64.54413074636079
3159.2584,63.57330470262694
3160.221,64.49161239868761
3161.1829,64.8992076943131
3162.1442,66.24624380435766
3163.105,67.53287329468336
3164.065,66.20924806868993
3165.0245,71.77551935444832
3165.9834,72.43183771793703
3166.9416,72.97835300737935
3167.8993,72.8652143466802
3168.8563,76.54257012996099
3169.8127,74.71056802269096
3170.7684,76.86935492491365
3171.7236,76.56907698956697
3172.6782,77.20987960089516
3173.6321,79.34190737745182
3174.5854,77.36530416569168
3175.5381,77.3302130186504
3176.4902,82.88677621571061
3177.4417,84.0351352629528
3178.3926,83.7754308375897
3179.3428,84.70780277648261
3180.2924,86.83239007873863
3181.2415,90.79933089638669
3182.1899,92.05876251313192
3183.1377,91.91082130468607
3184.0848,90.65564272617324
3185.0314,93.09336131360934
3185.9773,92.6741106964538
3186.9227,94.44802357323246
3187.8674,97.31523171573005
3188.8115,98.02586595125099
3189.755,101.4300561339474
3190.6979,101.07793113771271
3191.6402,100.11961882213978
3192.5818,100.65524603604212
3193.5229,99.58493862703702
3194.4633,106.5588214361893
3195.4031,103.87701830871445
3196.3423,107.28965202423962
3197.2809,108.14684432362185
3198.2189,106.59871587482156
3199.1563,112.04538626433082
3200.0931,107.23697401265443
3201.0292,112.72359651984331
3201.9648,112.2053701135786
3202.8997,114.3324099943055
3203.834,112.65483024041544
3204.7677,116.37274378697582
3205.7008,116.78626244250563
3206.6333,116.64549685179642
3207.5652,120.05055649177709
3208.4964,121.10154967292152
3209.4271,121.64858350519799
3210.3571,121.29176388755928
3211.2865,123.53119550247226
3212.2154,124.51698181948618
3213.1436,124.84922507283827
3214.0712,121.72802625159594
3214.9982,123.9034850963343
3215.9246,122.32570013034815
3216.8503,129.6447686378974
3217.7755,129.46078667998495
3218.7001,132.37384902116594
3219.624,128.73404913138765
3220.5473,134.69147915685886
3221.4701,132.94622995644778
3222.3922,135.39839104210782
3223.3137,135.79805059633003
3224.2346,136.9952954476216
3225.1549,136.59021106650914
3226.0746,137.93288155356623
3226.9937,140.6733896434643
3227.9121,141.86181669154604
3228.83,143.59824264642015
3229.7473,143.93274603807708
3230.6639,145.66540396052483
3231.5799,145.09629206844386
3232.4954,143.7254845598606
3233.4102,148.05305418183843
3234.3244,147.92907224418587
3235.238,148.35360857618082
3236.151,150.37673152781036
3237.0634,151.79850796552552
3237.9752,150.01900325200978
3238.8864,154.83828123196167
3239.797,153.50640424988947
3240.7069,156.2734331019187
3241.6163,157.7394270491107
3242.5251,157.45444378979244
3243.4332,157.0685394448967
3244.3408,155.68176856081152
3245.2477,158.54418411323968
3246.154,161.0558375210662
3247.0598,163.11677861773413
3247.9649,164.97705562612813
3248.8694,163.48671513796498
3249.7733,164.0458020951908
3250.6766,164.10435980488452
3251.5793,167.612429933667
3252.4814,166.27005250711537
3253.3829,168.27726587468248
3254.2838,163.5841067231206
3255.1841,171.09061005640928
3256.0838,168.9468092426869
3256.9829,168.50273593918564
3257.8814,172.50842011366953
3258.7792,173.41389004887526
3259.6765,172.81917230245523
3260.5731,173.22429169792298
3261.4692,176.37927133060012
3262.3647,172.7841325635654
3263.2595,174.33889499610473
3264.1538,178.29357649966263
3265.0474,176.29819320229467
3265.9404,176.55275944912052
3266.8329,180.35728782227784
3267.7247,180.7617891383767
3268.616,179.06627241045433
3269.5066,180.17074484392984
3270.3966,180.22521185355959
3271.286,181.07967705239253
