RamanShift,CorrectedData
30.1047,1215.93890477561
32.3739,1127.4942457494878
34.6426,1038.199574563977
36.9109,951.1048677847454
39.1787,863.2100915954652
41.4461,780.36520266876
43.7131,689.5701490451519
45.9796,604.3248709615103
48.2456,519.1293017590033
50.5112,431.48336873554985
52.7764,347.23699399777587
55.0411,258.49009533747346
57.3054,175.79258707406458
59.5692,91.24438094207028
61.8326,8.795386918085683
64.0955,-73.45448593373783
66.3579,-159.0553286372027
68.6199,-233.80649840579696
70.8815,-297.2057634902759
73.1426,-316.2985564144757
75.4032,-232.1273406166555
77.6634,134.6685802875038
79.9231,1120.5522216344536
82.1824,3407.2865974139604
84.4412,7707.584710410269
86.6995,13835.009529334757
88.9574,19983.82394582296
91.2148,24400.59071316031
93.4717,26488.622384794013
95.7282,26959.081270165352
97.9842,26842.779413829405
100.2398,26307.878590750417
102.4949,25657.540307464857
104.7495,24834.6258074304
107.0036,23903.49607752932
109.2573,22966.11185629764
111.5105,22068.733643236414
113.7632,21137.07170818559
116.0154,20296.736100297767
118.2672,19686.33665735484
120.5185,19002.633014171337
122.7693,18475.134608698423
125.0197,18060.850688860934
127.2696,17670.140317832353
129.519,17406.162378177673
131.7679,17135.52557576047
134.0163,16929.73844238271
136.2642,16664.109338491086
138.5117,16422.54645523493
140.7587,16160.107817122467
143.0052,15858.55128443647
145.2512,15573.934555858626
147.4967,15286.465171485124
149.7417,15051.500515672797
151.9863,14826.497819913828
154.2304,14682.564165185406
156.4739,14482.056484199731
158.717,14327.031562843373
160.9596,14054.346042182331
163.2017,13719.656420012296
165.4433,13346.719053585497
167.6844,12877.0401629576
169.925,12441.225834717085
172.1651,11958.332026682023
174.4047,11560.214572258235
176.6439,11149.929185268222
178.8825,10793.58146393234
181.1206,10500.17689497165
183.3582,10238.37085717141
185.5954,9991.768624315104
187.832,9807.775367802507
190.0681,9675.996159115719
192.3037,9563.585971659073
194.5388,9488.799682076955
196.7734,9438.242071377883
199.0075,9408.967825682383
201.2411,9428.681536728564
203.4742,9405.287702164856
205.7068,9465.690725352877
207.9389,9514.244915601379
210.1704,9560.554487562193
212.4015,9595.323560744715
214.632,9705.306159052794
216.862,9840.156210437042
219.0915,9956.92754579502
221.3205,10150.173897622728
223.549,10377.298898846893
225.777,10677.706080892505
228.0044,11083.148871411582
230.2314,11548.330591279071
232.4578,12052.30445053844
234.6837,12425.72354374985
236.909,12647.240844950424
239.1339,12557.909203920055
241.3582,12165.431343966233
243.582,11637.009862817355
245.8053,11101.547236547507
248.0281,10599.245824860693
250.2503,10189.157876445432
252.472,9904.235533997795
254.6932,9665.430838322281
256.9139,9402.695731181033
259.134,9234.632057681887
261.3536,9066.641568905721
263.5727,8962.625923587104
265.7912,8744.636689794193
268.0092,8593.775345968883
270.2267,8427.94328310671
272.4436,8303.191806265451
274.6601,8139.122136223473
276.8759,8041.335410727211
279.0913,7993.9826861318925
281.3061,7962.214938379397
283.5204,8007.283063471774
285.7341,8070.487877788929
287.9473,8223.330117637941
290.16,8440.560438621009
292.3721,8751.029414107048
294.5837,9224.437533059358
296.7947,9574.735196930957
299.0052,9783.522714930486
301.2152,9550.850300519243
303.4246,9085.518069323294
305.6334,8406.476041460219
307.8418,7785.574146192404
310.0495,7244.912228717496
312.2568,6858.89005637739
314.4635,6592.507324064871
316.6696,6430.963658083823
318.8752,6367.358618813058
321.0802,6412.6917023217575
323.2847,6468.91234100552
325.4887,6513.569903133031
327.692,6414.263692283859
329.8949,6229.7929469018745
332.0972,5870.606841288325
334.2989,5536.754487446529
336.5001,5201.234938673737
338.7007,4911.797192899667
340.9008,4708.440196041693
343.1003,4562.112844899226
345.2992,4430.613989187274
347.4976,4333.94243299972
349.6955,4330.146936124316
351.8927,4358.12621500939
354.0895,4274.628942801804
356.2856,4320.753749067169
358.4812,4278.399220624802
360.6763,4223.463901086496
362.8707,4140.546291280052
365.0646,4157.7448497986425
367.258,4075.057993829978
369.4508,4062.2840989843244
371.643,4077.2715001213674
373.8346,3984.3684914779587
376.0257,3938.523326518236
378.2162,3768.834218862672
380.4062,3654.2993427465026
382.5956,3436.616834716624
384.7844,3292.5347947769424
386.9726,3137.6012885652035
389.1603,3045.964348793819
391.3474,2957.2219767991846
393.5339,2933.3721434580584
395.7199,2821.412790074988
397.9052,2802.3418286208
400.09,2776.5071428522024
402.2743,2790.2565885024833
404.4579,2783.2879935398705
406.641,2926.3991580300262
408.8235,3128.187854205742
411.0054,3455.351825035823
413.1868,3940.388782207201
415.3675,4342.496402853294
417.5477,4580.122324703645
419.7273,4627.814142062829
421.9064,4488.619403434199
424.0848,4312.535611042982
426.2627,4053.560222228207
428.4399,3713.4906512035523
430.6166,3296.074271647105
432.7928,2866.4084201020432
434.9683,2512.0404001508177
437.1432,2236.517486711795
439.3176,2038.9369295829383
441.4914,1867.2459561970409
443.6645,1828.0917735975436
445.8371,1720.07157015542
448.0091,1647.9825159607299
450.1806,1563.9717639028258
452.3514,1473.5364503912351
454.5216,1426.6736961957795
456.6913,1387.4306073509197
458.8603,1361.0542756243794
461.0288,1382.741778909587
463.1967,1399.7401814894292
465.3639,1560.196533819384
467.5306,1684.0078723575298
469.6967,1850.6212179599843
471.8622,2033.1835746427914
474.0271,2210.641927915787
476.1914,2289.7932429569682
478.3551,2204.6344628379156
480.5182,2169.9125077322824
482.6807,2110.7242757673794
484.8426,2141.6666433714
487.0039,2374.586465865301
489.1647,2780.5805771533724
491.3248,3248.045787394056
493.4843,3471.878878939984
495.6432,3489.9766016633494
497.8015,3451.1856707175502
499.9592,3465.352766356231
502.1163,3437.9245343211824
504.2728,3234.2475857006793
506.4287,2895.718497203745
508.5839,2447.683813196947
510.7386,2023.5400490896664
512.8927,1777.2336958144479
515.0461,1572.0112240684466
517.199,1419.2690867764795
519.3512,1316.0537211432547
521.5029,1335.9615501807966
523.6539,1290.0889837405903
525.8043,1320.6324183145189
527.9541,1353.6382374935765
530.1033,1388.0028116624435
532.2519,1459.5724976694219
534.3999,1653.9936384827852
536.5472,1988.9625624750952
538.694,2519.7755814789725
540.8401,3270.8289874374223
542.9856,3887.769047095695
545.1305,4125.091994490758
547.2748,3938.2940247818933
549.4185,3502.171291877463
551.5615,3081.0199103028917
553.704,2849.1359595618997
555.8458,2676.8654883480067
557.987,2627.104516863379
560.1276,2478.3490385415334
562.2675,2383.0950205449444
564.4069,2219.1384052525973
566.5456,2103.7251112125286
568.6837,1926.9510347813994
570.8212,1679.112051278622
572.958,1439.2040167540981
575.0942,1293.272770466614
577.2299,1186.664137282918
579.3648,1195.223929137037
581.4992,1288.197946096352
583.6329,1596.8819762760195
585.766,1846.1717949092163
587.8985,2033.0131612603145
590.0304,2027.101816131959
592.1616,1961.6834799966746
594.2922,1888.4538530559694
596.4222,1732.3086158945225
598.5515,1535.4434302124828
600.6802,1372.003940386905
602.8083,1182.9857754404275
604.9358,1104.034550675644
607.0626,1004.5958695652971
609.1888,876.165324541791
611.3144,795.8384979915754
613.4393,602.5609635394503
615.5636,478.4782868518341
617.6873,330.4360275695435
619.8103,272.97974054861334
621.9327,228.05497734072742
624.0544,228.05728676778017
626.1756,234.93221537112368
628.2961,219.3253074115346
630.4159,157.13210480047746
632.5351,148.44814725616743
634.6537,96.06897292549911
636.7716,41.29011847089896
638.8889,48.55711959410655
641.0056,47.06551158397451
643.1216,74.56082924378279
645.237,111.3386069061653
647.3518,123.59437815814636
649.4659,161.97367547336034
651.5793,180.92203008950673
653.6922,184.0349716245455
655.8043,177.40802788722613
657.9159,150.28672484595336
660.0268,41.766586695055594
662.137,38.59313612599908
664.2466,-19.288104587416456
666.3556,-53.03161355731936
668.4639,-48.79167620767839
670.5716,18.177951823354306
672.6786,132.12400232646905
674.785,210.19302549460917
676.8907,346.9315701994874
678.9958,400.38618321088506
681.1002,411.95340782927633
683.204,390.2297833512803
685.3072,339.21184495398484
687.4097,267.24612391219307
689.5115,230.9291481085893
691.6127,115.05744275339202
693.7132,75.12753074754073
695.8131,-2.414066158598871
697.9123,-0.07082696592442517
700.0109,-67.69620655882682
702.1089,-71.64365911413915
704.2061,-100.7159625235854
706.3028,-53.265178958752585
708.3987,14.257635561232746
710.4941,149.05195713638022
712.5887,358.11726172412637
714.6827,706.203023791395
716.7761,1102.3087142239456
718.8688,1569.1337968455045
720.9608,1815.8777244567245
723.0522,1827.2399341669116
725.1429,1589.169844926606
727.233,1222.1168574139538
729.3224,839.5803564154139
731.4112,494.45971449626813
733.4993,254.2042958260081
735.5867,125.46345962953092
737.6735,35.83656258969313
739.7596,-1.1270398652741278
741.845,-0.5779926655013696
743.9298,-20.26692948199343
746.014,3.755521788390979
748.0974,36.78893571541448
750.1802,32.532886831288124
752.2624,61.13694930033853
754.3439,98.05069696156716
756.4247,161.02370304260876
758.5048,285.30553979059187
760.5843,442.8957778424192
762.6631,733.0439849819359
764.7413,1188.54972456404
766.8188,1769.4625526131913
768.8956,2296.132013268363
770.9718,2639.507632973906
773.0473,2572.0389152128537
775.1221,2276.525337073166
777.1962,1881.6163499224185
779.2697,1686.5613823629355
781.3426,1747.1598441808856
783.4147,2072.611128296825
785.4862,2444.314610159716
787.557,2474.6696444924128
789.6271,2148.425561574635
791.6966,1609.0816669394007
793.7654,1041.43724463549
795.8335,748.6915626208665
797.901,562.7938784391208
799.9678,490.69344214693774
802.0339,511.9394981730602
804.0993,574.8312860393053
806.1641,598.018040148092
808.2282,583.7989891535308
810.2916,471.87335572956545
812.3544,361.49035671214006
814.4164,267.94920421848474
816.4778,287.0491067509174
818.5385,260.5892701322773
820.5986,296.9188973149139
822.658,341.78718864528673
824.7166,419.34334150067843
826.7747,547.1365498405012
828.832,683.3160034307421
830.8886,802.2308865660198
832.9446,962.4803767077974
834.9999,1076.113643295238
837.0545,1177.2798461427
839.1085,1275.5281343034094
841.1618,1329.1076450577993
843.2143,1342.267502931023
845.2662,1282.8568191571576
847.3175,1256.9746915476117
849.368,1146.570205085225
851.4179,1036.9924321831013
853.467,887.7404337886392
855.5155,773.0632604793209
857.5633,656.109953955227
859.6105,557.7795481858084
861.6569,493.1710705794194
863.7027,447.78354296662656
865.7478,428.46598224628815
867.7922,441.9674008394304
869.8359,519.2368068824217
871.8789,669.4232040919624
873.9212,867.7255909923815
875.9629,1064.5929594137842
878.0039,1284.8242925090208
880.0441,1415.2685627850233
882.0837,1394.024729900484
884.1226,1281.34173936141
886.1609,1125.3185227335725
888.1984,1007.7039987693197
890.2352,943.0970749678318
892.2714,869.1466487512407
894.3069,843.4516081107213
896.3416,795.7608323459735
898.3757,785.1231923221931
900.4091,807.8875509469617
902.4418,831.2027632766403
904.4739,863.3676762887171
906.5052,858.8311286486514
908.5358,739.0919503882296
910.5658,608.898962950927
912.595,442.10098038930664
914.6236,341.94681066694193
916.6515,306.2352573263961
918.6786,325.4151204907748
920.7051,393.3851972208331
922.7309,532.1442813231743
924.756,640.7411626705516
926.7804,732.4746258142841
928.8041,730.6434488982786
930.8272,774.1964027417034
932.8495,727.2322508572943
934.8711,661.2497490158312
936.892,475.1476457157687
938.9123,333.1246828430694
940.9318,180.02959753221967
942.9506,55.061123586469876
944.9688,-11.732006991232083
946.9862,-52.35106274854388
949.003,-79.59719503037559
951.019,-61.87103219452092
953.0344,-29.972407422797914
955.0491,22.599464194580833
957.063,116.69566699175539
959.0763,227.81728507687512
961.0888,302.3654013911364
963.1007,411.24109659756414
965.1119,453.645448335531
967.1223,496.6795301320035
969.1321,534.3444109774955
971.1412,588.6911548957314
973.1495,634.3208205669962
975.1572,670.8844607846659
977.1641,736.0331219989112
979.1704,725.767843951061
981.1759,738.5396590221162
983.1808,805.099592335403
985.1849,934.0986616288519
987.1884,1128.7378765894027
989.1911,1360.968237563011
991.1932,1510.390733608253
993.1945,1619.7063401740324
995.1951,1593.4660176053394
997.1951,1551.5207100501138
999.1943,1486.6213457216327
1001.1928,1446.0688373179692
1003.1906,1452.7640826709794
1005.1877,1499.7079651518425
1007.1841,1447.4513536040959
1009.1798,1376.8951018742018
1011.1748,1187.0400493341112
1013.1691,992.1870215868321
1015.1627,789.3868323649649
1017.1556,606.2402854792463
1019.1477,505.4981768465477
1021.1392,452.8612963213418
1023.1299,472.93042870312274
1025.12,492.8063542627715
1027.1093,569.9398485418706
1029.0979,648.0816821539429
1031.0859,720.8326200131141
1033.0731,752.8934205526957
1035.0596,695.5648349976764
1037.0454,549.5476070441191
1039.0304,430.5424734324388
1041.0148,358.2001654075766
1042.9985,267.1714099090568
1044.9814,221.95693029440554
1046.9636,183.90744724944125
1048.9452,177.02367924041573
1050.926,217.0063428945059
1052.9061,192.90615306865948
1054.8855,175.77382244976434
1056.8642,241.31006179565156
1058.8421,288.06558010641584
1060.8194,316.0910839690596
1062.7959,346.4872770899292
1064.7717,366.6048600144577
1066.7469,398.0945298232118
1068.7213,387.05697993071226
1070.695,364.6428997705407
1072.6679,317.50297490570756
1074.6402,258.6878872527968
1076.6117,230.14831555336423
1078.5826,265.1349359620899
1080.5527,347.6984223321706
1082.5221,540.989445865458
1084.4908,753.7086742868214
1086.4587,1027.6067699112373
1088.426,1207.2343875166043
1090.3925,1249.6421716047544
1092.3584,1167.53075460518
1094.3235,1030.6507564509575
1096.2879,906.3027853998583
1098.2515,882.8874394031445
1100.2145,907.7053073490515
1102.1767,967.0069692969455
1104.1382,1120.5429962291428
1106.099,1322.2639494578934
1108.0591,1569.67037909002
1110.0185,1710.3128220097142
1111.9771,1739.2917994044592
1113.9351,1534.0578153586157
1115.8923,1213.2613565636284
1117.8488,864.0528943703666
1119.8045,578.4828879970892
1121.7596,421.1017880215313
1123.7139,359.01003923659937
1125.6675,375.208082224186
1127.6204,424.1463539760889
1129.5726,481.5252877320263
1131.524,529.1953124902611
1133.4748,589.1568524338018
1135.4248,647.8103264537094
1137.3741,690.8561475494807
1139.3226,690.5947222425111
1141.2705,673.4764501456348
1143.2176,618.5517239657465
1145.164,630.6209296749776
1147.1097,680.384447059947
1149.0546,684.6426496010627
1150.9989,593.2959039748921
1152.9424,427.69457001157934
1154.8852,252.4890016083109
1156.8272,128.27954838533515
1158.7686,29.116557438009295
1160.7092,-11.599625421104065
1162.6491,-6.968654670605247
1164.5883,58.00993109116098
1166.5267,183.2366628827076
1168.4644,331.26207114244517
1170.4014,530.8366844764241
1172.3377,760.8110281780682
1174.2732,977.0856222324392
1176.2081,1206.2109790164868
1178.1421,1379.987601136314
1180.0755,1528.7159791359072
1182.0082,1555.3465897593842
1183.9401,1500.7298944637005
1185.8713,1306.8663391523487
1187.8017,1080.156354721531
1189.7315,823.3503589987786
1191.6605,546.9987590100691
1193.5888,386.201953547873
1195.5163,245.81033593468055
1197.4432,161.22429563096284
1199.3693,100.4942196390939
1201.2947,64.57049334920339
1203.2193,74.80350114648354
1205.1432,113.0936267704219
1207.0664,161.44125321247702
1208.9889,273.64676233317005
1210.9106,359.01053437861356
1212.8316,472.28294685845503
1214.7519,558.8143736922375
1216.6715,633.955184076678
1218.5903,609.4557416203479
1220.5084,594.7664035922753
1222.4257,557.587521166929
1224.3424,507.2194395711176
1226.2583,556.7624984557779
1228.1735,670.2170323996552
1230.0879,805.6333704138733
1232.0016,1001.8118348073895
1233.9146,1050.1527398328262
1235.8269,982.4063897246933
1237.7384,847.773078215976
1239.6492,690.8530892155995
1241.5592,591.0966981547599
1243.4686,482.30417355612553
1245.3772,430.42577803140193
1247.285,381.86176936925494
1249.1922,353.1124010540998
1251.0986,350.9779227517329
1253.0042,386.70858059682996
1254.9092,479.2046172142873
1256.8134,588.8162713619149
1258.7169,729.3437770054798
1260.6196,922.5873622225872
1262.5216,1108.6472477974094
1264.4229,1254.1236452882458
1266.3234,1362.5667551669321
1268.2232,1424.426765364069
1270.1223,1425.8038501845895
1272.0207,1441.2481696891637
1273.9183,1383.1098696804274
1275.8151,1362.3890815485374
1277.7113,1230.885922852558
1279.6067,1093.9004975276594
1281.5014,954.3828972001602
1283.3953,817.6332025573738
1285.2885,729.8514847427878
1287.181,657.6878067235575
1289.0727,684.3922241683304
1290.9637,739.7147861688727
1292.854,864.0055349730383
1294.7435,1016.4145054315304
1296.6323,1251.7417237550007
1298.5204,1538.7872059899591
1300.4077,1810.9009556655028
1302.2943,2016.8829609228596
1304.1802,2154.2831917942494
1306.0653,2101.101598143063
1307.9497,2006.5881082898604
1309.8333,1936.0426295441875
1311.7162,1957.5150491497134
1313.5984,2044.7052349896821
1315.4798,2205.113035372193
1317.3605,2399.488278158291
1319.2405,2591.2807691578955
1321.1197,2648.490290186045
1322.9982,2643.116597144969
1324.876,2668.2094194520023
1326.753,2652.4684600933087
1328.6293,2686.3433953729646
1330.5048,2723.6338750703644
1332.3796,2705.2895221014705
1334.2537,2661.959932145908
1336.127,2644.7946738304117
1337.9996,2617.543289162114
1339.8714,2572.5052937002065
1341.7426,2509.930176828452
1343.6129,2500.3674022055584
1345.4826,2421.816408390935
1347.3515,2381.2766089403176
1349.2196,2339.947393191277
1351.087,2331.12812666862
1352.9537,2389.068151497685
1354.8197,2539.2167864925304
1356.6849,2710.373326576535
1358.5493,2788.0870412809118
1360.4131,2811.557173033145
1362.276,2740.53293637985
1364.1383,2611.11351775207
1365.9998,2420.2980761755207
1367.8606,2154.4857445647876
1369.7206,1907.5256316314726
1371.5799,1747.8168245423267
1373.4384,1650.0583913888468
1375.2962,1544.5993827843604
1377.1533,1332.638832841616
1379.0096,1065.6257602273654
1380.8652,804.0091702819736
1382.7201,590.8880576895526
1384.5742,407.5614090941208
1386.4275,279.9782052308183
1388.2802,184.1874227591752
1390.132,90.03803553893886
1391.9832,49.679015587983486
1393.8336,-4.340665976192668
1395.6832,-17.372038532882925
1397.5322,-2.7660880981275113
1399.3803,-24.723627141306224
1401.2278,-38.64544049858068
1403.0745,-3.4320660170797055
1404.9204,-12.93365547598205
1406.7656,16.499673631868973
1408.6101,48.2679330208457
1410.4538,74.47113424032568
1412.2968,157.1092883570077
1414.139,217.5324056928821
1415.9805,302.5404949988465
1417.8213,418.8835628504785
1419.6613,590.061612797951
1421.5006,782.6246442026036
1423.3391,1078.6726505251613
1425.1769,1455.3556174001064
1427.0139,1977.123519675196
1428.8502,2630.4763176446327
1430.6858,3249.713951831384
1432.5206,3742.486336453655
1434.3547,4041.6433532325177
1436.188,4090.8848464641774
1438.0206,4090.810620028411
1439.8524,3967.6704368961473
1441.6835,3918.9140191302104
1443.5139,3825.4910491167257
1445.3435,3784.6011700526783
1447.1724,3722.693986880147
1449.0005,3653.0190666952
1450.8279,3567.825939366968
1452.6545,3536.0140982343933
1454.4804,3607.933000958158
1456.3056,3591.382069838811
1458.13,3486.260691097569
1459.9536,3280.8682150418317
1461.7766,2939.303957116393
1463.5987,2525.017199957367
1465.4202,2133.8071968078284
1467.2409,1781.7231756606825
1469.0608,1505.9643431707632
1470.88,1262.3298881756737
1472.6984,1035.918984453379
1474.5161,848.0307931585439
1476.3331,724.2644650866459
1478.1493,585.9691425528567
1479.9648,499.19396062970554
1481.7795,404.13804853003194
1483.5935,362.7505304747365
1485.4067,310.93052664334164
1487.2192,266.07715358786663
1489.031,234.5895247510257
1490.842,216.21675091476436
1492.6522,180.9079405151324
1494.4618,164.56219982601533
1496.2705,166.4286333122186
1498.0785,163.45634379292233
1499.8858,133.1444324230224
1501.6924,149.99199872285226
1503.4981,139.49814088130233
1505.3032,135.1119555873438
1507.1075,105.18253813496858
1508.911,109.40898246704955
1510.7138,98.84038147463616
1512.5159,78.97582695469146
1514.3172,48.51440971577313
1516.1178,19.255219776685408
1517.9176,18.597346671087053
1519.7166,6.789879740087599
1521.515,5.7319081388254745
1523.3126,1.2725209545392318
1525.1094,-6.939192782849659
1526.9055,-13.154144056142286
1528.7008,-8.773174525605555
1530.4954,-34.94699444160733
1532.2893,-26.476226410505205
1534.0824,-20.11114391818137
1535.8747,-16.301755953018073
1537.6663,-15.197870593071002
1539.4572,-8.19913306185299
1541.2473,16.74496324384927
1543.0367,5.835006836585308
1544.8253,1.871586061457947
1546.6132,29.405289205220924
1548.4003,47.886704535914305
1550.1867,70.86642002752797
1551.9723,86.69502317518572
1553.7572,123.52310076534968
1555.5414,168.35123871753194
1557.3247,188.83002171601584
1559.1074,258.91003276157517
1560.8893,343.34185296668375
1562.6705,385.076060854718
1564.4509,476.2132315156364
1566.2305,578.3539361886392
1568.0094,691.9487413507936
1569.7876,781.6982076956315
1571.565,859.7528889971941
1573.3417,929.8133312125442
1575.1176,950.0300717012155
1576.8928,959.2536385246099
1578.6672,891.9845502438279
1580.4409,763.8733158274367
1582.2138,666.020435324157
1583.986,564.8264011439787
1585.7575,478.54169903668753
1587.5282,405.966809103807
1589.2981,352.1022066614437
1591.0673,319.7483629660378
1592.8358,304.45574575300816
1594.6035,295.52481956029214
1596.3704,297.60604588127035
1598.1366,321.89988325407785
1599.9021,346.95678724079016
1601.6668,391.22721018448374
1603.4308,444.86160095866717
1605.194,534.3604045245793
1606.9564,619.7240613948416
1608.7182,727.0030067384741
1610.4791,866.6476695272586
1612.2394,1039.2084714629464
1613.9988,1224.2858255808137
1615.7576,1453.3801345240554
1617.5156,1710.0417886930068
1619.2728,1963.971163954203
1621.0293,2155.518619073766
1622.785,2253.884493178104
1624.54,2233.969103838445
1626.2942,2121.072746087168
1628.0477,1913.2956926169663
1629.8005,1672.5881949098075
1631.5525,1454.1004853147
1633.3037,1236.7827794547752
1635.0542,1069.9852784121613
1636.804,942.2081709011591
1638.553,857.1016349362171
1640.3013,816.2658391097057
1642.0488,787.4509434429779
1643.7955,784.1570997947292
1645.5416,804.8844521491487
1647.2868,862.2331366488538
1649.0313,942.6532813876211
1650.7751,1085.845005836894
1652.5181,1287.958420041587
1654.2604,1533.8436231881624
1656.0019,1887.2007015835002
1657.7427,2230.979726196046
1659.4828,2612.130749122241
1661.222,2873.003800148727
1662.9606,2957.098882940838
1664.6984,2803.9659724338753
1666.4354,2505.6550139921483
1668.1717,2090.0659249403093
1669.9072,1641.6485975464643
1671.642,1251.052903178057
1673.3761,975.8286967860477
1675.1094,745.6258208108711
1676.8419,591.444107934672
1678.5737,466.93338338334024
1680.3048,374.89346646832564
1682.0351,298.2241718317441
1683.7646,265.1753103667784
1685.4934,218.696689984371
1687.2215,199.88811594371236
1688.9488,169.7493913170274
1690.6754,156.53031717765907
1692.4012,127.88069290145768
1694.1263,123.60031629897139
1695.8506,119.73898390194245
1697.5742,111.99649100611123
1699.297,93.67263170982869
1701.0191,85.51719899148247
1702.7404,86.02998489273205
1704.461,71.81078060006621
1706.1808,50.60937643967509
1707.8999,48.27556201964171
1709.6182,44.30912644195587
1711.3358,60.059858325853384
1713.0527,30.477545847479632
1714.7688,29.061976582383068
1716.4841,31.46293780134056
1718.1987,28.130216484507855
1719.9126,14.663599297413839
1721.6257,15.11287262428641
1723.338,16.077822702719004
1725.0496,5.758235619177867
1726.7605,20.153897299352593
1728.4706,9.61459361135121
1730.18,5.0401102217438165
1731.8886,5.230232700955867
1733.5964,-0.06525343098792291
1735.3036,4.1534372936371255
1737.0099,-1.413909005564392
1738.7156,-0.41750625052031864
1740.4204,-11.507554238208968
1742.1246,-11.63424859472093
1743.8279,0.40233001431920457
1745.5306,1.9522171494290887
1747.2325,2.065448367104409
1748.9336,-2.457940795680088
1750.634,8.032085177397676
1752.3336,9.885586357485863
1754.0325,7.752622735412842
1755.7307,-5.666745796848318
1757.4281,19.627540575149624
1759.1247,-2.1144017233555132
1760.8206,1.9075435365994053
1762.5158,17.54351370684958
1764.2102,-3.606353879843482
1765.9039,-1.941922066152756
1767.5968,6.886982332723392
1769.289,11.930551901387162
1770.9804,13.18897915557045
1772.6711,29.06245649170114
1774.361,1.6511761743172428
1776.0502,16.10533017733337
1777.7386,11.825110458152722
1779.4263,19.56070881312712
1781.1132,32.312316920358626
1782.7994,20.2801262623434
1784.4849,9.564327998455838
1786.1696,18.715113085269877
1787.8535,38.08267238371673
1789.5367,29.517196567577457
1791.2192,30.76887592980779
1792.9009,21.83790046819172
1794.5818,41.4744598728264
1796.2621,24.728743615429494
1797.9415,31.550940752975066
1799.6202,33.2412400951514
1801.2982,31.84983013613737
1802.9755,34.62689903770115
1804.6519,34.52263464311477
1806.3277,31.337224449379846
1808.0027,34.770855608273905
1809.6769,41.32371495820303
1811.3504,37.145988989865145
1813.0231,38.287863780720954
1814.6951,47.849525036773684
1816.3664,54.031158081148305
1818.0369,60.23294775847489
1819.7067,49.80507837307323
1821.3757,54.847733626934996
1823.044,64.81109672400157
1824.7115,56.34535031973883
1826.3783,56.20067642150184
1828.0443,51.32725647319148
1829.7096,60.72527135670339
1831.3741,62.4949014406609
1833.0379,65.88632648643534
1834.701,62.7997256304493
1836.3633,68.13527735026355
1838.0248,49.24315949544143
1839.6856,56.72354923419516
1841.3457,67.82662324230569
1843.005,92.75255762831898
1844.6636,79.05152782251639
1846.3214,72.22370832765455
1847.9785,82.96927285597485
1849.6349,84.58839439748408
1851.2904,84.93124511249607
1852.9453,93.04799631544324
1854.5994,88.38881847144535
1856.2528,100.3538811151434
1857.9054,89.04335289729079
1859.5572,97.70740146510275
1861.2083,97.3461935753628
1862.8587,95.20989500778023
1864.5084,91.69867056860335
1866.1572,87.31268411198175
1867.8054,86.4020985750783
1869.4528,97.86707602193064
1871.0994,104.20777765255502
1872.7453,83.22436368829722
1874.3905,90.31699330842616
1876.0349,90.23582485996758
1877.6786,101.9310157867776
1879.3215,98.55272263035499
1880.9637,90.35110091288834
1882.6051,103.42630517104112
1884.2458,88.17848903796607
1885.8858,110.70780511255339
1887.525,115.36440511191017
1889.1634,99.89843964606553
1890.8011,99.51005817140458
1892.4381,93.49940914532931
1894.0743,89.01664003014253
1895.7098,97.96189735315329
1897.3446,95.03532675150586
1898.9786,95.4870728827259
1900.6118,98.21727945398698
1902.2443,95.0760892175922
1903.8761,95.16364394367292
1905.5071,91.18008445159967
1907.1374,87.12555060910813
1908.7669,94.30018137213415
1910.3957,102.35411482535801
1912.0237,90.68748811046021
1913.651,89.00043734558017
1915.2776,99.44309774198291
1916.9034,93.86560362092996
1918.5285,75.4180883092522
1920.1528,88.45068419512518
1921.7764,91.36352291254389
1923.3992,95.55673521099834
1925.0213,83.83045092634234
1926.6427,85.98479893886429
1928.2633,74.66990729054896
1929.8832,101.9359031635347
1931.5023,99.23291299326115
1933.1207,84.41106219581002
1934.7383,91.67047519493417
1936.3552,82.3612755702759
1937.9714,87.38358598477384
1939.5868,80.68752827775393
1941.2015,85.97322341470704
1942.8154,81.69079155424902
1944.4286,83.19035199526343
1946.041,75.77202321972572
1947.6528,66.18592287770934
1949.2637,71.78216786156668
1950.8739,65.86087440179222
1952.4834,73.87215801106049
1954.0921,65.71613354343708
1955.7001,69.4929151142669
1957.3074,75.1526161817344
1958.9139,62.39534950909501
1960.5197,69.07122710807812
1962.1247,63.830360366460354
1963.729,66.87285998130687
1965.3325,56.74883601137935
1966.9353,68.95839784671125
1968.5374,70.3016543098488
1970.1387,52.22871353375422
1971.7393,60.13968294837355
1973.3392,58.13466946136782
1974.9383,53.763779379001335
1976.5366,58.9271184261936
1978.1342,60.92479179022598
1979.7311,59.55690406911026
1981.3273,48.32355925160982
1982.9227,60.374860730921455
1984.5173,47.41091141700599
1986.1112,52.08181361607558
1987.7044,65.0376691602346
1989.2968,57.47857936076889
1990.8885,55.85464487858826
1992.4795,62.71596579981792
1994.0697,51.612641652037155
1995.6592,55.39477133566584
1997.2479,62.312453234998884
1998.8359,50.165785180382954
2000.4232,38.95486437904083
2002.0097,59.22978753653865
2003.5955,45.24065096889399
2005.1805,49.98755039982643
2006.7648,53.52058110065059
2008.3484,54.889837842805036
2009.9312,58.84541486252351
2011.5133,42.88740584714242
2013.0946,52.36590389554499
2014.6752,56.03100167774073
2016.2551,48.53279134008062
2017.8342,49.02136446860595
2019.4126,56.64681216403028
2020.9902,47.75922503685456
2022.5672,47.60869313111243
2024.1433,65.29530601324495
2025.7188,58.619152773607084
2027.2935,41.68032184960134
2028.8674,56.47890109243963
2030.4406,56.36497793653007
2032.0131,50.43863925149276
2033.5849,43.44997134329901
2035.1559,54.79906001353311
2036.7261,54.085990629281696
2038.2957,38.96084800964013
2039.8645,46.47371643284464
2041.4325,47.27467978752384
2042.9998,55.06382149757019
2044.5664,38.49122451412927
2046.1323,56.05697123770847
2047.6974,54.01114368390404
2049.2617,35.90382330774332
2050.8254,48.835091024141775
2052.3883,49.35502738897708
2053.9504,42.26371246977715
2055.5118,54.31122584051923
2057.0725,42.94764665254456
2058.6325,36.77305351408177
2060.1917,48.887524603884
2061.7502,39.09113773297372
2063.3079,53.18397022349927
2064.8649,55.166099006698005
2066.4212,47.737600481968
2067.9767,52.24855049704615
2069.5315,44.54902442229445
2071.0856,46.08909710558942
2072.6389,45.16884294931833
2074.1915,38.93833589497808
2075.7433,29.04764943237774
2077.2945,35.3968566619435
2078.8448,34.98603039362615
2080.3945,44.165243083408086
2081.9434,37.18456683741215
2083.4916,36.4440733201086
2085.039,39.4438338241232
2086.5857,30.883919277641326
2088.1317,31.51440021441158
2089.677,27.135346859342917
2091.2215,41.04682912220278
2092.7652,32.898916641404526
2094.3083,36.99167864489459
2095.8506,30.22518403162985
2097.3921,36.14950133065122
2098.933,32.71469876874926
2100.4731,33.220844211218036
2102.0124,40.51800519620588
2103.5511,42.45624892965316
2105.089,44.38564221232059
2106.6261,43.656251420406875
2108.1626,40.21814248625435
2109.6983,41.62138090564417
2111.2332,42.06603177217585
2112.7675,37.602159763235136
2114.301,40.42982913554863
2115.8337,46.099103769821
2117.3657,32.0100471424596
2118.897,44.11272226888059
2120.4276,41.60719184440018
2121.9575,33.343518123208355
2123.4866,35.871762943423164
2125.0149,40.84198780972804
2126.5426,30.804253868089063
2128.0695,38.30862185605281
2129.5956,49.605152203123794
2131.1211,41.84390495572052
2132.6458,26.17493966421057
2134.1698,35.99831546052235
2135.693,42.51409121483596
2137.2155,46.9723254373489
2138.7373,39.623076213118225
2140.2584,41.2664011574783
2141.7787,38.00235748953344
2143.2983,33.131002015724334
2144.8171,39.152391162468575
2146.3353,43.66658102487406
2147.8527,33.97362730652537
2149.3693,42.27358527434126
2150.8853,43.31650985550402
2152.4005,35.85245555446079
2153.9149,40.9314764424945
2155.4287,35.90362623236285
2156.9417,32.11895822750989
2158.454,34.37752537234371
2159.9655,34.72938029008344
2161.4764,38.07457526017333
2162.9865,38.61316221476443
2164.4958,30.645192705261934
2166.0045,36.920717896940005
2167.5124,36.239788648621584
2169.0195,35.95245544992213
2170.526,34.25876842806008
2172.0317,40.308777350729656
2173.5367,40.25253164303717
2175.0409,34.14008032700178
2176.5445,41.771472022117564
2178.0473,38.74675500647845
2179.5494,44.96597714046379
2181.0507,42.27918589698538
2182.5513,30.236428299296108
2184.0512,41.38775094785717
2185.5504,36.083200140766166
2187.0488,33.77282176224355
2188.5465,27.506661335678928
2190.0435,26.48476404673363
2191.5397,48.1071748060034
2193.0353,32.873938259236866
2194.5301,36.33509857111153
2196.0241,29.790699577565306
2197.5175,32.04078475118638
2199.0101,32.03539726665599
2200.502,30.074579978248266
2201.9931,31.008375419883805
2203.4835,19.48682582473782
2204.9733,30.75997311590197
2206.4622,34.977859021600125
2207.9505,18.64052496245688
2209.438,16.79801200931854
2210.9248,24.500361046626494
2212.4109,33.39761279084291
2213.8962,17.68980771342683
2215.3809,28.62698595186123
2216.8648,26.25918746673142
2218.3479,27.33645193235293
2219.8304,33.758818760450026
2221.3121,26.576327089382403
2222.7931,22.039015719922077
2224.2733,24.59692318707812
2225.7529,18.350087805470253
2227.2317,12.99854764374902
2228.7098,23.542340587064245
2230.1872,22.131504390580403
2231.6638,11.166076574039266
2233.1397,19.846094435867258
2234.6149,21.721595162830567
2236.0894,20.692615743234228
2237.5632,15.109192948168015
2239.0362,21.821363341795973
2240.5085,13.579163337190153
2241.9801,17.382629129209818
2243.4509,14.03179677692242
2244.921,9.62670216557035
2246.3904,22.917381040077885
2247.8591,12.153869049103037
2249.3271,10.836201612130708
2250.7943,1.2144140271072956
2252.2608,6.338541483617405
2253.7266,14.608619159101636
2255.1917,4.824682167615947
2256.656,15.03676547713087
2258.1197,-1.2050959926299356
2259.5826,5.949132527690381
2261.0447,22.199497846356962
2262.5062,12.696046712144266
2263.9669,4.588825651832394
2265.4269,12.277881065240763
2266.8862,10.913259306301597
2268.3448,1.0450066061681582
2269.8026,11.523169086861571
2271.2598,6.597782430786765
2272.7162,14.41888220511646
2274.1719,13.236503911046157
2275.6268,11.500682905583062
2277.0811,15.56145441336946
2278.5346,18.1188535440416
2279.9874,9.922915251621248
2281.4395,20.02367430894151
2282.8908,16.92116538960647
2284.3414,15.565422966984215
2285.7914,22.506481345231464
2287.2406,26.044374672851063
2288.689,12.329136873281527
2290.1368,9.810801609518194
2291.5838,22.339402421265163
2293.0302,19.864972750118795
2294.4758,15.287545814282339
2295.9206,17.207154633309187
2297.3648,16.02383207387777
2298.8082,24.287610830595327
2300.251,20.998523437831068
2301.693,13.856602187078806
2303.1343,21.261879159847354
2304.5748,18.864386299080024
2306.0147,27.764155335101123
2307.4538,19.061217809592904
2308.8922,10.155604986596018
2310.3299,18.897347939538804
2311.7669,8.536477640293356
2313.2031,12.223024871758867
2314.6387,15.907020331470335
2316.0735,13.288494594732356
2317.5076,25.317478077780038
2318.941,18.194001063963583
2320.3737,10.468093583459108
2321.8056,16.389785484503022
2323.2369,13.909106510651213
2324.6674,11.476086241562143
2326.0972,13.140754117803795
2327.5263,15.353139465183176
2328.9547,19.963271478100523
2330.3823,12.521179197424772
2331.8092,15.826891464392588
2333.2355,5.530436995028822
2334.661,15.131844347089896
2336.0858,11.33114202302852
2337.5098,16.578358373979313
2338.9332,19.27352163776584
2340.3558,6.01665988642867
2341.7778,17.307800999273127
2343.199,14.34697279543866
2344.6195,25.38420292098658
2346.0393,21.469518878509234
2347.4583,24.252947916756966
2348.8767,13.934517069784988
2350.2943,17.61425312911922
2351.7113,28.542182746941194
2353.1275,25.068332399290625
2354.543,28.79272827678517
2355.9578,29.96539631936014
2357.3718,23.68636217902349
2358.7852,22.955651208129666
2360.1978,23.82328852217006
2361.6098,22.839299007079603
2363.021,26.203707310560503
2364.4315,27.066537851922476
2365.8413,18.72781478843831
2367.2504,25.48756200671596
2368.6587,23.74580320608493
2370.0664,21.302561831000276
2371.4733,22.857861088459345
2372.8795,24.761723972434197
2374.285,28.664173248318775
2375.6899,18.06523143388938
2377.0939,11.114920760281052
2378.4973,23.213263277976353
2379.9,25.860280926308747
2381.3019,21.80599541248
2382.7032,18.900428185088913
2384.1037,18.993600474674736
2385.5035,29.835533322773017
2386.9027,27.97624758098334
2388.3011,25.61576380255076
2389.6987,25.354102260957802
2391.0957,13.241282973530133
2392.492,23.677325704052237
2393.8876,11.76225008389622
2395.2824,11.296075507661612
2396.6765,6.078821252325042
2398.07,16.81050648190353
2399.4627,13.441089632988565
2400.8547,27.520528974067133
2402.246,18.898782639215597
2403.6366,19.975808487305585
2405.0265,17.65156418822096
2406.4156,24.826007212087802
2407.8041,25.599094852516487
2409.1918,23.42078415485753
2410.5789,25.191031908471246
2411.9652,23.7097946685102
2413.3508,21.027028738216927
2414.7358,22.742690183736045
2416.12,20.10673486094231
2417.5035,27.21911839828374
2418.8863,25.179796223141125
2420.2684,20.83872349070475
2421.6497,26.04585510436675
2423.0304,22.701145759132487
2424.4104,29.504549889548912
2425.7896,29.456021703151805
2427.1682,26.305515112431294
2428.546,29.802983735317753
2429.9232,30.448380926686355
2431.2996,32.69165974338273
2432.6753,26.932772937769414
2434.0503,25.521672935291804
2435.4246,26.358311892068173
2436.7982,31.792641708999895
2438.1711,19.02461402340566
2439.5433,25.004180154677783
2440.9148,22.431291231962746
2442.2856,27.855898134365816
2443.6557,28.47795151667924
2445.025,26.747401755137332
2446.3937,31.264198941194763
2447.7617,24.628292898832626
2449.1289,32.789633139390105
2450.4955,28.898168927923564
2451.8613,30.853849201593107
2453.2265,35.706622608577334
2454.5909,34.9064374885167
2455.9546,33.10324182398563
2457.3177,28.29698324849403
2458.68,29.087609064520223
2460.0416,36.275066291572045
2461.4025,37.7093016582819
2462.7627,33.59026153053122
2464.1222,45.167891897108916
2465.4811,44.34213841090133
2466.8392,45.96294627311585
2468.1966,45.780260241539054
2469.5533,52.4440246143281
2470.9093,38.60418323183802
2472.2645,46.860679409983675
2473.6191,45.913456078638376
2474.973,49.912455699068744
2476.3262,46.35762027340746
2477.6787,46.99889130466278
2479.0305,44.436209832266684
2480.3816,53.519516425662516
2481.7319,53.04875120993137
2483.0816,41.92385377495941
2484.4306,44.24476318014575
2485.7789,50.16141806565088
2487.1264,41.573756629187926
2488.4733,44.68171656685587
2489.8195,49.53523515901617
2491.165,49.184249239213216
2492.5097,55.87869514563931
2493.8538,42.61850872464453
2495.1972,46.00362526379223
2496.5398,48.883979624460835
2497.8818,49.35950620799292
2499.2231,51.83013892689149
2500.5637,48.995811200064566
2501.9035,50.25645592811935
2503.2427,52.96200552170461
2504.5812,50.36239188890505
2505.919,54.70754640818518
2507.256,44.84739995438588
2508.5924,45.33188285527268
2509.9281,52.36092499013756
2511.2631,55.18445578495334
2512.5974,51.852404142084026
2513.9309,53.36469841204956
2515.2638,48.321266426845966
2516.596,58.97203548482224
2517.9275,51.766932401115355
2519.2583,55.10588340114174
2520.5884,50.138814192648795
2521.9178,63.91564993232521
2523.2465,58.18631527547194
2524.5745,56.500734238233406
2525.9018,51.40883025489131
2527.2284,57.71052619472016
2528.5543,57.75574441290627
2529.8796,59.644406687530704
2531.2041,66.92643421911725
2532.5279,58.301747611745725
2533.851,64.32026680023188
2535.1735,57.731911136374606
2536.4952,61.73659932876984
2537.8163,68.98424950869497
2539.1366,65.02477919006111
2540.4562,62.85810519693723
2541.7752,60.6341437031449
2543.0935,64.00281025392434
2544.411,57.964019788174596
2545.7279,66.06768660476672
2547.0441,64.26372442293189
2548.3596,63.70204630122447
2549.6744,69.53256465556154
2550.9885,67.70519126483993
2552.3019,65.6698372126308
2553.6146,61.62641290545366
2554.9266,68.47482809312953
2556.2379,63.66499190921559
2557.5485,58.19681280252115
2558.8585,68.42019858520541
2560.1677,71.63505648745985
2561.4762,70.94129305527417
2562.7841,68.73881411828756
2564.0913,70.27752479672648
2565.3977,65.55732952342947
2566.7035,67.77813202846016
2568.0086,73.98983538630887
2569.313,68.6423419936848
2570.6167,73.48555350739883
2571.9197,67.61937089783834
2573.222,71.8936944005356
2574.5236,68.20842357482928
2575.8246,74.91345726112144
2577.1248,77.90869361772997
2578.4244,76.09403005383871
2579.7232,78.96936319954449
2581.0214,81.58458892400398
2582.3189,87.48960230668041
2583.6157,85.4342976111912
2584.9118,91.86856822625805
2586.2072,91.74230668626006
2587.5019,88.95540460689062
2588.7959,97.65775268642017
2590.0893,100.6492407335653
2591.3819,96.97975758046567
2592.6739,101.39919105276874
2593.9652,106.05742800632419
2595.2557,105.65435428299025
2596.5456,101.6898546640507
2597.8348,112.86381287424592
2599.1234,116.72611162141794
2600.4112,114.42663248477078
2601.6983,116.46525587624768
2602.9848,116.79186106352546
2604.2705,122.45632614962858
2605.5556,126.60852806966295
2606.84,118.29834253417164
2608.1237,115.62564398761253
2609.4067,119.64030569146041
2610.689,120.39219975093368
2611.9707,117.38119707484793
2613.2516,117.20716736809709
2614.5319,119.36997916176307
2615.8115,120.0194998148562
2617.0903,116.75559549268695
2618.3685,116.37813116037114
2619.6461,118.78697061546887
2620.9229,120.03197649175888
2622.199,120.3130102351505
2623.4745,119.72993209123337
2624.7493,125.68260110246734
2626.0234,123.67087511401292
2627.2968,123.94461071420483
2628.5695,120.50366325466922
2629.8415,120.04788684758637
2631.1128,125.97713440010006
2632.3835,124.09125761887549
2633.6535,127.59010695080667
2634.9228,129.5735316018753
2636.1914,131.14137950216195
2637.4593,130.7434972860121
2638.7265,130.97973027635754
2639.9931,127.1499224886951
2641.259,128.25391662872482
2642.5242,123.79155413064746
2643.7887,122.2126751461247
2645.0525,124.61711858890311
2646.3156,131.5047221506025
2647.5781,123.1753222766718
2648.8398,124.17875409751292
2650.1009,123.11485151177459
2651.3613,126.3334471763182
2652.6211,119.23437251685681
2653.8801,119.56745769576924
2655.1385,125.73253168309077
2656.3961,131.9294222531821
2657.6531,126.45795592307894
2658.9094,125.36795789052269
2660.1651,117.05925208867569
2661.42,132.1316611970205
2662.6743,127.3350067244474
2663.9279,129.41910885853025
2665.1808,130.583786513493
2666.433,137.3788573093683
2667.6846,138.35413756035143
2668.9354,135.80944220684904
2670.1856,144.29458480572657
2671.4351,137.55937755575525
2672.6839,141.60363121276043
2673.9321,143.3271551569739
2675.1795,155.37975735259118
2676.4263,151.7612443305365
2677.6724,153.27142106793644
2678.9179,153.76009102430532
2680.1626,159.12705612644334
2681.4067,166.0221167635499
2682.6501,160.94507173355373
2683.8928,159.89571817416277
2685.1348,154.67385161363438
2686.3761,157.3292659812687
2687.6168,148.11175365962742
2688.8568,146.77110545798007
2690.0961,135.20711070447874
2691.3348,140.1195572595646
2692.5727,136.1582316316081
2693.81,129.5729189277841
2695.0466,133.96340289368533
2696.2826,135.27946597917565
2697.5178,131.02088929448468
2698.7524,132.78745259704777
2699.9863,131.97893433409126
2701.2195,139.79511162496738
2702.452,134.5857602692389
2703.6839,141.00065466851777
2704.9151,146.8395678785584
2706.1456,153.75227154510924
2707.3755,156.13853584552288
2708.6046,166.39812941962958
2709.8331,171.53081934587442
2711.0609,177.58637103872138
2712.2881,188.1645481973262
2713.5145,199.81511274498143
2714.7403,200.48782472333414
2715.9654,209.88244217588073
2717.1899,222.04872114123953
2718.4136,244.33641555920428
2719.6367,242.69527714908196
2720.8591,252.97505518681533
2722.0809,268.9754965213945
2723.3019,278.34634547205945
2724.5223,290.03734366829497
2725.7421,296.0982299561228
2726.9611,293.87874028119137
2728.1795,289.0286076281665
2729.3972,280.14756204292735
2730.6142,275.9353306810665
2731.8306,253.49163789670155
2733.0462,243.1162052845965
2734.2612,227.05875190459938
2735.4756,211.26899438539635
2736.6892,193.69664708508606
2737.9022,176.29142224907747
2739.1145,163.25303018581343
2740.3262,147.38117944082256
2741.5372,138.32557692710333
2742.7475,120.2859280838423
2743.9571,118.51193696697072
2745.1661,97.40330642956042
2746.3744,84.70973813956431
2747.582,72.6309327909022
2748.7889,72.16659023039676
2749.9952,64.56640957856166
2751.2008,55.68008923424463
2752.4057,51.707326950629465
2753.61,46.64781992409934
2754.8136,48.751264833964285
2756.0165,41.11735789305624
2757.2188,37.295794826694646
2758.4204,37.036270949025436
2759.6213,39.93848120123664
2760.8215,30.10212015415385
2762.0211,31.3768819792179
2763.22,23.712460546848945
2764.4182,25.55854941369813
2765.6158,21.014841899292662
2766.8127,10.581031067574145
2768.009,11.256809772335885
2769.2045,4.041870761560972
2770.3994,-2.8140933293352646
2771.5936,3.938610094643707
2772.7872,-10.20029825871353
2773.9801,-3.631097721004096
2775.1723,-13.803965722845817
2776.3639,-13.569043420190383
2777.5548,-21.376334067372397
2778.745,-17.275705363982922
2779.9346,-18.566811460036035
2781.1235,-16.1991339212492
2782.3117,-18.771968830893627
2783.4992,-17.784450442892535
2784.6861,-8.835525479200669
2785.8723,-3.573962995112936
2787.0579,-6.298443779025149
2788.2428,1.0423870845573333
2789.427,12.699947432582235
2790.6106,21.9756550915734
2791.7935,29.02092776105559
2792.9757,39.38718292079727
2794.1573,44.37583776035791
2795.3382,60.33830907542506
2796.5184,72.72601321792814
2797.698,85.39036593641396
2798.8769,102.43278225216892
2800.0551,116.4046763325768
2801.2327,130.6574613206929
2802.4096,155.14254919552678
2803.5859,171.56135062951284
2804.7615,191.6652747436608
2805.9364,217.25572894336693
2807.1106,233.68411871737493
2808.2842,265.2518473818717
2809.4572,293.71031591620283
2810.6294,326.460922647196
2811.801,374.20506296457603
2812.972,403.6941289934579
2814.1423,463.479509116907
2815.3119,503.012587681047
2816.4808,540.6947443972069
2817.6491,592.0273539465904
2818.8167,646.3117856034537
2819.9837,677.84940272178
2821.15,733.6915621924343
2822.3157,773.1396141277886
2823.4807,815.6449013032994
2824.645,854.5587587630266
2825.8086,898.5325133945825
2826.9716,933.4674835399915
2828.134,980.9149785559532
2829.2957,998.3762984644926
2830.4567,1031.3027334784847
2831.617,1051.3955638270427
2832.7767,1053.2560594262504
2833.9358,1050.1854796782386
2835.0941,1053.6350734525768
2836.2519,1038.8060791169787
2837.4089,1018.9497245028102
2838.5653,1015.567227053375
2839.7211,1014.9597940224799
2840.8761,1011.2786225082609
2842.0306,1044.824899459255
2843.1843,1054.2998017112136
2844.3374,1105.6044956516398
2845.4899,1166.3401371250384
2846.6417,1236.4578709198697
2847.7928,1316.4088301611932
2848.9433,1388.144135609489
2850.0931,1474.0648948611502
2851.2422,1548.5222016311275
2852.3907,1630.8171348937249
2853.5385,1693.2507581380232
2854.6857,1750.6741185449332
2855.8323,1803.1382463628584
2856.9781,1860.7441543334596
2858.1233,1900.292837167019
2859.2679,1955.7852709663744
2860.4118,1981.872412831437
2861.555,2030.5552003042658
2862.6976,2076.5345511081946
2863.8395,2096.3113626610057
2864.9808,2134.3365116151385
2866.1214,2135.0608536599166
2867.2614,2160.9852231413
2868.4007,2169.2604330546396
2869.5393,2180.3372747854346
2870.6773,2185.916518026581
2871.8146,2192.3989106676
2872.9513,2209.735178738851
2874.0874,2203.126026346702
2875.2227,2202.2221355001716
2876.3574,2181.1241661770164
2877.4915,2166.532756332773
2878.6249,2127.3485221117367
2879.7577,2114.0720579928748
2880.8898,2074.4539371816704
2882.0212,2054.4947117428865
2883.152,2035.8949129967455
2884.2821,2034.4550517185253
2885.4116,2026.0256183245538
2886.5405,2021.4070828866097
2887.6686,2021.4998952162146
2888.7962,2049.204484910821
2889.923,2040.171261352882
2891.0493,2053.6006134328054
2892.1748,2057.092909639288
2893.2997,2077.3484979250197
2894.424,2083.6177056717615
2895.5476,2102.8008394877897
2896.6706,2140.0481851452055
2897.7929,2162.5600073880996
2898.9145,2187.4365495600828
2900.0355,2209.028033379165
2901.1559,2229.2846586889927
2902.2756,2280.656603242931
2903.3946,2321.244022501499
2904.513,2351.7970491186497
2905.6308,2387.6157925358984
2906.7479,2401.950338676788
2907.8643,2434.9007495887045
2908.9801,2435.3670632995304
2910.0953,2453.0992934881424
2911.2098,2457.7974294797455
2912.3236,2467.7614360685525
2913.4368,2450.541253470803
2914.5494,2433.186797225121
2915.6613,2402.6979583647203
2916.7725,2382.9746035909448
2917.8831,2354.2165755781616
2918.9931,2323.9236931709893
2920.1024,2301.7457516718823
2921.211,2297.6825231440594
2922.319,2254.2337566332812
2923.4264,2241.699178208484
2924.5331,2240.9784913962667
2925.6391,2222.321377306237
2926.7445,2211.027494638218
2927.8493,2201.1964798688186
2928.9534,2216.2779473643745
2930.0569,2190.8714894792556
2931.1597,2191.026676405053
2932.2619,2172.4430564246422
2933.3634,2158.6201559106344
2934.4643,2157.4574795112085
2935.5645,2149.054510288344
2936.6641,2106.6107097294453
2937.763,2066.825517831371
2938.8613,2024.9483535248742
2939.959,1961.378615072452
2941.056,1886.215680487119
2942.1523,1803.6089081681027
2943.248,1734.4076376524745
2944.3431,1624.6111904412173
2945.4375,1515.9688706912375
2946.5313,1417.8799663133307
2947.6244,1308.1437500586028
2948.7169,1211.9594804993612
2949.8087,1116.026403126476
2950.8999,1025.7937513112229
2951.9904,941.0607472646125
2953.0803,874.7266029397193
2954.1696,805.4405208790103
2955.2582,757.1016948776868
2956.3462,702.1593106765456
2957.4335,660.6125464453662
2958.5202,624.310573332336
2959.6062,598.0525558795172
2960.6916,578.3876523858662
2961.7764,564.5150151698148
2962.8605,544.2337907659182
2963.9439,546.8431200635819
2965.0267,530.2921385098742
2966.1089,529.1299760834323
2967.1905,520.7057574599725
2968.2714,534.2686020239113
2969.3516,526.8676239526076
2970.4312,533.9019320807342
2971.5102,541.970629974289
2972.5885,543.1228158602496
2973.6662,542.6075825458887
2974.7432,544.0740174072505
2975.8196,526.7712023943035
2976.8954,540.3482140162769
2977.9705,516.7041235146874
2979.045,515.3879967275699
2980.1188,493.94889432591856
2981.192,489.53587182684805
2982.2645,467.84797980798385
2983.3364,449.18426395159315
2984.4077,417.4437652614638
2985.4783,398.825520249541
2986.5483,368.82856125333274
2987.6177,335.65191662209185
2988.6864,308.3946110167854
2989.7545,272.9056657418618
2990.8219,242.93409901782388
2991.8887,209.9289263361179
2992.9548,188.3391607588494
2994.0204,164.6638132488353
2995.0852,136.40189288550118
2996.1495,111.20240710163449
2997.2131,89.56436196600436
2998.276,73.18676243535612
2999.3383,63.96861257079206
3000.4,41.90891570154707
3001.4611,36.45667451717014
3002.5215,26.810891288121184
3003.5812,19.070567920293684
3004.6404,6.034706051472483
3005.6989,0.7023071287368339
3006.7567,-1.1276274611805661
3007.8139,-10.156096338570023
3008.8705,-4.084086858723595
3009.9264,-14.062484917531094
3010.9818,-15.54213561085487
3012.0364,-12.123743550333018
3013.0905,-11.907858081668905
3014.1439,-3.34490743436794
3015.1966,0.7647991215665684
3016.2487,-4.929014268243577
3017.3002,-1.5766234658243548
3018.3511,12.571744907650555
3019.4013,9.865879981475643
3020.4509,16.655570759228453
3021.4998,19.49060614582754
3022.5481,24.02077487963612
3023.5958,28.595865504111714
3024.6428,36.76566632250422
3025.6892,40.32996535210526
3026.735,48.73855024254965
3027.7802,55.891208240173114
3028.8247,60.8877261039259
3029.8685,67.47789003384639
3030.9118,76.66148562109584
3031.9544,81.43829778205662
3032.9963,93.6081106664962
3034.0376,103.22070760979938
3035.0783,117.12587101127019
3036.1184,118.9233822380059
3037.1578,129.8630214858449
3038.1966,130.29456776139222
3039.2348,133.51779877262283
3040.2723,139.3324909245663
3041.3092,144.28841928707408
3042.3455,141.98535753667272
3043.3811,144.52307790700513
3044.4161,150.85135121186045
3045.4505,142.36994681979735
3046.4842,145.07863259086116
3047.5173,140.1771749613979
3048.5498,132.51533891696727
3049.5816,122.89288804135737
3050.6128,132.10958459320307
3051.6434,125.41518960221072
3052.6734,128.10946277699077
3053.7027,118.34216257200188
3054.7314,123.81304616060828
3055.7594,113.57186953275266
3056.7868,109.76838744024747
3057.8136,116.2023534991867
3058.8398,113.47352022798049
3059.8653,111.08163898301552
3060.8902,111.72645998594331
3061.9145,103.45773234759923
3062.9381,103.12520406155406
3063.9612,99.12862208680133
3064.9835,99.16773235108289
3066.0053,97.7422797908543
3067.0264,93.05200835089411
3068.0469,89.3466609985581
3069.0668,85.37597977068188
3070.086,80.73970581063469
3071.1046,75.63757940802608
3072.1226,66.76934004506862
3073.1399,65.33472644759934
3074.1567,51.883476673761834
3075.1727,50.215328128352496
3076.1882,44.380017697333074
3077.203,33.12728176451208
3078.2173,34.05685626989799
3079.2308,29.218476822226393
3080.2438,24.21187868966453
3081.2561,19.086796848194865
3082.2678,16.242966031681107
3083.2789,13.230120783119133
3084.2893,8.897995483075277
3085.2991,7.296324379814763
3086.3083,3.724841632622912
3087.3169,0.9832813278218566
3088.3248,7.72137751448534
3089.3321,-1.1111357681456866
3090.3388,-2.764524558044002
3091.3449,-3.7390437929361156
3092.3503,-3.7349207929482304
3093.3551,-4.802345525159154
3094.3593,-4.991470644788848
3095.3629,-2.002400831625721
3096.3658,-1.9351909006663846
3097.3681,-2.339875662923248
3098.3698,-2.8664705968517126
3099.3708,-2.7149678055492075
3100.3713,-3.185330756072034
3101.3711,-3.9774957929480763
3102.3702,-0.8413674392509591
3103.3688,-0.2768104828713547
3104.3667,-2.6336813064393425
3105.364,-1.0118335272482994
3106.3607,5.188905547884559
3107.3568,3.0687187203589446
3108.3522,5.8777887396855135
3109.347,6.316298324687764
3110.3412,6.13443013541135
3111.3348,9.03236676873901
3112.3277,9.710290760209261
3113.32,11.718384555037005
3114.3117,15.756830501334335
3115.3028,13.525810830029513
3116.2932,19.525507614482535
3117.2831,19.406102792795423
3118.2723,20.967778107815107
3119.2608,22.760715108327574
3120.2488,22.78509513344106
3121.2361,19.8410992946567
3122.2229,22.828908475624715
3123.209,24.698703361584577
3124.1944,26.400664409486765
3125.1793,31.78497182929486
3126.1635,28.151805566966033
3127.1471,32.45134525060785
3128.1301,28.1337702268099
3129.1125,30.949259517648315
3130.0942,32.29799186386151
3131.0753,34.88014569669536
3132.0558,39.99589912441589
3133.0357,43.09542990648766
3134.015,39.72891540241627
3134.9936,41.196532540753026
3135.9716,43.59845785276016
3136.949,42.88486745773454
3137.9258,44.1059370389885
3138.902,44.711841850985714
3139.8775,44.85275670713045
3140.8524,50.62885597370865
3141.8267,50.14031356847864
3142.8004,50.38730290291022
3143.7735,53.36999688707011
3144.7459,49.188567927151965
3145.7178,51.69318789564947
3146.689,52.884028173170705
3147.6596,54.71125962339183
3148.6295,54.02505258114875
3149.5989,56.22557683416476
3150.5676,58.6630016299127
3151.5357,57.737495653609564
3152.5032,60.79922700384242
3153.4701,62.99836320182332
3154.4364,58.7350711607721
3155.402,62.45951716392496
3156.367,64.22186690716734
3157.3315,67.12228546178959
3158.2952,68.51093725686331
3159.2584,67.43798605023731
3160.221,68.653594914651
3161.1829,70.55792624846391
3162.1442,71.25114176349966
3163.105,69.98340246600257
3164.065,73.15486864970558
3165.0245,74.16569990850755
3165.9834,75.76605510475866
3166.9416,74.90609235915217
3167.8993,78.48596903472067
3168.8563,77.05584174543588
3169.8127,80.51586632040981
3170.7684,82.31619781819607
3171.7236,82.80699049218957
3172.6782,84.18839777262323
3173.6321,87.36057226166008
3174.5854,84.42366571957915
3175.5381,89.32782903305375
3176.4902,88.32321224452053
3177.4417,86.15996450313787
3178.3926,89.78823407483195
3179.3428,90.35816836392932
3180.2924,94.3199138768742
3181.2415,91.62361621652903
3182.1899,94.36942004255715
3183.1377,97.70746909838572
3184.0848,96.53790618374764
3185.0314,97.96087312130115
3185.9773,98.9265107683254
3186.9227,98.18495900249076
3187.8674,101.13635671220246
3188.8115,104.93084180401613
3189.755,104.76855117312377
3190.6979,104.79962066540898
3191.6402,108.8741850790698
3192.5818,110.09237816430806
3193.5229,109.35433258258362
3194.4633,111.36017989443263
3195.4031,109.7100505668478
3196.3423,112.10407395322005
3197.2809,115.94237830983974
3198.2189,117.02509077195646
3199.1563,117.85233731539599
3200.0931,117.27424274573315
3201.0292,115.94093069001934
3201.9648,116.40252360256355
3202.8997,117.9591427782653
3203.834,122.4609083479989
3204.7677,124.25793926304713
3205.7008,121.55035325008383
3206.6333,126.18826679320328
3207.5652,126.72179516099634
3208.4964,125.90105236017112
3209.4271,128.72615113021777
3210.3571,125.54720295161587
3211.2865,126.41431801758353
3212.2154,133.07760526586662
3213.1436,132.98717237006792
3214.0712,138.04312567301406
3214.9982,132.0955701876599
3215.9246,133.24460954652898
3216.8503,135.39034606118906
3217.7755,134.58288071076194
3218.7001,137.6223131204657
3219.624,137.95874156968964
3220.5473,139.8922629615999
3221.4701,144.22297281977518
3222.3922,146.15096526887137
3223.3137,142.77633299131477
3224.2346,146.1991672080218
3225.1549,145.36955771214565
3226.0746,148.7875928348476
3226.9937,145.95335945359352
3227.9121,148.91694295797322
3228.83,151.27842727804278
3229.7473,151.73789485468888
3230.6639,153.14542661601382
3231.5799,155.65110197274092
3232.4954,152.2549988041391
3233.4102,156.6571934329662
3234.3244,151.1077606594301
3235.238,158.35677371716656
3236.151,157.85430432873366
3237.0634,165.90042263312174
3237.9752,157.145197190778
3238.8864,160.78869490314548
3239.797,160.780981100215
3240.7069,164.7221195040905
3241.6163,162.56217222906596
3242.5251,163.9011997422142
3243.4332,163.93926088498625
3244.3408,163.97641285982098
3245.2477,167.31271122976472
3246.154,165.1982099180996
3247.0598,171.6329611749805
3247.9649,170.8670155985801
3248.8694,172.3004220707416
3249.7733,170.6332277646378
3250.6766,172.2154781304373
3251.5793,176.29721691197625
3252.4814,177.52848613093596
3253.3829,174.65932604602563
3254.2838,174.78977514066926
3255.1841,173.9198701516977
3256.0838,178.94964606804382
3256.9829,179.07913613944186
3257.8814,179.85837182612926
3258.7792,177.83738279755215
3259.6765,182.51619692457285
3260.5731,182.69484029967987
3261.4692,183.97333719019952
3262.3647,184.3517100365098
3263.2595,185.82997943925514
3264.1538,186.15816415556284
3265.0474,185.48628108426027
3265.9404,187.31434526259298
3266.8329,188.8923698729437
3267.7247,189.07036622455166
3268.616,187.19834373773233
3269.5066,188.22630994209746
3270.3966,189.95427049527518
3271.286,187.5822291726306
