RamanShift,CorrectedData
30.1047,159.9647157577108
32.3739,148.80374965027139
34.6426,136.7927819431848
36.9109,124.28180954876635
39.1787,114.22082801140355
41.4461,99.10983163266575
43.7131,88.94881357191389
45.9796,79.38776599741064
48.2456,67.02668018793047
50.5112,57.06554662837017
52.7764,45.1043551333597
55.0411,33.593094946873535
57.3054,19.381754861842598
59.5692,13.670323335266856
61.8326,-0.7912113696712844
64.0955,-15.052861126492635
66.3579,-21.364637800805895
68.6199,-30.776402880137123
70.8815,-37.837804419280765
73.1426,-40.34818301676652
75.4032,-27.25650127145795
77.6634,21.088681296129636
79.9231,148.28907745792867
82.1824,446.6463997749847
84.4412,943.4123593254528
86.6995,1619.2886627210237
88.9574,2274.3270071392653
91.2148,2729.6790735648583
93.4717,2949.946520239213
95.7282,3008.3309781069506
97.9842,3024.834048613225
100.2398,2971.057303119883
102.4949,2928.0522827404275
104.7495,2901.6204988777918
107.0036,2861.4134336543852
109.2573,2803.4825401764115
111.5105,2717.3292429359417
113.7632,2654.8549383902205
116.0154,2575.960995823201
118.2672,2518.148757970286
120.5185,2445.31954180727
122.7693,2367.724639128459
125.0197,2309.0653172749635
127.2696,2234.3928199106485
129.519,2216.8083676087253
131.7679,2167.3131585984784
134.0163,2143.058368941107
136.2642,2130.045153024679
138.5117,2112.0246438066806
140.7587,2092.0979529441465
143.0052,2043.1161709738626
145.2512,1996.0303675116384
147.4967,1938.1915917421209
149.7417,1901.750872889654
151.9863,1872.009220796665
154.2304,1848.9676262880732
156.4739,1829.777061468706
158.717,1811.4384799537145
160.9596,1818.302817060479
163.2017,1808.7709899919964
165.4433,1801.8438977682345
167.6844,1771.1224213214518
169.925,1751.907423565468
172.1651,1700.8997497028788
174.4047,1656.450227417205
176.6439,1627.4596673829715
178.8825,1578.9288637101995
181.1206,1564.658594234315
183.3582,1546.849621001456
185.5954,1540.1526904111724
187.832,1508.9185333945206
190.0681,1505.547865481029
192.3037,1493.2913871110413
194.5388,1472.7997836694221
196.7734,1469.7237256081235
199.0075,1457.3138686510983
201.2411,1469.1708538250632
203.4742,1470.495307583597
205.7068,1474.2878416885692
207.9389,1458.7990531968978
210.1704,1475.2795244226222
212.4015,1454.2298230917909
214.632,1432.800502177658
216.862,1440.8921001111794
219.0915,1440.4551409953065
221.3205,1417.4401345240708
223.549,1424.0475759869523
225.777,1403.6279464990307
228.0044,1389.73171293491
230.2314,1366.6593281329156
232.4578,1346.8112310340557
234.6837,1328.587846912747
236.909,1300.1895875752923
239.1339,1275.4668515421185
241.3582,1265.5700243317556
243.582,1250.099478708067
245.8053,1251.5055747792153
248.0281,1229.6886601523686
250.2503,1226.5490699196414
252.472,1208.2371268762608
254.6932,1214.6531415519635
256.9139,1200.6474123941157
259.134,1198.970225703552
261.3536,1196.9718557746337
263.5727,1217.552564912021
265.7912,1222.7126034506541
268.0092,1250.8022095499505
270.2267,1265.5216091422003
272.4436,1291.1210156516722
274.6601,1288.1506298474205
276.8759,1290.7606395872886
279.0913,1302.7512198476156
281.3061,1288.8725326971328
283.5204,1303.5247271770622
285.7341,1294.2579394398986
287.9473,1301.5222926028907
290.16,1281.6678968407098
292.3721,1246.5948493128021
294.5837,1230.5032343619382
296.7947,1194.2931238649385
299.0052,1178.714577393592
301.2152,1158.267642576758
303.4246,1133.9023552561498
305.6334,1115.968739690804
307.8418,1097.016808800735
310.0495,1053.1965643462706
312.2568,1030.5579971175705
314.4635,989.0510873728292
316.6696,946.7258050646615
318.8752,894.9821102551723
321.0802,886.1199535392086
323.2847,867.2392765617963
325.4887,858.6900121067629
327.692,866.0720842855437
329.8949,893.1854086226747
332.0972,876.2298919819716
334.2989,895.1054322953969
336.5001,865.2119187326152
338.7007,855.1492315122364
340.9008,818.1672422007534
343.1003,777.8158138131673
345.2992,748.0448011828066
347.4976,707.4540513648433
349.6955,680.1434039340011
351.8927,651.8626913904636
354.0895,637.4617394329812
356.2856,628.6403672416782
358.4812,612.4983876220622
360.6763,602.0356070932373
362.8707,587.551826049325
365.0646,575.3468388640911
367.258,581.7704340357845
369.4508,581.6223943091852
371.643,593.8024966113692
373.8346,601.210512053189
376.0257,612.4962058074736
378.2162,618.4093370349485
380.4062,608.349658771376
382.5956,595.4169178684267
384.7844,561.3608550942749
386.9726,529.4812052629263
389.1603,505.9276975747796
391.3474,479.2000559354217
393.5339,479.19799919116326
395.7199,474.0212413963152
397.9052,477.86949181320847
400.09,490.2424549639634
402.2743,524.2898305920048
404.4579,533.8113135383342
406.641,556.2565934010556
408.8235,575.6253544401604
411.0054,617.067275353075
413.1868,676.782029080973
415.3675,736.6692823943561
417.5477,745.6786952959062
419.7273,680.6099204216127
421.9064,573.7126029506796
424.0848,524.3863812562113
426.2627,473.03088797418695
428.4399,437.3957504967225
430.6166,386.5305914856258
432.7928,348.9850292287483
434.9683,322.25867814863614
437.1432,287.2011491779856
439.3176,270.8120500269067
441.4914,255.79098553349877
443.6645,249.83755782774165
445.8371,250.10136648170487
448.0091,245.18200856908356
450.1806,244.97907866255923
452.3514,219.3421688829951
454.5216,210.82086890146343
456.6913,206.41476619561536
458.8603,202.57344613489454
461.0288,205.59649202459718
463.1967,199.73348514428562
465.3639,208.2340047175585
467.5306,179.09762797067992
469.6967,181.07393004757478
471.8622,154.06248430119172
474.0271,155.51286227374112
476.1914,166.57463396680782
478.3551,150.14736782684895
480.5182,164.68063063457498
482.6807,149.57398766922392
484.8426,160.7770025632285
487.0039,186.18923745328152
489.1647,215.4602528683065
491.3248,239.08960747533615
493.4843,243.6768577868013
495.6432,241.57155792423714
497.8015,216.9232595724111
499.9592,194.93151200037664
502.1163,162.34586230795458
504.2728,124.86585564565166
506.4287,113.59103554051626
508.5839,101.47094427093975
510.7386,88.95512297940377
512.8927,92.59311179368046
515.0461,94.98444995199202
517.199,97.22867576662998
519.3512,130.52532660004113
521.5029,165.9239388423864
523.6539,206.0240475785738
525.8043,208.72518623427322
527.9541,177.8768861749145
530.1033,122.3286766786764
532.2519,99.08008524496972
534.3999,78.13063814991938
536.5472,77.87986067884935
538.694,77.52727733577854
540.8401,86.67241184592649
542.9856,92.0647871592414
545.1305,93.75392535894844
547.2748,106.78934760762536
549.4185,103.0205741303098
551.5615,112.64712408414744
553.704,120.61851559607862
555.8458,127.63426566657222
557.987,144.64389008991384
560.1276,152.4969033840457
562.2675,188.19281862047228
564.4069,224.88114734572878
566.5456,245.6613992244229
568.6837,247.6330816723514
570.8212,210.49569964869784
572.958,156.99875563631485
575.0942,135.59175001309836
577.2299,114.32418158695782
579.3648,80.49554780988478
581.4992,69.30534499062969
583.6329,74.60306863298865
585.766,86.28821354770457
587.8985,104.56027379949091
590.0304,127.61874259017941
592.1616,159.91311207599892
594.2922,156.69287313699192
596.4222,129.50751505407038
598.5515,92.40652554121812
600.6802,55.43939101734372
602.8083,35.555596977292
604.9358,25.754628361513596
607.0626,32.48596975490409
609.1888,27.598848453620803
611.3144,43.69249142896183
613.4393,68.51584993972847
615.5636,103.66787480779794
617.6873,127.94751616988901
619.8103,133.30372312604277
621.9327,154.53544349682534
624.0544,130.54162376976592
626.1756,99.92120888703994
628.2961,60.07314248540729
630.4159,56.59636720241633
632.5351,43.639825074883674
634.6537,43.75245757366338
636.7716,35.28320573321116
638.8889,38.08101015045895
641.0056,56.044811069508114
643.1216,53.62354835364931
645.237,47.966161305725564
647.3518,45.87158869234554
649.4659,35.78876880045755
651.5793,36.21663945829414
653.6922,18.054138136201345
655.8043,13.000201942359126
657.9159,-4.796232195593802
660.0268,-3.8862274800192154
662.137,-1.070799198920895
664.2466,4.699076183110037
666.3556,-4.977567101233944
668.4639,-10.151741763032305
670.5716,4.5755892125303035
672.6786,-7.896435743830807
674.785,-9.468678247155594
676.8907,-18.091921027091985
678.9958,-7.9668522211920845
681.1002,-3.1939792287175806
683.204,-9.723729860077128
685.3072,-9.006500017827875
687.4097,-5.242588464466735
689.5115,9.367796012443932
691.6127,-9.925503001199559
693.7132,-8.122642013179984
695.8131,-5.823678375505324
697.9123,9.721411705007768
700.0109,-1.6872897999101042
702.1089,6.100298984257961
704.2061,30.034259948902445
706.3028,40.914674924411884
708.3987,48.04162544083215
710.4941,48.71519261906451
712.5887,63.68545709959358
714.6827,66.5524990357535
716.7761,64.7163979440245
718.8688,60.92723267536235
720.9608,66.83508143355948
723.0522,83.44002181313658
725.1429,94.74213074026306
727.233,109.69148430671021
729.3224,152.63815765682807
731.4112,183.6822248380522
733.4993,196.02375837143586
735.5867,177.61282894121132
737.6735,133.14950527137307
739.7596,108.33385430978797
741.845,91.36594167282828
743.9298,99.3458318935277
746.014,105.7735885912623
748.0974,121.2992743919499
750.1802,116.57295086377303
752.2624,109.94467836192234
754.3439,91.364516075859
756.4247,87.08252209559828
758.5048,76.94875359751086
760.5843,100.36326688714303
762.6631,110.62611750055385
764.7413,141.88735997016988
766.8188,193.69704772215778
768.8956,235.50523276381045
770.9718,257.6619651654514
773.0473,266.41729264235164
775.1221,245.32126033316376
777.1962,234.12391071236698
779.2697,270.9252838012285
781.3426,338.62541727977714
783.4147,367.4743461187895
785.4862,364.3221019027885
787.557,327.71871254155394
789.6271,236.96420230164495
791.6966,166.5585921724337
793.7654,105.201900773651
795.8335,95.7941450594426
797.901,64.03534093193525
799.9678,63.27550333531576
802.0339,52.11464657341685
804.0993,54.6027843173174
806.1641,62.53992971695061
808.2282,48.076095376222156
810.2916,28.111293273638466
812.3544,33.94553490694602
814.4164,26.978831492778227
816.4778,40.41119390831318
818.5385,34.49263276094166
820.5986,71.62315825394307
822.658,97.90278024567078
824.7166,142.68150787824766
826.7747,183.2593493147681
828.832,230.036311291512
830.8886,272.26239871216694
832.9446,292.837614180057
834.9999,277.21195757588237
837.0545,225.28542585196783
839.1085,191.20801318851989
841.1618,146.32971151289053
843.2143,114.95051084035299
845.2662,100.5203997228839
847.3175,85.73936556295587
849.368,79.20739475783682
851.4179,80.07447284740192
853.467,75.29058457945257
855.5155,85.60571390104587
857.5633,78.96984400633403
859.6105,86.08295723341189
861.6569,77.89503513067586
863.7027,61.606058385693814
865.7478,59.5160069070829
867.7922,50.924859987400396
869.8359,46.4825963240437
871.8789,47.48919410516203
873.9212,47.54463105407933
875.9629,62.24888441922849
878.0039,67.85193097359615
880.0441,77.10374686768091
882.0837,93.10430757346296
884.1226,107.00358779188502
886.1609,131.4515612928484
888.1984,156.69820077621864
890.2352,183.29347762734483
892.2714,189.18736166459473
894.3069,184.22982087340154
896.3416,150.47082134732534
898.3757,124.01032733762793
900.4091,115.39830159086478
902.4418,123.83470561348656
904.4739,121.96949975796213
906.5052,139.65264313841362
908.5358,129.43409364926856
910.5658,123.71380778842934
912.595,104.14174075945755
914.6236,96.01784652877711
916.6515,65.44207802139533
918.6786,66.814387202141
920.7051,53.03472538142239
922.7309,54.803043201504465
924.756,42.019290774305205
926.7804,55.283417663712044
928.8041,56.79537301342032
930.8272,86.65510541429069
932.8495,80.66256288923046
934.8711,95.36769259459595
936.892,93.87044088011885
938.9123,97.7707531418539
940.9318,126.7185738371519
942.9506,127.96384644565626
944.9688,120.20651317982504
946.9862,110.49651497247817
949.003,89.98379155437078
951.019,76.91828155129338
953.0344,65.44992268919952
955.0491,62.02865192486024
957.063,59.75440556054798
959.0763,64.72711927824889
961.0888,52.196728162406544
963.1007,64.81316665019312
965.1119,52.22636865681409
967.1223,53.436267449344086
969.1321,57.39279577259367
971.1412,47.59588583701145
973.1495,51.99546927911808
975.1572,49.59147725947628
977.1641,56.0338404186939
979.1704,61.722488901464885
981.1759,49.45735229214483
983.1808,49.888359557864646
985.1849,51.51543917118215
987.1884,49.73851910577173
989.1911,45.80752682015361
991.1932,55.67238927546293
993.1945,56.133032974760454
995.1951,54.58938386438365
997.1951,60.641367329340255
999.1943,59.93890820874424
1001.1928,53.131930735296464
1003.1906,56.970358542308986
1005.1877,82.75411473177462
1007.1841,85.08312183598355
1009.1798,99.85730155968452
1011.1748,94.876574756796
1013.1691,73.54086128266306
1015.1627,57.350080043866114
1017.1556,45.554149211577396
1019.1477,33.05298638346835
1021.1392,24.946508701669245
1023.1299,18.734632977780734
1025.12,18.517275773939105
1027.1093,22.79435346493483
1029.0979,41.06578224038583
1031.0859,49.63147806196696
1033.0731,56.49135648069546
1035.0596,58.44533255127442
1037.0454,48.59332076349358
1039.0304,38.93523502268931
1041.0148,34.42098874826536
1042.9985,22.800494970273462
1044.9814,17.673666374555637
1046.9636,18.590415418949647
1048.9452,16.30065438455688
1050.926,29.754295366575548
1052.9061,39.8012502971975
1054.8855,43.54143081107202
1056.8642,39.274748144836735
1058.8421,37.70111309971492
1060.8194,41.22043608418301
1062.7959,35.2826271297065
1064.7717,45.83759585554674
1066.7469,43.23525152813852
1068.7213,44.17550295554145
1070.695,52.30825851346265
1072.6679,57.28342613585414
1074.6402,73.10091323358597
1076.6117,77.36062664469432
1078.5826,69.46247247620636
1080.5527,53.40635606154365
1082.5221,29.8421820395032
1084.4908,17.3198545148191
1086.4587,12.639277293803502
1088.426,7.8503540095701965
1090.3925,6.052988168840329
1092.3584,6.297083199831604
1094.3235,16.832542470231942
1096.2879,19.509269284759284
1098.2515,36.77716677980675
1100.2145,51.7861378966752
1102.1767,76.18608520889393
1104.1382,97.97691077213085
1106.099,128.65851588019427
1108.0591,159.13080084712362
1110.0185,176.24366470037387
1111.9771,206.3970048760923
1113.9351,228.54071704799014
1115.8923,259.4746948258088
1117.8488,279.29882953388267
1119.8045,259.1130099017988
1121.7596,198.51712186615657
1123.7139,144.9110487724255
1125.6675,111.74467198090383
1127.6204,112.51787140277997
1129.5726,116.73052583179526
1131.524,118.43251293651338
1133.4748,96.67370921819258
1135.4248,75.35398999376685
1137.3741,46.67322961343302
1139.3226,31.83130167384877
1141.2705,24.278079304939865
1143.2176,30.563435318319534
1145.164,42.787242282820785
1147.1097,40.04937246164229
1149.0546,29.999697690110906
1150.9989,17.3380894030596
1152.9424,3.7144187353246707
1154.8852,-4.6214433516377085
1156.8272,-11.26962593351584
1158.7686,-8.230211917778774
1160.7092,-5.75317162833278
1162.6491,-2.488393169267738
1164.5883,15.114292829510987
1166.5267,14.205080597145752
1168.4644,33.63416421163549
1170.4014,43.95173760892919
1172.3377,63.5579943886338
1174.2732,105.0531277108397
1176.2081,144.93733010005712
1178.1421,211.26079303026552
1180.0755,271.32370652607153
1182.0082,318.1762584994734
1183.9401,301.4686341492335
1185.8713,248.4510154923512
1187.8017,179.32358153113978
1189.7315,123.6865087834027
1191.6605,77.23997197370784
1193.5888,62.484144589758216
1195.5163,44.56919934685743
1197.4432,23.44530833546787
1199.3693,14.41264320035998
1201.2947,9.421375351851339
1203.2193,7.571676056133924
1205.1432,-1.9362835148142494
1207.0664,1.7976677352683055
1208.9889,-4.826279753884478
1210.9106,7.942064439484739
1212.8316,-2.1970610483317614
1214.7519,5.0565823395373855
1216.6715,19.403255108603275
1218.5903,24.94321771381101
1220.5084,32.02673041607363
1222.4257,38.65405322687184
1224.3424,45.72544583741944
1226.2583,50.19116755238997
1228.1735,74.60147721920305
1230.0879,91.65663318336635
1232.0016,112.30689304437328
1233.9146,135.10251348515123
1235.8269,151.84375006555877
1237.7384,152.18085699442963
1239.6492,152.66408696216047
1241.5592,160.94369113733921
1243.4686,190.3199191619134
1245.3772,225.24301906839355
1247.285,271.3132369860916
1249.1922,312.6808167918899
1251.0986,366.4459996495383
1253.0042,386.9590235959789
1254.9092,438.7701230036945
1256.8134,492.62952837557737
1258.7169,535.7374658268193
1260.6196,544.7941565463179
1262.5216,559.2998163655957
1264.4229,545.3046556682343
1266.3234,530.708879244817
1268.2232,503.96268643288124
1270.1223,478.6662712628761
1272.0207,454.21982272562377
1273.9183,451.17352502528377
1275.8151,453.2275578238184
1277.7113,470.08209627145425
1279.6067,518.0873109861434
1281.5014,607.0933678850165
1283.3953,689.1004277043318
1285.2885,785.4086451094131
1287.181,872.1681678745812
1289.0727,904.5791359200697
1290.9637,869.9416804444314
1292.854,824.4059236004281
1294.7435,749.2719788414048
1296.6323,688.3399513766475
1298.5204,643.0599389227232
1300.4077,617.4320323127993
1302.2943,587.4563159494439
1304.1802,562.7328680609048
1306.0653,550.0617610008677
1307.9497,529.9930614956892
1309.8333,520.9768307711089
1311.7162,493.6131247529361
1313.5984,481.45199415721197
1315.4798,480.3934847638468
1317.3605,468.6376375382308
1319.2405,470.4844886418196
1321.1197,461.88406954969287
1322.9982,423.4864070320851
1324.876,386.14152324039037
1326.753,333.8494360911391
1328.6293,294.9101596394465
1330.5048,256.4237046019336
1332.3796,214.59007874612024
1334.2537,183.6092872752896
1336.127,161.03133324682358
1337.9996,158.0062178820121
1339.8714,134.03394079183198
1341.7426,130.41450000719806
1343.6129,131.7978922186864
1345.4826,117.18411281272819
1347.3515,115.07315585777604
1349.2196,107.91501425044174
1351.087,107.90967973660548
1352.9537,98.5071429829975
1354.8197,99.40739357725164
1356.6849,102.86042012193036
1358.5493,118.76621022552251
1360.4131,137.27475046791324
1362.276,156.98602624132565
1364.1383,174.8500215652353
1365.9998,177.91671888925828
1367.8606,184.08609891451
1369.7206,168.25814056293945
1371.5799,169.8828209156349
1373.4384,167.71011537110343
1375.2962,162.5399976290243
1377.1533,129.0224397119756
1379.0096,104.60741201713637
1380.8652,80.69488365146049
1382.7201,71.13482267582867
1384.5742,55.927196344172955
1386.4275,51.12197119907728
1388.2802,41.66911322385363
1390.132,36.66858789059461
1391.9832,32.67036025470185
1393.8336,24.174395004891153
1395.6832,25.28065650317518
1397.5322,19.489108869822815
1399.3803,17.84971597229662
1401.2278,6.012441483168402
1403.0745,11.677248896512992
1404.9204,4.944101646280785
1406.7656,0.9129630496501022
1408.6101,0.3837963743582691
1410.4538,-4.243435120986646
1412.2968,3.4312279880971346
1414.139,-0.6422124819915211
1415.9805,9.286245250833758
1417.8213,8.46660938436213
1419.6613,20.49888802352058
1421.5006,44.2830891885701
1423.3391,64.51922069478292
1425.1769,87.20728991460066
1427.0139,126.24730357527272
1428.8502,170.08926753197608
1430.6858,210.0331863774146
1432.5206,213.5790630034
1434.3547,222.67689820141192
1436.188,203.87669062714002
1438.0206,201.12843670950508
1439.8524,194.08213083866133
1441.6835,192.53776539347848
1443.5139,196.14533081200557
1445.3435,197.954815606914
1447.1724,206.1162063294218
1449.0005,203.37948755119936
1450.8279,202.04464178275504
1452.6545,206.56164950080256
1454.4804,201.8804891616095
1456.3056,192.65113715582692
1458.13,188.92356785530154
1459.9536,180.997753705369
1461.7766,154.62366526212924
1463.5987,140.4512712717049
1465.4202,118.43053893398263
1467.2409,102.86143404433642
1469.0608,88.19392121383521
1470.88,76.17796402493366
1472.6984,60.76352517814735
1474.5161,48.250566612212765
1476.3331,46.43904965823123
1478.1493,36.77893516479844
1479.9648,39.870183516119994
1481.7795,36.812754728612106
1483.5935,41.6066084199893
1485.4067,43.20170383983884
1487.2192,44.64799982168222
1489.031,44.74545476702383
1490.842,49.09402663088849
1492.6522,46.393672920846655
1494.4618,41.19435065352866
1496.2705,43.296016381628476
1498.0785,40.94862624589638
1499.8858,32.60213595412284
1501.6924,36.406500804612335
1503.4981,31.011675769648093
1505.3032,31.91761545744862
1507.1075,30.424274166115936
1508.911,27.43160587457595
1510.7138,24.539564257512268
1512.5159,23.548102715292487
1514.3172,20.457174402888995
1516.1178,20.866732239793237
1517.9176,13.826728940925193
1519.7166,19.6371170125376
1521.515,10.597848822616129
1523.3126,7.958876542775386
1525.1094,10.470152238651735
1526.9055,11.681627896292923
1528.7008,11.943255397045448
1530.4954,4.204986505439592
1532.2893,8.266772866573092
1534.0824,7.328566083494252
1535.8747,6.290317676583584
1537.6663,6.50197909293621
1539.4572,5.1635017167442925
1541.2473,6.274836867180397
1543.0367,10.035935811782167
1544.8253,14.446749755339226
1546.6132,13.65722980228179
1548.4003,15.967326912572958
1550.1867,20.67699190960377
1551.9723,21.68617545709202
1553.7572,29.244828011985646
1555.5414,48.40289981437104
1557.3247,54.310340811886306
1559.1074,77.81710046814106
1560.8893,100.67312770364146
1562.6705,109.77837066072311
1564.4509,120.8827764749903
1566.2305,134.73629118426385
1568.0094,134.6888596175367
1569.7876,134.29042525643933
1571.565,133.0409302357133
1573.3417,141.89031534719635
1575.1176,139.088520052317
1576.8928,147.78548239360083
1578.6672,157.73113902268835
1580.4409,165.82542511336555
1582.2138,191.46827426210717
1583.986,203.10961840713372
1585.7575,225.4993875719831
1587.5282,239.3875097490971
1589.2981,253.62391067592364
1591.0673,262.90851369603575
1592.8358,255.14123961676756
1594.6035,261.972006616368
1596.3704,262.05073032167405
1598.1366,257.6273237398024
1599.9021,248.55169725736255
1601.6668,236.423758684691
1603.4308,220.39341334660736
1605.194,231.21056420369393
1606.9564,239.82511201259922
1608.7182,275.2369552178663
1610.4791,318.69598986578734
1612.2394,356.3521092502849
1613.9988,396.00520347832185
1615.7576,436.6051590933401
1617.5156,444.6518586787296
1619.2728,432.8451804518287
1621.0293,387.0849981834576
1622.785,341.57118131598486
1624.54,282.25359542092906
1626.2942,233.532102654097
1628.0477,185.7065623487601
1629.8005,156.17683150286842
1631.5525,125.04276525730677
1633.3037,106.30421719119147
1635.0542,85.91103963321132
1636.804,72.71308384901295
1638.553,58.660200245132756
1640.3013,54.75223850097643
1642.0488,48.439047709347705
1643.7955,44.02047641552784
1645.5416,32.296372680407956
1647.2868,29.966584124674426
1649.0313,27.980958046050233
1650.7751,29.78934144259253
1652.5181,23.89158103254917
1654.2604,22.33752323627465
1656.0019,28.12701423520764
1657.7427,35.35989998741181
1659.4828,53.88602616968052
1661.222,59.1052381052084
1662.9606,80.01738057832992
1664.6984,89.82229778232724
1666.4354,99.71983311030866
1668.1717,86.05982905715985
1669.9072,71.74212712056831
1671.642,54.366567937623415
1673.3761,34.58299142799319
1675.1094,22.04123696768005
1676.8419,20.141143586856685
1678.5737,13.682550095283545
1680.3048,6.565295101309744
1682.0351,2.7892170764590105
1683.7646,5.954154426602315
1685.4934,0.75994552971855
1687.2215,-2.6935712957549356
1688.9488,1.8434422610200158
1690.6754,0.17085141965867479
1692.4012,3.1885213813418716
1694.1263,0.846317345542019
1695.8506,4.444104479846402
1697.5742,2.2317479433792755
1699.297,2.059112850823908
1701.0191,4.276064294546359
1702.7404,1.382467346321448
1704.461,-3.821812964836397
1706.1808,-2.8869116237373476
1707.8999,-2.862925435280175
1709.6182,-0.34992236411670774
1711.3358,1.4520582257263186
1713.0527,-2.6070195340535918
1714.7688,-0.9271915262794721
1716.4841,-0.708467589649274
1718.1987,-0.950848300217757
1719.9126,-1.054327156448437
1721.6257,2.3811118421695596
1723.338,0.7554952288752474
1725.0496,-1.0311504869034138
1726.7605,3.5212011967066132
1728.4706,4.562587082771728
1730.18,-3.5069560608538097
1731.8886,3.5626084880585154
1733.5964,9.571352486228335
1735.3036,2.0693476547492935
1737.0099,9.206665619001456
1738.7156,10.383377983671608
1740.4204,11.249556261379865
1742.1246,10.45527186091266
1743.8279,7.900596078560994
1745.5306,11.285600106063129
1747.2325,7.310355056151479
1748.9336,4.5749319287025685
1750.634,9.87940165048937
1752.3336,13.023835102535713
1754.0325,12.408303067071472
1755.7307,12.182876196088188
1757.4281,11.297625017494482
1759.1247,14.402619937370332
1760.8206,10.497931248819299
1762.5158,14.283629100919029
1764.2102,14.209783537767748
1765.9039,10.926464460627841
1767.5968,18.18374162866371
1769.289,22.331684691775394
1770.9804,14.120363118025523
1772.6711,22.8498461521599
1774.361,21.920202897720742
1776.0502,17.431502229751942
1777.7386,16.48381280409535
1779.4263,12.827203102277906
1781.1132,17.36174144098851
1782.7994,18.73749600864417
1784.4849,17.954534820044415
1786.1696,22.61292570261412
1787.8535,19.662736304232652
1789.5367,18.6040340466503
1791.2192,20.336886154989926
1792.9009,18.611359668334202
1794.5818,24.927521422397035
1796.2621,22.88543806677869
1797.9415,23.535176001804345
1799.6202,21.276801398944926
1801.2982,19.060380194319578
1802.9755,23.53597811127959
1804.6519,26.403660682572564
1806.3277,22.513493205586315
1808.0027,21.61554071367216
1809.6769,23.55986801504642
1811.3504,21.496539701770175
1813.0231,21.275620130305825
1814.6951,25.197173442150415
1816.3664,26.06126356604497
1818.0369,23.567954178758768
1819.7067,23.46730869644844
1821.3757,20.20939029959105
1823.044,24.64426193399072
1824.7115,24.321986343357608
1826.3783,23.442626024959395
1828.0443,24.80624323284404
1829.7096,26.96289998663319
1831.3741,28.312658057886196
1833.0379,25.755578948533397
1834.701,28.69172387737858
1836.3633,23.62115380566989
1838.0248,24.543929407738176
1839.6856,28.960111121702823
1841.3457,27.669759140244025
1843.005,25.322933366440907
1844.6636,31.019693426674962
1846.3214,26.660098694098508
1847.9785,25.794208231666843
1849.6349,31.672080835734363
1851.2904,24.543775044713442
1852.9453,26.009349080295664
1854.5994,27.718860918735032
1856.2528,26.972368276192014
1857.9054,27.269928591638617
1859.5572,25.711599034323157
1861.2083,28.597436500794743
1862.8587,30.527497630486465
1864.5084,26.751838776857156
1866.1572,30.720515988090654
1867.8054,29.833585044852455
1869.4528,32.34110142060305
1871.0994,27.943120290466993
1872.7453,27.989696506157983
1874.3905,29.080884639958484
1876.0349,30.166738984254067
1877.6786,32.297313540621474
1879.3215,31.372662008970167
1880.9637,30.442837766236522
1882.6051,28.95789387563029
1884.2458,25.567883095932913
1885.8858,33.822857896346974
1887.525,32.87287049039627
1889.1634,25.317972753376125
1890.8011,28.858216231853106
1892.4381,30.49365221921414
1894.0743,28.67433172026402
1895.7098,31.050305434871007
1897.3446,27.72162377616013
1898.9786,29.53833684675338
1900.6118,23.30049447205657
1902.2443,32.65814618209218
1903.8761,29.761341273877818
1905.5071,28.56012871784965
1907.1374,28.004557186830453
1908.7669,26.794675068041755
1910.3957,25.480530468659566
1912.0237,24.912171227913177
1913.651,23.689644930226606
1915.2776,31.712998910902215
1916.9034,29.432280268345977
1918.5285,31.347535783833877
1920.1528,26.408811944319154
1921.7764,27.36615492327971
1923.3992,29.81961063010533
1925.0213,28.119224700524313
1926.6427,26.71504247206886
1928.2633,27.757109001079
1929.8832,29.74546907674437
1931.5023,26.880167210683524
1933.1207,27.561247617060317
1934.7383,24.538754241236987
1936.3552,29.362730752963316
1937.9714,26.78322057660162
1939.5868,28.35026684288688
1941.2015,28.613912414721952
1942.8154,24.824199871507062
1944.4286,23.881171506503335
1946.041,22.63486936472991
1947.6528,27.035335252394304
1949.2637,24.132610749355322
1950.8739,24.32673716511846
1952.4834,25.46775556786315
1954.0921,28.65570678250144
1955.7001,27.140631379267873
1957.3074,27.122569641840002
1958.9139,31.851561582489026
1960.5197,22.37764694226051
1962.1247,23.15086514368447
1963.729,21.871255385514473
1965.3325,25.788856634995568
1966.9353,24.65370764066023
1968.5374,24.36584689315245
1970.1387,25.875312636579153
1971.7393,24.382142871388893
1973.3392,23.486375339277103
1974.9383,25.53804753811788
1976.5366,17.88719673092156
1978.1342,25.883859925318077
1979.7311,27.878073950065456
1981.3273,22.369875375083126
1982.9227,23.90930049150994
1984.5173,23.296385366785998
1986.1112,23.58116582925844
1987.7044,24.313677474310623
1989.2968,27.843955661514244
1990.8885,21.972035507304355
1992.4795,22.547951849676423
1994.0697,17.32173930690557
1995.6592,24.09343227178738
1997.2479,22.713064963900095
1998.8359,23.080671361887667
2000.4232,22.99628521726339
2002.0097,22.009940050733945
2003.5955,25.72166915304311
2005.1805,20.281505594835366
2006.7648,20.28948218953849
2008.3484,23.995631547765228
2009.9312,20.099986077233595
2011.5133,24.302577945705337
2013.0946,20.953439119942317
2014.6752,20.002601323680693
2016.2551,23.90009607112222
2017.8342,22.745954676442707
2019.4126,23.390208214817008
2020.9902,19.3828875339605
2022.5672,21.574023247686497
2024.1433,23.913645775979504
2025.7188,25.40178532308383
2027.2935,19.638471854107337
2028.8674,19.423735080140133
2030.4406,20.757604515887635
2032.0131,18.69010948181794
2033.5849,22.671279090823134
2035.1559,23.401142268894162
2036.7261,24.42972771530924
2038.2957,22.907063895335256
2039.8645,21.883179029941772
2041.4325,21.908101111027804
2042.9998,22.33185791166062
2044.5664,18.654476985826477
2046.1323,20.675985664193107
2047.6974,19.946411090883473
2049.2617,21.365780203260798
2050.8254,24.684119739224187
2052.3883,23.351456223014992
2053.9504,23.61781593203338
2055.5118,22.683224910164995
2057.0725,20.347708965117363
2058.6325,19.961293677765795
2060.1917,22.574004425508505
2061.7502,19.285866386130806
2063.3079,21.446904511678028
2064.8649,23.80714356133676
2066.4212,17.716608079824653
2067.9767,22.07532237378797
2069.5315,22.233310572706912
2071.0856,22.640596585308515
2072.6389,19.247204097986796
2074.1915,22.50315657072973
2075.7433,21.858477271053403
2077.2945,20.813189241442245
2078.8448,22.967315305796063
2080.3945,18.6208780798828
2081.9434,18.973899949797342
2083.4916,21.876403115425802
2085.039,17.27840958691533
2086.5857,22.87994115564915
2088.1317,22.43101944022638
2089.677,23.831665830446767
2091.2215,18.881901491799894
2092.7652,20.931747351458768
2094.3083,21.48122414777741
2095.8506,22.93035240979242
2097.3921,23.72915245172821
2098.933,18.12764435850569
2100.4731,22.27584797775424
2102.0124,25.923782975826853
2103.5511,17.3214687963181
2105.089,21.918924623584715
2106.6261,26.916169468768814
2108.1626,23.86322212382332
2109.6983,20.660101111539547
2111.2332,21.356824716076588
2112.7675,22.903411014992614
2114.301,20.549877872277563
2115.8337,22.19624292288738
2117.3657,21.292523596279125
2118.897,20.18873709994753
2120.4276,20.784900428462166
2121.9575,17.581030374505247
2123.4866,20.127143522910075
2125.0149,20.173256282699683
2126.5426,21.519384861625667
2128.0695,19.21554526570705
2129.5956,23.761753285769075
2131.1211,22.158024520481547
2132.6458,19.65437433089673
2134.1698,20.250817856486762
2135.693,17.997370040180087
2137.2155,20.394045622396987
2138.7373,17.8408591635841
2140.2584,19.737825020247612
2141.7787,22.734957370485205
2143.2983,21.082270195016278
2144.8171,20.82977724721073
2146.3353,20.177492069615752
2147.8527,17.575427996480855
2149.3693,22.323598160280696
2150.8853,19.922015517735645
2152.4005,17.62069280233014
2153.9149,17.169642548328483
2155.4287,16.918877113788113
2156.9417,18.568408685070082
2158.454,18.818249279346674
2159.9655,16.868410728106127
2161.4764,18.66890467465423
2162.9865,18.969742593612708
2164.4958,20.120935772914223
2166.0045,19.97249531079406
2167.5124,18.324432104278117
2169.0195,18.426756850667402
2170.526,19.779480064018657
2172.0317,19.082612074121087
2173.5367,19.286163012969126
2175.0409,20.74014282173107
2176.5445,19.594561248713703
2178.0473,21.549427834822325
2179.5494,17.10475192501673
2181.0507,17.56054264876245
2182.5513,16.31680896447756
2184.0512,18.82355965497473
2185.5504,17.430803339898617
2187.0488,18.338548450658266
2188.5465,19.896803244354757
2190.0435,14.40557579470368
2191.5397,16.564873976452617
2193.0353,14.174705520293415
2194.5301,20.485077991269208
2196.0241,20.99599881267612
2197.5175,14.757475202959583
2199.0101,15.419514170605112
2200.502,19.632122576523514
2201.9931,16.445307127430468
2203.4835,14.509074333720434
2204.9733,13.77343054133489
2206.4622,22.938381951124555
2207.9505,13.803934626205944
2209.438,14.970094400311837
2210.9248,17.78686696913566
2212.4109,15.304257878669944
2213.8962,14.622272497038523
2215.3809,15.740916039322727
2216.8648,13.910193574381182
2218.3479,12.5801100136634
2219.8304,19.250670129516962
2221.3121,18.271878568488418
2222.7931,15.19373978461762
2224.2733,17.466258049225686
2225.7529,9.13943748169632
2227.2317,13.913282026750721
2228.7098,10.787795537715667
2230.1872,13.062981728785203
2231.6638,13.938844206275448
2233.1397,12.665386445872727
2234.6149,8.14261178387494
2236.0894,12.870523429926124
2237.5632,10.69912451224424
2239.0362,10.128418030342004
2240.5085,12.508406876740935
2241.9801,11.939093842678389
2243.4509,12.620481594307734
2244.921,6.952572678391434
2246.3904,17.93536951548718
2247.8591,11.818874456626972
2249.3271,13.303089673489126
2250.7943,11.838017219563255
2252.2608,12.173659015308132
2253.7266,13.860016862802368
2255.1917,12.647092442388029
2256.656,9.734887295807027
2258.1197,12.923402838330432
2259.5826,8.562640387880492
2261.0447,13.402601133145467
2262.5062,13.293286177187227
2263.9669,13.33469648904169
2265.4269,13.276832904811968
2266.8862,7.869696127254258
2268.3448,8.413286726356489
2269.8026,8.407605193409594
2271.2598,12.402651935571754
2272.7162,7.998427275925081
2274.1719,10.894931413525242
2275.6268,8.192164467443689
2277.0811,6.890126447802615
2278.5346,10.288817282802626
2279.9874,7.588236831743075
2281.4395,7.0883848510353005
2282.8908,8.589261021208202
2284.3414,9.990864951906858
2285.7914,8.293196166883774
2287.2406,10.596254089982835
2288.689,9.75003806211609
2290.1368,11.754547318232994
2291.5838,14.459780995782737
2293.0302,8.565738114669017
2294.4758,7.272417550197773
2295.9206,10.1298180920176
2297.3648,10.087938457052928
2298.8082,8.596777260930097
2300.251,11.106333018396029
2301.693,5.616604158229947
2303.1343,7.127588998147814
2304.5748,9.389285799699564
2306.0147,9.001692753159332
2307.4538,5.114807954908386
2308.8922,6.9786294113111325
2310.3299,8.543155077583918
2311.7669,7.858382839156803
2313.2031,9.6243104960283
2314.6387,9.490935769613131
2316.0735,9.958256285082967
2317.5076,10.076269572700198
2318.941,11.244973063144641
2320.3737,7.764364086333501
2321.8056,8.18443985973424
2323.2369,11.355197523170759
2324.6674,11.826634134622566
2326.0972,14.698746638517207
2327.5263,15.87153186101591
2328.9547,17.294986481292426
2330.3823,20.3691070198052
2331.8092,14.393889824062839
2333.2355,7.069331037882989
2334.661,11.095426661144373
2336.0858,3.4221726230325373
2337.5098,6.299564741778717
2338.9332,9.477598801392517
2340.3558,5.956270522887898
2341.7778,8.78557553250279
2343.199,7.515509396912499
2344.6195,4.596067594936514
2346.0393,5.827245530239267
2347.4583,6.2590385605245515
2348.8767,7.591441985223696
2350.2943,6.774451041177699
2351.7113,9.958060889313153
2353.1275,6.7922666228122
2354.543,4.377063235276353
2355.9578,3.9124456523845055
2357.3718,5.59840875604494
2358.7852,4.78494738904152
2360.1978,7.372056338174076
2361.6098,7.409730342392926
2363.021,7.0479640669278965
2364.4315,4.986752102911538
2365.8413,6.326088970996764
2367.2504,6.06596914196912
2368.6587,0.7063870233532015
2370.0664,6.147336962014023
2371.4733,4.138813297752783
2372.8795,7.680810308897328
2374.285,8.673322232387328
2375.6899,6.016343228354437
2377.0939,8.359867370197065
2378.4973,4.203888671150246
2379.9,7.148401060850311
2381.3019,2.393398426894805
2382.7032,9.188874585397201
2384.1037,4.534823328537058
2385.5035,4.781238356605179
2386.9027,2.078113324544198
2388.3011,6.57544183948432
2389.6987,4.323217487774677
2391.0957,2.171433790009978
2392.492,5.6200842235528015
2393.8876,2.519162244051387
2395.2824,5.718661250953183
2396.6765,4.318574618514013
2398.07,4.268895663803164
2399.4627,4.169617660704155
2400.8547,2.22073384041159
2402.246,4.572237392423894
2403.6366,6.274121484032193
2405.0265,1.676379236805225
2406.4156,5.679003709570537
2407.8041,4.181987944391935
2409.1918,10.785324926543218
2410.5789,6.439007599478316
2411.9652,1.593028798797988
2413.3508,2.5973812957129283
2414.7358,3.2020578455035533
2416.12,5.307051177476524
2417.5035,2.412353988917907
2418.8863,5.1179589240433145
2420.2684,7.9738586029448655
2421.6497,5.5300455945351175
2423.0304,5.136512387988091
2424.4104,2.643251417177389
2425.7896,3.1002550646115097
2427.1682,4.657515686366452
2428.546,3.0150256075157174
2429.9232,6.422777106557653
2431.2996,6.830762431840348
2432.6753,5.83897376748417
2434.0503,6.497403229301881
2435.4246,3.506042874716506
2436.7982,5.8648846961770715
2438.1711,3.9239206510722227
2439.5433,3.883142638141777
2440.9148,6.3425425168863825
2442.2856,4.202112107975275
2443.6557,3.3118431686523095
2445.025,2.771727414140244
2446.3937,6.181756526543445
2447.7617,1.0919221602490339
2449.1289,4.90221590782658
2450.4955,4.412629350926444
2451.8613,4.873154022176834
2453.2265,1.1337814100796635
2454.5909,2.544502954405367
2455.9546,6.705310083586561
2457.3177,1.8661942006108703
2458.68,2.4271466414128327
2460.0416,2.888158723265036
2461.4025,4.6992217391686495
2462.7627,3.310326953243269
2464.1222,4.87146558261626
2465.4811,7.332628811311757
2466.8392,6.2938077746392835
2468.1966,4.404993534582054
2469.5533,8.716177090185248
2470.9093,2.9273493964441073
2472.2645,6.638501321192152
2473.6191,1.7496237029894175
2474.973,6.060707314010976
2476.3262,4.021742908935664
2477.6787,8.532721181835242
2479.0305,6.393632786564098
2480.3816,5.704468291649391
2481.7319,8.865218201682005
2483.0816,3.6758729642081533
2484.4306,6.436422938121908
2485.7789,6.296858445558634
2487.1264,7.107169744289479
2488.4733,8.017347029117069
2489.8195,4.677380423772306
2491.165,0.8372599718126637
2492.5097,5.396975670021824
2493.8538,2.5565175068108914
2495.1972,4.615875416621236
2496.5398,2.6750393083290973
2497.8818,3.383999044651965
2499.2231,4.392744461557001
2500.5637,5.05126536117136
2501.9035,3.4595515016947758
2503.2427,8.067592590814336
2504.5812,4.925378301621642
2505.919,1.2328982265323845
2507.256,6.1401419087085145
2508.5924,-0.10290112101700544
2509.9281,3.8537586067873875
2511.2631,5.310111589535445
2512.5974,4.966148286103341
2513.9309,6.621859102266164
2515.2638,1.5772343941375269
2516.596,4.132264451612478
2517.9275,2.0869395488137457
2519.2583,3.841249918541422
2520.5884,7.795185772726235
2521.9178,-1.1012627151135774
2523.2465,5.901894550588381
2524.5745,3.604658667013041
2525.9018,1.8570306723223737
2527.2284,4.809011568631782
2528.5543,6.16060233948641
2529.8796,3.361803920341302
2531.2041,3.6126171850455293
2532.5279,5.713042973830106
2533.851,3.0630820907999166
2535.1735,1.8627352829293997
2536.4952,4.862003266562212
2537.8163,3.5108867394146586
2539.1366,6.80938635058304
2540.4562,6.507502714054809
2541.7752,5.005236375723555
2543.0935,3.65258781640793
2544.411,6.849557466874195
2545.7279,2.0461457213627483
2547.0441,2.642352905618445
2548.3596,8.388179324924664
2549.6744,6.483625258141302
2550.9885,5.528690900246467
2552.3019,3.6733763813820133
2553.6146,5.817681776402921
2554.9266,2.9116071234304144
2556.2379,3.1551524024089446
2557.5485,5.648317564166909
2558.8585,4.3411025279812065
2560.1677,5.683507156645604
2561.4762,5.72553126954282
2562.7841,7.117174629220536
2564.0913,5.4084369409711215
2565.3977,3.5993178389152263
2566.7035,6.539816903089154
2568.0086,5.779933677536043
2569.313,10.419667640900897
2570.6167,3.9090182140293877
2571.9197,4.7479847135705455
2573.222,6.836566417083233
2574.5236,5.674762554646456
2575.8246,4.712572287973593
2577.1248,5.999994722030415
2578.4244,4.737028914656946
2579.7232,3.2236738636933495
2581.0214,10.40992851960948
2582.3189,10.645791800638463
2583.6157,4.781262520914169
2584.9118,8.116339388112536
2586.2072,3.6510210620968664
2587.5019,7.035306121567139
2588.7959,4.1191931087131195
2590.0893,6.552680495371526
2591.3819,5.33576671218718
2592.6739,7.918450124278067
2593.9652,6.900729043404532
2595.2557,8.08260170214242
2596.5456,3.9140662640603168
2597.8348,7.0451208119008015
2599.1234,8.225763389265808
2600.4112,9.205991969306083
2601.6983,5.235804442914713
2602.9848,5.6651986089248965
2604.2705,5.444172213811768
2605.5556,5.772722947398499
2606.84,5.150848445066572
2608.1237,6.728546284470227
2609.4067,5.905813991755252
2610.689,7.43264902578202
2611.9707,4.209048786352717
2613.2516,8.235010598943077
2614.5319,8.160531746938375
2615.8115,7.785609431373771
2617.0903,3.6602407716791276
2618.3685,8.934422809428227
2619.6461,4.758152549592445
2620.9229,6.381426907798961
2622.199,3.5542427520934368
2623.4745,6.826596886707279
2624.7493,3.048486080329525
2626.0234,2.819907033383238
2627.2968,9.040856415806658
2628.5695,5.1113308693389286
2629.8415,6.831326945310671
2631.1128,9.650841143939203
2632.3835,7.119869897128584
2633.6535,6.238409540274468
2634.9228,8.056456337573824
2636.1914,6.1740064908395205
2637.4593,4.891056121319885
2638.7265,6.307601288523198
2639.9931,3.373638003047194
2641.259,5.889162212413588
2642.5242,3.6041698304077414
2643.7887,3.9186567119233935
2645.0525,6.432618675812627
2646.3156,2.9960515017409435
2647.5781,6.458950905047715
2648.8398,6.471312571111781
2650.1009,8.5831321207225
2651.3613,5.544405109956131
2652.6211,4.4551270090576125
2653.8801,5.3652932328278595
2655.1385,5.324899151516522
2656.3961,7.783940081720328
2657.6531,4.4424112867870456
2658.9094,7.950307952225021
2660.1651,5.207625219118526
2661.42,5.764358149048764
2662.6743,0.7205017515207004
2663.9279,5.926050978395754
2665.1808,4.281000774330337
2666.433,6.835346024720369
2667.6846,7.38908157215176
2668.9354,6.64220219085697
2670.1856,7.144702581177658
2671.4351,7.246577377033464
2672.6839,5.797821140897021
2673.9321,6.548428362775191
2675.1795,5.9983934746966625
2676.4263,5.99771084320583
2677.6724,2.0963747748631754
2678.9179,3.844379516252072
2680.1626,5.791719292992159
2681.4067,8.48838829225928
2682.6501,6.23438064331209
2683.8928,3.329690390525382
2685.1348,7.574311515930159
2686.3761,6.768237968260518
2687.6168,5.911463620507455
2688.8568,6.403982277979626
2690.0961,4.395787686871056
2691.3348,10.336873529335953
2692.5727,5.477233443570675
2693.81,5.216860964402841
2695.0466,8.655749571887743
2696.2826,2.2438926939120805
2697.5178,5.73128367180507
2698.7524,5.06791582445701
2699.9863,6.703782413445371
2701.2195,7.538876649668463
2702.452,7.373191676986785
2703.6839,6.906720563872078
2704.9151,8.689456305064184
2706.1456,5.021391826235742
2707.3755,8.002519966164872
2708.6046,8.032833513415756
2709.8331,8.462325176527411
2711.0609,4.890987583710523
2712.2881,7.118813278552533
2713.5145,11.195794755731033
2714.7403,7.521924438735468
2715.9654,9.447194639097365
2717.1899,8.971597593129015
2718.4136,5.695125442670765
2719.6367,12.667770239847002
2720.8591,11.389523979830866
2722.0809,10.010378531117812
2723.3019,7.630325648308062
2724.5223,11.799356985898076
2725.7421,11.017464122081044
2726.9611,10.634638517056626
2728.1795,10.250871520849863
2729.3972,12.166154377139407
2730.6142,10.330478227095217
2731.8306,7.293834090225733
2733.0462,8.606212882734603
2734.2612,10.217605447887145
2735.4756,6.578002542886587
2736.6892,7.287394822760106
2737.9022,9.99577287675488
2739.1145,6.453127221244127
2740.3262,5.809448272643365
2741.5372,6.264726382836834
2742.7475,6.018951845614321
2743.9571,8.32211489211836
2745.1661,1.2742056933019832
2746.3744,5.475214336897075
2747.582,2.4251308978934816
2748.7889,4.073945396528909
2749.9952,3.671647828789773
2751.2008,2.5182281499230363
2752.4057,1.3136762784592015
2753.61,4.557982107746508
2754.8136,4.40113551799643
2756.0165,1.9931263438406397
2757.2188,3.1339443758994534
2758.4204,1.6735793848619487
2759.6213,0.2620211100777645
2760.8215,-0.1007407258392341
2762.0211,4.435283597104615
2763.22,6.6200848053028025
2764.4182,2.4536535807960007
2765.6158,2.2859805394240524
2766.8127,5.517056272490265
2768.009,4.09687134843816
2769.2045,4.225416280540696
2770.3994,0.15268154110213672
2771.5936,2.478657560172582
2772.7872,2.603334766275335
2773.9801,1.2267035631471082
2775.1723,1.798754328491281
2776.3639,-1.930522572255768
2777.5548,3.838863208354791
2778.745,5.656921303692279
2779.9346,3.3736613087373897
2781.1235,1.939092761901616
2782.3117,3.0532251678598463
2783.4992,3.666068011896048
2784.6861,3.8276307487619583
2785.8723,1.6879227965486265
2787.0579,2.4469535350708185
2788.2428,2.204732327264068
2789.427,0.21126851159440108
2790.6106,1.266571404480537
2791.7935,3.7206503202285184
2792.9757,3.8235145604786887
2794.1573,-1.4748266103351106
2795.3382,2.175636033985846
2796.5184,5.974926453158108
2797.698,-1.5769314148581124
2798.8769,0.470086308148133
2800.0551,0.7660192539326296
2801.2327,2.810907049550302
2802.4096,2.1547893143959023
2803.5859,1.2477056397551252
2804.7615,3.7396955953657987
2805.9364,4.130798738488689
2807.1106,2.371054588987608
2808.2842,3.110502625418402
2809.4572,5.349182302626382
2810.6294,5.6871330443518495
2811.801,7.674394220843293
2812.972,4.911005145477883
2814.1423,6.997005054888859
2815.3119,9.382433136599424
2816.4808,10.567328508162717
2817.6491,10.40173019330759
2818.8167,9.835677110089602
2819.9837,14.469208072547005
2821.15,13.202361796361323
2822.3157,20.835176852521982
2823.4807,19.167691679994796
2824.645,22.549944509393807
2825.8086,27.181973379656135
2826.9716,29.96381610421947
2828.134,31.045510224701733
2829.2957,37.62709298308273
2830.4567,42.25860131088716
2831.617,38.040071763368786
2832.7767,45.22154047319538
2833.9358,39.65304319263403
2835.0941,42.084615221736385
2836.2519,38.61629146402369
2837.4089,39.89810640217104
2838.5653,39.13009413269063
2839.7211,35.3622883531136
2840.8761,36.09472236967015
2842.0306,33.92742913496762
2843.1843,31.510441240666136
2844.3374,35.843790939151546
2845.4899,32.72751016770528
2846.6417,30.711630505170888
2847.7928,36.89618320311681
2848.9433,34.33119920599522
2850.0931,34.36670908929648
2851.2422,38.75274308519894
2852.3907,38.0893310822139
2853.5385,36.27650258132523
2854.6857,39.964286702623525
2855.8323,36.95271220343433
2856.9781,40.64180744144035
2858.1233,41.5316004047972
2859.2679,40.772118675242396
2860.4118,41.863389419197446
2861.555,48.50543939536273
2862.6976,47.398294943804686
2863.8395,50.741981919535434
2864.9808,48.186525703584124
2866.1214,50.58195116956007
2867.2614,54.22828270920739
2868.4007,47.12554420845066
2869.5393,50.523759010931684
2870.6773,47.47294998903676
2871.8146,50.923139509914684
2872.9513,51.724349465984695
2874.0874,53.2766012404347
2875.2227,52.7799156992091
2876.3574,55.934313175486324
2877.4915,55.63981347464561
2878.6249,53.79643584272311
2879.7577,61.10419896935684
2880.8898,63.663121006220436
2882.0212,65.42321949394557
2883.152,57.53451133653273
2884.2821,61.49701278375019
2885.4116,61.96073951002114
2886.5405,62.175706574798696
2887.6686,64.59192841792853
2888.7962,64.65941885749929
2889.923,67.77819106568036
2891.0493,64.29825756804695
2892.1748,67.26963021239234
2893.2997,65.74232020352726
2894.424,65.01633807356612
2895.5476,66.09169369720018
2896.6706,62.01839629895734
2897.7929,63.6964544424485
2898.9145,66.17587607110067
2900.0355,64.75666849137635
2901.1559,60.73883834797921
2902.2756,63.62239163804629
2903.3946,63.40733375132623
2904.513,64.94366944134377
2905.6308,62.631402827550325
2906.7479,59.87053737996064
2907.8643,60.11107594227542
2908.9801,61.65302075949002
2910.0953,63.746373475489015
2911.2098,62.54113511762682
2912.3236,62.93730607579408
2913.4368,59.53488611447017
2914.5494,60.68387436876131
2915.6613,63.53426937842495
2916.7725,59.08606907637977
2917.8831,59.039270760201774
2918.9931,57.193871136606276
2920.1024,56.69986632191592
2921.211,55.80725186051461
2922.319,53.21602272978764
2923.4264,56.47617334904773
2924.5331,55.63769760544746
2925.6391,50.85058882137763
2926.7445,53.4148397628521
2927.8493,51.880442687378846
2928.9534,54.29738931831746
2930.0569,56.5656708602231
2931.1597,57.685277974677064
2932.2619,55.35620075760396
2933.3634,58.82842872807558
2934.4643,60.70195085160181
2935.5645,56.07675550540815
2936.6641,59.952830459700664
2937.763,59.48016292391783
2938.8613,56.55873950796985
2939.959,61.9885462269653
2941.056,53.01956853042539
2942.1523,57.70179124798585
2943.248,52.13519867908678
2944.3431,49.219774546150305
2945.4375,43.855502050246606
2946.5313,40.74236390024814
2947.6244,37.33034236647234
2948.7169,36.519419311813024
2949.8087,36.659576225860576
2950.8999,30.75079423301124
2951.9904,28.093054091065483
2953.0803,28.586336250315835
2954.1696,22.5806208801243
2955.2582,22.525887863989535
2956.3462,21.62211685960398
2957.4335,22.21928729940124
2958.5202,21.01737839959373
2959.6062,24.46636915420104
2960.6916,18.716238347068952
2961.7764,22.616964517379582
2962.8605,20.168526017152647
2963.9439,21.17090097223826
2965.0267,21.174067306801255
2966.1089,18.328002733297485
2967.1905,18.98268475244213
2968.2714,19.938090681670328
2969.3516,20.544197648590423
2970.4312,20.80098258142984
2971.5102,22.108422202974015
2972.5885,19.86649302799861
2973.6662,19.02517135019506
2974.7432,22.634433264589855
2975.8196,20.84425467595782
2976.8954,23.104611262729435
2977.9705,21.86547849489265
2979.045,20.276831611389294
2980.1188,18.288645632506437
2981.192,21.950895375762798
2982.2645,19.213555475790685
2983.3364,21.626600347713463
2984.4077,21.14000421451894
2985.4783,20.10374108292894
2986.5483,16.517784748265253
2987.6177,15.582108804812282
2988.6864,14.646686681676567
2989.7545,16.661491652143596
2990.8219,13.776496843031989
2991.8887,13.54167521454545
2992.9548,12.45699958912272
2994.0204,10.1724426537858
2995.0852,11.2879769709867
2996.1495,8.453575001453006
2997.2131,7.819209093032558
2998.276,5.234851509037442
2999.3383,8.500474434587664
3000.4,6.06605000245472
3001.4611,5.281550260405366
3002.5215,4.296947195545876
3003.5812,3.8122127421670164
3004.6404,5.077318791590104
3005.6989,2.342237197014315
3006.7567,0.30693976086565833
3007.8139,-1.1786017378522242
3008.8705,2.7355844767949193
3009.9264,2.599481954972692
3010.9818,2.7630742194908606
3012.0364,1.2263447671643757
3013.0905,0.23927706717746489
3014.1439,0.25185457645090636
3015.1966,1.3140607495127163
3016.2487,2.77587903837237
3017.3002,1.387292881898734
3018.3511,0.5482856912018903
3019.4013,1.8088408635190003
3020.4509,0.9189417906043715
3021.4998,1.2785718461239082
3022.5481,2.987714394554102
3023.5958,2.2963527875857377
3024.6428,5.704470347032462
3025.6892,2.3620503717444006
3026.735,-0.28092389647301097
3027.7802,3.625530760565157
3028.8247,1.931400367473568
3029.8685,0.9866709126115722
3030.9118,2.541328365024535
3031.9544,0.04535868389111286
3032.9963,-1.7012521970233045
3034.0376,2.3514816555930853
3035.0783,1.1035631705615234
3036.1184,4.90499525318844
3037.1578,4.955780797744643
3038.1966,3.405922649450975
3039.2348,1.255423603970499
3040.2723,4.004286422907047
3041.3092,2.3025138553102202
3042.3455,4.350108610186755
3043.3811,4.847073373518262
3044.4161,3.4934107877852654
3045.4505,5.739123446997571
3046.4842,5.834213910230872
3047.5173,5.728684679169641
3048.5498,5.1725381971562285
3049.5816,2.865776850246128
3050.6128,4.958402972769463
3051.6434,4.550418870398593
3052.6734,0.6418267992218532
3053.7027,4.882628969823394
3054.7314,-0.32717241363090466
3055.7594,6.71242480419855
3056.7868,2.6514260471037616
3057.8136,5.239836671752489
3058.8398,4.077662008298253
3059.8653,5.764907334496209
3060.8902,6.601577887324893
3061.9145,4.587678846113777
3062.9381,3.4732153241765538
3063.9612,4.008192388950137
3064.9835,6.242615073139291
3066.0053,10.876488369366855
3067.0264,7.259817207829531
3068.0469,5.292606409959133
3069.0668,8.32486072458931
3070.086,7.806584847627654
3071.1046,5.887783391733144
3072.1226,3.818460891498926
3073.1399,5.048621822640312
3074.1567,6.178270622688009
3075.1727,7.9074116786865165
3076.1882,6.836049315897622
3077.203,7.014187780509006
3078.2173,5.491831250347859
3079.2308,7.068983833099501
3080.2438,6.145649581530943
3081.2561,4.821832477719361
3082.2678,3.9475364422854353
3083.2789,6.8727653476315265
3084.2893,5.997523026684638
3085.2991,2.571813243644119
3086.3083,1.5456397027340971
3087.3169,4.969006082460569
3088.3248,4.69191604587314
3089.3321,4.214373206331354
3090.3388,5.036381130275602
3091.3449,4.1579433420025484
3092.3503,3.379063315445043
3093.3551,3.3997444829565175
3094.3593,1.1199902430997657
3095.3629,6.3898039604401475
3096.3658,4.559188988343124
3097.3681,1.6781486162761183
3098.3698,4.896686088114672
3099.3708,3.764804630952839
3100.3713,4.282507422917822
3101.3711,2.5497976044887745
3102.3702,0.46667827331978007
3103.3688,5.733152501566952
3104.3667,4.649223356719618
3105.364,3.2148938489355885
3106.3607,3.880166941880436
3107.3568,5.195045567070801
3108.3522,3.7095326172216563
3109.347,2.7736309330975235
3110.3412,1.187343318367601
3111.3348,4.700672548964777
3112.3277,3.8636213889485127
3113.32,1.926192555371549
3114.3117,1.1883887266504178
3115.3028,3.6002125619397267
3116.2932,2.6616667085101975
3117.2831,3.272753777630431
3118.2723,4.033476353952367
3119.2608,3.1438369894004046
3120.2488,2.4538381955641855
3121.2361,2.1634824525949803
3122.2229,5.122772216105685
3123.209,-0.11829007992562968
3124.1944,4.040297947251391
3125.1793,1.3985398621049923
3126.1635,4.406439188700446
3127.1471,1.813999437117622
3128.1301,4.471224073372004
3129.1125,0.7281165453390814
3130.0942,4.734680256182104
3131.0753,2.490918601783159
3132.0558,3.9968349306775357
3133.0357,4.902432566491334
3134.015,2.75771479288231
3134.9936,1.8626848444838933
3135.9716,4.167345928352367
3136.949,3.421701232917165
3137.9258,1.4257539049342687
3138.902,4.029507056942641
3139.8775,0.9329637872237146
3140.8524,1.986127153763848
3141.8267,2.2890002052197653
3142.8004,3.3415859703869204
3143.7735,3.2438874551707677
3144.7459,2.0459076320609024
3145.7178,4.347649441108047
3146.689,4.399115801903848
3147.6596,3.8003095905634643
3148.6295,3.251233639210895
3149.5989,2.1518907419670446
3150.5676,2.6522836604404865
3151.5357,1.8524151347208844
3152.5032,3.0022878783750717
3153.4701,4.001904586445729
3154.4364,3.6512679239526595
3155.402,3.1003805158966276
3156.367,3.999244950765714
3157.3315,4.9478637860442
3158.2952,0.6462395392239171
3159.2584,3.6443746783180604
3160.221,2.9422716648774307
3161.1829,4.989932924009084
3162.1442,0.0873608513973636
3163.105,3.8345577928272836
3164.065,2.681526093210251
3165.0245,1.6282680591120968
3165.9834,3.374785970283392
3166.9416,1.3710820901920289
3167.8993,3.4671586485580432
3168.8563,2.8130178613906494
3169.8127,3.7586619100274774
3170.7684,4.004092947675982
3171.7236,3.249313089956996
3172.6782,1.7943244124504267
3173.6321,4.489128958243051
3174.5854,5.583728752478402
3175.5381,2.178125775408723
3176.4902,5.022321951448973
3177.4417,3.5163191832328535
3178.3926,1.860119323170846
3179.3428,7.353724188510243
3180.2924,4.697135577897144
3181.2415,4.440355216440408
3182.1899,2.5833847822775393
3183.1377,1.826225909142489
3184.0848,3.368880204935362
3185.0314,1.7113492592940027
3185.9773,2.653634628167456
3186.9227,5.145737850391275
3187.8674,6.987660438264667
3188.8115,5.629403852629462
3189.755,2.4709694844508876
3190.6979,5.462358668400133
3191.6402,6.953572714438693
3192.5818,3.7446128779044776
3193.5229,-0.26451965540032907
3194.4633,3.0261762628803277
3195.4031,2.1667044236538606
3196.3423,4.807068587565919
3197.2809,4.19727249359511
3198.2189,4.887319832649355
3199.1563,5.42721425366385
3200.0931,2.616959356700595
3201.0292,7.006558687549446
3201.9648,3.2460157658306663
3202.8997,1.0353340410989338
3203.834,2.62451693044877
3204.7677,2.663567840621354
3205.7008,4.502490152112697
3206.6333,4.091287218783134
3207.5652,3.4799623494680976
3208.4964,5.418518812090145
3209.4271,2.806959839772217
3210.3571,4.69528861145206
3211.2865,1.9335082779978257
3212.2154,2.971621943324777
3213.1436,4.959632692013096
3214.0712,3.8975435789267436
3214.9982,5.435357609333357
3215.9246,5.073077749525136
3216.8503,4.560706911440703
3217.7755,3.798247956287907
3218.7001,6.385703699667524
3219.624,3.5230769191978575
3220.5473,4.5103703286401675
3221.4701,1.9475866065249487
3222.3922,2.934728386278993
3223.3137,5.671798281853225
3224.2346,2.9087988778512863
3225.1549,4.245732702158838
3226.0746,4.382602253573548
3226.9937,4.319409988435765
3227.9121,3.206158319259806
3228.83,3.492849615365894
3229.7473,3.179486214012665
3230.6639,5.266070417530258
3231.5799,4.502604496453952
3232.4954,8.039090668658323
3233.4102,8.0755311069919
3234.3244,3.5619279039123004
3235.238,6.59828307112183
3236.151,3.2845985847035104
3237.0634,7.520876354757538
3237.9752,3.9571182585381193
3238.8864,5.643326098090699
3239.797,4.029501635889538
3240.7069,6.465646577975636
3241.6163,6.051762590094976
3242.5251,4.7878512733370755
3243.4332,2.8739141682738265
3244.3408,2.4099527675986048
3245.2477,5.045968535265647
3246.154,4.8319629111296605
3247.0598,3.9179372845856655
3247.9649,6.653892996709055
3248.8694,5.039831349395845
3249.7733,5.625753578003125
3250.6766,2.411660867489669
3251.5793,5.197554346556714
3252.4814,2.6334351197888894
3253.3829,5.01930423979528
3254.2838,6.105162732850616
3255.1841,3.141011575036589
3256.0838,6.3268516813832605
3256.9829,2.462683935510576
3257.8814,2.398509157769965
3258.7792,4.134328143886014
3259.6765,4.7701416655982225
3260.5731,6.405950453302801
3261.4692,5.191755189694549
3262.3647,7.827556493408753
3263.2595,2.9133549311631572
3264.1538,5.299150991399931
3265.0474,3.0849451334277
3265.9404,5.7207377635635766
3266.8329,3.706529257275222
3267.7247,4.9923199328229195
3268.616,6.928110071401658
3269.5066,6.563899904283226
3270.3966,4.899689593458313
3271.286,4.735479235278607
