RamanShift,CorrectedData
30.1047,731.9985482176712
32.3739,677.5071921320521
34.6426,623.0658287264473
36.9109,571.2744439057994
39.1787,519.4330173443927
41.4461,470.14152300376645
43.7131,417.5499296511298
45.9796,369.45820135227615
48.2456,315.46629799749974
50.5112,264.07417578251255
52.7764,212.73178774836356
55.0411,161.03908429535983
57.3054,107.89601369649051
59.5692,57.952522614353896
61.8326,7.258556632588132
64.0955,-40.535939244693836
66.3579,-90.73102008596464
68.6199,-133.27633600566386
70.8815,-169.12063071534055
73.1426,-180.96131649594716
75.4032,-133.49411611333542
77.6634,78.03705547019467
79.9231,655.8396168985628
82.1824,1936.5709860353181
84.4412,4270.388574185615
86.6995,7491.199773288896
88.9574,10707.061932580722
91.2148,12986.43232638465
93.4717,14104.018121953628
95.7282,14358.77635667627
97.9842,14284.463926901015
100.2398,13955.137585388537
102.4949,13553.503942054871
104.7495,13111.119467264678
107.0036,12679.59049584758
109.2573,12249.473231522004
111.5105,11892.523751210476
113.7632,11520.748009340783
116.0154,11223.051841415483
118.2672,11008.94096772965
120.5185,10756.82099634784
122.7693,10565.447425245206
125.0197,10420.375644828682
127.2696,10223.860939850734
129.519,10105.058490860072
131.7679,9940.273376166799
134.0163,9767.360573030426
136.2642,9595.474959307738
138.5117,9391.971315181914
140.7587,9176.354324881384
143.0052,8994.228578714868
145.2512,8777.44857522754
147.4967,8565.468723022292
149.7417,8389.04334292753
151.9863,8260.326670116978
154.2304,8125.6228558739185
156.4739,8011.085968878373
158.717,7922.46999655414
160.9596,7811.828846214149
163.2017,7674.766345946639
165.4433,7538.28624572156
167.6844,7346.9422187611935
169.925,7175.637862904967
172.1651,6962.67670252288
174.4047,6765.262190228559
176.6439,6627.647709008861
178.8825,6468.486574198022
181.1206,6361.432034853806
183.3582,6229.187275349104
185.5954,6149.755416442496
187.832,6044.789516600687
190.0681,5995.992572792827
192.3037,5950.217521540173
194.5388,5894.117239404057
196.7734,5860.644543443637
199.0075,5838.702191776898
201.2411,5859.542883915379
203.4742,5848.319260983605
205.7068,5842.033905510667
207.9389,5836.939341542471
210.1704,5869.6380347045815
212.4015,5841.532392253166
214.632,5862.424762748024
216.862,5887.317436333622
219.0915,5853.612644530187
221.3205,5845.362559984772
223.549,5853.769296808305
225.777,5831.384910658096
228.0044,5807.411398653759
230.2314,5822.850699601064
232.4578,5794.604694231664
234.6837,5780.525205048716
236.909,5761.013996609321
239.1339,5698.172775665342
241.3582,5654.853191358498
243.582,5542.656835848782
245.8053,5486.685244747661
248.0281,5392.589898240032
250.2503,5328.022221643943
252.472,5316.133586351548
254.6932,5316.1253104747775
256.9139,5299.498658964227
259.134,5307.904843609241
261.3536,5335.945023204181
263.5727,5448.1703034643615
265.7912,5524.681736745649
268.0092,5607.980320922207
270.2267,5671.866998621387
272.4436,5729.092656390737
274.6601,5742.758124059134
276.8759,5716.514174164543
279.0913,5649.361521817339
281.3061,5571.700824962762
283.5204,5525.782685052438
285.7341,5470.807647820987
287.9473,5461.576203745204
290.16,5419.738788593811
292.3721,5389.2457835197665
294.5837,5371.547515478648
296.7947,5377.394257533576
299.0052,5433.286229032194
301.2152,5395.873595548211
303.4246,5343.306468322472
305.6334,5168.084904637092
307.8418,5000.908908341115
310.0495,4790.42843160275
312.2568,4567.44337658111
314.4635,4356.353597531029
316.6696,4138.20890303291
318.8752,3980.409058103619
321.0802,3905.9537863779387
323.2847,3871.9927716865595
325.4887,3859.62565880064
327.692,3813.852053771412
329.8949,3815.821524053853
332.0972,3747.933598964428
334.2989,3640.6377696613845
336.5001,3504.4834898236386
338.7007,3379.770176723735
340.9008,3269.297212589385
343.1003,3132.763945850603
345.2992,3033.1196922444315
347.4976,2937.813736180281
349.6955,2871.495331736359
351.8927,2837.6137036127466
354.0895,2727.768047794567
356.2856,2697.207531890813
358.4812,2636.3312962328027
360.6763,2583.6384541797743
362.8707,2538.2280927276634
365.0646,2525.6492730360196
367.258,2505.8010308821194
369.4508,2482.6323767867443
371.643,2535.9922962126657
373.8346,2546.329749796334
376.0257,2572.543672814286
378.2162,2579.1829750797606
380.4062,2585.3965406805646
382.5956,2479.6332279126746
384.7844,2402.191869218108
386.9726,2279.7712722425495
389.1603,2239.4202206097734
391.3474,2145.037475145843
393.5339,2120.421774282622
395.7199,2090.471835001602
397.9052,2110.33635308006
400.09,2103.1640033905587
402.2743,2156.1034397022986
404.4579,2225.903294752842
406.641,2299.512179718724
408.8235,2359.5786835174467
411.0054,2432.751372071395
413.1868,2497.5287877071696
415.3675,2527.409448423863
417.5477,2518.1418472452815
419.7273,2439.524451921141
421.9064,2339.2557050197393
424.0848,2252.5840247141314
426.2627,2140.907805784822
428.4399,2026.2754204864732
430.6166,1842.985219664677
432.7928,1667.4855339022724
434.9683,1529.0746753522508
437.1432,1392.6509394927507
439.3176,1303.162606511165
441.4914,1213.3079426683798
443.6645,1172.8352011936604
445.8371,1131.2926231831962
448.0091,1089.8284380048226
450.1806,1048.7408637134513
452.3514,1022.3781074657181
454.5216,1032.9883659308498
456.6913,980.7198255542926
458.8603,1009.6706624516164
461.0288,986.2390429311936
463.1967,978.8731232046939
465.3639,1001.0210496214004
467.5306,949.6809587418657
469.6967,936.6009771164363
471.8622,905.629221798652
474.0271,909.3638004760414
476.1914,913.3028117798458
478.3551,898.8943452476669
480.5182,911.6864812840768
482.6807,925.827291304714
484.8426,985.7148376083505
487.0039,1113.6471732354912
489.1647,1273.322341369494
491.3248,1412.7883740572506
493.4843,1461.2932906124333
495.6432,1423.535096220834
497.8015,1341.6117814553145
499.9592,1252.2213226533904
502.1163,1158.6616827364624
504.2728,988.6808121037211
506.4287,892.3266495677444
508.5839,736.3971240543078
510.7386,646.6401555659186
512.8927,602.80365674112
515.0461,597.285533752055
517.199,595.1836867428319
519.3512,684.8460098847045
521.5029,809.9703913970916
523.6539,934.0047126509571
525.8043,994.9468469175636
527.9541,938.444658128129
530.1033,818.6960002644082
532.2519,725.448717923714
534.3999,661.1006475163967
536.5472,684.3996181983293
538.694,734.4434525143752
540.8401,824.9799661654033
542.9856,940.7069675078546
545.1305,941.4722566483724
547.2748,912.723624286531
549.4185,848.4088517071868
551.5615,787.67571106796
553.704,794.1719660423842
555.8458,807.24537242724
557.987,884.9436780775868
560.1276,976.6646227760393
562.2675,1139.3559374557708
564.4069,1349.765343283313
566.5456,1569.8405500316403
568.6837,1655.7792539760758
570.8212,1499.8291356935388
572.958,1185.2878592031602
575.0942,881.9030735257766
577.2299,674.7724158293513
579.3648,557.6935144628169
581.4992,490.7639910273847
583.6329,524.9314615473368
585.766,603.6435371393145
587.8985,670.1478236706516
590.0304,717.3419209722479
592.1616,730.1734221735251
594.2922,698.9399132304898
596.4222,606.2889727974161
598.5515,503.7681725391849
600.6802,413.3750780577866
602.8083,342.8572499175325
604.9358,317.2622445489869
607.0626,311.1876149541431
609.1888,361.23091096237476
611.3144,421.33967929118353
613.4393,511.5114630457638
615.5636,564.893801117918
617.6873,607.9342272843323
619.8103,599.3802696727607
621.9327,533.7794503316218
624.0544,432.3292853155299
626.1756,319.8272853413155
628.2961,243.6209568025115
630.4159,214.55780289438553
632.5351,214.18532437599515
634.6537,187.25101986082518
636.7716,189.0523858205106
638.8889,189.68691685418162
641.0056,226.80210567044833
643.1216,201.64544308105724
645.237,220.56441762973373
647.3518,182.90651584375155
649.4659,156.8192220447363
651.5793,107.75001872525263
653.6922,86.14638680967528
655.8043,99.65580614488044
657.9159,96.4257557162864
660.0268,62.85371351275262
662.137,75.93715655888718
664.2466,90.37356125076076
666.3556,73.7104032250727
668.4639,52.14515721478983
670.5716,75.27529721578321
672.6786,52.79829670247
674.785,-5.888371603478845
676.8907,-33.237235508375306
678.9958,2.699236006297724
681.1002,-6.681094000960002
683.204,-39.980389437020676
685.3072,-25.200747464629785
687.4097,-29.1438658424413
689.5115,-36.9111905736454
691.6127,-38.8538765142157
693.7132,-15.87270977733624
695.8131,-26.06808832596562
697.9123,8.409748445303194
700.0109,-4.23917843792151
702.1089,35.28506803657547
704.2061,69.43246723039829
706.3028,109.65299815230264
708.3987,137.4466391167225
710.4941,167.46336734156012
712.5887,170.35315867025747
714.6827,224.66598727161727
716.7761,207.70182561091679
718.8688,274.01064390677493
720.9608,342.14241030079756
723.0522,415.997090194488
725.1429,446.52464556792074
727.233,526.2750342412037
729.3224,572.2482095692021
731.4112,570.0441196440315
733.4993,512.062706835326
735.5867,427.9039078122805
737.6735,312.31765412346977
739.7596,216.30387303842872
741.845,139.362488703523
743.9298,130.29342310207994
746.014,103.69659682380734
748.0974,123.17192915548003
750.1802,97.0693383469079
752.2624,89.83874141618799
754.3439,104.4300544107291
756.4247,139.19319247955718
758.5048,210.17806972740073
760.5843,306.4345988670593
762.6631,448.2126905095538
764.7413,678.6622522015596
766.8188,983.6331870076328
768.8956,1261.1253912057082
770.9718,1492.8387512373902
773.0473,1478.2731409330372
775.1221,1399.8784191946197
777.1962,1300.3544301413822
779.2697,1288.951003893787
781.3426,1368.9179575687494
783.4147,1464.4550953936796
785.4862,1518.61220790681
787.557,1415.4890710018199
789.6271,1193.5854453862758
791.6966,900.7510776128511
793.7654,616.8857022983702
795.8335,411.8390450521483
797.901,278.2608253146482
799.9678,196.85075840794616
802.0339,147.85855687151343
804.0993,130.78393127631898
806.1641,126.77659071475045
808.2282,105.6362429713572
810.2916,70.61259456292737
812.3544,60.90535094988991
814.4164,24.31421688655064
816.4778,43.938896518166075
818.5385,36.82909374684823
820.5986,109.48451203533114
822.658,221.25485447805295
824.7166,349.9398230746183
826.7747,600.3391176120804
828.832,843.4524343780995
830.8886,1058.4794636569468
832.9446,1184.5698872983694
834.9999,1147.373376567326
837.0545,1001.5895908830735
839.1085,868.0181781911451
841.1618,699.3587764211734
843.2143,574.061014822616
845.2662,459.2745156513438
847.3175,403.79889542262026
849.368,359.383766058967
851.4179,320.1287354449196
853.467,304.7334078711783
855.5155,296.04738442715916
857.5633,246.7702631549464
859.6105,221.70163913615306
861.6569,200.24110498469418
863.7027,144.2882510974705
865.7478,142.2926658689721
867.7922,128.90393625081015
869.8359,85.27164777166854
871.8789,110.04538467119346
873.9212,139.62473033631613
875.9629,178.80926705352067
878.0039,236.24857571304528
880.0441,282.09223541703795
882.0837,306.5898229051627
884.1226,353.44091209616363
886.1609,400.89507384289027
888.1984,457.6518754637873
890.2352,553.7108802683497
892.2714,605.9716469895566
894.3069,597.9337288232791
896.3416,482.39667290567377
898.3757,427.0100203935599
900.4091,380.22330761979174
902.4418,362.38606664712825
904.4739,385.6978257360979
906.5052,433.80810952337197
908.5358,427.76643878864616
910.5658,384.92232997353767
912.595,290.77529524200236
914.6236,179.47484290877492
916.6515,114.52047838083945
918.6786,59.41170527043414
920.7051,70.14802604459419
922.7309,86.27894257623757
924.756,102.95395603680845
926.7804,139.4725667349594
928.8041,158.3842739498068
930.8272,196.28857556574258
932.8495,190.33496788332013
934.8711,184.42294524020326
936.892,174.05200007071107
938.9123,189.87162296493352
940.9318,204.33130277244345
942.9506,228.03052644409763
944.9688,217.1187788874422
946.9862,183.04554272971563
949.003,111.21029842697408
951.019,56.312524604818464
953.0344,26.40169877675089
955.0491,20.57729789314817
957.063,37.238798640374625
959.0763,72.68567749902377
961.0888,82.71741057730196
963.1007,93.68347325656396
965.1119,112.98334009098835
967.1223,127.26648469792417
969.1321,107.43237956488792
971.1412,136.1304959067329
973.1495,126.91030386399143
975.1572,119.57127221589144
977.1641,145.3628684725618
979.1704,129.73455894841936
981.1759,103.8358085042546
983.1808,117.0660807035174
985.1849,111.82483807129938
987.1884,151.26154196203788
989.1911,189.8756526119223
991.1932,226.31662874453286
993.1945,227.4339271846975
995.1951,228.12700249407953
997.1951,229.5453069600071
999.1943,226.33829058854008
1001.1928,215.15540109028825
1003.1906,245.19608391247857
1005.1877,297.90978235079
1007.1841,352.3459372489415
1009.1798,386.1539864715551
1011.1748,368.0833643597971
1013.1691,313.08350139329104
1015.1627,239.50382437083044
1017.1556,139.0937569603775
1019.1477,64.15272043485493
1021.1392,22.18013467624769
1023.1299,12.27541892501722
1025.12,30.83777084207577
1027.1093,36.21626545689651
1029.0979,112.95997749058097
1031.0859,148.71798130206753
1033.0731,165.23935012069842
1035.0596,174.12315568863914
1037.0454,134.46846809565886
1039.0304,89.57435569030213
1041.0148,42.43988547642948
1042.9985,-10.635876437840125
1044.9814,-18.60386436878389
1046.9636,-32.61490638027726
1048.9452,-42.21964468359192
1050.926,-10.96839566709059
1052.9061,0.838946055112956
1054.8855,21.05259544317778
1056.8642,53.77275907618923
1058.8421,79.64943321780129
1060.8194,67.53261359393946
1062.7959,91.97229513403954
1064.7717,129.66847209221396
1066.7469,166.62113780285426
1068.7213,210.63028430366876
1070.695,239.44590196615854
1072.6679,269.26797905551894
1074.6402,291.996501442492
1076.6117,307.78145230513974
1078.5826,265.8228119015589
1080.5527,178.92055741203285
1082.5221,136.57466335861955
1084.4908,88.48510247417244
1086.4587,95.40184612579924
1088.426,108.62486479575773
1090.3925,102.1041280122854
1092.3584,119.43960421737756
1094.3235,122.13126083198858
1096.2879,151.829064082679
1098.2515,248.78297897470065
1100.2145,317.94296899501524
1102.1767,404.40899514275725
1104.1382,526.4310152376329
1106.099,638.1089830552623
1108.0591,765.0928471069569
1110.0185,860.3825495229398
1111.9771,916.8280247825091
1113.9351,894.1291987611394
1115.8923,875.6359881660273
1117.8488,829.3483007630771
1119.8045,739.5160355618341
1121.7596,673.139083278365
1123.7139,563.1673272335756
1125.6675,525.1006440169826
1127.6204,539.088904586431
1129.5726,537.1319746487625
1131.524,522.9797145199304
1133.4748,446.7319791445675
1135.4248,364.5386182375123
1137.3741,288.8494770462826
1139.3226,224.76439717301446
1141.2705,205.8832173313508
1143.2176,188.30577398729156
1145.164,180.38190154800895
1147.1097,154.56143253761502
1149.0546,96.19419767640602
1150.9989,37.68002613906401
1152.9424,5.268746138330243
1154.8852,-20.23981448985569
1156.8272,-33.245880544326155
1158.7686,-52.59947462816763
1160.7092,-30.850287218122958
1162.6491,-18.79748332218287
1164.5883,19.56008024602761
1166.5267,64.87373445974026
1168.4644,131.59481009658975
1170.4014,208.07463728547418
1172.3377,344.3145448393425
1174.2732,467.11585949040136
1176.2081,648.9299045277112
1178.1421,901.5079985691782
1180.0755,1159.65145374341
1182.0082,1351.2115731639378
1183.9401,1446.4396483477794
1185.8713,1382.5369572998366
1187.8017,1215.8547635606174
1189.7315,1002.444316845264
1191.6605,789.6568547103707
1193.5888,646.7936046880941
1195.5163,543.7057864140211
1197.4432,492.19461305580353
1199.3693,450.01129234403925
1201.2947,408.50702708738027
1203.2193,408.2830155943666
1205.1432,394.69045208846956
1207.0664,393.380526710333
1208.9889,391.8044256536964
1210.9106,397.6633311784967
1212.8316,394.7584216266273
1214.7519,420.49087136335083
1216.6715,456.5118508063465
1218.5903,488.22252616838523
1220.5084,514.8240590971204
1222.4257,579.1176063579824
1224.3424,631.0543195681612
1226.2583,693.5853445536759
1228.1735,770.411820830002
1230.0879,862.3348809767617
1232.0016,966.3056498694618
1233.9146,1045.67524376026
1235.8269,1090.3947692382617
1237.7384,1100.3653224358195
1239.6492,1038.2879885813409
1241.5592,1029.3138418995832
1243.4686,1049.3439462324259
1245.3772,1151.1793551286114
1247.285,1273.8711116434451
1249.1922,1411.4202473204418
1251.0986,1536.7277809644052
1253.0042,1615.3947172659437
1254.9092,1716.5720455483843
1256.8134,1800.4607389811117
1258.7169,1883.711753567789
1260.6196,1934.2760273074746
1262.5216,2037.8544793621104
1264.4229,2124.0480095508797
1266.3234,2187.8074973144226
1268.2232,2252.9338008529026
1270.1223,2299.527756488406
1272.0207,2305.440178013685
1273.9183,2255.421856226215
1275.8151,2234.7235588690714
1277.7113,2232.096031131111
1279.6067,2280.9899958539568
1281.5014,2439.456153558273
1283.3953,2673.495181954823
1285.2885,3008.2577343598114
1287.181,3354.5444373544933
1289.0727,3674.1058874375467
1290.9637,3898.592647562209
1292.854,4093.305243940658
1294.7435,4070.1441637991475
1296.6323,4013.209853430883
1298.5204,3868.4527184276267
1300.4077,3691.3731242490453
1302.2943,3514.2713976702807
1304.1802,3303.7978285527433
1306.0653,3064.552671615131
1307.9497,2795.086148538168
1309.8333,2571.798450357045
1311.7162,2360.789740156099
1313.5984,2271.3601553016797
1315.4798,2211.3098095522414
1317.3605,2199.9887939526393
1319.2405,2165.1471774346314
1321.1197,2054.285006930087
1322.9982,1930.1523077194051
1324.876,1762.3990845401354
1326.753,1600.0253228283082
1328.6293,1476.5809903959598
1330.5048,1334.16603905488
1332.3796,1214.8304058510453
1334.2537,1135.4740144887764
1336.127,1075.946776524092
1337.9996,1036.7985921582722
1339.8714,1011.2793508331315
1341.7426,1010.6889316224983
1343.6129,1026.0272034874097
1345.4826,1019.1940252820154
1347.3515,1006.6392456001936
1349.2196,994.2127028438831
1351.087,1000.014225348631
1352.9537,1012.54363150786
1354.8197,1062.350729714854
1356.6849,1149.58531823746
1358.5493,1223.0971847200199
1360.4131,1313.0861053110234
1362.276,1403.7518439279866
1364.1383,1463.294151357567
1365.9998,1456.7127643489048
1367.8606,1360.2574050182016
1369.7206,1234.777780914531
1371.5799,1104.4235859843934
1373.4384,1013.9945018265175
1375.2962,930.4401989953931
1377.1533,790.9103379055709
1379.0096,631.3045696671988
1380.8652,488.9725374813229
1382.7201,372.4138782359428
1384.5742,281.7282239293354
1386.4275,205.0152028356374
1388.2802,139.32444041170584
1390.132,114.80556006424695
1391.9832,83.95818380672426
1393.8336,51.88193250454833
1395.6832,47.42642618354739
1397.5322,40.641284350731894
1399.3803,31.626126038850543
1401.2278,9.530569874239518
1403.0745,18.954234166976676
1404.9204,-3.3532628681678034
1406.7656,7.307696794037838
1408.6101,23.236764677918018
1410.4538,24.68359223471907
1412.2968,53.39783068332281
1414.139,63.62913099577372
1415.9805,122.77714361014068
1417.8213,151.19151832819944
1419.6613,191.77190372395717
1421.5006,262.1179468595046
1423.3391,362.029292879216
1425.1769,488.3055843062866
1427.0139,708.496460043621
1428.8502,943.6515541110675
1430.6858,1193.1204934435127
1432.5206,1364.3528955393267
1434.3547,1450.1983659656767
1436.188,1469.3064966462025
1438.0206,1449.1768650025606
1439.8524,1381.2590337633437
1441.6835,1350.0525511653768
1443.5139,1306.7569516328972
1445.3435,1278.3717560896157
1447.1724,1291.346472391676
1449.0005,1263.0305956115049
1450.8279,1259.6736079080674
1452.6545,1264.9749788100216
1454.4804,1278.334165249291
1456.3056,1287.60061150805
1458.13,1262.7737490851327
1459.9536,1208.2529966033694
1461.7766,1106.887760057853
1463.5987,991.2774333611478
1465.4202,846.5713993569425
1467.2409,723.9690309761513
1469.0608,602.8696926839766
1470.88,499.92274170592964
1472.6984,403.2775292388269
1474.5161,323.0334014802552
1476.3331,280.43970059502954
1478.1493,231.64576551763184
1479.9648,207.05093237814708
1481.7795,176.25453499020387
1483.5935,168.85590509692474
1485.4067,163.00437267888628
1487.2192,155.9992660281082
1489.031,158.33991180656722
1490.842,146.4756351162505
1492.6522,137.90575947574507
1494.4618,140.62960693888363
1496.2705,142.2464981804419
1498.0785,113.40575246890103
1499.8858,104.1566876502784
1501.6924,103.89862043653739
1503.4981,81.38086649807383
1505.3032,104.05274046629984
1507.1075,84.51355615881948
1508.911,71.76262635270905
1510.7138,55.799262979910964
1512.5159,42.87277725474087
1514.3172,34.63247983352312
1516.1178,26.777680943856012
1517.9176,25.757690467014072
1519.7166,-5.278181983503146
1521.515,-3.2806270517721714
1523.3126,-4.100282652832448
1525.1094,1.2122460717391732
1526.9055,-10.44360505781151
1528.7008,-8.518400233360808
1530.4954,-16.212599315168973
1532.2893,-7.026577064681533
1534.0824,-19.960546279477057
1535.8747,-8.814649561629267
1537.6663,-9.088830107357353
1539.4572,-7.232943054531006
1541.2473,15.153247256389932
1543.0367,11.720048742047766
1544.8253,12.017769167551705
1546.6132,32.14671618081138
1548.4003,40.90719730956084
1550.1867,75.14951976006796
1551.9723,106.22399032952808
1553.7572,132.18091506364362
1555.5414,207.7205989458771
1557.3247,257.49334563788125
1559.1074,347.74945672410627
1560.8893,420.9892312140689
1562.6705,526.0129646397904
1564.4509,588.8209483234004
1566.2305,644.0634683269013
1568.0094,695.0408048240856
1569.7876,705.4032315481136
1571.565,710.3510152817389
1573.3417,711.9344157536825
1575.1176,732.2036855891567
1576.8928,754.6590702940334
1578.6672,775.050808052149
1580.4409,807.9791295007503
1582.2138,844.4442575265784
1583.986,899.6964069365804
1585.7575,949.135784093264
1587.5282,995.8125863621701
1589.2981,1068.5770016174843
1591.0673,1115.9792077752663
1592.8358,1181.9193720658072
1594.6035,1218.5476505596052
1596.3704,1238.1141875079666
1598.1366,1267.2191149767198
1599.9021,1281.4125526505545
1601.6668,1311.794607541968
1603.4308,1321.4153738493342
1605.194,1390.6249326530806
1606.9564,1469.6733518194824
1608.7182,1547.5606853085674
1610.4791,1699.986972383629
1612.2394,1861.7022368323555
1613.9988,2039.9564854425678
1615.7576,2214.949706385063
1617.5156,2357.731867431078
1619.2728,2413.6029142023503
1621.0293,2389.1627687433
1622.785,2296.76132896232
1624.54,2150.498468876176
1626.2942,1967.2240395340214
1628.0477,1733.0878704800255
1629.8005,1557.2397715861189
1631.5525,1372.6295353933544
1633.3037,1231.0569388703877
1635.0542,1109.771745259582
1636.804,1025.4737054927298
1638.553,927.1125594039083
1640.3013,890.4880365724571
1642.0488,861.8498573065913
1643.7955,840.3977330096461
1645.5416,850.1813664664598
1647.2868,878.150452057894
1649.0313,903.6046756629953
1650.7751,940.0437143793085
1652.5181,969.1672362683314
1654.2604,1019.8248999911252
1656.0019,1077.5663545170805
1657.7427,1184.5412386173386
1659.4828,1287.6991802873777
1661.222,1380.8397956772656
1662.9606,1428.6626880600795
1664.6984,1401.8174469004991
1666.4354,1267.2536473765786
1668.1717,1093.0208506481993
1669.9072,890.0186052027054
1671.642,707.9464485972358
1673.3761,570.4039094887423
1675.1094,449.74050945471345
1676.8419,352.10576436860015
1678.5737,293.8491856064484
1680.3048,249.0702810232474
1682.0351,192.11855553549526
1683.7646,174.24351156898751
1685.4934,151.49464962833576
1687.2215,120.32146847571653
1688.9488,120.47346535836141
1690.6754,92.45013632028781
1692.4012,79.45097620077922
1694.1263,75.67547891461777
1695.8506,56.47313758207656
1697.5742,50.743444566674725
1699.297,45.43589166720085
1701.0191,37.949970175010776
1702.7404,31.13517092710117
1704.461,19.44098438096944
1706.1808,21.916900682762616
1707.8999,7.612409784217789
1709.6182,15.727001417904148
1711.3358,15.66016524026827
1713.0527,14.36139075048618
1714.7688,2.8301672911343303
1716.4841,-0.5340159388251777
1718.1987,5.4183302312685555
1719.9126,4.786700306895
1721.6257,-1.7294112606493854
1723.338,0.4194899320659715
1725.0496,-6.767084434711478
1726.7605,8.260377315071764
1728.4706,9.351454460642117
1730.18,-11.194273801377221
1731.8886,-4.57722836787616
1733.5964,-4.647718304949649
1735.3036,0.8439930478177757
1737.0099,-1.2523112184524052
1738.7156,-7.836848021079277
1740.4204,-3.8598217667922654
1742.1246,-5.571358572209647
1743.8279,6.628454005669255
1745.5306,-6.160415932282831
1747.2325,-3.188000351477058
1748.9336,-9.354269674770421
1750.634,-7.25916247689679
1752.3336,3.0474761165637574
1754.0325,9.915873499063764
1755.7307,10.446257033582015
1757.4281,10.13885398393927
1759.1247,18.69389150949337
1760.8206,12.561596668213951
1762.5158,19.592196331132527
1764.2102,5.38591724366529
1765.9039,9.092985955307086
1767.5968,17.013628961694394
1769.289,18.698072667534007
1770.9804,16.496543307396905
1772.6711,20.35926692887415
1774.361,28.63646941459092
1776.0502,30.028376443581692
1777.7386,24.085213408515756
1779.4263,34.10720540178045
1781.1132,27.394577274910716
1782.7994,29.647553538371085
1784.4849,33.816358428679905
1786.1696,32.651215885881584
1787.8535,42.952349511856255
1789.5367,35.46998258197368
1791.2192,36.104337942080974
1792.9009,47.355638083326085
1794.5818,41.12410513581381
1796.2621,47.45996075609378
1797.9415,38.51342618947524
1799.6202,43.134722206668584
1801.2982,43.5740691932499
1802.9755,47.73168710344953
1804.6519,45.90779545575674
1806.3277,38.15261329134546
1808.0027,41.916359192310665
1809.6769,50.199251359222444
1811.3504,56.00150757348797
1813.0231,49.02334511452136
1814.6951,52.46498070172311
1816.3664,63.17663056426045
1818.0369,56.8585104066517
1819.7067,56.31083530164892
1821.3757,48.783819753418584
1823.044,67.67767770302021
1824.7115,63.592622603674045
1826.3783,57.07886723182503
1828.0443,69.53662372799135
1829.7096,75.11610366190303
1831.3741,61.867517907923684
1833.0379,72.14107658925707
1834.701,64.78698921043144
1836.3633,66.70546455456531
1838.0248,72.6467107569074
1839.6856,74.21093528565189
1841.3457,81.1483448825262
1843.005,74.75914554714882
1844.6636,88.94354246765522
1846.3214,82.30174008459005
1847.9785,87.9339419490633
1849.6349,79.79035078916752
1851.2904,93.97116845365656
1852.9453,88.27659599338108
1854.5994,87.3568335194808
1856.2528,93.51208026033032
1857.9054,90.59253457073555
1859.5572,87.44839387038235
1861.2083,94.52985467303108
1862.8587,100.08711261795952
1864.5084,105.97036239914644
1866.1572,97.37979770970048
1867.8054,99.21561118302714
1869.4528,92.12799447873397
1871.0994,92.56713826427301
1872.7453,94.03323228581712
1874.3905,96.92646536386792
1876.0349,89.54702537859578
1877.6786,97.09509924090696
1879.3215,102.3208729662374
1880.9637,102.42453159907257
1882.6051,103.65625916068927
1884.2458,104.01623864811972
1885.8858,99.35465202183377
1887.525,101.57168020213942
1889.1634,101.96750311579865
1890.8011,105.34229967385693
1892.4381,101.94624776768512
1894.0743,106.67952423523104
1895.7098,95.59230489498077
1897.3446,106.28476449862546
1898.9786,111.70707684193383
1900.6118,99.85941465782753
1902.2443,102.39194956215795
1903.8761,90.30485217218302
1905.5071,102.64829208124127
1907.1374,101.42243797962317
1908.7669,102.97745753113679
1910.3957,102.01351738536619
1912.0237,106.18078316212132
1913.651,108.92941946107737
1915.2776,95.75958982010218
1916.9034,89.62145668776964
1918.5285,98.06518155505842
1920.1528,96.24092501673283
1921.7764,104.74884668690595
1923.3992,91.93910521728185
1925.0213,91.46185821207666
1926.6427,89.11726235611548
1928.2633,79.90547341960576
1929.8832,100.02664628158232
1931.5023,91.33093502202598
1933.1207,97.66849272065133
1934.7383,96.8894715438638
1936.3552,87.19402268138413
1937.9714,93.93229635403839
1939.5868,91.0544419107132
1941.2015,97.3106077609724
1942.8154,98.45094140383617
1944.4286,97.27558936521837
1946.041,91.83469718652441
1947.6528,84.67840943640442
1949.2637,89.60686976516126
1950.8739,85.27022097631516
1952.4834,87.21860497731757
1954.0921,81.70216282291813
1955.7001,97.82103469568096
1957.3074,92.67535996114884
1958.9139,86.06527700665515
1960.5197,79.49092329277903
1962.1247,89.85243541944737
1963.729,83.64994919167839
1965.3325,78.98359951596649
1966.9353,79.65352046230669
1968.5374,80.10984531085819
1970.1387,80.8527065452455
1971.7393,76.73223584799518
1973.3392,86.39856409310653
1974.9383,77.60182138725713
1976.5366,81.89213697313915
1978.1342,83.2196393174271
1979.7311,77.98445606787425
1981.3273,90.63671404003799
1982.9227,83.1265392696314
1984.5173,74.05405688600126
1986.1112,82.4693911872289
1987.7044,84.97266573085562
1989.2968,79.76400324972906
1990.8885,81.59352562697063
1992.4795,78.96135394806265
1994.0697,80.31760848255215
1995.6592,76.81240871037323
1997.2479,79.84587330828401
1998.8359,73.16812018491919
2000.4232,82.82926645045416
2002.0097,82.02942848338398
2003.5955,70.76872183391117
2005.1805,83.19726123194425
2006.7648,79.86516069970446
2008.3484,81.37253342744134
2009.9312,85.01949180675297
2011.5133,73.70614741551253
2013.0946,83.88261098139867
2014.6752,75.9989924950288
2016.2551,81.20540110819434
2017.8342,68.35194521269716
2019.4126,80.08873238828562
2020.9902,74.41586953118906
2022.5672,83.28346273675038
2024.1433,81.59161735615373
2025.7188,79.74043790774954
2027.2935,76.68002809397228
2028.8674,71.01049081985184
2030.4406,78.68192822361857
2032.0131,71.89444173339825
2033.5849,69.2981319904975
2035.1559,78.94309891727914
2036.7261,77.5794417431249
2038.2957,72.20725890798576
2039.8645,66.82664807601839
2041.4325,75.13770618930744
2042.9998,64.64052952167117
2044.5664,79.18521359555155
2046.1323,70.07185328698517
2047.6974,71.45054268015713
2049.2617,73.12137515853408
2050.8254,76.93444339107805
2052.3883,75.48983931553732
2053.9504,83.38765410031624
2055.5118,83.42797815892095
2057.0725,69.11090107098073
2058.6325,73.43651158184616
2060.1917,69.7548977457584
2061.7502,80.61614688259408
2063.3079,70.62034561468136
2064.8649,72.36757975818728
2066.4212,66.6579344230754
2067.9767,76.7414939956343
2069.5315,72.86834219557295
2071.0856,74.63856197518555
2072.6389,66.60223555808341
2074.1915,69.75944442149205
2075.7433,60.56026937661477
2077.2945,62.50479053706101
2078.8448,74.89308741083767
2080.3945,67.97523888090393
2081.9434,67.9013230812883
2083.4916,66.77141746626751
2085.039,56.18559881110514
2086.5857,68.54394322335122
2088.1317,68.79652624870005
2089.677,65.59342274740675
2091.2215,73.08470689176158
2092.7652,58.32045219812039
2094.3083,58.70073145199228
2095.8506,72.57561685568248
2097.3921,65.39518002448926
2098.933,66.60949184795504
2100.4731,69.3686225616708
2102.0124,66.12264173513279
2103.5511,73.67161824415189
2105.089,70.4156203033125
2106.6261,66.80471539048335
2108.1626,62.18897027937692
2109.6983,72.41845107565939
2111.2332,67.44322326310714
2112.7675,65.81335160131209
2114.301,59.628900175434296
2115.8337,72.68993241250018
2117.3657,71.69651114324722
2118.897,75.54869847151417
2120.4276,73.64655578417421
2121.9575,63.390143712613735
2123.4866,81.17952215175421
2125.0149,71.96475036261552
2126.5426,63.7958867944227
2128.0695,60.672989176753504
2129.5956,59.94611460122712
2131.1211,67.66531955273331
2132.6458,69.08065991670117
2134.1698,68.5921909019064
2135.693,62.349967026318495
2137.2155,65.30404212198528
2138.7373,60.10446939745509
2140.2584,63.90130140823567
2141.7787,65.54459010879043
2143.2983,58.83438681456926
2144.8171,59.32074218557739
2146.3353,55.30370629347624
2147.8527,58.38332861672018
2149.3693,61.65965808072713
2150.8853,53.182743027081756
2152.4005,64.45263118077173
2153.9149,66.21936973495815
2155.4287,61.73300523827572
2156.9417,57.69358357716578
2158.454,61.60115002074008
2159.9655,64.55574926117481
2161.4764,55.40742537463507
2162.9865,53.95622179172847
2164.4958,61.25218138898845
2166.0045,60.34534650338662
2167.5124,57.43575885937298
2169.0195,56.22345957794448
2170.526,54.80848920574044
2172.0317,59.390887727166046
2173.5367,60.270694578541224
2175.0409,52.847948602277825
2176.5445,49.522688038081014
2178.0473,56.5949505971771
2179.5494,61.46477349556562
2181.0507,60.932193383297204
2182.5513,57.94724629577456
2184.0512,58.90996765907914
2185.5504,56.420392319819825
2187.0488,46.478554535506305
2188.5465,48.834487999444946
2190.0435,55.488225940156326
2191.5397,59.48980109781655
2193.0353,54.539245657719675
2194.5301,44.78659121026203
2196.0241,58.531868800447455
2197.5175,54.57510902541446
2199.0101,41.91634189698277
2200.502,42.95559688122137
2201.9931,47.64290302503662
2203.4835,57.628288945778536
2204.9733,49.41178278436871
2206.4622,48.64341210544603
2207.9505,53.7732039795319
2209.438,52.45118499071384
2210.9248,45.27738118534728
2212.4109,41.80181808527618
2213.8962,45.37452075957117
2215.3809,47.995513859284756
2216.8648,46.464821581724664
2218.3479,52.23246764424346
2219.8304,48.548475299546055
2221.3121,43.91286727801241
2222.7931,45.42566582453833
2224.2733,44.38689274489087
2225.7529,44.746569390581215
2227.2317,43.554716669251945
2228.7098,43.76135504108004
2230.1872,35.51650453069567
2231.6638,42.52018472511571
2233.1397,43.172414856191494
2234.6149,43.07321373057346
2236.0894,36.77259972318785
2237.5632,35.12059077822914
2239.0362,40.06720447216594
2240.5085,31.712458030261473
2241.9801,39.00636827710673
2243.4509,33.248951720168805
2244.921,32.290224476850824
2246.3904,38.33020233206673
2247.8591,32.718900747828854
2249.3271,31.906334802847255
2250.7943,28.492519248643134
2252.2608,28.62746851767463
2253.7266,30.861196757474602
2255.1917,30.593717829301795
2256.656,31.87504528580297
2258.1197,35.5051923736886
2259.5826,31.284172020918675
2261.0447,30.111996800401528
2262.5062,35.388678972204275
2263.9669,32.21423049527414
2265.4269,33.688662974671786
2266.8862,33.66198769331612
2268.3448,31.08421559723979
2269.8026,29.305357295855913
2271.2598,23.375423087735726
2272.7162,27.744422978396813
2274.1719,31.512366739603067
2275.6268,28.529263865674295
2277.0811,35.09512353580715
2278.5346,32.20995464390563
2279.9874,26.373765732923005
2281.4395,32.38656502371339
2282.8908,28.948360473393507
2284.3414,34.75915971521471
2285.7914,34.61897009294535
2287.2406,31.72779860276222
2288.689,30.785651894652347
2290.1368,33.442536301325276
2291.5838,29.198457847634245
2293.0302,24.253422224007466
2294.4758,34.60743482888887
2295.9206,27.160500818188666
2297.3648,33.31262500174273
2298.8082,33.26381191778239
2300.251,23.7640657714133
2301.693,27.613390435103042
2303.1343,29.961789543678833
2304.5748,28.709266455834324
2306.0147,30.155824230645408
2307.4538,25.001465640095432
2308.8922,30.796193154609796
2310.3299,30.640008994599555
2311.7669,27.132915072513754
2313.2031,25.324912994401757
2314.6387,31.016004094983998
2316.0735,24.056189455731896
2317.5076,18.24546984795711
2318.941,25.183845802409508
2320.3737,29.771317667384437
2321.8056,23.657885539339077
2323.2369,28.59354921701754
2324.6674,35.52830826258514
2326.0972,31.912161952272015
2327.5263,29.195109207025496
2328.9547,25.477148628671728
2330.3823,21.80827852708586
2331.8092,30.488496957371297
2333.2355,22.01780175654966
2334.661,25.896190456757438
2336.0858,25.123660369953313
2337.5098,19.10020854913455
2338.9332,23.225831796061925
2340.3558,21.250526721494282
2341.7778,24.32428970393221
2343.199,33.847116909371266
2344.6195,26.81900426056484
2346.0393,25.639947341794993
2347.4583,26.459941469154046
2348.8767,24.078981702335057
2350.2943,22.797062836432247
2351.7113,20.814179425750183
2353.1275,30.130325796623367
2354.543,26.24549606724503
2355.9578,27.859684054505408
2357.3718,24.4228833128397
2358.7852,22.885087118086687
2360.1978,19.446288501856486
2361.6098,26.606480266908704
2363.021,23.46565502154067
2364.4315,19.673805107985004
2365.8413,19.980922633818295
2367.2504,19.286999509879195
2368.6587,18.292027447197313
2370.0664,18.945997963932484
2371.4733,13.198902395324126
2372.8795,20.300731887151983
2374.285,10.701477453206849
2375.6899,20.001129904273284
2377.0939,22.19967994412076
2378.4973,20.44711807650799
2379.9,16.64343458319678
2381.3019,15.338619541478181
2382.7032,16.13266286220835
2384.1037,19.87555430285755
2385.5035,18.66728345956932
2386.9027,16.30783972973188
2388.3011,15.397212324061059
2389.6987,10.285390290194243
2391.0957,13.222362521796867
2392.492,17.308117809681107
2393.8876,9.34264481243531
2395.2824,5.0259320155670935
2396.6765,7.457967811157573
2398.07,7.088740541028756
2399.4627,8.66823847242307
2400.8547,7.796449801695701
2402.246,5.67336263851945
2403.6366,6.348965014602868
2405.0265,3.9732449049211027
2406.4156,5.996190220959704
2407.8041,3.767788834471901
2409.1918,7.088028557249061
2410.5789,10.506897163404801
2411.9652,0.6243823561724753
2413.3508,10.790471733716686
2414.7358,-0.24484711204155474
2416.12,11.21841330291403
2417.5035,8.93024290862246
2418.8863,11.290631522938384
2420.2684,12.449568874414695
2421.6497,7.957044578697776
2423.0304,13.563048126938668
2424.4104,10.117568930718164
2425.7896,1.8705962659867623
2427.1682,11.622119307519654
2428.546,11.272127211386191
2429.9232,4.520609017434765
2431.2996,4.717553652792901
2432.6753,6.312949999382056
2434.0503,2.856786891948502
2435.4246,7.9990531021090305
2436.7982,4.939737372912759
2438.1711,5.628828367418578
2439.5433,7.516314699287818
2440.9148,2.602184925893937
2442.2856,3.036427529447394
2443.6557,4.069030966136893
2445.025,7.049983661787223
2446.3937,8.979274001532985
2447.7617,8.456890300009263
2449.1289,2.8328207820585476
2450.4955,8.107053587954795
2451.8613,7.279576829644043
2453.2265,3.7503785380019394
2454.5909,15.869446671108278
2455.9546,6.786769149539623
2457.3177,10.652333735177876
2458.68,16.166128122037833
2460.0416,12.128139897610936
2461.4025,11.138356487727435
2462.7627,6.946765196936553
2464.1222,6.30335321840397
2465.4811,14.908107675828035
2466.8392,9.66101562987376
2468.1966,14.312063992125161
2469.5533,9.861239577556319
2470.9093,14.308529058020781
2472.2645,11.40391900675985
2473.6191,15.247395853929731
2474.973,12.588945915647571
2476.3262,14.178555355556512
2477.6787,10.616210211410703
2479.0305,9.801896379178515
2480.3816,17.785599648666334
2481.7319,16.467305711661936
2483.0816,12.697000082097077
2484.4306,14.474668109230663
2485.7789,11.500295015351583
2487.1264,18.973865878002414
2488.4733,14.745365659722609
2489.8195,15.36477913331322
2491.165,11.93209092412161
2492.5097,19.747285503847763
2493.8538,16.310347224870497
2495.1972,13.321260242096287
2496.5398,6.280008547328009
2497.8818,19.986575999156287
2499.2231,12.990946393371928
2500.5637,13.793103325900177
2501.9035,14.393030262756838
2503.2427,21.840710532026947
2504.5812,18.23612731786517
2505.919,16.529263586019397
2507.256,15.82010211987614
2508.5924,14.008625537529667
2509.9281,14.994816298873218
2511.2631,20.228656723714153
2512.5974,15.760128981911578
2513.9309,19.689215041038324
2515.2638,10.965896711066023
2516.596,12.090155605074472
2517.9275,18.511973226484486
2519.2583,18.881330957815635
2520.5884,16.198209996467995
2521.9178,15.662591351028368
2523.2465,21.97445586810153
2524.5745,12.983784237666669
2525.9018,18.290556929958314
2527.2284,16.99475428537363
2528.5543,15.796356461403889
2529.8796,15.645343445593312
2531.2041,17.691695067522346
2532.5279,19.435391000318305
2533.851,15.876410740191375
2535.1735,20.41473358899816
2536.4952,19.400338689831074
2537.8163,25.683204981635527
2539.1366,15.263311209353503
2540.4562,17.44063586109513
2541.7752,21.865157272337456
2543.0935,24.336853604151088
2544.411,20.305702798955394
2545.7279,27.821682555801033
2547.0441,26.68477037068186
2548.3596,29.444943461374805
2549.6744,33.75217877880931
2550.9885,25.50645297946562
2552.3019,17.507742382302354
2553.6146,24.956023051213606
2554.9266,26.501270875016417
2556.2379,24.443461492967657
2557.5485,23.982570279311545
2558.8585,23.918572363857777
2560.1677,19.401442636590474
2561.4762,21.981155748308282
2562.7841,28.757686155795398
2564.0913,24.281008096024692
2565.3977,24.501095518392077
2566.7035,26.317922129483804
2568.0086,24.981461390875154
2569.313,27.241686500962146
2570.6167,22.79857040832647
2571.9197,27.052085789132917
2573.222,25.85220509156082
2574.5236,28.948900493268667
2575.8246,34.44214391339301
2577.1248,33.381906981581466
2578.4244,30.51816098306037
2579.7232,35.350876869237055
2581.0214,29.88002528633737
2582.3189,32.3055765270785
2583.6157,30.877500585377533
2584.9118,29.895767132095727
2586.2072,30.160345529319386
2587.5019,35.021204840177376
2588.7959,32.6283138261951
2590.0893,33.33164089868603
2591.3819,39.031154142680634
2592.6739,38.82682130989292
2593.9652,41.718609761725844
2595.2557,37.70648647131395
2596.5456,35.04041799460583
2597.8348,36.820370510485446
2599.1234,40.9963098474324
2600.4112,35.51820146572271
2601.6983,39.53601041566938
2602.9848,46.54970139240356
2604.2705,40.509238695696354
2605.5556,41.71458615982195
2606.84,41.96570721396219
2608.1237,45.162564870153176
2609.4067,43.705121720774
2610.689,39.243339906578456
2611.9707,40.92718113126904
2613.2516,31.606606706115116
2614.5319,37.781577533114245
2615.8115,44.102054198198005
2617.0903,38.56799690948242
2618.3685,36.029365434062896
2619.6461,30.786119153355088
2620.9229,32.83821708848109
2622.199,39.88561795270192
2623.4745,36.078280130896644
2624.7493,34.2161616090882
2626.0234,32.24922001251676
2627.2968,39.177412624261024
2628.5695,36.850696404907694
2629.8415,37.21902792326938
2631.1128,38.232363379651815
2632.3835,42.54065860217054
2633.6535,34.79386903661759
2634.9228,33.341949703378475
2636.1914,35.83485527490015
2637.4593,39.222540090210146
2638.7265,38.10495812998755
2639.9931,37.9820629826863
2641.259,40.85380785571073
2642.5242,39.87014557664466
2643.7887,35.13102856453398
2645.0525,38.28640883972318
2646.3156,36.936238071246606
2647.5781,36.58046754527467
2648.8398,34.36904817861554
2650.1009,34.70193052227276
2651.3613,34.37906478355947
2652.6211,38.80040082276986
2653.8801,31.015888156407442
2655.1385,36.27547591297187
2656.3961,37.0791129108039
2657.6531,36.07674760548966
2658.9094,35.36832808182422
2660.1651,39.50380206383517
2661.42,31.083116921866804
2662.6743,39.45621963122551
2663.9279,38.5230568563866
2665.1808,32.98357486726326
2666.433,41.137719548538115
2667.6846,43.835436455058186
2668.9354,47.776670730293404
2670.1856,41.46136707935949
2671.4351,46.2894697296056
2672.6839,42.960922493767214
2673.9321,45.32566872168525
2675.1795,50.1336513335915
2676.4263,51.234812796461114
2677.6724,49.529095075932844
2678.9179,57.01643962529761
2680.1626,49.346787402555236
2681.4067,49.07007879554138
2682.6501,47.53625369862391
2683.8928,45.44525151547009
2685.1348,50.247011174384596
2686.3761,41.69147114921981
2687.6168,47.72856941135794
2688.8568,46.00824351526677
2690.0961,38.93043053812849
2691.3348,44.845067097042914
2692.5727,34.452089419805674
2693.81,37.201433285761766
2695.0466,42.29303412973525
2696.2826,42.42682701453617
2697.5178,40.35274658004417
2698.7524,45.020727041870856
2699.9863,37.23070221210031
2701.2195,47.58260545260944
2702.452,44.82636975296825
2703.6839,44.7119276269207
2704.9151,49.58921113994714
2706.1456,50.15815191040886
2707.3755,57.468681060775026
2708.6046,53.5707292119335
2709.8331,55.01422641008534
2711.0609,60.49910216572442
2712.2881,55.82528543920239
2713.5145,61.29270458587993
2714.7403,67.00128740286496
2715.9654,71.50096107433845
2717.1899,77.44165211446852
2718.4136,78.9732863224138
2719.6367,89.84578872291661
2720.8591,85.95908355098658
2722.0809,98.11309414317557
2723.3019,100.20774297644468
2724.5223,97.69295154662422
2725.7421,101.6186403474671
2726.9611,99.33472889579701
2728.1795,103.84113569225102
2729.3972,93.68777824411933
2730.6142,87.37457302028068
2731.8306,83.00143555273624
2733.0462,83.01828049974154
2734.2612,69.52502168953788
2735.4756,70.4215721201839
2736.6892,57.707844094487996
2737.9022,62.483749211042976
2739.1145,52.99919849136336
2740.3262,52.00410233212614
2741.5372,45.898370600016534
2742.7475,40.93191264167885
2743.9571,38.004637344773755
2745.1661,33.21645318764294
2746.3744,31.867268268581768
2747.582,30.856990353721073
2748.7889,26.13552689051909
2749.9952,24.65278501786446
2751.2008,21.90867161329038
2752.4057,19.603093307802396
2753.61,17.485956513319394
2754.8136,19.557167445729362
2756.0165,11.466632146060817
2757.2188,13.6142564597707
2758.4204,11.149946117649847
2759.6213,14.123606714346494
2760.8215,12.285143733009448
2762.0211,15.384462515551661
2763.22,9.621468281034566
2764.4182,12.096066094675223
2765.6158,12.258160925476005
2766.8127,10.607657621478864
2768.009,7.44446090814418
2769.2045,4.718475404855894
2770.3994,6.129605656553537
2771.5936,1.7277561609920156
2772.7872,-0.23716864536964977
2773.9801,-3.6152643433501055
2775.1723,2.893375855546765
2776.3639,-3.4113051436922603
2777.5548,-0.42936446501414594
2778.745,-2.210825153427521
2779.9346,-7.65570596459014
2781.1235,-2.814003568016517
2782.3117,-3.4356381527185533
2783.4992,-8.22050179581268
2784.6861,-5.9684522523902785
2785.8723,-3.6792651547298476
2787.0579,-1.5526565102720156
2788.2428,-0.48830557059864077
2789.427,-3.2858760762531176
2790.6106,0.05497311039374608
2791.7935,-5.015384047126901
2792.9757,1.403426414166404
2794.1573,-1.7381714390583909
2795.3382,0.9602464458325812
2796.5184,3.6991214858057333
2797.698,8.928895088225062
2798.8769,13.800008623463384
2800.0551,11.412903372604802
2801.2327,17.318020478733303
2802.4096,25.065800970803934
2803.5859,26.956685704591564
2804.7615,31.941115285213158
2805.9364,36.76953004821891
2807.1106,47.09237000974787
2808.2842,48.76007481824391
2809.4572,65.8230836512272
2810.6294,70.8818351986175
2811.801,87.03676749210362
2812.972,89.38831785455628
2814.1423,103.33692273847859
2815.3119,122.23301770249034
2816.4808,142.2270372718424
2817.6491,156.36941474945547
2818.8167,173.5105820159797
2819.9837,194.95096938837142
2821.15,204.59100544848133
2822.3157,234.28111682865017
2823.4807,252.52172811530906
2824.645,276.31326155207796
2825.8086,295.45613685735975
2826.9716,325.950770986425
2828.134,338.29757793998283
2829.2957,357.34696845923474
2830.4567,361.8493499024065
2831.617,377.9051260542543
2832.7767,376.51469708104094
2833.9358,378.9784593699784
2835.0941,374.2468055431313
2836.2519,365.22012443278027
2837.4089,351.54880112873775
2838.5653,343.2832170686153
2839.7211,341.0237501745362
2840.8761,343.170774935792
2842.0306,336.67466243143684
2843.1843,350.33578030881733
2844.3374,355.75449284853335
2845.4899,374.2811608278273
2846.6417,391.4661414663967
2847.7928,407.6097882411275
2848.9433,434.26245071424444
2850.0931,451.42447437187445
2851.2422,472.0462003575202
2852.3907,490.52796530043963
2853.5385,504.17010110942863
2854.6857,520.772934788004
2855.8323,539.4867882979813
2856.9781,555.9619783934471
2858.1233,573.5988164336201
2859.2679,596.5476082180992
2860.4118,610.7586538104954
2861.555,631.3322473089436
2862.6976,639.9686767039923
2863.8395,658.5682236728677
2864.9808,659.7311634931091
2866.1214,676.7077648565742
2867.2614,681.7982898578084
2868.4007,684.5529938242805
2869.5393,696.7221252654758
2870.6773,690.5059258453499
2871.8146,689.3046302606374
2872.9513,697.8184663030133
2874.0874,690.8976548711071
2875.2227,687.4924098853629
2876.3574,677.0029383572491
2877.4915,663.52944042331
2878.6249,661.5721094500601
2879.7577,650.3311321687202
2880.8898,645.5066886947898
2882.0212,648.2989526404574
2883.152,637.6580911628448
2884.2821,634.0842649360839
2885.4116,629.8276282577266
2886.5405,646.6383290844815
2887.6686,639.4665090747817
2888.7962,647.7623034206769
2889.923,650.2258409195518
2891.0493,649.1072438911688
2892.1748,649.2566281530314
2893.2997,660.7741030315711
2894.424,665.5597713606536
2895.5476,668.3637293664032
2896.6706,667.3860666193466
2897.7929,675.3268660063738
2898.9145,692.486203740514
2900.0355,703.7641492815276
2901.1559,712.6107651643132
2902.2756,712.476106886128
2903.3946,727.9602228181218
2904.513,740.1631542066832
2905.6308,742.5849350185986
2906.7479,755.575591819023
2907.8643,761.7851437472623
2908.9801,764.8136023868663
2910.0953,762.2109717035335
2911.2098,758.4772480148265
2912.3236,745.2124200161982
2913.4368,760.2664688183293
2914.5494,744.2893680797758
2915.6613,732.4810838564299
2916.7725,717.5915747612895
2917.8831,717.3207920825421
2918.9931,701.71867993246
2920.1024,684.3851752501071
2921.211,682.5702079573607
2922.319,683.6737011322471
2923.4264,671.0455710270896
2924.5331,672.7357270574756
2925.6391,674.0440719285366
2926.7445,675.9205016180465
2927.8493,668.0149053633389
2928.9534,669.5771656425427
2930.0569,673.0071582536376
2931.1597,673.7547522988318
2932.2619,684.7698101502622
2933.3634,679.4521874425182
2934.4643,688.2517329624907
2935.5645,692.2682887025497
2936.6641,674.4016897725473
2937.763,662.7017643596533
2938.8613,662.8683339070203
2939.959,656.301213230783
2941.056,636.6002105183939
2942.1523,609.7151273942925
2943.248,583.0957591169172
2944.3431,547.1918948475545
2945.4375,522.653317916534
2946.5313,483.6298061822662
2947.6244,445.17113227662855
2948.7169,415.0270639952007
2949.8087,389.74736468185074
2950.8999,353.13179353017665
2951.9904,326.2301058363025
2953.0803,306.24205336503456
2954.1696,286.91738461887815
2955.2582,265.2558450379182
2956.3462,257.5571771930661
2957.4335,241.52112100267428
2958.5202,228.19741380952394
2959.6062,222.28579054118487
2960.6916,213.4859838432529
2961.7764,209.2477241384659
2962.8605,198.87073971470218
2963.9439,208.0047567673628
2965.0267,200.34949950314146
2966.1089,202.5546900486843
2967.1905,197.67004852714274
2968.2714,196.59529303612118
2969.3516,207.68013969652375
2970.4312,200.07430266330175
2971.5102,205.0274940146052
2972.5885,207.08942382784122
2973.6662,206.9098001301422
2974.7432,212.78832887774632
2975.8196,217.47471395779397
2976.8954,212.81865712954215
2977.9705,215.46985797750085
2979.045,210.42801395799364
2980.1188,204.14282037264562
2981.192,204.4139704188017
2982.2645,194.94115525237905
2983.3364,187.47406398515497
2984.4077,181.01238377949537
2985.4783,169.65579992302563
2986.5483,166.35399589324734
2987.6177,149.80665347110417
2988.6864,147.16345277399998
2989.7545,132.87407242127213
2990.8219,120.93818956062361
2991.8887,106.30548001101681
2992.9548,98.97561838203211
2994.0204,89.09827822019531
2995.0852,75.57313208227612
2996.1495,69.44985163406145
2997.2131,57.62810778560703
2998.276,55.557570752470184
2999.3383,43.63791017392725
3000.4,34.86879513367887
3001.4611,34.54989427904664
3002.5215,24.280875908664285
3003.5812,22.21140797566673
3004.6404,20.341158190380185
3005.6989,16.61979404101689
3006.7567,11.296982812377536
3007.8139,2.9723916230651355
3008.8705,6.595687478712875
3009.9264,2.0665373552301958
3010.9818,3.3846081625697195
3012.0364,1.0495667900185595
3013.0905,-4.538919906981903
3014.1439,-2.8311850834860195
3015.1966,-3.8275165507382383
3016.2487,-1.7781738364441821
3017.3002,-0.9833782314191524
3018.3511,-0.8933332625218782
3019.4013,-3.9582326326627424
3020.4509,-6.27826112035288
3021.4998,-0.9035639613593958
3022.5481,-0.8842236716211005
3023.5958,-6.520313740472744
3024.6428,-1.3118988238547047
3025.6892,-0.20897843977320463
3026.735,2.4884609996348104
3027.7802,-0.36956483007321594
3028.8247,6.71695972177568
3029.8685,-0.2019460021930115
3030.9118,8.173737273476604
3031.9544,6.144030841681001
3032.9963,8.358955913579393
3034.0376,11.168533638890722
3035.0783,7.472785083744526
3036.1184,13.321731202584942
3037.1578,15.165392875128418
3038.1966,17.153790847874134
3039.2348,16.186945715667292
3040.2723,17.364877901815262
3041.3092,21.237607667755938
3042.3455,22.205155101278265
3043.3811,25.267540077795275
3044.4161,24.77478225066845
3045.4505,28.97690102058398
3046.4842,27.873915540480198
3047.5173,27.265844673526573
3048.5498,23.252707004153493
3049.5816,25.13452084413295
3050.6128,26.06130427270996
3051.6434,29.28307511778435
3052.6734,22.79985094664302
3053.7027,27.51164903374216
3054.7314,22.768486425539507
3055.7594,26.420379893376364
3056.7868,27.417345980909232
3057.8136,27.259400967590835
3058.8398,26.896560858700525
3059.8653,28.67884138692368
3060.8902,29.40625801598007
3061.9145,25.52882592280119
3062.9381,33.496559990256
3063.9612,29.159474845925274
3064.9835,34.167584782424285
3066.0053,29.62090380077359
3067.0264,33.919445560317925
3068.0469,28.36322342419301
3069.0668,28.102250416340155
3070.086,27.486539277068488
3071.1046,27.61610246566464
3072.1226,26.69095216654992
3073.1399,24.961100287984607
3074.1567,26.22655847131955
3075.1727,19.28733810829462
3076.1882,20.293450328384196
3077.203,17.94490606818927
3078.2173,17.841716061376403
3079.2308,15.983890862163165
3080.2438,19.07144084635
3081.2561,14.804376229898438
3082.2678,15.082707038055702
3083.2789,13.306443148025238
3084.2893,12.825594286183488
3085.2991,11.140170045842453
3086.3083,4.7001798920583155
3087.3169,7.505633178485539
3088.3248,2.0065392117768255
3089.3321,8.002907223528567
3090.3388,4.394746425271876
3091.3449,5.88206594850881
3092.3503,3.6148748807940194
3093.3551,4.393182250861543
3094.3593,-0.13300294870326468
3095.3629,1.1363282307531222
3096.3658,1.5011860665836423
3097.3681,5.411580824777971
3098.3698,5.36752275631396
3099.3708,2.9190220580536135
3100.3713,2.8160888731838014
3101.3711,1.4587333157012097
3102.3702,8.746965471441627
3103.3688,2.8307954116535825
3104.3667,2.010233120115984
3105.364,1.1352885522997838
3106.3607,0.6059716435737101
3107.3568,2.7222923179535883
3108.3522,0.8842604933955798
3109.347,2.2918860606328977
3110.3412,0.8451789015562383
3111.3348,1.6441488751374251
3112.3277,3.338805831896508
3113.32,1.9291596059120977
3114.3117,1.6652199978747504
3115.3028,3.3969967891834685
3116.2932,-1.0255002554148902
3117.2831,-1.0522614051434047
3118.2723,3.516733315522387
3119.2608,4.831514394198344
3120.2488,2.242112283333043
3121.2361,2.348557387059927
3122.2229,2.550880087091322
3123.209,-0.850889258346001
3124.1944,5.543279683465968
3125.1793,2.783425745628918
3126.1635,2.8695877058117745
3127.1471,3.3018043138492246
3128.1301,2.8801142908801083
3129.1125,4.9045563250252755
3130.0942,2.8251690756044567
3131.0753,1.3419911528918504
3132.0558,4.8550611389099885
3133.0357,3.2144176022615127
3134.015,4.62009906299847
3134.9936,2.5221440090287714
3135.9716,4.270590882059359
3136.949,4.41547809857574
3137.9258,5.106844032357522
3138.902,7.194727013029578
3139.8775,5.129165319148335
3140.8524,3.6101971573230074
3141.8267,8.537860682871163
3142.8004,8.962194015008414
3143.7735,5.6332351875717706
3144.7459,4.451022144776331
3145.7178,6.915592774504816
3146.689,9.326984920129796
3147.6596,5.53523635586788
3148.6295,8.890384762665867
3149.5989,6.492467766118196
3150.5676,8.24152290291547
3151.5357,9.787587644823624
3152.5032,8.730699381193403
3153.4701,9.320895403499684
3154.4364,8.008212915910356
3155.402,11.892689029384368
3156.367,13.224360774798566
3157.3315,12.103265064102928
3158.2952,13.829438677003804
3159.2584,12.802918272174928
3160.221,11.92374036999566
3161.1829,14.59194136281618
3162.1442,13.657557523749286
3163.105,11.320624979988335
3164.065,13.531179722151123
3165.0245,11.439257627649205
3165.9834,16.59489443858237
3166.9416,15.698125782657833
3167.8993,12.148987121633898
3168.8563,15.597513760287594
3169.8127,14.443740881906088
3170.7684,18.33770351380144
3171.7236,16.87943653884828
3172.6782,12.868974656544236
3173.6321,16.406352397592553
3174.5854,16.04160416400674
3175.5381,19.7247641937368
3176.4902,16.255866564316676
3177.4417,17.234945156032683
3178.3926,19.512033686612487
3179.3428,17.937165701434285
3180.2924,17.760374550755962
3181.2415,20.881693405463732
3182.1899,17.50115525884008
3183.1377,19.068792895350583
3184.0848,22.18463892444923
3185.0314,17.99872576490212
3185.9773,20.511085613628957
3186.9227,21.121750487562206
3187.8674,18.530752198523466
3188.8115,18.08812234711685
3189.755,20.99389234863895
3190.6979,21.998093437505137
3191.6402,23.800756638191856
3192.5818,24.451912755194634
3193.5229,20.951592355001445
3194.4633,21.499825759581118
3195.4031,21.99664308138658
3196.3423,24.9920742178725
3197.2809,23.436148846527107
3198.2189,21.67889639491792
3199.1563,22.570346056250955
3200.0931,24.560526806943265
3201.0292,24.699467397708453
3201.9648,25.837196333654855
3202.8997,24.073741872896132
3203.834,24.709132015173992
3204.7677,26.443394519492728
3205.7008,25.676556897765305
3206.6333,24.008646397470752
3207.5652,27.639690009322525
3208.4964,27.769714483947627
3209.4271,28.348746295576163
3210.3571,28.726811640741087
3211.2865,31.1039364324879
3212.2154,27.580146296593977
3213.1436,27.255466547797333
3214.0712,31.129922225034527
3214.9982,29.753538094687446
3215.9246,28.726338611838756
3216.8503,27.64834793403574
3217.7755,31.7195899315623
3218.7001,31.790088198218847
3219.624,30.209866010609904
3220.5473,30.778946327439108
3221.4701,34.29735180531143
3222.3922,33.46510479304237
3223.3137,29.582227296473924
3224.2346,34.498740986797046
3225.1549,32.864667239380374
3226.0746,36.43002708460517
3226.9937,32.194841224206016
3227.9121,36.659129995617214
3228.83,33.52291341432465
3229.7473,33.5362111292229
3230.6639,34.149042453977415
3231.5799,34.661426366891526
3232.4954,37.973381504778125
3233.4102,34.13492615783585
3234.3244,39.246078236529506
3235.238,37.45685530997463
3236.151,32.71727455482598
3237.0634,38.52735277316974
3237.9752,36.88710643991935
3238.8864,36.74655164471473
3239.797,37.55570410832469
3240.7069,38.91457918405254
3241.6163,37.823191849644566
3242.5251,39.13155669370123
3243.4332,39.68968792659107
3244.3408,39.99759936736707
3245.2477,41.55530443818534
3246.154,41.01281616122593
3247.0598,42.52014714311589
3247.9649,38.977309580354074
3248.8694,42.83431524423787
3249.7733,41.741175516291534
3250.6766,38.69790134969621
3251.5793,39.804503280221226
3252.4814,41.16099145665691
3253.3829,43.167375629748555
3254.2838,41.823665138631526
3255.1841,44.479868890767406
3256.0838,41.88599537538115
3256.9829,40.89205263689901
3257.8814,46.398048300887275
3258.7792,46.203989583991714
3259.6765,45.0598832388776
3260.5731,44.06573555617029
3261.4692,45.5715523758963
3262.3647,43.87733909742481
3263.2595,42.53310066440943
3264.1538,42.2388415817304
3265.0474,45.89456592893694
3265.9404,45.000277363189824
3266.8329,44.60597908270417
3267.7247,44.361673835692294
3268.616,44.867363924306716
3269.5066,46.9730512070832
3270.3966,48.42873709388384
3271.286,45.58442252484025
