RamanShift,CorrectedData
30.1047,149.98599038441006
32.3739,138.41469971176298
34.6426,125.893407539256
36.9109,117.62211098288219
39.1787,104.00080589970055
41.4461,94.17948697054885
43.7131,81.90814783625686
45.9796,73.48678119585936
48.2456,60.56537892930966
50.5112,51.49393218169321
52.7764,40.07243149244167
55.0411,29.850866886047385
57.3054,21.87922798627832
59.5692,10.957504118393814
61.8326,-2.364315611139098
64.0955,-10.286242205428412
66.3579,-21.10826304806918
68.6199,-31.88026276309684
70.8815,-36.651915102998984
73.1426,-35.37257533643824
75.4032,-21.191232579445398
77.6634,23.243477423976344
79.9231,154.88313063023713
82.1824,427.22930276331255
84.4412,916.7335679983468
86.6995,1549.047496238191
88.9574,2184.7226482183605
91.2148,2624.860569183897
93.4717,2840.962782532614
95.7282,2878.63078541372
97.9842,2865.5660465667966
100.2398,2833.670005945117
102.4949,2795.9440748462926
104.7495,2767.1896362312386
107.0036,2729.2080451014253
109.2573,2662.950628786429
111.5105,2580.1686873237463
113.7632,2512.8134941213657
116.0154,2451.1362967855903
118.2672,2386.6383177945877
120.5185,2289.420755115163
122.7693,2229.834782847738
125.0197,2162.831552198528
127.2696,2095.7621920753995
129.519,2051.1778097579045
131.7679,2026.9794915679718
134.0163,1986.0683033157543
136.2642,1961.4452905416088
138.5117,1964.9114789252085
140.7587,1926.3178745317753
143.0052,1881.6154637774157
145.2512,1839.2052138150582
147.4967,1782.6380729814762
149.7417,1735.8649712213917
151.9863,1712.1368206531454
154.2304,1689.904516036429
156.4739,1674.0689350095665
158.717,1660.2309383118368
160.9596,1668.5913699418297
163.2017,1646.451057295825
165.4433,1654.0608110841895
167.6844,1638.9214255527804
169.925,1621.6336784068458
172.1651,1570.8483309624203
174.4047,1521.8661283192025
176.6439,1481.7877998684066
178.8825,1454.014059782587
181.1206,1432.9456074164195
183.3582,1406.7331275844404
185.5954,1382.9272907717288
187.832,1371.278753396034
190.0681,1366.6381580458317
192.3037,1353.7561335968107
194.5388,1329.1832952582781
196.7734,1331.2702447019794
199.0075,1328.6675703078288
201.2411,1332.7258471430368
203.4742,1329.54563698814
205.7068,1330.9774882964161
207.9389,1348.5219362256876
210.1704,1352.2295026240015
212.4015,1329.6506958541872
214.632,1318.9860107567781
216.862,1304.1859288758014
219.0915,1311.2509185654242
221.3205,1290.0314351379552
223.549,1297.2279207931936
225.777,1283.6408048306248
228.0044,1263.220503577455
230.2314,1257.917420524484
232.4578,1233.1819465303065
234.6837,1211.4144598743424
236.909,1198.4653265041934
239.1339,1173.7349002533178
241.3582,1162.4735229705193
243.582,1150.5815247672535
245.8053,1143.759224130242
248.0281,1147.55692804039
250.2503,1135.5249320410117
252.472,1121.7635201998523
254.6932,1109.872965229408
256.9139,1103.1035286245392
259.134,1107.7554607813777
261.3536,1114.1790010650202
263.5727,1124.1743777630093
265.7912,1130.8918080210983
268.0092,1165.831497743297
270.2267,1187.4436415246971
272.4436,1198.0284223020767
274.6601,1218.0860111377774
276.8759,1230.8665671138574
279.0913,1227.8202371315153
281.3061,1209.4971557832855
283.5204,1219.1974453835
285.7341,1225.12121615152
287.9473,1252.1185661147324
290.16,1226.0895810493123
292.3721,1187.1843342102488
294.5837,1153.0528865916363
296.7947,1127.0452873157255
299.0052,1094.861573974239
301.2152,1099.9517728884475
303.4246,1076.3158994310058
305.6334,1045.7039579750535
307.8418,1022.51594213057
310.0495,1013.9518350504975
312.2568,976.9116096626167
314.4635,937.545228755192
316.6696,893.1526453473718
318.8752,854.4338030828524
321.0802,831.4386366738033
323.2847,823.2170722880587
325.4887,799.5690277790648
327.692,814.4444127680981
329.8949,820.2431288807454
332.0972,833.5650695981492
334.2989,865.5601201990214
336.5001,855.5281576264233
338.7007,824.5190501678157
340.9008,798.9326575553782
343.1003,744.0188312761004
345.2992,709.0774148276457
347.4976,659.6582442674894
349.6955,635.5111485623338
351.8927,620.3859500822982
354.0895,593.7324648423917
356.2856,582.0505026537642
358.4812,555.1898673902413
360.6763,565.8503571051438
362.8707,545.4817642998951
365.0646,553.5838758174159
367.258,539.80647304581
369.4508,539.7493318373429
371.643,554.0122226462158
373.8346,571.4449105291374
376.0257,581.8471550026943
378.2162,607.7187098690251
380.4062,600.5593231117969
382.5956,583.6187366374907
384.7844,544.3466863469944
386.9726,501.94290230500883
389.1603,476.75710913276885
391.3474,450.8890264320803
393.5339,443.83836903717815
395.7199,442.60484727340827
397.9052,466.9881670277325
400.09,476.68802976106485
402.2743,496.6041322644385
404.4579,522.2861665620064
406.641,551.8838197118819
408.8235,589.7467735493165
411.0054,610.8247043907243
413.1868,681.9672826550527
415.3675,741.624172653002
417.5477,751.645031875601
419.7273,691.8795103976372
421.9064,584.2772507774482
424.0848,517.3378886545772
426.2627,479.9110538257953
428.4399,424.9463709144957
430.6166,392.3434597449618
432.7928,341.45193589201267
434.9683,317.0214110070342
437.1432,297.9514933268938
439.3176,277.9417879182447
441.4914,251.64189686822556
443.6645,251.40141948455812
445.8371,245.21995255854517
448.0091,248.29709036747659
450.1806,230.58242473644327
452.3514,220.52554500756537
454.5216,222.4260382171392
456.6913,220.03348919620635
458.8603,211.0974805515482
461.0288,222.21759268961182
463.1967,210.4934039058703
465.3639,202.9744902736213
467.5306,202.96042576122954
469.6967,190.0507823073151
471.8622,180.59512982089382
474.0271,181.6430363104755
476.1914,164.54406797861793
478.3551,160.1977892114512
480.5182,163.70376274966384
482.6807,154.1115497319688
484.8426,167.17070966004167
487.0039,202.68080049444256
489.1647,235.54137852402528
491.3248,259.70199801083686
493.4843,267.41221086151063
495.6432,265.3215663856604
497.8015,245.22961121877802
499.9592,206.68588934313993
502.1163,175.23994228872766
504.2728,132.09130951866405
506.4287,123.98952874367274
508.5839,113.08413635356465
510.7386,108.07466749825653
512.8927,106.71065619682417
515.0461,117.69163538759835
517.199,125.86713694180321
519.3512,149.18669155374732
521.5029,184.54982865906823
523.6539,229.8060762015382
525.8043,225.80496027943104
527.9541,194.6960046929612
530.1033,142.57873098429377
532.2519,118.15265874863394
534.3999,94.46730615540037
536.5472,84.42219019248614
538.694,84.76682690311122
540.8401,86.60073148627521
542.9856,111.17341829330985
545.1305,120.43440080954088
547.2748,120.48319140856006
549.4185,125.71930125961603
551.5615,135.09224032712723
553.704,148.85151731831775
555.8458,152.69663958949104
557.987,170.07711300843562
560.1276,187.9924419159738
562.2675,222.89212895215815
564.4069,265.3256748771171
566.5456,298.4425782220576
568.6837,289.79233486493126
570.8212,238.4744376992635
572.958,189.18837672065683
575.0942,153.5836395399699
577.2299,131.4097118761772
579.3648,111.16607791241768
581.4992,95.55222051773399
583.6329,84.61762144950899
585.766,107.01176150960373
587.8985,143.18412065370376
590.0304,160.98417776737801
592.1616,176.96141030435342
594.2922,179.4152941085174
596.4222,160.59530325414312
598.5515,118.80091002135123
600.6802,83.4815850843097
602.8083,55.036797929178874
604.9358,52.91601720730341
607.0626,43.46871101965962
609.1888,41.894346938066064
611.3144,66.24239209965367
613.4393,95.76231322261197
615.5636,118.70357636270569
617.6873,152.26564661807697
619.8103,179.8979878998332
621.9327,171.40006259642496
624.0544,170.4213312973236
626.1756,134.0112528779996
628.2961,95.2192845097104
630.4159,67.84488202360058
632.5351,62.78750029862272
634.6537,65.64659353528032
636.7716,55.921615306202966
638.8889,49.362018527554255
641.0056,64.26725555628241
643.1216,76.38677825571563
645.237,85.87003784651029
647.3518,60.26648478545599
649.4659,46.07556867064227
651.5793,36.5967384974947
653.6922,31.479442800683955
655.8043,20.22312974891338
657.9159,6.37724719609264
660.0268,1.3412427938999372
662.137,4.46450048531392
664.2466,10.946390814296592
666.3556,11.836239724448888
668.4639,-2.716626950090358
670.5716,9.487116506454186
672.6786,-4.553177051037892
674.785,-2.9881548625594405
676.8907,-5.118418681865023
678.9958,-2.0945404110425443
681.1002,-10.567040819178601
683.204,-12.036419750901132
685.3072,-5.353071486100362
687.4097,-4.9172700608348805
689.5115,-5.02923603397835
691.6127,0.8108591591224013
693.7132,-12.147105674812337
695.8131,-5.203251737169921
697.9123,0.39242112024680864
700.0109,5.489965026119762
702.1089,13.239432105207243
704.2061,18.64087442736877
706.3028,32.14434393006991
708.3987,47.49989236436795
710.4941,51.507571159876534
712.5887,68.91743127121026
714.6827,62.52952313790911
716.7761,70.34389651033871
718.8688,60.16060051357067
720.9608,59.72968356923752
723.0522,67.00119349736747
725.1429,84.07517752069157
727.233,114.80168219193001
729.3224,164.58075322305217
731.4112,184.212435178011
733.4993,197.64677097495246
735.5867,176.73380168989866
737.6735,133.07356642240438
739.7596,109.96610250468802
741.845,78.96144593823283
743.9298,96.05963162486137
746.014,101.76069367678247
748.0974,124.5646652456096
750.1802,126.82157846535006
752.2624,103.83146422436448
754.3439,92.89435214279956
756.4247,78.81027080248668
758.5048,87.9292478563143
760.5843,90.25131016906903
762.6631,110.87648372624585
764.7413,140.40479361082657
766.8188,187.7862637970286
768.8956,247.17091685502123
770.9718,292.5587734771111
773.0473,280.3498518838969
775.1221,256.74416737038996
777.1962,250.6417324281026
779.2697,286.64255698110696
781.3426,356.4966484470583
783.4147,406.30401137718695
785.4862,410.91464675775796
787.557,339.2285515119961
789.6271,261.0957184539809
791.6966,176.0661370055061
793.7654,98.08979397740904
795.8335,82.8666744198656
797.901,65.09676240215458
799.9678,51.480041164888235
802.0339,48.81649329771153
804.0993,51.6561008754702
806.1641,54.94884548484583
808.2282,46.54470819595804
810.2916,27.54366952943974
812.3544,29.995709540477492
814.4164,18.600808008821105
816.4778,31.90894441426485
818.5385,24.020098050595607
820.5986,56.53424789251039
822.658,93.05137267450664
824.7166,133.02145056573954
826.7747,197.74445880485098
828.832,242.9203733002696
830.8886,291.54916798297904
832.9446,308.4808143547606
834.9999,283.0152810019033
837.0545,245.75253342588962
839.1085,182.09253429804903
841.1618,138.63524383218612
843.2143,104.78062042118063
845.2662,77.32862107156029
847.3175,71.52920174204723
849.368,70.38231761807754
851.4179,62.38792316979573
853.467,64.94597216352372
855.5155,77.75641774170515
857.5633,64.06921239732446
859.6105,69.58430784580185
861.6569,66.25165516186576
863.7027,54.07120472440204
865.7478,49.64290624978025
867.7922,46.61670891365873
869.8359,33.5925613952669
871.8789,46.320411907668245
873.9212,35.400208328000645
875.9629,43.381898070198304
878.0039,45.965428194193464
880.0441,57.150745326099695
882.0837,72.88779563237688
884.1226,100.47652470797743
886.1609,125.21687741897642
888.1984,150.15879762668487
890.2352,181.70222794024437
892.2714,184.19710946721
894.3069,184.24338149811365
896.3416,150.89098148151652
898.3757,116.2898450235466
900.4091,106.03990622142248
902.4418,105.04109800946424
904.4739,121.84335226159396
906.5052,128.2965998013226
908.5358,127.50077023372808
910.5658,117.8057918809235
912.595,101.11159179001436
914.6236,71.56809583004906
916.6515,64.82522885896037
918.6786,41.63291501900119
920.7051,33.54107780417189
922.7309,37.69964029214452
924.756,50.50852522518062
926.7804,46.41765496854623
928.8041,48.526951382422226
930.8272,65.8863358628139
932.8495,77.24572932045749
934.8711,73.45505200722641
936.892,80.16422340253723
938.9123,98.52316225125617
940.9318,111.78178649660799
942.9506,130.74001309658627
944.9688,128.9477578913668
946.9862,116.15493541372587
949.003,85.66145890696282
951.019,77.21724045282815
953.0344,57.67219127645774
955.0491,51.82622183081571
957.063,54.629241992144216
959.0763,53.531161118424166
961.0888,50.53188802134366
963.1007,53.98133097727998
965.1119,44.97939775729151
967.1223,44.92599559262419
969.1321,37.72103126473007
971.1412,45.214411105802014
973.1495,36.4060410708222
975.1572,28.795826662629793
977.1641,37.533673020003675
979.1704,48.91948499376474
981.1759,46.20316705939797
983.1808,38.584623203192905
985.1849,36.71375694940798
987.1884,34.54047143645528
989.1911,39.86466943561038
991.1932,40.38625337274448
993.1945,44.40512527508281
995.1951,41.72118676598848
997.1951,46.034339024773885
999.1943,54.04448281353962
1001.1928,42.45151843404301
1003.1906,53.40534564759764
1005.1877,69.30586379100123
1007.1841,84.7529716669992
1009.1798,100.69656738527772
1011.1748,87.4365482079944
1013.1691,63.77281039034142
1015.1627,55.00524931314544
1017.1556,31.58375971950602
1019.1477,15.608235802470062
1021.1392,11.178571439247548
1023.1299,3.294660350966069
1025.12,8.006396146967631
1027.1093,14.063672403647843
1029.0979,30.066382617338377
1031.0859,36.564420143734765
1033.0731,40.60767803786882
1035.0596,62.746048989128894
1037.0454,41.879425280826354
1039.0304,26.657698568812975
1041.0148,25.43076009014669
1042.9985,10.448500815308194
1044.9814,8.160811460471336
1046.9636,-4.732417362674937
1048.9452,7.168704875950652
1050.926,11.614068753753713
1052.9061,28.003564776453118
1054.8855,39.18708333362747
1056.8642,44.21451453482018
1058.8421,38.185748097704504
1060.8194,35.80067329780877
1062.7959,26.159179028804715
1064.7717,30.411153826357463
1066.7469,23.206485964540548
1068.7213,37.04506341331626
1070.695,51.776773910582506
1072.6679,57.601504823787195
1074.6402,83.36914300261071
1076.6117,84.22957472071892
1078.5826,76.73268541808659
1080.5527,42.37835969239336
1082.5221,28.416481373992383
1084.4908,6.896933869453505
1086.4587,6.319600301181595
1088.426,3.934363722612602
1090.3925,-10.00889287601342
1092.3584,2.989713456199979
1094.3235,5.430065770238571
1096.2879,11.762047087190922
1098.2515,34.58554037384499
1100.2145,51.15042847936866
1102.1767,76.7065939070742
1104.1382,93.90391864877006
1106.099,131.7922839291988
1108.0591,163.4215700340642
1110.0185,189.94165593114758
1111.9771,224.25241895401552
1113.9351,245.3037345368184
1115.8923,289.79547587118327
1117.8488,306.7775136957001
1119.8045,286.1997158510046
1121.7596,218.81194710995783
1123.7139,162.26406938342427
1125.6675,119.30594239414893
1127.6204,120.88742424223676
1129.5726,130.85837183473348
1131.524,131.11864086981132
1133.4748,108.51808573705853
1135.4248,70.95655951487777
1137.3741,37.08391419649058
1139.3226,21.950001065553806
1141.2705,19.45467103488477
1143.2176,20.09777479780189
1145.164,41.42916285307683
1147.1097,37.198685498504005
1149.0546,32.55619261758625
1150.9989,10.501533721840019
1152.9424,3.884557997220213
1154.8852,-10.394885475333012
1156.8272,-12.73694765372511
1158.7686,-10.541675650955995
1160.7092,-1.7089893379185241
1162.6491,-0.7387032741663688
1164.5883,-1.7806320021630881
1166.5267,-1.034590056984939
1168.4644,21.299608044098704
1170.4014,42.52214779416465
1172.3377,69.33321447329388
1174.2732,94.28299293634643
1176.2081,145.02166734485047
1178.1421,231.14942091750459
1180.0755,309.6164354227909
1182.0082,355.57289031769824
1183.9401,350.01896196305074
1185.8713,282.004823163944
1187.8017,212.23064322528398
1189.7315,144.44658863192853
1191.6605,82.75282374642984
1193.5888,60.349511486873666
1195.5163,41.23681394381879
1197.4432,27.66489260432843
1199.3693,18.733908543098437
1201.2947,2.69402255817522
1203.2193,-1.4046047397333723
1205.1432,-3.0618127668600437
1207.0664,0.27257309256367535
1208.9889,-6.101241958184687
1210.9106,-0.2830527185531082
1212.8316,-2.07259303658293
1214.7519,3.380406067381273
1216.6715,12.22623427819849
1218.5903,26.715181246924658
1220.5084,23.847536502353364
1222.4257,41.47358930612688
1224.3424,49.8436286814125
1226.2583,64.35794323664174
1228.1735,81.06682108181053
1230.0879,103.1205496833353
1232.0016,124.96941569696469
1233.9146,144.01370474724172
1235.8269,154.65370120901616
1237.7384,161.4896880170005
1239.6492,157.171946559371
1241.5592,170.8007566094077
1243.4686,192.52639636867104
1245.3772,241.14914233071454
1247.285,292.1692690638282
1249.1922,337.1370487248107
1251.0986,389.6527505487686
1253.0042,433.0166403994382
1254.9092,486.92898024402893
1256.8134,540.6900277195836
1258.7169,601.7500355938552
1260.6196,638.7592512276966
1262.5216,648.4179159644603
1264.4229,641.7262647599068
1266.3234,621.0845260856174
1268.2232,604.4929219959115
1270.1223,556.8016683342631
1272.0207,531.010974899218
1273.9183,522.3710459213056
1275.8151,522.232080320946
1277.7113,542.6942717948484
1279.6067,599.257808817402
1281.5014,684.5228744360534
1283.3953,800.5396457056714
1285.2885,922.3082928358964
1287.181,1028.1289780309726
1289.0727,1062.6018542720617
1290.9637,1025.977064259036
1292.854,974.3547400657496
1294.7435,889.2850035062856
1296.6323,807.167966651181
1298.5204,748.0537326781223
1300.4077,699.992396693117
1302.2943,671.1340463216352
1304.1802,633.6787621892237
1306.0653,618.1266182100884
1307.9497,598.2276819616485
1309.8333,581.6820148400569
1311.7162,566.8896722591899
1313.5984,554.7507038161044
1315.4798,536.1651534389607
1317.3605,546.4330595084123
1319.2405,541.4544550434608
1321.1197,546.6793675987784
1322.9982,506.7578193144923
1324.876,475.9898268639364
1326.753,430.9254018528667
1328.6293,351.864551127141
1330.5048,299.00727722336285
1332.3796,258.9535791594908
1334.2537,220.00345296341072
1336.127,192.10689207347332
1337.9996,177.61388772799467
1339.8714,167.8744292442226
1341.7426,148.5385041632661
1343.6129,143.60609834749005
1345.4826,139.7271961738744
1347.3515,127.80178058333911
1349.2196,117.3298331195316
1351.087,110.4113340480825
1352.9537,110.69626246132384
1354.8197,106.78459634747543
1356.6849,122.72631258779404
1358.5493,133.7213869956912
1360.4131,146.16979415731527
1362.276,172.2715073216009
1364.1383,195.27649827578517
1365.9998,203.83473708438999
1367.8606,205.34619185917285
1369.7206,194.91082867354373
1371.5799,194.87861154745093
1373.4384,196.14950255173477
1375.2962,184.67346180844964
1377.1533,155.60044747815516
1379.0096,119.73041587467611
1380.8652,98.1633217558333
1382.7201,86.39911868214296
1384.5742,66.33775923248845
1386.4275,54.129195121762734
1388.2802,40.42337740148099
1390.132,33.02025658186716
1391.9832,30.119782768911364
1393.8336,26.821905738401597
1395.6832,27.676574964928022
1397.5322,25.083739654862086
1399.3803,20.543348737809765
1401.2278,16.505350892539923
1403.0745,8.269694592388475
1404.9204,5.686328145637731
1406.7656,-3.794800222126696
1408.6101,0.9762576578177686
1410.4538,3.899487864247476
1412.2968,-2.975123533823478
1414.139,-0.697590506375775
1415.9805,12.03210269809398
1417.8213,8.313978800017878
1419.6613,30.24806039950721
1421.5006,44.48437001353392
1423.3391,68.02292985658966
1425.1769,101.51376169832258
1427.0139,150.3068866281518
1428.8502,199.55232472035902
1430.6858,252.15009454615722
1432.5206,262.10021268123586
1434.3547,268.902693179784
1436.188,246.85754747498868
1438.0206,243.01478431101032
1439.8524,237.92440996343385
1441.6835,236.5364282776966
1443.5139,226.30084071999175
1445.3435,241.3176463911483
1447.1724,239.93684212898745
1449.0005,238.05842235815368
1450.8279,228.6323791039237
1452.6545,239.5087020109903
1454.4804,247.63737843772242
1456.3056,229.16839334740274
1458.13,213.50172922693986
1459.9536,200.2373662715588
1461.7766,178.97528254146732
1463.5987,165.76545409449983
1465.4202,138.50785519873773
1467.2409,115.05245846460838
1469.0608,104.64923511746082
1470.88,80.99815523211976
1472.6984,67.24918783691749
1474.5161,52.452301150205415
1476.3331,48.10746271784308
1478.1493,41.41463956116746
1479.9648,38.4737982204411
1481.7795,45.43490482178032
1483.5935,39.19792510656373
1485.4067,45.16282436182121
1487.2192,49.32956748260352
1489.031,44.14811891233353
1490.842,48.51844260113853
1492.6522,48.89050205766506
1494.4618,45.61426030537535
1496.2705,44.43967987882684
1498.0785,49.41672285643472
1499.8858,49.49535087221756
1501.6924,39.87552506602702
1503.4981,40.5072060827614
1505.3032,35.69035416856383
1507.1075,32.67492916450573
1508.911,28.310890554754735
1510.7138,21.24819749672946
1512.5159,25.78680886474001
1514.3172,27.026683320614268
1516.1178,23.267779268312665
1517.9176,17.810054841528597
1519.7166,16.15346794127794
1521.515,13.497976290476231
1523.3126,10.743537450504562
1525.1094,10.94010884776452
1526.9055,12.287647801222533
1528.7008,11.186111520443944
1530.4954,9.235457092118054
1532.2893,3.2356414910730678
1534.0824,6.886621599783211
1535.8747,3.1383542683663563
1537.6663,10.740796278074356
1539.4572,0.99390437877571
1541.2473,7.2476352129311294
1543.0367,11.801945413062526
1544.8253,8.256791539215556
1546.6132,14.062130033416679
1548.4003,16.717917255124803
1550.1867,17.674109423177697
1551.9723,30.58066258923401
1553.7572,38.38753262821149
1555.5414,46.69467510922158
1557.3247,64.15204521750036
1559.1074,89.40959767133745
1560.8893,113.36728654750198
1562.6705,143.5250650286673
1564.4509,156.48288516383434
1566.2305,158.24069756675306
1568.0094,164.84845128634493
1569.7876,169.3560937891245
1571.565,161.11357089312185
1573.3417,157.8208267228062
1575.1176,166.77780379151136
1576.8928,179.5344430343626
1578.6672,190.94068371870753
1580.4409,216.24646331654952
1582.2138,229.85171739048496
1583.986,250.00637934064628
1585.7575,290.31038026864866
1587.5282,301.16364877604366
1589.2981,312.26611056127905
1591.0673,328.5176883111661
1592.8358,328.4683015898557
1594.6035,328.91786667632135
1596.3704,330.21629656485425
1598.1366,318.36350096056697
1599.9021,293.45938626640924
1601.6668,284.10385570169575
1603.4308,274.64680955114767
1605.194,271.68814525844766
1606.9564,301.47775752081066
1608.7182,321.4655383185697
1610.4791,374.5013766172811
1612.2394,435.58515816784495
1613.9988,486.31676497614836
1615.7576,547.8960746922266
1617.5156,567.5229601029478
1619.2728,541.8972885162192
1621.0293,504.51892156471894
1622.785,437.5877154621523
1624.54,360.75352137703584
1626.2942,298.2161861020087
1628.0477,246.42555282217535
1629.8005,202.93146174047814
1631.5525,160.7837505956042
1633.3037,132.78225509692618
1635.0542,106.97680934597958
1636.804,91.36724611647736
1638.553,80.75339711236467
1640.3013,61.485093123914396
1642.0488,54.61216413386529
1643.7955,53.78443951010536
1645.5416,42.90174807440124
1647.2868,46.96391811067514
1649.0313,40.22077747383207
1650.7751,35.62215354913809
1652.5181,33.2178733196514
1654.2604,38.557763412208914
1656.0019,38.941650121469024
1657.7427,44.76935935651244
1659.4828,60.14071663700355
1661.222,73.80554703491342
1662.9606,99.66367502080593
1664.6984,116.7649243271899
1666.4354,119.90911768993737
1668.1717,120.99607667727153
1669.9072,94.42562165832425
1671.642,68.84757179226693
1673.3761,53.71174529401489
1675.1094,38.717959690007774
1676.8419,30.216031969567922
1678.5737,22.505778734838145
1680.3048,17.237016285801104
1682.0351,11.059560697381642
1683.7646,5.323227872134737
1685.4934,9.377833602019706
1687.2215,-0.626806374236196
1688.9488,5.709123588316032
1690.6754,-2.614554603578938
1692.4012,2.151980899732223
1694.1263,2.3085780673033867
1695.8506,-0.6449151533313398
1697.5742,-4.9086508377234
1699.297,0.2172253812778706
1701.0191,1.9326169082450235
1702.7404,-0.0625728544216031
1704.461,-0.16844052364771755
1706.1808,0.014917908743598218
1707.8999,-2.46259186635001
1709.6182,-1.001064158179929
1711.3358,2.5494313252951315
1713.0527,-4.061165123252692
1714.7688,-5.2829132366454985
1716.4841,2.8841678233342236
1718.1987,-1.0598883287929368
1719.9126,2.6849518926521228
1721.6257,3.26873266163264
1723.338,-0.9585018747373795
1725.0496,5.403292397968585
1726.7605,4.154169169610753
1728.4706,4.094182076016551
1730.18,-1.676615288528268
1731.8886,2.4918306293204466
1733.5964,0.8495901322934287
1735.3036,5.046733498203253
1737.0099,7.233330996366817
1738.7156,3.0594528456337002
1740.4204,9.625169192520275
1742.1246,5.88055015294853
1743.8279,9.87566574658885
1745.5306,6.360585934306272
1747.2325,11.935380578209276
1748.9336,8.3501194768005
1750.634,11.25487230922883
1752.3336,7.349708671142196
1754.0325,9.734698045639618
1755.7307,9.809909842323378
1757.4281,16.075413373448555
1759.1247,15.83127785317157
1760.8206,14.727572334894603
1762.5158,18.31436571370716
1764.2102,11.141726737423113
1765.9039,15.309723970712724
1767.5968,18.318425866829102
1769.289,19.317900725928098
1770.9804,13.558216664981302
1772.6711,16.73944160778146
1774.361,16.611643342539082
1776.0502,14.324889490070376
1777.7386,17.979247505075165
1779.4263,17.67478469900439
1781.1132,17.811568203516742
1782.7994,15.339664973523043
1784.4849,19.309141785818582
1786.1696,21.72006526380204
1787.8535,22.022501837780794
1789.5367,19.41651772086155
1791.2192,19.952178905926132
1792.9009,17.579551191691195
1794.5818,21.798700177351805
1796.2621,20.65969128630752
1797.9415,18.51258972397102
1799.6202,22.207460489158223
1801.2982,21.244368395559064
1802.9755,28.373378034789056
1804.6519,22.444553786020123
1806.3277,25.157959744690487
1808.0027,22.113659781792904
1809.6769,20.71171751674055
1811.3504,21.402196347810076
1813.0231,18.485159466161065
1814.6951,30.01066984893106
1816.3664,24.12879028840615
1818.0369,20.389583276765762
1819.7067,22.243111064901314
1821.3757,24.48943569980858
1823.044,26.728619006052185
1824.7115,26.310722563302534
1826.3783,25.08580768394384
1828.0443,26.053935417253086
1829.7096,25.315166561649335
1831.3741,26.56956165501228
1833.0379,25.71718098207006
1834.701,30.258084561855185
1836.3633,26.792332156228582
1838.0248,26.519983224470366
1839.6856,24.491096957937373
1841.3457,24.15573228278683
1843.005,26.61394788026479
1844.6636,31.01580219006034
1846.3214,22.161353385722947
1847.9785,28.55065933064418
1849.6349,30.3837776666022
1851.2904,28.160765749868474
1852.9453,29.331680632876854
1854.5994,24.69657908645371
1856.2528,26.55551758810853
1857.9054,29.858552368385233
1859.5572,29.705739392272605
1861.2083,23.89713432617387
1862.8587,28.48279253943501
1864.5084,30.512769162430686
1866.1572,29.937119040707685
1867.8054,30.30589671468519
1869.4528,29.719156425411185
1871.0994,30.776952110874845
1872.7453,32.52933741187377
1874.3905,29.576365661436157
1876.0349,23.568089867296862
1877.6786,32.004562741427065
1879.3215,27.53583676011708
1880.9637,25.16196407961175
1882.6051,28.332996580797527
1884.2458,31.998985892941292
1885.8858,28.259983361980005
1887.525,33.2660400138608
1889.1634,30.517206591931014
1890.8011,28.41353350687767
1892.4381,28.655070864215674
1894.0743,26.891868485324707
1895.7098,28.82397590503375
1897.3446,27.501442389253228
1898.9786,33.07431691565377
1900.6118,31.942648186891716
1902.2443,29.05648457488026
1903.8761,25.815874132106046
1905.5071,25.82086462049098
1907.1374,25.921503543798295
1908.7669,32.06783814758266
1910.3957,27.20991541818381
1912.0237,26.847782021263072
1913.651,31.181484350382675
1915.2776,25.41106853062705
1916.9034,26.536580375265913
1918.5285,28.50806544345822
1920.1528,30.325569028997236
1921.7764,26.839136140595585
1923.3992,28.998811483710313
1925.0213,24.304639495407173
1926.6427,26.106664322763834
1928.2633,25.60492986981164
1929.8832,25.699479779515258
1931.5023,30.740357438790184
1933.1207,27.777605977557087
1934.7383,26.911268218333092
1936.3552,29.041386705859267
1937.9714,23.018003715764053
1939.5868,27.291161233262116
1941.2015,27.360901013388087
1942.8154,27.22726453826506
1944.4286,27.740293016407165
1946.041,30.80002738405588
1947.6528,25.256508300049774
1949.2637,25.259776115227254
1950.8739,25.259870927861655
1952.4834,26.206832583628625
1954.0921,22.30070067560517
1955.7001,23.24151453479999
1957.3074,25.77931326921481
1958.9139,27.81413575443625
1960.5197,25.796020608257834
1962.1247,26.775006170331807
1963.729,23.60113052235029
1965.3325,23.72443147825534
1966.9353,24.54494661597782
1968.5374,25.312713276204178
1970.1387,24.227768554171476
1971.7393,21.340149291989704
1973.3392,24.699892089491257
1974.9383,26.507033333107003
1976.5366,23.161609162268988
1978.1342,25.06365545133896
1979.7311,24.663207843062594
1981.3273,23.960301729549087
1982.9227,23.254972256275565
1984.5173,24.14725432911621
1986.1112,21.83718262139554
1987.7044,21.82479156496558
1989.2968,25.710115373306536
1990.8885,26.99318804165071
1992.4795,24.524043308129322
1994.0697,25.702714640941792
1995.6592,22.829235263047124
1997.2479,22.853638140377157
1998.8359,20.525956010571477
2000.4232,20.6462213827333
2002.0097,21.214466560706327
2003.5955,24.930723641872078
2005.1805,24.34502451146753
2006.7648,18.907400805422412
2008.3484,20.667883916216354
2009.9312,18.176505047254935
2011.5133,22.633295195264978
2013.0946,24.638285175208352
2014.6752,20.9915055757139
2016.2551,24.842986739027708
2017.8342,22.84275879748084
2019.4126,24.34085163497447
2020.9902,25.787294906982254
2022.5672,20.632118025569426
2024.1433,23.125350144928277
2025.7188,22.967020212929953
2027.2935,20.65715694619219
2028.8674,21.895788831662472
2030.4406,22.332944149716838
2032.0131,20.518650961773503
2033.5849,22.702937105921308
2035.1559,16.93583021506261
2036.7261,17.517357695070558
2038.2957,20.39754678246004
2039.8645,21.97642453857243
2041.4325,19.604017820773677
2042.9998,20.23035326666546
2044.5664,19.405457317809336
2046.1323,25.87935621346338
2047.6974,22.602075998831083
2049.2617,21.623642460322387
2050.8254,19.244081158326537
2052.3883,20.263417436996434
2053.9504,22.031676448044138
2055.5118,19.74888314054766
2057.0725,21.415062243268267
2058.6325,18.380238287478463
2060.1917,20.744435590300228
2061.7502,19.55767828505317
2063.3079,20.419990297612628
2064.8649,18.881395358277246
2066.4212,22.041916993145776
2067.9767,21.451578539503117
2069.5315,21.610403114215032
2071.0856,23.26841361963153
2072.6389,19.975632741998652
2074.1915,19.882082934878298
2075.7433,15.687786452076125
2077.2945,19.04276534857692
2078.8448,19.197041522487638
2080.3945,21.700636681487637
2081.9434,20.253572341285903
2083.4916,18.455869800585134
2085.039,19.40755015555233
2086.5857,19.558634317795907
2088.1317,22.009143004848823
2089.677,19.359096738657698
2091.2215,22.00851582107775
2092.7652,17.107420360373283
2094.3083,22.10583024472352
2095.8506,23.053765191233495
2097.3921,20.25124469594995
2098.933,17.09828802438203
2100.4731,21.69491423952647
2102.0124,21.491142233397156
2103.5511,20.936990681058873
2105.089,24.282478042664962
2106.6261,17.62762256899896
2108.1626,20.67244226801965
2109.6983,18.566954971409714
2111.2332,24.9611783041274
2112.7675,20.155129705461505
2114.301,20.99882636508906
2115.8337,17.142285271135805
2117.3657,21.635523201739304
2118.897,23.578556763614216
2120.4276,21.421402347120065
2121.9575,19.21407610683083
2123.4866,23.056593983106538
2125.0149,21.59897172416653
2126.5426,20.741224847664242
2128.0695,14.133368655263439
2129.5956,20.025418241215732
2131.1211,19.667388558439086
2132.6458,21.50929435959732
2134.1698,19.451150200680402
2135.693,21.89297042258545
2137.2155,18.284769171698073
2138.7373,18.776560375474176
2140.2584,19.018357778522002
2141.7787,16.4601749376842
2143.2983,16.352025219619932
2144.8171,15.793921826386537
2146.3353,16.18587779652121
2147.8527,19.377906010621913
2149.3693,23.370019187427857
2150.8853,20.46222985189931
2152.4005,14.10455029529632
2153.9149,15.896992604256738
2155.4287,15.289568724372927
2156.9417,19.782290442267396
2158.454,19.375169391667015
2159.9655,19.21821700847579
2161.4764,16.51144453484605
2162.9865,16.75486302074802
2164.4958,15.498483351037592
2166.0045,20.74231624302199
2167.5124,18.836372259023662
2169.0195,19.030661753941914
2170.526,20.07519489431239
2172.0317,19.219981656364155
2173.5367,15.8150318155744
2175.0409,15.01035495522052
2176.5445,20.55596050042965
2178.0473,19.05185772622535
2179.5494,22.098055702071633
2181.0507,23.794563306913957
2182.5513,17.791389198717297
2184.0512,14.738541797500972
2185.5504,20.13602934537046
2187.0488,13.083859937045887
2188.5465,20.53204146588709
2190.0435,17.080581694415343
2191.5397,19.92948817983148
2193.0353,15.328768308530556
2194.5301,15.22842926761281
2196.0241,19.22847809089086
2197.5175,16.028921659893
2199.0101,12.929766663862765
2200.502,19.181019631754495
2201.9931,15.08268696322493
2203.4835,19.48477486612056
2204.9733,17.23728939746104
2206.4622,13.490236419418324
2207.9505,21.993621621791448
2209.438,17.497450559477187
2210.9248,15.701728567436177
2212.4109,14.806460805654538
2213.8962,13.711652277101166
2215.3809,15.81730783668037
2216.8648,14.573432202179987
2218.3479,14.280029933214863
2219.8304,14.78710544366551
2221.3121,11.344663004612286
2222.7931,11.002706739264468
2224.2733,12.461240657384764
2225.7529,11.920268658708835
2227.2317,13.579794518360018
2228.7098,12.039821892258942
2230.1872,17.700354300528303
2231.6638,15.161395142892701
2233.1397,9.572947642073217
2234.6149,13.185014869176982
2236.0894,12.89759979958177
2237.5632,14.86070527681521
2239.0362,13.774334015428991
2240.5085,12.438488581367764
2241.9801,11.153171402832896
2243.4509,13.818384783640894
2244.921,9.534130916076634
2246.3904,12.000411854241108
2247.8591,10.267229556894122
2249.3271,8.934585862791295
2250.7943,11.452482508016004
2252.2608,5.820921139305753
2253.7266,5.53990328887329
2255.1917,11.259430430722205
2256.656,7.179503983457138
2258.1197,10.45012525308843
2259.5826,9.07129547383147
2261.0447,10.343015775400445
2262.5062,12.715287196796595
2263.9669,13.638110673591072
2265.4269,12.011487014202189
2266.8862,9.585416890667233
2268.3448,9.259900854908679
2269.8026,9.33493936299486
2271.2598,9.360532778395168
2272.7162,8.486681371229679
2274.1719,10.76338531801315
2275.6268,9.690644710393542
2277.0811,10.118459532385017
2278.5346,4.596829671095321
2279.9874,5.17575491244763
2281.4395,9.505234996396922
2282.8908,9.085269611140717
2284.3414,10.965858349824146
2285.7914,12.197000714739673
2287.2406,10.87869609852119
2288.689,10.260943771832657
2290.1368,9.64374289655116
2291.5838,9.427092531944325
2293.0302,12.110991640842528
2294.4758,7.69543909180517
2295.9206,6.580433632281782
2297.3648,7.9159739327675
2298.8082,6.202058597953197
2300.251,6.5886861533700625
2301.693,9.475855062528751
2303.1343,8.16356372305303
2304.5748,5.0018104378081745
2306.0147,6.84059342802388
2307.4538,8.97991086491173
2308.8922,6.469760851277385
2310.3299,8.110141400127418
2311.7669,11.151050459770858
2313.2031,8.942485897415253
2314.6387,7.634445468757789
2316.0735,9.826926840070769
2317.5076,8.469927601282023
2318.941,9.463445244050234
2320.3737,7.45747717533483
2321.8056,9.952020707460818
2323.2369,11.847073078178425
2324.6674,13.342631425717798
2326.0972,14.488692769838366
2327.5263,16.035253996873294
2328.9547,13.082311848268802
2330.3823,16.879862905118614
2331.8092,10.277903617693283
2333.2355,9.726430267464778
2334.661,6.125439033126042
2336.0858,10.474925996105796
2337.5098,7.174887176578395
2338.9332,6.8253184899689785
2340.3558,4.926215779953836
2341.7778,6.027574821956065
2343.199,6.479391342136637
2344.6195,9.131661006380895
2346.0393,8.434379415780285
2347.4583,10.337542080109614
2348.8767,7.2411444248000265
2350.2943,10.79518177190721
2351.7113,9.349649371075415
2353.1275,5.904542363996967
2354.543,3.409855798867781
2355.9578,6.365584664838309
2357.3718,6.421723916960531
2358.7852,8.078268446630588
2360.1978,7.585213081027405
2361.6098,7.992552566547303
2363.021,0.6502815737344747
2364.4315,6.05839469320766
2365.8413,8.766886509082823
2367.2504,6.275751544892074
2368.6587,6.984984236498676
2370.0664,5.844578957008409
2371.4733,5.4545300096772
2372.8795,7.1148316393152555
2374.285,5.075478036187505
2375.6899,8.18646331941055
2377.0939,5.597781557346337
2378.4973,4.959426736492148
2379.9,3.9713927873675203
2381.3019,7.8336735908977175
2382.7032,4.296262988294245
2384.1037,6.85915474243177
2385.5035,5.572342573222471
2386.9027,4.235820131986969
2388.3011,6.399581014322507
2389.6987,5.913618773468201
2391.0957,5.577926898667371
2392.492,5.392498820027171
2393.8876,4.8073279118755465
2395.2824,3.7224074946154673
2396.6765,3.037730840576671
2398.07,3.0032911848648
2399.4627,7.419081732208241
2400.8547,4.885095657302465
2402.246,3.751326060652154
2403.6366,6.2677659939110555
2405.0265,5.034408471219656
2406.4156,5.6512464440408365
2407.8041,4.268272813493397
2409.1918,3.4854804241836845
2410.5789,7.702862078035338
2411.9652,3.2704105421171974
2413.3508,2.538118506469509
2414.7358,4.4059786284284925
2416.12,5.123983539949201
2417.5035,2.892125828926936
2418.8863,2.960398032017224
2420.2684,3.3787926569543245
2421.6497,3.2973021818685666
2423.0304,3.4659190511023965
2424.4104,3.534635676025289
2425.7896,3.953444433347542
2427.1682,3.0223376644331097
2428.546,1.9913076711115565
2429.9232,2.9103467249890613
2431.2996,2.5294470777587676
2432.6753,6.548600952010403
2434.0503,5.767800545039215
2435.4246,5.2870379886544825
2436.7982,6.006305356987511
2438.1711,4.5755946712992355
2439.5433,6.494897892787527
2440.9148,3.3642069368943552
2442.2856,4.283513654112724
2443.6557,-0.24719013870639372
2445.025,0.37208733245285686
2446.3937,4.841340311035744
2447.7617,1.6105630367667274
2449.1289,4.129749700956879
2450.4955,2.048894478811661
2451.8613,5.617991504239058
2453.2265,2.68703489065814
2454.5909,1.7060186953080816
2455.9546,1.8249369485577631
2457.3177,3.0937836637158966
2458.68,2.562552835841835
2460.0416,1.8312384290571018
2461.4025,2.049834381857771
2462.7627,5.918334614427479
2464.1222,3.23673302645161
2465.4811,2.155023458432211
2466.8392,2.0231997185040242
2468.1966,4.341255593251617
2469.5533,4.359184849027571
2470.9093,6.376981208771923
2472.2645,6.294638351832894
2473.6191,6.312149893788927
2474.973,3.529509387272121
2476.3262,5.296710321793093
2477.6787,5.613746151567383
2479.0305,3.6806102778434706
2480.3816,2.3972960457323964
2481.7319,5.363796763539078
2483.0816,3.330105715595529
2484.4306,4.196216132595801
2485.7789,5.512121211932929
2487.1264,5.827814109037803
2488.4733,3.0932879242200855
2489.8195,1.95853569951133
2491.165,5.273550446010219
2492.5097,3.1883251552301317
2493.8538,1.8028527659489626
2495.1972,4.767126185061379
2496.5398,6.4811383014335675
2497.8818,-0.7051180437395459
2499.2231,3.058349925925647
2500.5637,6.121542030941967
2501.9035,5.9344580612387645
2503.2427,2.5970977455300215
2504.5812,6.309460753185149
2505.919,3.621546727602606
2507.256,1.3833552490862573
2508.5924,1.1448858617245605
2509.9281,5.356138095772401
2511.2631,4.217111470035817
2512.5974,4.527805449759505
2513.9309,8.288219458017053
2515.2638,7.2983528726040205
2516.596,6.358204988433776
2517.9275,6.917775027436235
2519.2583,4.277062147959278
2520.5884,0.9360654391730208
2521.9178,2.5447839474770007
2523.2465,1.103216709910086
2524.5745,3.2113627380633503
2525.9018,5.869221032495716
2527.2284,6.276790561652533
2528.5543,3.93407023528696
2529.8796,5.291058900384279
2531.2041,5.147755364589074
2532.5279,5.904158382635337
2533.851,3.060266657779536
2535.1735,3.216078834236569
2536.4952,0.7715935256186839
2537.8163,6.076809313377375
2539.1366,5.131724771248258
2540.4562,2.9863384121988616
2541.7752,4.240648697879479
2543.0935,4.044654060077043
2544.411,5.998352888171986
2545.7279,4.6017435310982435
2547.0441,4.15482427780622
2548.3596,3.7075933712289455
2549.6744,0.010049012751196074
2550.9885,2.6121893666818394
2552.3019,6.064012597229265
2553.6146,6.615516842479984
2554.9266,4.966700179880476
2556.2379,3.917560620721993
2557.5485,8.068096126628888
2558.8585,5.018304620049868
2560.1677,2.018183942752735
2561.4762,4.967731886322305
2562.7841,4.216946222161624
2564.0913,5.065824671996374
2565.3977,5.914364915382791
2566.7035,9.312564581218865
2568.0086,5.860421239258976
2569.313,5.35793236613187
2570.6167,5.255095379862077
2571.9197,4.651907644894862
2573.222,3.3983664731245398
2574.5236,6.344469129926374
2575.8246,3.7402128466920104
2577.1248,0.8355947913683792
2578.4244,1.5806120945003101
2579.7232,3.1752618782767144
2581.0214,4.619541249080427
2582.3189,8.763447281541652
2583.6157,6.606977004095192
2584.9118,5.500127357541437
2586.2072,7.192895216610985
2587.5019,8.03527740103317
2588.7959,8.477270658608411
2590.0893,6.5188716567843485
2591.3819,7.760076978235929
2592.6739,6.300883140449393
2593.9652,8.391286583310219
2595.2557,10.881283683695088
2596.5456,7.820870734567826
2597.8348,9.760043920079433
2599.1234,7.948799346172223
2600.4112,10.687133021188089
2601.6983,3.875040873980957
2602.9848,5.062518726533426
2604.2705,7.099562362077727
2605.5556,5.236167513220906
2606.84,9.972329841574407
2608.1237,5.908044956388018
2609.4067,4.043308367188239
2610.689,5.978115524421149
2611.9707,7.912461838099738
2613.2516,4.5463426584558775
2614.5319,5.229753256596851
2615.8115,7.512688858166506
2617.0903,10.3451446365112
2618.3685,4.527115689850412
2619.6461,5.508597012952173
2620.9229,3.739583555313388
2622.199,7.070070211345026
2623.4745,8.400051838062211
2624.7493,5.829523221779397
2626.0234,7.758479064810551
2627.2968,5.036914011174439
2628.5695,5.514822627305001
2629.8415,6.542199429267129
2631.1128,8.419038877977457
2632.3835,7.245335368930647
2633.6535,1.7210832134310223
2634.9228,6.7462766503295555
2636.1914,3.1209099012664296
2637.4593,2.844977120419081
2638.7265,5.91847243075587
2639.9931,4.641389926795398
2641.259,4.36372364387158
2642.5242,2.185467570904443
2643.7887,8.606615653176789
2645.0525,3.7771618141167878
2646.3156,6.09709989108643
2647.5781,6.916423683676115
2648.8398,3.385126930505251
2650.1009,10.153203301029023
2651.3613,8.820646430851362
2652.6211,5.937449854044196
2653.8801,7.553607016473009
2655.1385,5.769111304628822
2656.3961,5.883956029466603
2657.6531,2.8481344442502206
2658.9094,5.561639743404001
2660.1651,4.074465092870952
2661.42,5.236603602977702
2662.6743,5.448048343306233
2663.9279,10.808792331072503
2665.1808,8.168828529012018
2666.433,4.678149791772363
2667.6846,5.0367488923128505
2668.9354,4.144618556811331
2670.1856,4.851751461078159
2671.4351,8.958140239477537
2672.6839,7.713777477856162
2673.9321,6.1686556724793675
2675.1795,8.622767242474708
2676.4263,4.576104545283222
2677.6724,9.478659852118291
2678.9179,6.7304253884322875
2680.1626,8.081393284890972
2681.4067,4.881555604855883
2682.6501,7.730904330874637
2683.8928,6.329431396679329
2685.1348,8.077128658693027
2686.3761,9.023987910044493
2687.6168,5.770000863091216
2688.8568,3.2151591399508206
2690.0961,8.259454305040911
2691.3348,6.102877890627553
2692.5727,5.895421346382278
2693.81,7.687076060947852
2695.0466,4.727833364012842
2696.2826,5.617684508395087
2697.5178,4.306620699634074
2698.7524,5.144633087092494
2699.9863,5.681712777066835
2701.2195,6.517850824407262
2702.452,7.103038227146811
2703.6839,7.687265918140053
2704.9151,6.620524759211179
2706.1456,9.352805535311749
2707.3755,8.134098965188088
2708.6046,10.364395674058471
2709.8331,8.843686205800218
2711.0609,7.721961000646683
2712.2881,7.649210410394382
2713.5145,5.875424709620219
2714.7403,6.450594096409024
2715.9654,8.474708710091395
2717.1899,11.997758625492025
2718.4136,9.969733832688522
2719.6367,11.040624201780933
2720.8591,12.76041950317197
2722.0809,12.629109396858144
2723.3019,13.546683415231783
2724.5223,13.363130964394141
2725.7421,13.02844131497966
2726.9611,12.192603603991486
2728.1795,10.305606838148364
2729.3972,11.367439902243028
2730.6142,10.128091578012157
2731.8306,9.03755053351804
2733.0462,9.495805335542048
2734.2612,7.1028444604900685
2735.4756,6.758656289809938
2736.6892,6.3632291339210525
2737.9022,4.866551235656278
2739.1145,7.4686107742161845
2740.3262,9.469395880135867
2741.5372,5.868894609264316
2742.7475,6.6170949227565785
2743.9571,5.713984723078788
2745.1661,4.259551846526122
2746.3744,3.4037840722539343
2747.582,3.4966691368220744
2748.7889,4.038194742752548
2749.9952,2.8283485576007017
2751.2008,2.6171182085399387
2752.4057,3.504491294460209
2753.61,1.2404553880803029
2754.8136,1.724998027074104
2756.0165,-0.5418932632890439
2757.2188,3.389769025010253
2758.4204,3.0199778135050757
2759.6213,2.898725989830851
2760.8215,4.126006411423237
2762.0211,3.6018119067306564
2763.22,2.976135262941476
2764.4182,4.448969231225966
2765.6158,1.3203065329930688
2766.8127,1.4901398451620302
2768.009,0.058461831449044155
2769.2045,2.7752651406689033
2770.3994,2.2405424210518134
2771.5936,-0.0957137069246663
2772.7872,3.766489354811597
2773.9801,0.17714516051269058
2775.1723,4.936247226765808
2776.3639,-1.1062109316132798
2777.5548,1.3497641508287472
2778.745,1.6541769905924042
2779.9346,2.0070320906805748
2781.1235,-0.19166606244559858
2782.3117,1.5580869976047076
2783.4992,2.956297651966274
2784.6861,4.4029722661930215
2785.8723,1.798117176275909
2787.0579,-2.058261325823832
2788.2428,-0.46615696612612467
2789.427,0.8744570913797389
2790.6106,0.013612339612528501
2791.7935,0.45134026274646644
2792.9757,2.6376723448196664
2794.1573,0.47264006535685255
2795.3382,-0.7937251224939601
2796.5184,1.888608229688856
2797.698,0.619679499640899
2798.8769,2.349528046211681
2800.0551,2.678193222053938
2801.2327,4.205714356325142
2802.4096,-0.9178692485991569
2803.5859,1.7074816675994633
2804.7615,1.831815534753197
2805.9364,3.1051807656194583
2807.1106,3.8276257546374843
2808.2842,2.749198865194735
2809.4572,2.5199484224023827
2810.6294,3.38992272387965
2811.801,3.309170042046272
2812.972,3.9777386154227585
2814.1423,4.695676649437928
2815.3119,7.413032309743247
2816.4808,8.979853715033435
2817.6491,8.846188909872897
2818.8167,14.112085849027512
2819.9837,14.32759239880129
2821.15,14.34275628437738
2822.3157,20.95762508766299
2823.4807,22.072246247137812
2824.645,26.83666699170528
2825.8086,32.20093432954637
2826.9716,37.81509500047538
2828.134,42.32919542229732
2829.2957,44.393281634666195
2830.4567,46.20739925394413
2831.617,51.27159345256045
2832.7767,50.635908940870436
2833.9358,51.800389916513524
2835.0941,51.615080070770034
2836.2519,48.930022576916386
2837.4089,48.54526009207826
2838.5653,46.5108347840811
2839.7211,46.67678833529776
2840.8761,40.64316196299278
2842.0306,39.20999641766279
2843.1843,40.577332043372834
2844.3374,40.84520879208801
2845.4899,41.863666210000076
2846.6417,41.082743434848794
2847.7928,46.952479185737225
2848.9433,42.522911770941064
2850.0931,44.49407902921118
2851.2422,44.11601837406934
2852.3907,42.6387667740966
2853.5385,46.31236075671377
2854.6857,47.7368364229541
2855.8323,45.01222941072719
2856.9781,50.48857488057432
2858.1233,51.81590754291449
2859.2679,50.79426160328093
2860.4118,52.32367074904784
2861.555,55.6541681596468
2862.6976,58.985786491272734
2863.8395,60.36855784357881
2864.9808,56.95251372636048
2866.1214,62.48768504572751
2867.2614,60.52410213826461
2868.4007,60.31179471567965
2869.5393,60.650791884439485
2870.6773,65.69112214789303
2871.8146,64.33281340288131
2872.9513,66.47589288933418
2874.0874,68.22038720385336
2875.2227,71.21632227828165
2876.3574,72.36372336225801
2877.4915,67.76261499325817
2878.6249,71.96302098512064
2879.7577,67.4649644740578
2880.8898,74.06846787665181
2882.0212,77.27355293483521
2883.152,77.88024064985589
2884.2821,76.78855125022619
2885.4116,79.1985041856561
2886.5405,83.06011813797005
2887.6686,82.82341099700747
2888.7962,79.73839982200666
2889.923,86.85510084397173
2891.0493,81.67352949652287
2892.1748,81.84370034472926
2893.2997,78.46562713692477
2894.424,80.63932280300628
2895.5476,79.66479948821447
2896.6706,79.34206853139673
2897.7929,84.02114047475251
2898.9145,82.15202506706059
2900.0355,82.73473121688835
2901.1559,81.51926701128295
2902.2756,77.60563970994424
2903.3946,80.59385575737944
2904.513,83.93392082203937
2905.6308,78.27583976643632
2906.7479,78.3696166137434
2907.8643,77.16525460437529
2908.9801,77.11275619505055
2910.0953,78.2121230708352
2911.2098,78.36335614566772
2912.3236,74.46645555136536
2913.4368,75.87142063611181
2914.5494,77.17825000342623
2915.6613,77.43694149811357
2916.7725,74.79749219319629
2917.8831,76.75989838732745
2918.9931,71.67415563118519
2920.1024,69.99025870784865
2921.211,66.95820168365549
2922.319,65.67797792504075
2923.4264,67.34958012885744
2924.5331,68.67300033517887
2925.6391,61.99822991058254
2926.7445,64.82525953491596
2927.8493,69.25407926804436
2928.9534,66.3846785215804
2930.0569,70.21704601459591
2931.1597,70.551169802316
2932.2619,66.03703723779532
2933.3634,71.47463496857685
2934.4643,71.61394898183323
2935.5645,75.00496454999072
2936.6641,77.04766622933613
2937.763,73.64203782610664
2938.8613,72.63806237606279
2939.959,76.33572217854473
2941.056,69.23499880651198
2942.1523,68.78587306956692
2943.248,60.78832508496188
2944.3431,60.942334282090556
2945.4375,55.34787948246334
2946.5313,53.35493889816733
2947.6244,46.01349018781087
2948.7169,46.77351047645286
2949.8087,41.83497642901736
2950.8999,36.897864242693316
2951.9904,34.412149696319915
2953.0803,28.827808199757722
2954.1696,30.744814818745812
2955.2582,29.013144330745167
2956.3462,27.13277120576866
2957.4335,25.00366962369772
2958.5202,27.275813493086087
2959.6062,29.449176472450816
2960.6916,25.77373194755084
2961.7764,26.54945300965334
2962.8605,27.776312492288206
2963.9439,31.304282963490788
2965.0267,25.733336713533337
2966.1089,25.31344571964526
2967.1905,23.29458170172264
2968.2714,27.826716126527092
2969.3516,24.859820227874433
2970.4312,26.84386496131333
2971.5102,24.678821033794236
2972.5885,23.814658883828976
2973.6662,27.451348703141182
2974.7432,25.98886044530791
2975.8196,24.077163789392745
2976.8954,26.716228154570665
2977.9705,25.65602271924502
2979.045,25.046516394656912
2980.1188,27.687677835487214
2981.192,27.02947544595166
2982.2645,28.271877353389193
2983.3364,24.664851414844037
2984.4077,22.65836520464164
2985.4783,20.252386050458938
2986.5483,23.446881053389227
2987.6177,23.441817112001967
2988.6864,18.387160890397798
2989.7545,20.88287881825921
2990.8219,15.628937141397099
2991.8887,16.32530189679357
2992.9548,16.57193896514139
2994.0204,13.0188140638803
2995.0852,10.715892744730667
2996.1495,9.563140429224735
2997.2131,11.260522431735822
2998.276,7.7080039710058585
2999.3383,8.755550153171551
3000.4,7.453126007289594
3001.4611,4.600696474861174
3002.5215,1.4482264228562336
3003.5812,2.495680672237757
3004.6404,1.793024029486478
3005.6989,1.7902212761263492
3006.7567,3.037237175751077
3007.8139,1.484036474052182
3008.8705,3.5805838863488155
3009.9264,2.2768441131197754
3010.9818,1.7727818190380198
3012.0364,4.018361646008074
3013.0905,1.2635482182066546
3014.1439,-0.541693880373149
3015.1966,0.652599921626269
3016.2487,0.5963996070843898
3017.3002,-0.3603248476453125
3018.3511,1.2323965278266478
3019.4013,3.1245373035349786
3020.4509,0.16607103719042726
3021.4998,3.8069712552583717
3022.5481,3.047211482543492
3023.5958,1.7867652057807497
3024.6428,-1.0743941187669872
3025.6892,2.413706947295484
3026.735,1.1510525755606231
3027.7802,1.0876269134838132
3028.8247,0.32341409700993573
3029.8685,2.7583982512075966
3030.9118,-1.3074365020887306
3031.9544,0.5758939313714535
3032.9963,2.058386707129296
3034.0376,0.3400389749670101
3035.0783,1.270847864082949
3036.1184,-0.8491894997249112
3037.1578,2.629923996632943
3038.1966,3.5581939496491195
3039.2348,1.4856259295169885
3040.2723,3.512225470847998
3041.3092,3.387998093397343
3042.3455,2.212949281797968
3043.3811,3.7370844868028517
3044.4161,2.960409137035475
3045.4505,1.1329286237484926
3046.4842,3.70464830859045
3047.5173,4.375573541880621
3048.5498,4.795709636891809
3049.5816,2.715061863141086
3050.6128,7.183635442188439
3051.6434,3.8514355684432378
3052.6734,6.018467364478495
3053.7027,5.4847359143528625
3054.7314,4.1002462419403365
3055.7594,2.5150033162675474
3056.7868,4.829012065358668
3057.8136,2.6422773920878484
3058.8398,7.154804151039116
3059.8653,8.166597170373732
3060.8902,6.827661206704924
3061.9145,6.738000934979951
3062.9381,10.047620961869457
3063.9612,6.25652582666409
3064.9835,9.41471996817828
3066.0053,8.672207762661218
3067.0264,6.478993492214904
3068.0469,6.5350813522192635
3069.0668,5.240475473264295
3070.086,6.49517992058918
3071.1046,5.249198707028363
3072.1226,8.352535780464487
3073.1399,5.805195036288213
3074.1567,7.257180286364852
3075.1727,6.858495284507763
3076.1882,7.25914371195851
3077.203,6.75912918137371
3078.2173,6.058455232818554
3079.2308,5.557125338766939
3080.2438,5.205142911108219
3081.2561,4.952511306160499
3082.2678,6.099233828190457
3083.2789,5.645313731939657
3084.2893,3.640754211157338
3085.2991,1.735558403139601
3086.3083,4.879729408775011
3087.3169,3.273270311596555
3088.3248,3.6661841463399174
3089.3321,2.5584739150080935
3090.3388,4.450142582942249
3091.3449,6.691193089898805
3092.3503,3.331628331132759
3093.3551,1.621451134987188
3094.3593,4.360664296488887
3095.3629,4.899270594450151
3096.3658,3.337272764076628
3097.3681,4.774673491581272
3098.3698,7.5114754298043085
3099.3708,2.8976811838392367
3100.3713,4.933293283664804
3101.3711,3.718314230282952
3102.3702,8.802746475362696
3103.3688,3.2865924333899104
3104.3667,3.5698544308230025
3105.364,2.7025347612544586
3106.3607,6.284635682578233
3107.3568,5.8161594256629305
3108.3522,6.897108158530803
3109.347,3.5274839910425104
3110.3412,4.207288964087639
3111.3348,3.136525083280935
3112.3277,4.215194312164254
3113.32,2.993298582914208
3114.3117,3.7208397855554667
3115.3028,3.9478197801797137
3116.2932,0.7742403896702363
3117.2831,3.950103397432133
3118.2723,6.575410579128092
3119.2608,2.7001636709197774
3120.2488,3.224364343214744
3121.2361,4.698014239418917
3122.2229,3.3711149706945767
3123.209,1.8936681012238648
3124.1944,-0.48432483852222497
3125.1793,2.987137662990623
3126.1635,2.758061955701864
3127.1471,1.7784543596795714
3128.1301,5.79832116741121
3129.1125,2.967668653599704
3130.0942,3.1865030349647645
3131.0753,4.95483049854943
3132.0558,2.2226571995316995
3133.0357,4.039989243541278
3134.015,3.156832713981295
3134.9936,2.5731936538549895
3135.9716,2.1890780745972798
3136.949,5.3544919619111475
3137.9258,2.3194412796087924
3138.902,2.8839319379575006
3139.8775,4.1479698240301435
3140.8524,4.461560796060275
3141.8267,3.824710670801754
3142.8004,1.1874252203928277
3143.7735,3.1997101787246445
3144.7459,3.961571267814099
3145.7178,5.573014177680987
3146.689,3.0340445587293896
3147.6596,3.5946680056332525
3148.6295,3.154890082726073
3149.5989,1.664716318394671
3150.5676,3.674152209476965
3151.5357,4.133203236163717
3152.5032,1.3918748419041638
3153.4701,2.7501724288155125
3154.4364,1.7081013850962252
3155.402,0.8156670714430412
3156.367,2.322874831471689
3157.3315,3.5797300006412254
3158.2952,4.886237891181965
3159.2584,4.492403779526922
3160.221,3.3982328932467345
3161.1829,3.003730414988009
3162.1442,2.8589014934150216
3163.105,3.7637512471547496
3164.065,2.318284766245152
3165.0245,5.52250710308668
3165.9834,2.7264232868969347
3166.9416,3.3800382916684475
3167.8993,3.5333570641295196
3168.8563,3.786384517208068
3169.8127,2.4391255284984417
3170.7684,4.341584937731147
3171.7236,3.7937675602454393
3172.6782,3.9956781679647233
3173.6321,6.297321494874732
3174.5854,4.948702235004415
3175.5381,4.149825019409512
3176.4902,2.950694429658739
3177.4417,4.551315005822564
3178.3926,2.4516912584645123
3179.3428,3.0518276526349606
3180.2924,4.251728628867374
3181.2415,4.501398597176941
3182.1899,5.5008419250615646
3183.1377,1.450062935005168
3184.0848,1.8490658944832532
3185.0314,4.697855056470694
3185.9773,2.3464346554517066
3186.9227,0.8948088789319595
3187.8674,2.9429818909527743
3188.8115,4.140957846607385
3189.755,4.688740871559208
3190.6979,6.286335050062079
3191.6402,2.9837444194824307
3192.5818,6.380972954323342
3193.5229,5.028024599250449
3194.4633,2.674903235119661
3195.4031,2.4216126925066384
3196.3423,3.118156775238012
3197.2809,3.5145392629242895
3198.2189,3.2607639039944094
3199.1563,5.75683441173192
3200.0931,6.25275446681273
3201.0292,5.148527692344405
3201.9648,2.594157648906968
3202.8997,4.489647845595163
3203.834,2.5350017655621624
3204.7677,3.0802228470646558
3205.7008,5.925314503009321
3206.6333,2.5202801155006016
3207.5652,5.415123007389802
3208.4964,3.1098464763254254
3209.4271,4.8544537658047435
3210.3571,4.9489480882265635
3211.2865,4.643332607445157
3212.2154,6.087610437825316
3213.1436,5.431784647298504
3214.0712,6.525858242920081
3214.9982,4.919834177427563
3215.9246,2.1637153382998813
3216.8503,3.9075045638176285
3217.7755,1.9512046706242434
3218.7001,2.94481843628812
3219.624,3.888348618865606
3220.5473,3.981797946964864
3221.4701,3.3251691103105707
3222.3922,5.1184647588094245
3223.3137,2.711687509116432
3224.2346,5.904839926701952
3225.1549,3.6479245499194684
3226.0746,4.440943858074068
3226.9937,4.133900293991589
3227.9121,2.876796256088433
3228.83,5.419634101441995
3229.7473,3.7124161583617106
3230.6639,4.205144700960673
3231.5799,2.6478219662278137
3232.4954,3.990450149100618
3233.4102,5.983031418038348
3234.3244,4.125567901595767
3235.238,4.318061668497324
3236.151,5.210514746211788
3237.0634,3.9029291190273154
3237.9752,7.995306719126913
3238.8864,4.087649439664296
3239.797,6.029959093840111
3240.7069,5.27223745397851
3241.6163,4.964486232104057
3242.5251,5.3067070875189355
3243.4332,6.448901629880472
3244.3408,4.9410714157789215
3245.2477,4.333217937315523
3246.154,3.1253426371807995
3247.0598,3.4174469147330955
3247.9649,5.909532138077331
3248.8694,4.901599641143953
3249.7733,0.8436506987680937
3250.6766,5.135686536768881
3251.5793,4.9777083725289355
3252.4814,6.369717372074017
3253.3829,5.261714651652791
3254.2838,4.203701263816757
3255.1841,4.795678208500262
3256.0838,3.0876464436006428
3256.9829,3.8796068790584535
3257.8814,3.8215603939377814
3258.7792,5.96350782850665
3259.6765,6.505449984817475
3260.5731,5.897387605287597
3261.4692,4.839321367279853
3262.3647,6.531251889183203
3263.2595,4.573179740993397
3264.1538,4.315105427393659
3265.0474,4.207029407335422
3265.9404,8.198952096619056
3266.8329,4.890873868974644
3267.7247,7.182795016142738
3268.616,6.474715780955153
3269.5066,3.9666363344157496
3270.3966,2.808556782781234
3271.286,3.8504771926419457
