RamanShift,CorrectedData
30.1047,1356.329430573668
32.3739,1260.7074719897869
34.6426,1165.2354998426115
36.9109,1065.8634879617723
39.1787,972.5913985245452
41.4461,874.8191830495703
43.7131,781.5467833295734
45.9796,684.9241324090883
48.2456,590.3511555171805
50.5112,494.1777710336738
52.7764,402.8038914348807
55.0411,306.8294242553353
57.3054,216.1542730015331
59.5692,121.02833811167514
61.8326,32.50151786241969
64.0955,-64.22629067985827
66.3579,-155.65519077379892
68.6199,-235.28464405739862
70.8815,-308.11255717329817
73.1426,-341.88448627054436
75.4032,-265.6929094537378
77.6634,78.87311059853812
79.9231,1041.727165479865
82.1824,3284.3828459950946
84.4412,7522.853732531807
86.6995,13534.753372633755
88.9574,19612.59523861615
91.2148,23982.99266744668
93.4717,26106.158799967074
95.7282,26568.90653718913
97.9842,26554.848519063074
100.2398,26035.097119850045
102.4949,25416.514448262715
104.7495,24643.112352662785
107.0036,23819.502427246804
109.2573,22986.2460197802
111.5105,22186.004239833386
113.7632,21370.98796711431
116.0154,20622.85785947088
118.2672,20083.024361041123
120.5185,19495.747709734493
122.7693,19019.7379426302
125.0197,18649.204901849967
127.2696,18279.708239318163
129.519,18052.55742046709
131.7679,17758.26172793196
134.0163,17573.58026382244
136.2642,17322.471952665568
138.5117,17079.495543252568
140.7587,16777.70961114996
143.0052,16520.37256112932
145.2512,16223.092630185109
147.4967,15928.077890108078
149.7417,15739.73625045805
151.9863,15507.825461514076
154.2304,15353.603116157832
156.4739,15127.826652192754
158.717,14964.453353886238
160.9596,14705.040354227425
163.2017,14352.54463656092
165.4433,14042.823037180928
167.6844,13591.532248856201
169.925,13207.178823927276
172.1651,12721.269178819352
174.4047,12328.459597885854
176.6439,11960.556238267513
178.8825,11636.615133820458
181.1206,11369.542198795269
183.3582,11098.193231076371
185.5954,10921.023914852765
187.832,10730.989823331533
190.0681,10560.696420509506
192.3037,10475.649063073626
194.5388,10373.65300210387
196.7734,10320.713383923725
199.0075,10265.085251120145
201.2411,10366.023543072959
203.4742,10260.383096511148
205.7068,10320.018644503456
207.9389,10311.5348175148
210.1704,10343.636142809912
212.4015,10373.677044538174
214.632,10459.511843412622
216.862,10538.94475640951
219.0915,10634.17989590998
221.3205,10763.921268905735
223.549,10970.67277604669
225.777,11219.53821034353
228.0044,11529.271255100244
230.2314,11937.125481425424
232.4578,12336.15434513496
234.6837,12608.911182673492
236.909,12766.199207124115
239.1339,12608.57150548082
241.3582,12289.281037075616
243.582,11796.88063515479
245.8053,11359.47301007183
248.0281,10866.810754211425
250.2503,10513.296346363524
252.472,10248.532156649993
254.6932,10092.270450059721
256.9139,9852.91338909628
259.134,9741.763035340551
261.3536,9599.52135184427
263.5727,9511.340204241558
265.7912,9326.221362171324
268.0092,9191.566500159075
270.2267,9039.577199468109
272.4436,8896.90494944607
274.6601,8739.351149044822
276.8759,8617.517108247195
279.0913,8579.304049642511
281.3061,8492.863109644919
283.5204,8542.79533887554
285.7341,8559.901703026864
287.9473,8665.033082363425
290.16,8867.24027155075
292.3721,9136.573978604043
294.5837,9503.284822866104
296.7947,9797.173332314
299.0052,9924.339939891948
301.2152,9670.084980572445
303.4246,9222.258690084582
305.6334,8594.561207456609
307.8418,8035.292579494197
310.0495,7571.152767057405
312.2568,7215.241650653374
314.4635,6966.159035077715
316.6696,6838.354652973632
318.8752,6769.4781673227335
321.0802,6783.629172723093
323.2847,6830.857196078005
325.4887,6833.061696454475
327.692,6696.89206461094
329.8949,6543.047622975237
332.0972,6229.377627006277
334.2989,5852.781266732503
336.5001,5551.907669888591
338.7007,5278.3559056814065
340.9008,5118.224987798752
343.1003,4952.963877144874
345.2992,4881.32148344177
347.4976,4819.646666881812
349.6955,4717.488238844151
351.8927,4758.794962511483
354.0895,4719.515553891622
356.2856,4713.198681404438
358.4812,4635.392966274654
360.6763,4619.346982595012
362.8707,4558.909258104326
365.0646,4528.728274347954
367.258,4441.952467282161
369.4508,4386.730227575928
371.643,4429.209901478725
373.8346,4356.039791372708
376.0257,4260.318155347959
378.2162,4140.993207934162
380.4062,3979.413121057827
382.5956,3783.6760252355307
384.7844,3672.8800111897253
386.9726,3511.8231318061153
389.1603,3395.1534032416057
391.3474,3316.7188065348855
393.5339,3312.917288773102
395.7199,3176.0967638762286
397.9052,3172.7551126350736
400.09,3152.1401840794733
402.2743,3135.0997955117255
404.4579,3161.381732712731
406.641,3285.1837501123955
408.8235,3432.603570526817
411.0054,3769.9888839202613
413.1868,4176.23734593096
415.3675,4529.296574497272
417.5477,4676.964145795186
419.7273,4674.087590707724
421.9064,4505.214393348273
424.0848,4329.641991089351
426.2627,4102.767776251341
428.4399,3776.6390978582003
430.6166,3369.6032639062214
432.7928,2983.6075446253126
434.9683,2673.5491765493607
437.1432,2394.975366376171
439.3176,2211.1332940680695
441.4914,2096.570115637631
443.6645,2052.982964986104
445.8371,1935.5689550490424
448.0091,1827.5751782321695
450.1806,1794.3987075855239
452.3514,1698.4365978834066
454.5216,1646.8358859561267
456.6913,1570.9935916496397
458.8603,1532.2067183415456
461.0288,1558.7222536995123
463.1967,1582.0371700691503
465.3639,1724.1984242088529
467.5306,1805.6529570566418
469.6967,1947.147692308563
471.8622,2100.979535604143
474.0271,2208.695373111428
476.1914,2257.3920699886658
478.3551,2247.5664693071612
480.5182,2160.8653915642954
482.6807,2111.4856347817913
484.8426,2188.6239753727295
487.0039,2408.5271686353317
489.1647,2765.541947981592
491.3248,3169.665022738236
493.4843,3341.7430745765887
495.6432,3333.7727534713176
497.8015,3225.1506759796703
499.9592,3221.92342532118
502.1163,3209.1375524638697
504.2728,2969.989576156542
506.4287,2686.3259830566294
508.5839,2224.543230121675
510.7386,1912.337747445963
512.8927,1683.55594287836
515.0461,1521.6442051443519
517.199,1439.8989061338743
519.3512,1362.7164025204202
521.5029,1381.6930365784974
523.6539,1372.5251369554571
525.8043,1402.459018481728
527.9541,1421.9409822624948
530.1033,1408.367315378353
532.2519,1493.9342906905003
534.3999,1634.388166976467
536.5472,1953.9251880744414
538.694,2417.1415814787306
540.8401,3032.8835551444063
542.9856,3547.047292855119
545.1305,3713.328948065693
547.2748,3560.97463876049
549.4185,3133.980445790572
551.5615,2743.0924143972697
553.704,2565.706558482112
555.8458,2458.918864515703
557.987,2404.5752933115855
560.1276,2314.671781094128
562.2675,2240.704240041943
564.4069,2153.1185591869234
566.5456,2039.7106051539267
568.6837,1923.0762230366363
570.8212,1691.2112375316228
572.958,1446.6614541047093
575.0942,1262.6726613096016
577.2299,1133.89063323339
579.3648,1150.9611313364512
581.4992,1268.479905740258
583.6329,1458.7926950566725
585.766,1694.1952252127703
587.8985,1825.2832075477072
590.0304,1804.352336458689
592.1616,1761.5982880900883
594.2922,1659.5167205427642
596.4222,1505.9532743015989
598.5515,1373.9035732563098
600.6802,1225.8132262370873
602.8083,1045.1778283350905
604.9358,981.1429623833501
607.0626,903.0542007631211
609.1888,824.6071060442428
611.3144,730.9972317660067
613.4393,573.3701232216499
615.5636,466.72131839443136
617.6873,350.1963495339205
619.8103,312.84074422247795
621.9327,217.70002654050768
624.0544,215.0697174400193
626.1756,232.99533569602318
628.2961,241.42239793283625
630.4159,159.3964184448323
632.5351,138.66290911216493
634.6537,71.26738022101927
636.7716,37.255340670975784
638.8889,57.87229864893743
641.0056,98.56376196927158
643.1216,109.32523786762613
645.237,137.20223259401064
647.3518,157.09025130518967
649.4659,152.98479778589717
651.5793,186.7313742499755
653.6922,164.52548138142083
655.8043,144.4126179969171
657.9159,126.88828126790759
660.0268,73.44796692170712
662.137,1.4371694167584792
664.2466,-25.79861752297802
666.3556,-31.363914530867987
668.4639,-33.5129845120955
670.5716,23.200222953664706
672.6786,92.5220930814412
674.785,179.24877931603623
676.8907,278.5264341770344
678.9958,380.10120839154115
681.1002,357.71924990139814
683.204,310.87670284743945
685.3072,285.96970779331605
687.4097,214.8944021939078
689.5115,155.14692064439987
691.6127,125.72339559103784
693.7132,37.51995792859998
695.8131,-17.61726270536201
697.9123,-42.99213704849353
700.0109,-52.70835984198493
702.1089,-72.86919633558318
704.2061,-94.87738522252039
706.3028,-54.7349372327717
708.3987,26.70708472876504
710.4941,124.59816455920736
712.5887,323.53778588860223
714.6827,646.6754311010209
716.7761,1022.6605793451636
718.8688,1392.8427033029839
720.9608,1580.0212654298375
723.0522,1613.845714252644
725.1429,1384.5154824981273
727.233,1053.079986754552
729.3224,746.2886297650384
731.4112,456.2408037419118
733.4993,266.4858934346212
735.5867,110.37327903021469
737.6735,67.60233805088319
739.7596,11.922446915094042
741.845,24.83298136529629
743.9298,32.033317024726784
746.014,42.97282926828666
748.0974,52.85089315055666
750.1802,51.11688329639037
752.2624,78.7701738021351
754.3439,99.91013825297341
756.4247,166.03614944639048
758.5048,271.2475791807701
760.5843,470.54379759414223
762.6631,736.8741721120623
764.7413,1132.6380654546629
766.8188,1702.9848329733322
768.8956,2115.4138186930886
770.9718,2401.0243496091025
773.0473,2274.365731562415
775.1221,2005.2872463838285
777.1962,1624.2381531604915
779.2697,1455.5676909266822
781.3426,1529.925082474303
783.4147,1843.1595360395786
785.4862,2182.520244559495
787.557,2215.0063825394463
789.6271,1856.017102659629
791.6966,1324.8515354501833
793.7654,863.2587928810826
795.8335,566.6379736737927
797.901,448.2881679171969
799.9678,385.60846003380175
802.0339,424.9979299632341
804.0993,505.25565378904867
806.1641,470.4307033448258
808.2282,448.2721454115963
810.2916,369.22904206608655
812.3544,292.7504509023129
814.4164,208.03542582200134
816.4778,197.33301779937392
818.5385,198.34227572830605
820.5986,276.3122465293436
822.658,319.94197513961444
824.7166,385.9805037331207
826.7747,532.776871284459
828.832,663.9301129084179
830.8886,790.4892583920264
832.9446,918.6533308830203
834.9999,1006.9213456242414
837.0545,1080.7923086720057
839.1085,1180.9152160134254
841.1618,1162.7890528276876
843.2143,1170.7627924848384
845.2662,1122.735396727032
847.3175,1042.5558155887957
849.368,950.3229878773109
851.4179,860.5358419741988
853.467,718.0432967578563
855.5155,656.4942625013191
857.5633,528.4376422971982
859.6105,458.7223326731655
861.6569,407.09722487252293
863.7027,361.1612055513542
865.7478,350.31315729478047
867.7922,378.0519590763106
869.8359,425.7764863663342
871.8789,550.4856108547228
873.9212,733.0781999735882
875.9629,918.2031156501816
878.0039,1123.8592124809838
880.0441,1187.1453358804429
882.0837,1206.7103200244164
884.1226,1099.9029872173178
886.1609,982.7221476964551
888.1984,873.4166007001095
890.2352,829.1351356393479
892.2714,790.7765331910723
894.3069,769.3895657408393
896.3416,725.6229977664443
898.3757,704.5755860517893
900.4091,729.1960801245532
902.4418,754.7332224666625
904.4739,770.5857482680858
906.5052,763.5523851714679
908.5358,670.6818531135959
910.5658,539.7728643957435
912.595,382.7241246123722
914.6236,297.13433396022265
916.6515,262.15218880879365
918.6786,281.5763825562517
920.7051,366.8556059792354
922.7309,479.5385470386336
924.756,574.7738900267796
926.7804,674.1103144406206
928.8041,633.3464940293707
930.8272,656.1310958011472
932.8495,624.3627804306052
934.8711,553.1402020310979
936.892,413.11200847235705
938.9123,281.62684209271174
940.9318,142.03334109937532
942.9506,62.03014088329837
944.9688,-34.98412458490566
946.9862,-43.16082195491981
949.003,-59.85096838503341
951.019,-42.855149856921344
953.0344,-30.77335444109849
955.0491,9.994857914873137
957.063,131.35023468923282
959.0763,216.54352326027583
961.0888,272.02546969279865
963.1007,376.49681788617363
965.1119,422.05830901951595
967.1223,452.1606805069832
969.1321,475.1546655421462
971.1412,528.8909927969789
973.1495,574.3703861919121
975.1572,616.2435643584668
977.1641,631.4612401844715
979.1704,635.6241203953168
981.1759,652.0829054017859
983.1808,719.3382892584268
985.1849,817.8409594989689
987.1884,1001.8415964637597
989.1911,1203.4408723147408
991.1932,1329.5394491954494
993.1945,1397.5379772150145
995.1951,1370.3370931871705
997.1951,1331.1874199502827
999.1943,1287.6395666393437
1001.1928,1236.2941290774797
1003.1906,1241.501690211423
1005.1877,1283.7128206249681
1007.1841,1244.0780784868994
1009.1798,1181.1980091288779
1011.1748,987.3731454417866
1013.1691,825.3540085045333
1015.1627,636.3411095222955
1017.1556,471.0349514467107
1019.1477,406.33603086601397
1021.1392,362.5948396580907
1023.1299,366.9618656374778
1025.12,399.4375929927737
1027.1093,453.97250224296295
1029.0979,560.4670699126591
1031.0859,650.0217679867574
1033.0731,621.1870628454863
1035.0596,569.3634143688587
1037.0454,437.3512762250248
1039.0304,350.20109638850226
1041.0148,215.21331846029716
1042.9985,165.98838253941176
1044.9814,130.47672657271414
1046.9636,97.02878684719781
1048.9452,87.49499834509334
1050.926,80.97579507834507
1052.9061,110.92161018394927
1054.8855,103.53287598914449
1056.8642,132.21002371195664
1058.8421,197.75348353509253
1060.8194,255.41368431915544
1062.7959,297.5410529472201
1064.7717,298.2360137482274
1066.7469,322.2989880757141
1068.7213,301.73039430085737
1070.695,294.1306475718493
1072.6679,217.25016001958738
1074.6402,205.13934083366257
1076.6117,211.7985970311738
1078.5826,227.77833357782401
1080.5527,318.3289533213383
1082.5221,434.2508568316616
1084.4908,651.5944414954529
1086.4587,867.0601003568627
1088.426,1016.7482199441029
1090.3925,1013.7591781147858
1092.3584,966.54334255905
1094.3235,837.051070829446
1096.2879,716.4827108130912
1098.2515,717.1386020265945
1100.2145,763.3190768217364
1102.1767,851.1744603789157
1104.1382,992.9550702453425
1106.099,1169.6612154564846
1108.0591,1385.0931951182638
1110.0185,1550.4512966399925
1111.9771,1556.1857935800535
1113.9351,1348.2469439923198
1115.8923,1039.6849903688126
1117.8488,735.6001617190877
1119.8045,490.8926766558534
1121.7596,364.7127464358191
1123.7139,330.46057740677134
1125.6675,343.6863722693706
1127.6204,429.29033041967523
1129.5726,439.57264781688446
1131.524,471.58351612730075
1133.4748,516.3231226215021
1135.4248,579.04164985424
1137.3741,605.9392752170361
1139.3226,576.4661703110005
1141.2705,538.6725006778543
1143.2176,481.1584260946629
1145.164,546.4741009517702
1147.1097,559.2196748279403
1149.0546,537.445291837198
1150.9989,454.7510905013769
1152.9424,293.13720396786357
1154.8852,153.50376083653555
1156.8272,44.40088677590393
1158.7686,2.3787059194446556
1160.7092,-24.262658043375268
1162.6491,-26.423081446872857
1164.5883,48.49780175858814
1166.5267,144.10062158922574
1168.4644,285.086007576283
1170.4014,477.80458780999925
1172.3377,693.1069875297562
1174.2732,892.0438271968987
1176.2081,1081.4157203417044
1178.1421,1284.6732715740154
1180.0755,1450.267074689521
1182.0082,1462.4477106371778
1183.9401,1429.2657458632757
1185.8713,1244.5217321896298
1187.8017,1052.7162071454022
1189.7315,835.8496958145461
1191.6605,566.7227127538536
1193.5888,437.6857641616243
1195.5163,338.2393505689306
1197.4432,262.63396812999235
1199.3693,221.77010961663655
1201.2947,187.1482651743554
1203.2193,193.9689227309409
1205.1432,228.58256834270287
1207.0664,275.9396861262667
1208.9889,347.3907579124343
1210.9106,428.93626277261137
1212.8316,523.2266763042971
1214.7519,590.6624698156338
1216.6715,628.9441093825017
1218.5903,630.2720551741586
1220.5084,591.6967610704223
1222.4257,566.8186746483925
1224.3424,547.2382375682082
1226.2583,613.9558858218243
1228.1735,702.3220499288163
1230.0879,824.6871542692015
1232.0016,964.2516161997864
1233.9146,1005.4158448305034
1235.8269,931.6802396287767
1237.7384,828.6951900078711
1239.6492,668.9610760642545
1241.5592,568.628269607445
1243.4686,493.4971357573504
1245.3772,465.6180339476032
1247.285,432.29131867686647
1249.1922,381.96733978762677
1251.0986,387.79644279946297
1253.0042,404.22896941228646
1254.9092,476.9152574480386
1256.8134,572.655640686382
1258.7169,736.5004481378246
1260.6196,897.2000030863283
1262.5216,1072.1046214508488
1264.4229,1222.3646101783488
1266.3234,1331.2302654947453
1268.2232,1416.4518714023088
1270.1223,1383.4296985910105
1272.0207,1378.764003586305
1273.9183,1340.5550290793508
1275.8151,1292.7030039736692
1277.7113,1216.708143767236
1279.6067,1097.3206510309928
1281.5014,976.7907161688108
1283.3953,872.6185186113507
1285.2885,818.254228021372
1287.181,768.5980053354515
1289.0727,803.4000033076227
1290.9637,859.360367005942
1292.854,969.429233464467
1294.7435,1136.3567311236484
1296.6323,1338.0929787296527
1298.5204,1551.2880836650784
1300.4077,1801.5421399315946
1302.2943,2008.2552260179955
1304.1802,2081.4274023976513
1306.0653,2029.3087094613857
1307.9497,1927.4991667857475
1309.8333,1847.4987736542007
1311.7162,1834.157510075217
1313.5984,1930.7253375822866
1315.4798,2061.652199367326
1317.3605,2221.9380193150037
1319.2405,2376.0327006934676
1321.1197,2433.4861245514885
1322.9982,2376.6481481775154
1324.876,2361.5686045251405
1326.753,2346.947302781474
1328.6293,2380.984028517948
1330.5048,2414.128543836521
1332.3796,2393.1805870293138
1334.2537,2379.8898722471667
1336.127,2365.456089709115
1337.9996,2325.478905835301
1339.8714,2304.407963391305
1341.7426,2246.742881887926
1343.6129,2252.183257791884
1345.4826,2191.9786651024697
1347.3515,2153.878655297144
1349.2196,2125.4827579335806
1351.087,2141.8904810306713
1352.9537,2198.851311352484
1354.8197,2344.264714244184
1356.6849,2489.930133062425
1358.5493,2567.3469877212156
1360.4131,2595.2146732352703
1362.276,2554.6325589458374
1364.1383,2439.4499882420196
1365.9998,2221.2162789665945
1367.8606,1968.2807245678414
1369.7206,1750.5425962818827
1371.5799,1595.1011456620317
1373.4384,1512.6556067561733
1375.2962,1409.255197661183
1377.1533,1220.5491213473842
1379.0096,971.0865666925511
1380.8652,749.416710368966
1382.7201,541.4887193380537
1384.5742,356.6017530670697
1386.4275,239.90496560838437
1388.2802,154.44750744835073
1390.132,85.02852667427487
1391.9832,39.297169828985716
1393.8336,10.102582605034513
1395.6832,-5.706089698001051
1397.5322,-17.329701881564688
1399.3803,-12.069051743264026
1401.2278,-13.624763956988318
1403.0745,-19.997342626799764
1404.9204,-8.237155745370728
1406.7656,24.105628468075338
1408.6101,65.08092408350149
1410.4538,95.33864492981138
1412.2968,146.47870418510774
1414.139,217.95101407410584
1415.9805,309.6554853567368
1417.8213,404.6420266134246
1419.6613,543.3605433280436
1421.5006,720.4609369380514
1423.3391,989.7431034472984
1425.1769,1337.2069316550296
1427.0139,1827.8523004630606
1428.8502,2405.429075401139
1430.6858,2976.9371037204955
1432.5206,3397.27620861807
1434.3547,3637.396183521433
1436.188,3679.7967878853988
1438.0206,3634.7277447908173
1439.8524,3502.7887405205756
1441.6835,3425.9794250102814
1443.5139,3374.2494131676604
1445.3435,3328.398285640643
1447.1724,3263.97558933467
1449.0005,3218.9308378711994
1450.8279,3133.063512231939
1452.6545,3107.72306120929
1454.4804,3161.1589022650196
1456.3056,3161.970421783667
1458.13,3101.456974538183
1459.9536,2906.8178836818197
1461.7766,2574.652441353258
1463.5987,2205.759910623001
1465.4202,1858.0895288150314
1467.2409,1541.9405111957317
1469.0608,1305.812054450595
1470.88,1075.103339845707
1472.6984,884.0635355890367
1474.5161,716.2417991375178
1476.3331,602.4872791074517
1478.1493,489.3491169527256
1479.9648,419.2764481023528
1481.7795,348.31840309185964
1483.5935,299.17410826400646
1485.4067,255.89268647837434
1487.2192,235.173257602803
1489.031,198.5149389462099
1490.842,178.36684546578363
1492.6522,175.42809013356555
1494.4618,158.84778413792992
1496.2705,152.87503691297434
1498.0785,151.6589563043235
1499.8858,109.94864862884515
1501.6924,120.69321868682664
1503.4981,110.04177017906386
1505.3032,116.99340559942311
1507.1075,118.0972263413505
1508.911,93.30233262835964
1510.7138,77.55782350299069
1512.5159,63.862797074762966
1514.3172,47.51635067762163
1516.1178,10.317581006885575
1517.9176,27.515584282709824
1519.7166,14.209456622075322
1521.515,-10.251706133194148
1523.3126,-1.51880828336607
1525.1094,-12.092651714164731
1526.9055,-8.524023138420944
1528.7008,-2.213588463378528
1530.4954,-29.161928441291366
1532.2893,-22.219601710670304
1534.0824,-26.736875582362245
1535.8747,-27.91379539339505
1537.6663,-9.00013937941003
1539.4572,-0.4454069172365962
1541.2473,0.7509925276876857
1543.0367,1.4896539395372201
1544.8253,18.571172294978624
1546.6132,43.746142555783535
1548.4003,35.41515949801487
1550.1867,68.6288174602737
1551.9723,89.9877104270131
1553.7572,134.49243169639567
1555.5414,159.7935736667091
1557.3247,203.0417273913199
1559.1074,272.58748232566086
1560.8893,325.73142589475174
1562.6705,399.3241427977382
1564.4509,469.7662144764545
1566.2305,544.5082183794962
1568.0094,649.5007272577982
1569.7876,727.8443084172177
1571.565,777.839522668603
1573.3417,830.6369235443626
1575.1176,850.7370567985085
1576.8928,843.0904598786883
1578.6672,770.0476617251766
1580.4409,681.9091828473474
1582.2138,585.4255360540997
1583.986,502.7972273352407
1585.7575,423.8247568263232
1587.5282,369.95861963492825
1589.2981,338.9993066303914
1591.0673,304.44730498246327
1592.8358,298.9030984709061
1594.6035,314.3671678310084
1596.3704,322.1899908090313
1598.1366,345.02204200756387
1599.9021,389.4637928072975
1601.6668,413.2657111387048
1603.4308,470.52826103762254
1605.194,550.2519024072321
1606.9564,650.6870904454354
1608.7182,759.4342748476179
1610.4791,891.993898802295
1612.2394,1057.7163979036404
1613.9988,1252.2521988258923
1615.7576,1450.3517176661248
1617.5156,1660.2153579988926
1619.2728,1886.9935088952334
1621.0293,2052.4865428240346
1622.785,2118.7948133842488
1624.54,2078.968653649968
1626.2942,1967.4583755073359
1628.0477,1758.3642700528108
1629.8005,1566.5366087082684
1631.5525,1377.5256453119464
1633.3037,1200.3816180367126
1635.0542,1061.104751280182
1636.804,973.9452574361526
1638.553,905.5033382873771
1640.3013,889.0791858771554
1642.0488,859.1729831937578
1643.7955,886.0349043346628
1645.5416,913.8151148056199
1647.2868,990.6637712520319
1649.0313,1085.2310211811523
1650.7751,1220.4670021935985
1652.5181,1394.9218410376775
1654.2604,1642.2456522570278
1656.0019,1922.8885364460712
1657.7427,2230.3005777767717
1659.4828,2552.0818411922114
1661.222,2771.0323693324676
1662.9606,2814.7021793167987
1664.6984,2668.8412605541457
1666.4354,2327.6995743064263
1668.1717,1924.8270551471464
1669.9072,1532.823614372819
1671.642,1183.7891440316853
1673.3761,907.6735208437549
1675.1094,709.8766096911486
1676.8419,568.7982663792504
1678.5737,439.48833961468335
1680.3048,370.8966724160873
1682.0351,293.1731034072195
1683.7646,254.91746750287302
1685.4934,218.6295966861112
1687.2215,198.1593203908251
1688.9488,176.30646586460944
1690.6754,141.52085837346567
1692.4012,143.80232142033265
1694.1263,130.2006770929429
1695.8506,112.91574604100651
1697.5742,108.3973476122269
1699.297,99.9953000251553
1701.0191,90.05942041436901
1702.7404,75.33952491449418
1704.461,49.935428759564275
1706.1808,50.596946430218395
1707.8999,49.973891907742654
1709.6182,52.266078667455076
1711.3358,35.323319684935086
1713.0527,49.34542741310224
1714.7688,26.8822139516451
1716.4841,15.733490906799034
1718.1987,18.249069615978442
1719.9126,27.478761259263592
1721.6257,11.222376834246461
1723.338,13.729727063731843
1725.0496,2.2006225583013475
1726.7605,5.984873791241625
1728.4706,7.582291213836015
1730.18,4.142685217518192
1731.8886,10.465866117900077
1733.5964,6.101644189171566
1735.3036,-4.000170399138369
1737.0099,9.460232461485248
1738.7156,0.08270284125728722
1740.4204,-5.082909284206835
1742.1246,3.4632460598827493
1743.8279,-1.3289303734231908
1745.5306,7.090462134296558
1747.2325,-12.87866242252403
1748.9336,-4.286390120351371
1750.634,-4.6326783778190475
1752.3336,-1.8174417925229136
1754.0325,-2.2405486816041957
1755.7307,3.3981507940397933
1757.4281,8.148828856589262
1759.1247,6.6116576942463325
1760.8206,4.7368094137241314
1762.5158,-0.9755439443774776
1764.2102,-0.025230386826478934
1765.9039,20.88793182529389
1767.5968,-1.0358755688480414
1769.289,7.753528961038683
1770.9804,2.606337293640081
1772.6711,9.822741230108477
1774.361,25.652932545534895
1776.0502,14.247102916782751
1777.7386,10.25544376418793
1779.4263,18.378146365615976
1781.1132,9.91540189637908
1782.7994,13.86740134800948
1784.4849,15.334335612886207
1786.1696,6.816395444714999
1787.8535,26.563771443859423
1789.5367,16.426654142519965
1791.2192,33.90523380726063
1792.9009,13.349700540378763
1794.5818,16.910244105123184
1796.2621,18.13705413124444
1797.9415,30.08032007939255
1799.6202,37.24023122884819
1801.2982,34.51697655808857
1802.9755,29.910744673190948
1804.6519,27.571723835063494
1806.3277,24.45010200550678
1808.0027,33.09606687060568
1809.6769,46.70980587194572
1811.3504,27.491506120152735
1813.0231,42.99135425875579
1814.6951,48.10953665636703
1816.3664,50.0462392516863
1818.0369,60.7516475023192
1819.7067,41.825946365408754
1821.3757,47.46932019058272
1823.044,46.581952909209804
1824.7115,67.214027977966
1826.3783,44.36572838770894
1828.0443,43.08723645715736
1829.7096,48.17873406137346
1831.3741,61.94040264454702
1833.0379,54.22242316908137
1834.701,68.32497597797555
1836.3633,64.39824087200623
1838.0248,64.79239696870036
1839.6856,60.807622741604064
1841.3457,76.59409601634161
1843.005,76.30199401046025
1844.6636,69.33149317556831
1846.3214,65.73276920025432
1847.9785,77.70599707979432
1849.6349,96.60135115213757
1851.2904,82.91900497817346
1852.9453,71.25913115277967
1854.5994,82.77190144164297
1856.2528,90.50748689786042
1857.9054,85.31605774681043
1859.5572,84.54778330879822
1861.2083,87.60283205096925
1862.8587,101.5313715949926
1864.5084,93.03356868650917
1866.1572,95.05958905584748
1867.8054,95.45959750300017
1869.4528,91.28375787736582
1871.0994,87.48223307374724
1872.7453,95.80518507411125
1874.3905,97.00277498560285
1876.0349,100.62516295731689
1877.6786,89.27250816832043
1879.3215,99.54496879142948
1880.9637,86.04270210673621
1882.6051,103.26586439888251
1884.2458,94.61461109208517
1885.8858,97.28909657790246
1887.525,101.28947430174799
1889.1634,98.36589673614594
1890.8011,93.26851534072534
1892.4381,92.69748059145786
1894.0743,95.80294203163112
1895.7098,97.08504827755769
1897.3446,98.09394698752203
1898.9786,100.0297848489588
1900.6118,99.34270756836395
1902.2443,102.13285985193625
1903.8761,92.9503854124489
1905.5071,90.44542694134589
1907.1374,90.11812620057003
1908.7669,91.2686240476105
1910.3957,102.44706043877477
1912.0237,78.50357441768642
1913.651,105.63830400349889
1915.2776,94.35138643032997
1916.9034,100.64295787591595
1918.5285,90.96315357447997
1920.1528,84.56210775381464
1921.7764,104.08995373208427
1923.3992,104.94682398183136
1925.0213,89.2328499347002
1926.6427,90.048161972868
1928.2633,52.842889586183446
1929.8832,118.01716136401433
1931.5023,83.42110536730047
1933.1207,81.15484847681046
1934.7383,91.2685167391046
1936.3552,79.11223538919307
1937.9714,81.63612874940304
1939.5868,90.89032035093987
1941.2015,85.8249329086475
1942.8154,74.44008822846718
1944.4286,76.08590725809154
1946.041,80.6125102008125
1947.6528,80.17001649906433
1949.2637,65.5585447891574
1950.8739,72.47821290570346
1952.4834,73.97913802772928
1954.0921,81.26143660948014
1955.7001,67.57522436541149
1957.3074,79.77061619736514
1958.9139,65.79772633143125
1960.5197,69.4566681959941
1962.1247,67.94755456146163
1963.729,55.27049750367587
1965.3325,44.875608419003356
1966.9353,46.412998151106876
1968.5374,60.63277709489489
1970.1387,50.8850551811463
1971.7393,52.91994173431408
1973.3392,55.63754557000061
1974.9383,63.537974974609824
1976.5366,48.27133767817077
1978.1342,52.28774077533353
1979.7311,56.387290878035856
1981.3273,52.07009407533883
1982.9227,43.63625589243202
1984.5173,57.685881333804446
1986.1112,49.21907496758308
1987.7044,51.58594078503734
1989.2968,47.08658228524678
1990.8885,60.771102451432625
1992.4795,51.739603795951325
1994.0697,52.44218822344965
1995.6592,46.778957121179474
1997.2479,43.750011351971125
1998.8359,45.905451310866965
2000.4232,47.39537695540844
2002.0097,51.36988778408454
2003.5955,33.729082821429756
2005.1805,42.52306057828082
2006.7648,49.50191922818453
2008.3484,47.01575651945768
2009.9312,57.66466970539818
2011.5133,39.39875556914626
2013.0946,43.66811031719703
2014.6752,50.02282976205902
2016.2551,52.963009279558946
2017.8342,46.088743745297506
2019.4126,41.90012750524511
2020.9902,50.24725444448609
2022.5672,56.5802180291048
2024.1433,46.3991112227136
2025.7188,55.45402642312388
2027.2935,42.89505556415634
2028.8674,46.572290025091434
2030.4406,41.98582075626018
2032.0131,38.93573824227133
2033.5849,38.37213254787616
2035.1559,43.045093348469436
2036.7261,39.55470993572658
2038.2957,43.00107117087077
2039.8645,52.68426551958032
2041.4325,53.20438101752234
2042.9998,42.86150517352212
2044.5664,42.505724964361434
2046.1323,40.73712693820721
2047.6974,43.505797218170756
2049.2617,52.66182151999146
2050.8254,42.95528512435271
2052.3883,46.68627278531926
2053.9504,40.404868827403334
2055.5118,52.96115710825711
2057.0725,36.005221081484024
2058.6325,45.23714367107618
2060.1917,43.007007440973894
2061.7502,30.564894502746938
2063.3079,46.31088653789493
2064.8649,45.09506492227001
2066.4212,47.46751056861581
2067.9767,47.67830393872532
2069.5315,37.97752501971718
2071.0856,37.56525332192837
2072.6389,31.341567975919816
2074.1915,36.9065477366014
2075.7433,42.41027104546697
2077.2945,33.80281597494627
2078.8448,33.7842601733671
2080.3945,30.754680951029286
2081.9434,42.06415528039179
2083.4916,38.91275982636648
2085.039,28.100570833223856
2086.5857,32.82766415610854
2088.1317,35.144115369158726
2089.677,19.349999718237086
2091.2215,29.99539209776549
2092.7652,40.23036720866685
2094.3083,21.304999451909453
2095.8506,32.91936282615916
2097.3921,41.62353111703169
2098.933,32.16757778094984
2100.4731,26.251575858101887
2102.0124,32.025598067000374
2103.5511,35.68971686364398
2105.089,43.29400438377547
2106.6261,38.03853240624153
2108.1626,42.27337227694943
2109.6983,39.94859496142226
2111.2332,32.164271002450505
2112.7675,36.77047054333843
2114.301,37.167263405748145
2115.8337,41.6547190436379
2117.3657,36.88290653929403
2118.897,35.75189455845543
2120.4276,40.71175139803313
2121.9575,38.91254499741967
2123.4866,35.15434288889014
2125.0149,46.43721221559508
2126.5426,33.7612197691426
2128.0695,41.976431876769084
2129.5956,44.332914528099764
2131.1211,40.53073329299559
2132.6458,33.31995329798906
2134.1698,33.000639264305846
2135.693,37.2728555799722
2137.2155,42.53666630300859
2138.7373,34.29213511870739
2140.2584,36.13932528699502
2141.7787,32.778299724877115
2143.2983,43.15912098796616
2144.8171,33.981851304093425
2146.3353,29.796552469497556
2147.8527,26.453285940601063
2149.3693,38.3021128758603
2150.8853,38.04309416919932
2152.4005,27.62629033152143
2153.9149,31.60176149329982
2155.4287,31.269567508744103
2156.9417,28.379767916047285
2158.454,31.782421940708673
2159.9655,38.32758852442953
2161.4764,24.815326291087786
2162.9865,36.69569348128698
2164.4958,34.66874808747775
2166.0045,32.73454773515459
2167.5124,28.943149703124845
2169.0195,24.79461094285125
2170.526,28.188988116364953
2172.0317,28.126337637751476
2173.5367,32.256715639206504
2175.0409,30.530177971663534
2176.5445,38.896780163488984
2178.0473,45.95657743774859
2179.5494,38.20962462854072
2181.0507,29.005976110398933
2182.5513,39.84568587576075
2184.0512,34.87880762700479
2185.5504,35.70539466805337
2187.0488,23.875499954041402
2188.5465,42.63917608304996
2190.0435,28.846475414405973
2191.5397,39.19744988104537
2193.0353,34.09215112743857
2194.5301,27.28063040608322
2196.0241,44.91293862855548
2197.5175,32.68912643362614
2199.0101,35.10924401093746
2200.502,28.723341223241277
2201.9931,19.481467582197638
2203.4835,23.53367231223399
2204.9733,25.63000444296256
2206.4622,23.12051276865941
2207.9505,23.255245827301337
2209.438,16.834251925660396
2210.9248,14.257579137956327
2212.4109,26.82527537006706
2213.8962,21.787388385294776
2215.3809,26.393965678689938
2216.8648,25.995054527429147
2218.3479,24.640701944750617
2219.8304,23.380954683942832
2221.3121,15.065859251887218
2222.7931,18.545461921656283
2224.2733,16.069808815664032
2225.7529,14.13894587087077
2227.2317,15.95291886353857
2228.7098,17.061773428540505
2230.1872,21.66555504122084
2231.6638,23.91430900630678
2233.1397,15.80808041187015
2234.6149,23.34691410684036
2236.0894,14.730854782066672
2237.5632,11.359946894930317
2239.0362,20.284234755503803
2240.5085,8.003762560261407
2241.9801,9.9185743028346
2243.4509,13.428713896818294
2244.921,16.63422515662114
2246.3904,8.785151762365558
2247.8591,6.781537227832473
2249.3271,16.073424978951834
2250.7943,3.660858373838778
2252.2608,12.643880609874714
2253.7266,7.822534847832458
2255.1917,9.69686412204669
2256.656,18.666911388627227
2258.1197,3.782719506715921
2259.5826,4.744331148785818
2261.0447,5.1517889494829205
2262.5062,7.105135496010462
2263.9669,12.454413324054485
2265.4269,8.59966489825024
2266.8862,15.740932558689906
2268.3448,0.428258559469441
2269.8026,16.36168499727637
2271.2598,5.941249690494146
2272.7162,9.666990293890308
2274.1719,12.188944402819743
2275.6268,14.107149515968445
2277.0811,11.521643010132948
2278.5346,12.282462121039543
2279.9874,19.589643969197823
2281.4395,19.043225552293507
2282.8908,17.39324367211566
2284.3414,15.139734940021526
2285.7914,16.582735793436655
2287.2406,14.57228251838933
2288.689,14.758411235081667
2290.1368,20.19115791799311
2291.5838,18.770558394019304
2293.0302,22.19664828814416
2294.4758,6.869463037646938
2295.9206,15.689037857840617
2297.3648,23.055407895343933
2298.8082,15.718608139885873
2300.251,25.078673350641793
2301.693,10.635638129600693
2303.1343,7.739536827965708
2304.5748,5.740403690583662
2306.0147,11.08827288490636
2307.4538,18.883178520981687
2308.8922,11.475154597975347
2310.3299,23.314234926221957
2311.7669,15.100453201304731
2313.2031,10.833842885665263
2314.6387,8.414437290741148
2316.0735,4.292269619632066
2317.5076,16.06737299129327
2318.941,13.439737644906245
2320.3737,8.459353658979012
2321.8056,15.176210977622304
2323.2369,13.640299460353958
2324.6674,14.701608814929727
2326.0972,17.460128612703784
2327.5263,12.915848278015119
2328.9547,18.51875706060241
2330.3823,21.318844081045768
2331.8092,18.716098274738442
2333.2355,22.010508363885606
2334.661,15.402062883532267
2336.0858,22.590750148618554
2337.5098,17.876558320064532
2338.9332,15.15947533288363
2340.3558,19.98948894332375
2341.7778,15.616586756038373
2343.199,20.240756175786487
2344.6195,15.461984451161698
2346.0393,28.830258628350407
2347.4583,29.29556559891978
2348.8767,27.70789196613498
2350.2943,27.667224040305427
2351.7113,24.32354785466225
2353.1275,26.226849165764634
2354.543,27.477113486937014
2355.9578,35.12432606923517
2357.3718,25.268471888944987
2358.7852,28.059535571109222
2360.1978,26.347501488086323
2361.6098,29.53235373164
2363.021,31.86407613005906
2364.4315,23.842652216309034
2365.8413,29.968065204715685
2367.2504,25.690298071178177
2368.6587,19.109333491915095
2370.0664,18.625153886243083
2371.4733,30.88774148238531
2372.8795,24.897078322313405
2374.285,17.603146139122487
2375.6899,21.105926416936768
2377.0939,21.555400463849423
2378.4973,25.301549376895082
2379.9,26.89435403755442
2381.3019,24.13379507429272
2382.7032,26.819852846632102
2384.1037,31.60250747275643
2385.5035,22.881738802652308
2386.9027,29.907526370281175
2388.3011,28.279849480787107
2389.6987,26.59868714023912
2391.0957,27.16401807190823
2392.492,16.77582073307883
2393.8876,15.634073309395603
2395.2824,24.28875381874559
2396.6765,16.989840122675332
2398.07,13.787309839843942
2399.4627,21.98114041901306
2400.8547,26.971309171071084
2402.246,25.357793187095353
2403.6366,21.040569288450115
2405.0265,22.71961404292233
2406.4156,20.89490380789323
2407.8041,26.11641471354835
2409.1918,24.184122681124336
2410.5789,27.698003370694323
2411.9652,19.10803220049047
2413.3508,21.664184311765325
2414.7358,24.916434654691443
2416.12,26.06475796279983
2417.5035,23.609128720457306
2418.8863,24.449521151383806
2420.2684,26.335909243207993
2421.6497,28.91826673906371
2423.0304,19.89656711872624
2424.4104,24.87078357278824
2425.7896,31.890889092877046
2427.1682,28.306856421912812
2428.546,25.368657983907042
2429.9232,28.076265919802836
2431.2996,28.37965211685696
2432.6753,26.178788181564073
2434.0503,22.62364543662204
2435.4246,29.26419494294123
2436.7982,27.40040753519645
2438.1711,35.382253755420265
2439.5433,28.00970387164159
2440.9148,31.03272779806707
2442.2856,23.15129516880654
2443.6557,26.115375307643262
2445.025,30.72493730684812
2446.3937,38.52994999753787
2447.7617,28.130381903580428
2449.1289,33.57620116354428
2450.4955,35.31737563469471
2451.8613,37.2538728385349
2453.2265,34.43565994339485
2454.5909,36.812703745065505
2455.9546,39.08497069498162
2457.3177,39.45242687645077
2458.68,42.115037981931664
2460.0416,38.12276930935923
2461.4025,43.875585735517916
2462.7627,35.67345175596506
2464.1222,38.81633142750263
2465.4811,46.65418845019826
2466.8392,47.13698613595659
2468.1966,43.61468733014067
2469.5533,42.587254406743796
2470.9093,46.35464930361286
2472.2645,45.2168335327226
2473.6191,44.673768142501444
2474.973,51.27541372920996
2476.3262,51.67173044237097
2477.6787,48.462677918753684
2479.0305,47.698215278409975
2480.3816,49.878301156765474
2481.7319,54.80289371226388
2483.0816,51.57195060456604
2484.4306,52.23542894530419
2485.7789,47.39328533039122
2487.1264,47.74547583338597
2488.4733,46.04195605391442
2489.8195,53.78268111414809
2491.165,48.41760567583924
2492.5097,44.79668386291371
2493.8538,44.4198693151219
2495.1972,47.487115224247304
2496.5398,50.04837433787554
2497.8818,47.153598928720896
2499.2231,48.302740769014406
2500.5637,41.8457511594512
2501.9035,47.08258091769909
2503.2427,45.96318044296902
2504.5812,48.83749966364627
2505.919,51.30548804848405
2507.256,54.96709457786136
2508.5924,47.722267719102206
2509.9281,52.62095538986006
2511.2631,58.06310503056602
2512.5974,52.848663555441874
2513.9309,58.777577298078825
2515.2638,49.69979206358147
2516.596,50.11525306927928
2517.9275,51.42390503550399
2519.2583,52.77569218143509
2520.5884,58.77055821201316
2521.9178,54.058446304422034
2523.2465,48.78929904814004
2524.5745,52.71305849206141
2525.9018,64.02966619718785
2527.2284,56.48906319739041
2528.5543,58.94118988624382
2529.8796,56.23598609243254
2531.2041,60.07339105522908
2532.5279,61.50334345154664
2533.851,53.37578135756456
2535.1735,57.69064223442888
2536.4952,57.94786300952802
2537.8163,61.147380033344405
2539.1366,71.53912907688215
2540.4562,56.42304529967157
2541.7752,59.64906314585198
2543.0935,60.46711649533239
2544.411,66.37713863153164
2545.7279,72.37906223319732
2547.0441,63.57281931530639
2548.3596,61.70834116904524
2549.6744,62.585558449872565
2550.9885,57.304401196164065
2552.3019,67.11479882043977
2553.6146,68.36668016217618
2554.9266,67.25997338970194
2556.2379,56.944605987679324
2557.5485,68.67050476817064
2558.8585,66.23759597379251
2560.1677,63.945805160456814
2561.4762,64.69505722169959
2562.7841,68.28527641159917
2564.0913,60.81638633728329
2565.3977,65.88830992302707
2566.7035,66.700969484942
2568.0086,68.45428668025642
2569.313,66.89818249918937
2570.6167,71.38257724741686
2571.9197,69.85739056163317
2573.222,66.97254136470718
2574.5236,79.82794788093418
2575.8246,76.92352766488415
2577.1248,75.40919747284761
2578.4244,78.88487329188024
2579.7232,74.05047035494584
2581.0214,73.20590310615955
2582.3189,84.00108524913213
2583.6157,87.18592975541526
2584.9118,88.56034875655013
2586.2072,89.17425351221874
2587.5019,89.6775543965
2588.7959,94.52016089173031
2590.0893,97.10198158347083
2591.3819,91.82292411208118
2592.6739,97.13289514690143
2593.9652,98.28180043904257
2595.2557,106.26954476828706
2596.5456,105.09603193159944
2597.8348,104.411164663249
2599.1234,105.51484464654504
2600.4112,111.05697252068512
2601.6983,110.28744786971845
2602.9848,110.50616916712482
2604.2705,114.51303378350957
2605.5556,121.00793798441686
2606.84,109.34077689026037
2608.1237,111.11144441137475
2609.4067,108.86983336468688
2610.689,111.3658354560095
2611.9707,113.74934130245737
2613.2516,113.17024040748703
2614.5319,110.02842113706168
2615.8115,111.17377072544235
2617.0903,109.70617530660633
2618.3685,113.97551990279322
2619.6461,105.7816884391811
2620.9229,108.72456370119312
2622.199,105.40402741643561
2623.4745,112.31996022526965
2624.7493,112.57224171401595
2626.0234,118.76075034579623
2627.2968,117.1853634580097
2628.5695,115.54595720044858
2629.8415,113.44240655105148
2631.1128,119.12458533229778
2632.3835,117.64236623224315
2633.6535,114.39562074769731
2634.9228,115.8342191990468
2636.1914,120.70803076272216
2637.4593,116.5669234568116
2638.7265,116.66076409232346
2639.9931,119.53941831459673
2641.259,119.15275060236291
2642.5242,119.60062423895971
2643.7887,120.8829013161972
2645.0525,119.1994427298797
2646.3156,113.50010816698261
2647.5781,119.13475612248709
2648.8398,109.8532439563736
2650.1009,113.85542783727499
2651.3613,114.64116283529188
2652.6211,111.46030288197068
2653.8801,115.01270076244651
2655.1385,117.84820814725163
2656.3961,116.86667555679139
2657.6531,115.21795233298946
2658.9094,119.45188664910273
2660.1651,118.71832552620879
2661.42,118.51711479086646
2662.6743,118.69809908245134
2663.9279,125.31112185516815
2665.1808,121.95602537624063
2666.433,119.7826506597815
2667.6846,127.99083750034345
2668.9354,127.03042449465266
2670.1856,136.1512489595272
2671.4351,134.65314694148083
2672.6839,136.33595312551495
2673.9321,136.6995008500998
2675.1795,140.2436220903462
2676.4263,145.16814745437023
2677.6724,143.9729061478518
2678.9179,146.70772592478988
2680.1626,142.2724330994542
2681.4067,148.2168525190374
2682.6501,141.69080760800801
2683.8928,150.19412030866607
2685.1348,138.32661114640382
2686.3761,139.5380991446723
2687.6168,138.37840194365674
2688.8568,136.09733578816162
2690.0961,133.14471553920754
2691.3348,129.67035469684163
2692.5727,126.22406542966411
2693.81,125.40565860957179
2695.0466,122.41494384622092
2696.2826,120.75172949521146
2697.5178,122.36582268799418
2698.7524,120.95702934850277
2699.9863,124.02515417701301
2701.2195,125.67000066423049
2702.452,130.69137106060936
2703.6839,123.83906635990417
2704.9151,137.2628862489558
2706.1456,138.41262917621486
2707.3755,144.2380922175032
2708.6046,148.4890710645168
2709.8331,149.5153599665706
2711.0609,160.61675168808898
2712.2881,163.34303749834288
2713.5145,180.4940070604361
2714.7403,186.61944840404198
2715.9654,192.66914775389426
2717.1899,201.3928894685323
2718.4136,223.54045597980388
2719.6367,222.71162770562808
2720.8591,239.10618282851976
2722.0809,245.7738973038775
2723.3019,261.5145446960384
2724.5223,258.7278961116008
2725.7421,265.9637200420179
2726.9611,260.6717823914641
2728.1795,258.3018464044766
2729.3972,259.15367271887476
2730.6142,244.6270193894597
2731.8306,235.72164187949573
2733.0462,219.08729320597723
2734.2612,196.3237240286823
2735.4756,178.68068281651614
2736.6892,175.95791607514684
2737.9022,156.70516852343582
2739.1145,141.02218312066555
2740.3262,131.80870125906677
2741.5372,122.16446292064876
2742.7475,106.03920676933359
2743.9571,92.93267024739907
2745.1661,88.344589736731
2746.3744,84.32470068988874
2747.582,72.67273767598607
2748.7889,61.33843442088971
2749.9952,63.421523923739414
2751.2008,54.72173857029048
2752.4057,45.88881011208338
2753.61,41.572469753441226
2754.8136,39.57244823979937
2756.0165,38.93847590086858
2757.2188,37.27028267063554
2758.4204,33.21759809370235
2759.6213,27.28015134196818
2760.8215,33.65767125515657
2762.0211,30.09988640018969
2763.22,28.506525007413074
2764.4182,22.52731500617358
2765.6158,16.511984040753134
2766.8127,13.160259530160715
2768.009,8.721868728285529
2769.2045,1.2465387574144415
2770.3994,5.333996652615554
2771.5936,1.1339694364921797
2772.7872,-9.503815921692194
2773.9801,-14.729632464013605
2775.1723,-17.69365828942705
2776.3639,-15.54592434785934
2777.5548,-21.486284829591057
2778.745,-5.564438621118995
2779.9346,-16.979869960954545
2781.1235,-14.282007498867415
2782.3117,-11.670110255726911
2783.4992,-10.843294575147354
2784.6861,-8.50056021634208
2785.8723,-5.590798614011817
2787.0579,2.1371837177389352
2788.2428,-0.06536388311650398
2789.427,3.352807900023379
2790.6106,21.59294838441383
2791.7935,22.706306853782507
2792.9757,32.79413237592752
2794.1573,52.30767379158442
2795.3382,50.29817961354763
2796.5184,67.66689783153481
2797.698,79.81507593228213
2798.8769,89.6939607258571
2800.0551,106.5547982241767
2801.2327,112.44883354221844
2802.4096,135.6773107294121
2803.5859,141.19147271069897
2804.7615,165.3925610542476
2805.9364,187.43181591631213
2807.1106,211.26047579922096
2808.2842,231.27977733098442
2809.4572,255.74095502700828
2810.6294,293.69524108990095
2811.801,330.5938651648612
2812.972,360.3880539601357
2814.1423,402.9790308780325
2815.3119,445.81801571697997
2816.4808,488.20622424561594
2817.6491,518.7948677743987
2818.8167,573.6351527317245
2819.9837,607.3282803580414
2821.15,642.0754461574461
2822.3157,689.1778395607525
2823.4807,727.1366435780205
2824.645,765.303034327532
2825.8086,807.1281806562018
2826.9716,840.0632437579156
2828.134,856.3093767552776
2829.2957,898.5677243702589
2830.4567,916.8394227617375
2831.617,945.7755991029139
2832.7767,950.4773713985953
2833.9358,939.5958481958326
2835.0941,938.2321285369037
2836.2519,932.1373020681281
2837.4089,902.1124490535042
2838.5653,886.908640435658
2839.7211,894.3769381360908
2840.8761,893.4183952072178
2842.0306,919.2840557576857
2843.1843,946.1249549619564
2844.3374,987.3921188016524
2845.4899,1045.1865637971464
2846.6417,1111.3592965948906
2847.7928,1184.4113133894716
2848.9433,1250.4435992618842
2850.0931,1310.107127449009
2851.2422,1381.702858683292
2852.3907,1441.6317405961079
2853.5385,1516.4447070018023
2854.6857,1545.3426772984049
2855.8323,1601.1265557194993
2856.9781,1649.2472310452417
2858.1233,1690.9055760445221
2859.2679,1738.4524469937603
2860.4118,1770.0386832603185
2861.555,1820.3651068270365
2862.6976,1830.0825219763656
2863.8395,1847.1917147871088
2864.9808,1894.7934530372422
2866.1214,1905.3384860328254
2867.2614,1909.1275441319851
2868.4007,1909.4613386394622
2869.5393,1923.5405617687231
2870.6773,1927.4658866386203
2871.8146,1947.9879671326014
2872.9513,1963.0074378594559
2874.0874,1958.3749139480938
2875.2227,1946.9909908973505
2876.3574,1904.5562446223128
2877.4915,1896.221231568158
2878.6249,1877.4864891345019
2879.7577,1851.0525357587476
2880.8898,1814.5198711034336
2882.0212,1824.2889763205737
2883.152,1798.3103144169834
2884.2821,1795.8343301565878
2885.4116,1789.5114503202103
2886.5405,1783.2420837303307
2887.6686,1802.4766213143143
2888.7962,1795.8654361671058
2889.923,1800.608883358884
2891.0493,1825.807300001174
2892.1748,1813.0110051994127
2893.2997,1834.4202998009628
2894.424,1863.7854665230793
2895.5476,1866.706769738813
2896.6706,1895.9844551833605
2897.7929,1898.8687499248517
2898.9145,1940.559862071572
2900.0355,1971.9079807431192
2901.1559,1998.4632756534918
2902.2756,2020.9258967976102
2903.3946,2060.895974185761
2904.513,2078.2736176189737
2905.6308,2117.808916289318
2906.7479,2128.051938606127
2907.8643,2158.052731800645
2908.9801,2190.5113218235983
2910.0953,2175.7277130451857
2911.2098,2174.451887930491
2912.3236,2176.6338071873233
2913.4368,2167.2734097789735
2914.5494,2142.1206129023913
2915.6613,2121.4753120817963
2916.7725,2085.237381420201
2917.8831,2070.556673805864
2918.9931,2037.9330212746722
2920.1024,2024.3662351569446
2921.211,1993.856106403671
2922.319,1975.00240572218
2923.4264,1966.354883881238
2924.5331,1954.9132718995886
2925.6391,1950.2272811324267
2926.7445,1937.2966033858152
2927.8493,1925.170910963544
2928.9534,1931.2998567964378
2930.0569,1925.7830745636122
2931.1597,1913.3701786311844
2932.2619,1922.4607641074426
2933.3634,1907.0044069669716
2934.4643,1898.6006639597492
2935.5645,1889.1990727657112
2936.6641,1855.7491520787848
2937.763,1827.5004017009082
2938.8613,1762.2023028765275
2939.959,1713.2043185750854
2941.056,1655.0558941440024
2942.1523,1575.8564577986558
2943.248,1503.2554212038644
2944.3431,1411.4021802658815
2945.4375,1331.7461158584078
2946.5313,1234.686594741122
2947.6244,1137.5229703562416
2948.7169,1041.2545837991183
2949.8087,969.2807647898752
2950.8999,881.5008326360878
2951.9904,806.8140969525261
2953.0803,745.3698585389515
2954.1696,699.5174101269846
2955.2582,653.4560369945478
2956.3462,612.7350174243893
2957.4335,585.8536231646973
2958.5202,555.4611198363098
2959.6062,524.756767201529
2960.6916,518.7398194680462
2961.7764,498.309525595986
2962.8605,483.3651293580741
2963.9439,479.60586954394216
2965.0267,476.93098010957044
2966.1089,472.68969021488033
2967.1905,466.4312242504842
2968.2714,470.8048018800972
2969.3516,474.9096381031229
2970.4312,472.1949432109176
2971.5102,474.6599227457408
2972.5885,484.7037775279034
2973.6662,485.9757036311174
2974.7432,492.27489228205724
2975.8196,476.10052984764025
2976.8954,476.1017977720353
2977.9705,467.6278727384058
2979.045,463.57792666889804
2980.1188,453.8511268093796
2981.192,439.4466357699386
2982.2645,421.3636116221526
2983.3364,399.35120804313266
2984.4077,371.65857449635433
2985.4783,346.5848564517809
2986.5483,328.6791956627904
2987.6177,304.1407304169122
2988.6864,262.2185957148844
2989.7545,245.46192351603747
2990.8219,213.16984315751677
2991.8887,189.64148152184833
2992.9548,160.12596335986007
2994.0204,143.17241152596506
2995.0852,121.02994727331708
2996.1495,101.89769042334609
2997.2131,79.1747595871825
2998.276,66.91027235698022
2999.3383,51.10334553314567
3000.4,40.303095246982764
3001.4611,33.40863711876227
3002.5215,22.869086365724286
3003.5812,11.483557871022867
3004.6404,7.951166289121318
3005.6989,0.37102615964744246
3006.7567,0.09225194271789405
3007.8139,-13.38604190526081
3008.8705,-8.514740928804486
3009.9264,-11.994596945870853
3010.9818,-5.626276712155686
3012.0364,-9.460327157331449
3013.0905,-1.0972390045663474
3014.1439,-12.337408468360081
3015.1966,-1.2812208017948024
3016.2487,-2.7789380072420613
3017.3002,-4.230809287677744
3018.3511,5.56294391551296
3019.4013,7.352142426729472
3020.4509,11.136607014742083
3021.4998,16.716158374799704
3022.5481,23.890617090785497
3023.5958,20.859803579420998
3024.6428,29.973538018521538
3025.6892,35.981640377304586
3026.735,46.38393032525238
3027.7802,44.48022717203099
3028.8247,55.72034976346737
3029.8685,57.154116500586156
3030.9118,65.1813452272084
3031.9544,70.25185321561469
3032.9963,83.415457086272
3034.0376,97.77197275712894
3035.0783,92.42121531197955
3036.1184,98.06299885689839
3037.1578,107.8971365737479
3038.1966,116.6734406637608
3039.2348,113.79172224919853
3040.2723,120.05179128558825
3041.3092,120.35345659054019
3042.3455,122.49652578114666
3043.3811,122.78080527096574
3044.4161,126.65610024859023
3045.4505,127.222214674805
3046.4842,122.57895124383396
3047.5173,118.4261113776792
3048.5498,112.76349527255314
3049.5816,114.89090194040733
3050.6128,111.00812926555852
3051.6434,109.2649739834145
3052.6734,108.96123171930196
3053.7027,104.94669700589782
3054.7314,98.471163286267
3055.7594,98.73442295400739
3056.7868,101.7862674180056
3057.8136,92.67648709980392
3058.8398,90.75487140308232
3059.8653,92.12120880475607
3060.8902,91.97528687419191
3061.9145,94.2668922595447
3062.9381,92.89581068921669
3063.9612,90.31182694894113
3064.9835,90.21472489549356
3066.0053,87.00428748253117
3067.0264,83.93029676156408
3068.0469,74.89253391405967
3069.0668,75.14077928218234
3070.086,67.17481245917128
3071.1046,71.2944122868582
3072.1226,58.04935693532656
3073.1399,49.98942386171592
3074.1567,47.564389942672506
3075.1727,42.67403155494824
3076.1882,41.818124599651355
3077.203,35.946444551149824
3078.2173,35.20876646563045
3079.2308,22.254865039815627
3080.2438,18.43451461834016
3081.2561,15.29748932329042
3082.2678,16.843563092407777
3083.2789,9.472509710458837
3084.2893,9.034102793774565
3085.2991,8.47811586396108
3086.3083,4.304322352283435
3087.3169,7.262495605225638
3088.3248,2.8524089262285486
3089.3321,2.123835546108154
3090.3388,-2.173451332843598
3091.3449,-6.8896785295729615
3092.3503,-4.475051150247481
3093.3551,0.02029452685377464
3094.3593,-2.3037330707873593
3095.3629,-1.5972257184313605
3096.3658,-9.010252177045487
3097.3681,-1.8428652513120198
3098.3698,-1.695027733494186
3099.3708,-4.16668400563141
3100.3713,-2.0077615164360907
3101.3711,-1.0681460894474242
3102.3702,0.0022965093328366493
3103.3688,4.053711184682328
3104.3667,4.286242818436435
3105.364,-1.599963748106532
3106.3607,5.595236283489385
3107.3568,6.07200369529788
3108.3522,4.180499213440385
3109.347,9.770883503318359
3110.3412,5.893317188528272
3111.3348,9.297960794957845
3112.3277,10.584974789561599
3113.32,7.554519546314566
3114.3117,11.306755333342082
3115.3028,13.191842343224337
3116.2932,9.359940655473991
3117.2831,16.161210217685294
3118.2723,16.3958108838532
3119.2608,19.563902346360592
3120.2488,17.11564413363233
3121.2361,18.601195578454238
3122.2229,20.32071584245577
3123.209,25.624363901254384
3124.1944,25.712298527260458
3125.1793,23.634678236640823
3126.1635,27.49166128843936
3127.1471,24.733405705353263
3128.1301,29.36006923516325
3129.1125,27.871809378315746
3130.0942,33.918783341656415
3131.0753,30.30114805331285
3132.0558,32.51906010222483
3133.0357,34.072675774320686
3134.015,33.162151030338144
3134.9936,36.437641490288186
3135.9716,38.69930244256038
3136.949,35.39728881116781
3137.9258,35.03175513313065
3138.902,40.05285559149612
3139.8775,44.86074401899398
3140.8524,43.605573847825454
3141.8267,40.98749806158437
3142.8004,43.40666920780881
3143.7735,48.66323942416196
3144.7459,46.807360414240286
3145.7178,43.63918339500787
3146.689,47.35885911535523
3147.6596,47.116537887781014
3148.6295,50.06236955119533
3149.5989,50.546503473342895
3150.5676,51.719088521344716
3151.5357,49.23027305685681
3152.5032,52.63020492434434
3153.4701,50.019031475969705
3154.4364,52.19689953759329
3155.402,55.51395543488517
3156.367,56.47034497154641
3157.3315,51.51621339613857
3158.2952,58.05170539251971
3159.2584,59.426965129385785
3160.221,59.99213619491573
3161.1829,59.39736158301881
3162.1442,61.59278368768291
3163.105,64.42854430892237
3164.065,63.05478463082366
3165.0245,66.37164519318777
3165.9834,66.27926590526792
3166.9416,67.9277860126008
3167.8993,66.7173440979305
3168.8563,64.79807806472324
3169.8127,65.97012514927175
3170.7684,72.43362193988801
3171.7236,71.18870436518277
3172.6782,76.18550762943049
3173.6321,76.82416622501864
3174.5854,77.85481388247958
3175.5381,80.22758356410401
3176.4902,79.34260745363447
3177.4417,76.9000169325377
3178.3926,75.4499425888543
3179.3428,78.84251424162474
3180.2924,84.57786095539001
3181.2415,86.35611100626598
3182.1899,84.62739182458986
3183.1377,82.74182997713784
3184.0848,88.19955118441207
3185.0314,86.75068033949648
3185.9773,87.7953414534794
3186.9227,86.43365766994238
3187.8674,87.1157512545135
3188.8115,89.1417436084843
3189.755,90.51175526198875
3190.6979,92.02590585374341
3191.6402,94.13431411734722
3192.5818,94.0370978661401
3193.5229,93.13437397211881
3194.4633,98.77625836690908
3195.4031,100.01286605079292
3196.3423,100.09431103628972
3197.2809,97.77070633579015
3198.2189,97.49216396074175
3199.1563,101.75879494488501
3200.0931,102.02070934703869
3201.0292,104.57801620843361
3201.9648,102.3808235500934
3202.8997,108.52923834726154
3203.834,104.32336655137328
3204.7677,106.11331302857141
3205.7008,110.34918160176508
3206.6333,108.38107503273028
3207.5652,110.9090949797511
3208.4964,113.48334201730094
3209.4271,112.30391561076217
3210.3571,114.37091409068375
3211.2865,111.58443466457541
3212.2154,117.74457339623774
3213.1436,112.90142523362698
3214.0712,118.35508394725356
3214.9982,120.80564217861362
3215.9246,117.95319138565247
3216.8503,118.84782181825896
3217.7755,118.48962254678995
3218.7001,121.17868145312406
3219.624,121.41508523424363
3220.5473,119.54891937534418
3221.4701,123.83026814747039
3222.3922,126.55921462617766
3223.3137,125.53584064871868
3224.2346,129.31022678675396
3225.1549,128.73245235658555
3226.0746,129.6525953814132
3226.9937,128.52073259711204
3227.9121,133.18693944303135
3228.83,135.20129007331298
3229.7473,133.56385731022934
3230.6639,132.17471262403996
3231.5799,135.5339261493657
3232.4954,135.6415666990803
3233.4102,139.34770173071811
3234.3244,136.1523973453978
3235.238,138.10571825076096
3236.151,139.25772779292524
3237.0634,140.40848793695102
3237.9752,139.65805925532135
3238.8864,142.25650091643445
3239.797,142.8038706921078
3240.7069,144.650224931594
3241.6163,143.34561855610679
3242.5251,142.8401050403577
3243.4332,146.73373642560205
3244.3408,142.87656332469396
3245.2477,149.36863488315026
3246.154,148.20999881772204
3247.0598,152.25070135147394
3247.9649,149.14078722537073
3248.8694,150.88029965787004
3249.7733,153.06928037602165
3250.6766,154.6077695980722
3251.5793,151.14580601157553
3252.4814,153.3334267580077
3253.3829,154.17066746738664
3254.2838,157.207562236396
3255.1841,155.44414362001274
3256.0838,157.33044260113815
3256.9829,160.46648860823208
3257.8814,157.25230949644993
3258.7792,161.1879315162821
3259.6765,161.82337934569583
3260.5731,159.20867605077893
3261.4692,163.9938430793854
3262.3647,165.07890028728235
3263.2595,159.21386589029837
3264.1538,161.74875645347302
3265.0474,167.33358694970713
3265.9404,166.46837073441387
3266.8329,167.15311948967053
3267.7247,165.93784323287073
3268.616,169.42255030987678
3269.5066,165.85724740717254
3270.3966,167.99193951701622
3271.286,165.37662997309357
