RamanShift,CorrectedData
30.1047,1226.5398240715983
32.3739,1137.503006496394
34.6426,1047.016176655791
36.9109,960.0793109093615
39.1787,872.4923751465147
41.4461,785.3553256558667
43.7131,697.8681100011096
45.9796,614.2306678923816
48.2456,525.4429320611396
50.5112,436.5048290965341
52.7764,347.4662803332853
55.0411,263.4772027410657
57.3054,177.88750981488454
59.5692,96.69711241497906
61.8326,13.305919622711457
64.0955,-69.83616044752725
66.3579,-153.6292198144051
68.6199,-229.12265283334744
70.8815,-294.0643191038738
73.1426,-318.5997892902022
75.4032,-239.42169635400268
77.6634,121.38050955494896
79.9231,1088.1697701096236
82.1824,3341.1090257691876
84.4412,7570.211206111109
86.6995,13600.58920730177
88.9574,19728.955849805432
91.2148,24068.42381808048
93.4717,26156.75559929572
95.7282,26649.363439935743
97.9842,26558.00932491757
100.2398,26001.754972664585
102.4949,25381.36183602009
104.7495,24555.441107809835
107.0036,23649.853727045953
109.2573,22773.26038718616
111.5105,21849.121545189646
113.7632,20932.547430282997
116.0154,20125.09805320157
118.2672,19544.883215355272
120.5185,18859.512516903014
122.7693,18314.99536255488
125.0197,17874.740968425835
127.2696,17530.808367480877
129.519,17305.90641393761
131.7679,17015.393786705554
134.0163,16828.67899163515
136.2642,16554.32036442293
138.5117,16327.626072478608
140.7587,16035.75411766872
143.0052,15785.462338583533
145.2512,15489.108413455771
147.4967,15209.64986266355
149.7417,14935.244051693888
151.9863,14735.948193937313
154.2304,14592.869353431915
156.4739,14355.114446856303
158.717,14233.04024496039
160.9596,14001.603374942946
163.2017,13643.160321672345
165.4433,13257.767430000931
167.6844,12861.930908349439
169.925,12412.006832560932
172.1651,11905.601149859165
174.4047,11534.019683347826
176.6439,11138.4681370746
178.8825,10783.202099746963
181.1206,10505.627048687722
183.3582,10201.998353387662
185.5954,9998.721278281297
187.832,9808.400985783159
190.0681,9665.892538320571
192.3037,9595.350900236846
194.5388,9474.580939216377
196.7734,9411.487426990037
199.0075,9397.825040542904
201.2411,9438.048362745176
203.4742,9431.061882488808
205.7068,9471.969994285275
207.9389,9458.326998335426
210.1704,9556.137100120428
212.4015,9594.504410538162
214.632,9710.232944925152
216.862,9843.826622672881
219.0915,9952.439266070494
221.3205,10116.274598968888
223.549,10364.586245694563
225.777,10671.027729411278
228.0044,11060.402469636943
230.2314,11560.763779179179
232.4578,12014.414860241603
234.6837,12404.958799420176
236.909,12591.698563166734
239.1339,12464.436993883519
241.3582,12110.826808055795
243.582,11580.07059752446
245.8053,11053.97083302214
248.0281,10574.879869480774
250.2503,10104.399951292588
252.472,9825.883217101005
254.6932,9631.981704505462
256.9139,9369.397352846569
259.134,9229.882005145106
261.3536,9035.487410727903
263.5727,8961.465226622953
265.7912,8722.417019503393
268.0092,8590.64426642771
270.2267,8395.248357230219
272.4436,8251.280595838794
274.6601,8127.892202228837
276.8759,8031.784313862946
279.0913,7966.7579869248
281.3061,7922.06419728024
283.5204,7983.7038411275325
285.7341,8059.827735444302
287.9473,8185.736617371136
290.16,8439.68114345035
292.3721,8753.611888366904
294.5837,9175.079342408946
296.7947,9540.633908328504
299.0052,9703.675897126821
301.2152,9527.205524398802
303.4246,9047.872908702597
305.6334,8394.22807332431
307.8418,7690.270951071312
310.0495,7206.351390808699
312.2568,6855.569164498862
314.4635,6571.023972040686
316.6696,6462.01544477736
318.8752,6369.143148341842
321.0802,6397.056583746933
323.2847,6490.805188314011
325.4887,6515.0383353938905
327.692,6428.755333429341
329.8949,6231.105425712751
332.0972,5901.4877912489665
334.2989,5529.351546731779
336.5001,5176.895749840112
338.7007,4887.269402959377
340.9008,4711.471456706033
343.1003,4551.200812823856
345.2992,4430.556325941909
347.4976,4392.286805177249
349.6955,4317.9410153413755
351.8927,4346.767677322923
354.0895,4319.715468831122
356.2856,4281.833024107529
358.4812,4241.31893419655
360.6763,4231.421747324268
362.8707,4138.739969303582
365.0646,4127.972063633179
367.258,4108.016452424354
369.4508,4078.3215165086785
371.643,4106.385595637561
373.8346,4013.956988779202
376.0257,3940.533953837956
378.2162,3797.314708578613
380.4062,3629.847431360622
382.5956,3440.980262570298
384.7844,3293.7113062954777
386.9726,3120.8386322142087
389.1603,3040.9102770674253
391.3474,2977.2742463876893
393.5339,2945.6785152984576
395.7199,2838.371029150454
397.9052,2804.3997038376183
400.09,2788.112426870188
402.2743,2798.8570577144073
404.4579,2808.0314279554023
406.641,2921.9333411897296
408.8235,3138.3105729336403
411.0054,3484.0108694840583
413.1868,3940.881945754809
415.3675,4366.421481819611
417.5477,4562.777118343372
419.7273,4617.496452326788
421.9064,4498.6770351427895
424.0848,4314.066371989342
426.2627,4059.7619230776527
428.4399,3664.061105478262
430.6166,3291.7612956641005
432.7928,2862.3598334674916
434.9683,2476.0040258031604
437.1432,2218.8911509622267
439.3176,2041.0184624757785
441.4914,1873.1331916859963
443.6645,1807.8325495248864
445.8371,1741.9137281931216
448.0091,1643.5239018130505
450.1806,1579.3102270878953
452.3514,1485.1698442856396
454.5216,1452.7498778811769
456.6913,1365.8474374976977
458.8603,1370.9096182309022
461.0288,1412.1335015180266
463.1967,1453.9161550872068
465.3639,1552.104632545259
467.5306,1677.9959729598359
469.6967,1858.2371998775507
471.8622,2023.475320065063
474.0271,2191.407321706656
476.1914,2279.4301727518687
478.3551,2259.5908192361658
480.5182,2128.5361844007075
482.6807,2097.613168890757
484.8426,2142.6686520662224
487.0039,2378.7494923108825
489.1647,2739.752526581833
491.3248,3241.7745680486896
493.4843,3461.8624024835426
495.6432,3503.7627832407416
497.8015,3368.7224290560225
499.9592,3416.088023627499
502.1163,3369.956216966064
504.2728,3197.023624921738
506.4287,2864.586829644986
508.5839,2369.992381316042
510.7386,2006.986801469271
512.8927,1717.7665879391316
515.0461,1548.2782184902098
517.199,1411.91815370943
519.3512,1270.5828387009387
521.5029,1285.418704449703
523.6539,1309.9221692348692
525.8043,1319.1396384813997
527.9541,1350.3675045150467
530.1033,1370.752146470164
532.2519,1468.389929977444
534.3999,1631.8772069600564
536.5472,1974.4603146572808
538.694,2513.235573989621
540.8401,3207.0992861329887
542.9856,3818.297727130941
545.1305,4065.1771409560497
547.2748,3903.833733397916
549.4185,3481.613669594364
551.5615,3018.0130756448907
553.704,2817.6280428328573
555.8458,2650.304632261499
557.987,2585.4388768577737
560.1276,2437.3267830456007
562.2675,2318.814331394511
564.4069,2195.4974781007695
566.5456,2049.0221561724993
568.6837,1883.1842766628579
570.8212,1654.8797301347822
572.958,1431.5043883193703
575.0942,1263.604106398925
577.2299,1143.0247252407044
579.3648,1178.5620730759347
581.4992,1300.6619667055966
583.6329,1546.6202111450548
585.766,1803.5825984030598
587.8985,1968.2949050221705
590.0304,1966.6028895091185
592.1616,1930.4022906876908
594.2922,1822.0388277156508
596.4222,1661.8082004467415
598.5515,1537.2560905143255
600.6802,1334.8281629336852
602.8083,1152.9700673475472
604.9358,1063.2274400503593
607.0626,997.2959058068718
609.1888,885.57107874957
611.3144,793.4985630379779
613.4393,625.6739539759237
615.5636,456.5428389322424
617.6873,311.60079901904464
619.8103,266.44341078301113
621.9327,182.56624765482775
624.0544,200.514880400744
626.1756,216.33487796136615
628.2961,218.97180727214254
630.4159,174.67123310518582
632.5351,96.8287180428888
634.6537,71.33982292094333
636.7716,43.45010760675541
638.8889,28.90513125434154
641.0056,48.20045258323444
643.1216,37.58163002390938
645.237,100.54422152484949
647.3518,80.63378465871392
649.4659,162.09587599272527
651.5793,173.87605128776886
653.6922,177.96986468377327
655.8043,153.6228685819151
657.9159,129.03061360367974
660.0268,61.08864883432216
662.137,10.692522068800827
664.2466,-11.412219508816634
666.3556,-38.98013553275632
668.4639,-44.21567162918109
670.5716,3.27711598730275
672.6786,105.04461281663862
674.785,216.3331716203811
676.8907,295.9891441096479
678.9958,402.7588798322213
681.1002,406.13872537599855
683.204,395.47502330129464
685.3072,335.5141121070428
687.4097,257.8523263374209
689.5115,180.58599718147343
691.6127,129.56145324972022
693.7132,43.375021346821086
695.8131,-3.6769730181658815
697.9123,-26.798204769931544
700.0109,-75.24231210021208
702.1089,-106.46266548667336
704.2061,-84.2618837362952
706.3028,-33.691522094030006
708.3987,8.097705971380492
710.4941,115.85542356949009
712.5887,367.8812537288886
714.6827,708.9748183196043
716.7761,1120.6357355328637
718.8688,1574.4136164701576
720.9608,1807.5580610266152
723.0522,1840.218653353233
725.1429,1578.6949595254373
727.233,1174.1865272164632
729.3224,845.6928883126111
731.4112,477.21356295832084
733.4993,257.7480628411158
735.5867,106.14589487638477
737.6735,40.55656340204041
739.7596,6.679571694541664
741.845,-5.835577375211869
743.9298,-8.989381003106246
746.014,31.317721912377237
748.0974,32.53538227667741
750.1802,34.61325068205406
752.2624,49.25097739542798
754.3439,82.44821233758739
756.4247,118.25460493681385
758.5048,235.16980379691813
760.5843,451.2934563391573
762.6631,739.9252076331031
764.7413,1155.664698235394
766.8188,1746.361561303418
768.8956,2263.5154184379244
770.9718,2617.8758737760454
773.0473,2546.992508819769
775.1221,2217.0648788923245
777.1962,1823.642513847024
779.2697,1622.974921366529
781.3426,1692.9615908970827
783.4147,2016.601995655179
785.4862,2373.3455919277003
787.557,2471.691815835513
789.6271,2133.64007976603
791.6966,1571.2897713897528
793.7654,1050.0402570407823
795.8335,708.6908873403336
797.901,504.44100240922126
799.9678,432.88993528135325
802.0339,512.7870139462302
804.0993,565.5315620644542
806.1641,601.0228981687651
808.2282,538.5103351365851
810.2916,446.74317983511173
812.3544,380.72073374644606
814.4164,274.642293885252
816.4778,257.4071534590021
818.5385,239.414602928744
820.5986,290.71393018146046
822.658,359.7044207099898
824.7166,418.13535710003634
826.7747,539.656018340258
828.832,668.7156792379683
830.8886,776.7636092039174
832.9446,939.5490709617115
834.9999,1062.9213194673248
837.0545,1163.6796002812443
839.1085,1253.8731483347456
841.1618,1287.0011869223144
843.2143,1320.5129267997072
845.2662,1261.9075658526726
847.3175,1221.9342887618313
849.368,1123.2422675887337
851.4179,1028.7306621755888
853.467,859.5486211321822
855.5155,743.2452827810048
857.5633,637.3697768490665
859.6105,542.3212256309225
861.6569,469.39874504743784
863.7027,403.1014455962604
865.7478,421.7784330810582
867.7922,452.07880927448787
869.8359,522.351671731426
871.8789,666.3961134859683
873.9212,847.8112223486933
875.9629,1070.246079466223
878.0039,1264.699757507069
880.0441,1400.071318437279
882.0837,1379.1098115759069
884.1226,1278.0642722412895
886.1609,1104.4337219606768
888.1984,952.1171694806735
890.2352,910.663612503552
892.2714,836.2220392104146
894.3069,838.3414286757352
896.3416,798.4707516117714
898.3757,788.8589703473681
900.4091,794.655039226669
902.4418,791.5079047052286
904.4739,838.5665052920567
906.5052,822.3297715810877
908.5358,741.9966257805863
910.5658,605.9159818755279
912.595,464.686746430928
914.6236,342.55781995263624
916.6515,315.1280982996441
918.6786,329.1464739053672
920.7051,432.4618360519453
922.7309,553.1230707300556
924.756,610.4790596057592
926.7804,711.8286788138994
928.8041,728.8207983845232
930.8272,771.4542812294021
932.8495,696.3779829720952
934.8711,644.690751521629
936.892,506.24142782324725
938.9123,345.22884637529387
940.9318,184.50183661369647
942.9506,70.85922452209888
944.9688,-2.2501657608736423
946.9862,-49.777510805187376
949.003,-75.47396470165222
951.019,-66.29018426375023
953.0344,-26.776072320060848
955.0491,13.669130539776233
957.063,118.34645121907852
959.0763,234.15691648447773
961.0888,283.95155191914546
963.1007,413.7313807646833
965.1119,455.2974234231842
967.1223,506.25069615943085
969.1321,553.2422106852373
971.1412,617.472973649913
973.1495,631.5939861703482
975.1572,663.406243188715
977.1641,729.8607333312493
979.1704,704.458438590128
981.1759,731.9003336589258
983.1808,811.4373861866379
985.1849,933.5705565032576
987.1884,1095.6507968244096
989.1911,1301.6790500300112
991.1932,1487.556248043482
993.1945,1580.2833097714529
995.1951,1588.261139244999
997.1951,1535.790624692363
999.1943,1475.4726384591786
1001.1928,1438.5580375331801
1003.1906,1439.9476641473766
1005.1877,1463.4423461492015
1007.1841,1449.192896986614
1009.1798,1351.7501154731535
1011.1748,1155.514785930437
1013.1691,948.8376791625788
1015.1627,741.0695544185564
1017.1556,555.2111614589721
1019.1477,481.16324263373735
1021.1392,443.47653474065646
1023.1299,450.9017697659074
1025.12,506.18967526090273
1027.1093,551.19097426804
1029.0979,669.9063847678244
1031.0859,713.1866192288498
1033.0731,716.282383420652
1035.0596,652.9943759808975
1037.0454,522.2232883844381
1039.0304,428.8698055761806
1041.0148,307.88460727880374
1042.9985,216.718368926292
1044.9814,198.1217628737877
1046.9636,162.74545930924887
1048.9452,140.49012643942115
1050.926,174.90643084359544
1052.9061,157.54503769616622
1054.8855,171.05661042246174
1056.8642,182.5918108723663
1058.8421,241.85129918519942
1060.8194,301.7857336743664
1062.7959,333.34577023476595
1064.7717,382.0820617434374
1066.7469,385.49525774397443
1068.7213,358.8860039591509
1070.695,351.45494225678885
1072.6679,259.05271091585655
1074.6402,242.52994470077283
1076.6117,223.58727578543494
1078.5826,252.7253339184408
1080.5527,359.3447466125217
1082.5221,507.69613885315357
1084.4908,772.0801320323753
1086.4587,1010.7473424652671
1088.426,1182.1483787461102
1090.3925,1186.133839361717
1092.3584,1144.0543109774171
1094.3235,997.6603683972062
1096.2879,877.4525749845416
1098.2515,828.0314841262807
1100.2145,895.9476404347606
1102.1767,937.7515802420103
1104.1382,1084.5438309205829
1106.099,1307.324910465517
1108.0591,1543.9453260264145
1110.0185,1692.555571679628
1111.9771,1709.1561260620565
1113.9351,1521.3974508850506
1115.8923,1181.1799907684008
1117.8488,842.5541751179262
1119.8045,552.7704215276499
1121.7596,397.82913916605776
1123.7139,351.3307316739356
1125.6675,344.82559871378453
1127.6204,414.7641364347983
1129.5726,459.0467375379185
1131.524,526.2737905764479
1133.4748,574.8956795132235
1135.4248,633.5627830483445
1137.3741,672.9754741329552
1139.3226,661.2841193825734
1141.2705,642.4390786829608
1143.2176,576.5907053070441
1145.164,605.089346103362
1147.1097,659.5853421545517
1149.0546,664.7790284923567
1150.9989,590.6707335526689
1152.9424,437.0607791235907
1154.8852,230.9494810865217
1156.8272,79.93715095225525
1158.7686,18.52409792209164
1160.7092,-18.239369602039915
1162.6491,7.147056596552829
1164.5883,65.68386694586206
1166.5267,179.27155180241243
1168.4644,297.16060086589005
1170.4014,494.5015020432693
1172.3377,732.044740269921
1174.2732,965.2407955362041
1176.2081,1185.2901405120338
1178.1421,1349.3432382149185
1180.0755,1498.1005398094667
1182.0082,1520.9624829668583
1183.9401,1466.3294903772685
1185.8713,1297.9019695212537
1187.8017,1052.0803132160763
1189.7315,780.8149012999856
1191.6605,547.3561030904275
1193.5888,364.70428009670104
1195.5163,252.20978835454753
1197.4432,153.72298025266537
1199.3693,101.34420565765868
1201.2947,68.97381289890563
1203.2193,81.76214929234447
1205.1432,98.50956146417775
1207.0664,160.26639522298774
1208.9889,251.1329953922641
1210.9106,361.9097051928311
1212.8316,472.64686533418535
1214.7519,562.2448129067288
1216.6715,596.7538802743948
1218.5903,580.8743941786697
1220.5084,549.3066753935027
1222.4257,535.0010388841047
1224.3424,487.65779412261963
1226.2583,554.427245231187
1228.1735,670.3596914553709
1230.0879,794.6554264964643
1232.0016,969.7647373521686
1233.9146,1022.8879030736325
1235.8269,966.9751930143593
1237.7384,843.4768662989754
1239.6492,676.0431723823558
1241.5592,577.9743522846093
1243.4686,464.9706402654165
1245.3772,424.6822648047155
1247.285,378.25944973274363
1249.1922,330.6524146329175
1251.0986,324.0613753060643
1253.0042,360.936544246485
1254.9092,448.5281307078749
1256.8134,543.6863403345642
1258.7169,720.4113742856043
1260.6196,867.103428283187
1262.5216,1045.9626908453902
1264.4229,1229.139341819262
1266.3234,1348.2835505922249
1268.2232,1409.445474260313
1270.1223,1398.2252564367227
1272.0207,1377.2230266402057
1273.9183,1358.43890040726
1275.8151,1304.0229795021542
1277.7113,1217.325352104771
1279.6067,1083.6460933547623
1281.5014,922.6852662185302
1283.3953,797.2429228260153
1285.2885,719.2191060803098
1287.181,641.7138509120805
1289.0727,652.627185059805
1290.9637,685.6591298448257
1292.854,833.3097000622138
1294.7435,996.6289036504531
1296.6323,1239.4167402149315
1298.5204,1514.323199394751
1300.4077,1768.5482584348474
1302.2943,1976.6418794369301
1304.1802,2102.6540068172244
1306.0653,2069.9345652255415
1307.9497,1968.8334582851548
1309.8333,1915.4005689199894
1311.7162,1906.185760365638
1313.5984,2005.5388767036911
1315.4798,2168.1597429538797
1317.3605,2397.54816408055
1319.2405,2563.70392336645
1321.1197,2617.7767801188465
1322.9982,2607.7664680079697
1324.876,2617.272694526285
1326.753,2613.4451410885968
1328.6293,2617.0334629369863
1330.5048,2673.537289179082
1332.3796,2668.7562227521803
1334.2537,2623.539839858204
1336.127,2616.6376900115147
1337.9996,2578.49929649108
1339.8714,2552.0241564094886
1341.7426,2486.461741094344
1343.6129,2452.011496353004
1345.4826,2383.372843128215
1347.3515,2346.845177842605
1349.2196,2303.3278730850834
1351.087,2323.220277976102
1352.9537,2361.5717186028387
1354.8197,2495.581497820267
1356.6849,2647.5488948676493
1358.5493,2758.4231640284333
1360.4131,2768.8535331105804
1362.276,2707.2392023378197
1364.1383,2566.629344245346
1365.9998,2362.8731042959635
1367.8606,2094.269602286183
1369.7206,1881.6179343837875
1371.5799,1715.3671758138644
1373.4384,1622.366382985325
1375.2962,1498.6145951534108
1377.1533,1310.5608353497018
1379.0096,1059.904111619635
1380.8652,808.9434189030408
1382.7201,568.1777415407114
1384.5742,396.5060557840088
1386.4275,278.9773322025203
1388.2802,187.09053740077343
1390.132,108.59463519352539
1391.9832,66.68858752463257
1393.8336,17.971355252002468
1395.6832,-11.908101433337833
1397.5322,-22.10082252007669
1399.3803,-31.357729034966724
1401.2278,-33.179521217550246
1403.0745,-6.616586043654934
1404.9204,-4.768979025699082
1406.7656,10.963310423594521
1408.6101,39.73034053360061
1410.4538,71.13216942406416
1412.2968,123.76885481742465
1414.139,215.79045372480414
1415.9805,298.64702191963715
1417.8213,425.6886130174562
1419.6613,566.5152776473233
1421.5006,781.0770621814236
1423.3391,1045.1740073267856
1425.1769,1422.7561459796752
1427.0139,1954.3235005846159
1428.8502,2599.026079358577
1430.6858,3234.8638709752913
1432.5206,3716.436838118234
1434.3547,4026.0449111222442
1436.188,4075.7879831577948
1438.0206,4042.56590713491
1439.8524,3913.528495205739
1441.6835,3824.8255190967748
1443.5139,3778.7067113992234
1445.3435,3694.3717664560363
1447.1724,3659.3203408231007
1449.0005,3586.0020541125846
1450.8279,3496.4664893434574
1452.6545,3489.763193674667
1454.4804,3540.0916793005003
1456.3056,3534.251423517613
1458.13,3474.9918682217462
1459.9536,3241.21241996613
1461.7766,2898.0624505540754
1463.5987,2482.541299376773
1465.4202,2116.598276844792
1467.2409,1754.2326685432872
1469.0608,1479.0937388914322
1470.88,1225.5307347660746
1472.6984,1005.6928882531283
1474.5161,828.2794191832022
1476.3331,677.0395373299793
1478.1493,573.4724441843482
1479.9648,488.87733446680386
1481.7795,383.2033971631199
1483.5935,345.7498163702994
1485.4067,296.8657723533115
1487.2192,272.1504419196285
1489.031,241.3529989080639
1490.842,211.2226144359297
1492.6522,202.60845720701082
1494.4618,180.2096938128684
1496.2705,165.57548881898083
1498.0785,172.7550049887309
1499.8858,143.1474034297471
1501.6924,145.101843522109
1503.4981,151.667483214424
1505.3032,127.74347900428393
1507.1075,127.12898587260406
1508.911,133.32315752286922
1510.7138,105.77514638727416
1512.5159,94.98410356478234
1514.3172,66.79917909660935
1516.1178,36.66952207413078
1517.9176,27.694280920730307
1519.7166,31.272603693096244
1521.515,16.303638170977592
1523.3126,5.186531821396329
1525.1094,-7.979568051657225
1526.9055,14.154485803942862
1528.7008,-15.262079643790457
1530.4954,-22.43003756838789
1532.2893,-24.050008675205845
1534.0824,-23.722389593527623
1535.8747,-8.49733669304942
1537.6663,-21.574769356797333
1539.4572,-4.754522079405888
1541.2473,-11.786213823565504
1543.0367,10.780583945706894
1544.8253,17.246417507667957
1546.6132,35.8118330337702
1548.4003,41.627376523004386
1550.1867,79.6935936162431
1551.9723,91.51102953808731
1553.7572,131.88022871620342
1555.5414,170.451734663151
1557.3247,212.22608957268767
1559.1074,250.9038339340559
1560.8893,327.8855061142376
1562.6705,387.22164197117763
1564.4509,483.4627740839692
1566.2305,581.5594311594887
1568.0094,680.6621370699859
1569.7876,782.9714098721174
1571.565,845.6877608159211
1573.3417,912.0116933217214
1575.1176,931.6937023529663
1576.8928,928.884273752989
1578.6672,865.2838840481868
1580.4409,780.5430004761138
1582.2138,648.8120816214887
1583.986,550.1915782636015
1585.7575,454.53193469362486
1587.5282,393.2835897008158
1589.2981,346.39697752911206
1591.0673,314.62252848961634
1592.8358,307.26066942946454
1594.6035,301.3118240495696
1596.3704,301.32641297823784
1598.1366,320.7048538306608
1599.9021,362.94756120876355
1601.6668,383.20494650742194
1603.4308,433.0774174920375
1605.194,516.5153780959658
1606.9564,608.9692279217888
1608.7182,722.3393614069378
1610.4791,859.1261668991524
1612.2394,1024.3800255227816
1613.9988,1230.2013098109132
1615.7576,1458.9403820528373
1617.5156,1704.1475922358327
1619.2728,1952.323275757774
1621.0293,2150.0177509750606
1622.785,2246.081316720864
1624.54,2215.764250328177
1626.2942,2099.6168066691785
1628.0477,1889.5392184584116
1629.8005,1661.9816974142473
1631.5525,1419.5444363596657
1633.3037,1214.6276114978332
1635.0542,1063.9813848364706
1636.804,928.3559062370255
1638.553,846.0013149211322
1640.3013,799.36774082687
1642.0488,767.0553054323041
1643.7955,758.2141222218229
1645.5416,802.4942970092638
1647.2868,852.295928026323
1649.0313,930.5691054797558
1650.7751,1095.01391105336
1652.5181,1279.580417125243
1654.2604,1523.668685123373
1656.0019,1845.8287636799168
1657.7427,2212.2606861903537
1659.4828,2591.364467591879
1661.222,2848.640100699083
1662.9606,2900.8375524129115
1664.6984,2793.90676114791
1666.4354,2485.5476363102525
1668.1717,2045.7100593670448
1669.9072,1624.743886929919
1671.642,1251.098955153408
1673.3761,950.4250839446067
1675.1094,728.0220806996226
1676.8419,566.889743310313
1678.5737,453.7278623883167
1680.3048,380.3862228763742
1682.0351,293.06460517995174
1683.7646,268.7627859006511
1685.4934,226.88053870943304
1687.2215,193.66763458962805
1688.9488,155.22384225576343
1690.6754,143.14892848569025
1692.4012,144.09265850502243
1694.1263,130.7047961078838
1695.8506,114.93510364747362
1697.5742,118.23334216994454
1699.297,87.59927157209859
1701.0191,77.43265056840755
1702.7404,67.73323699735192
1704.461,52.100787923086045
1706.1808,52.88505973243355
1707.8999,33.78580829121165
1709.6182,40.952788936389425
1711.3358,30.685756667079204
1713.0527,35.38446607286642
1714.7688,26.098671436480345
1716.4841,16.078126686806627
1718.1987,16.622585491743394
1719.9126,17.481801358410394
1721.6257,11.70552762770103
1723.338,9.393517465694458
1725.0496,7.545523921412951
1726.7605,-0.7387000500539216
1728.4706,-7.909401569071633
1730.18,-2.1168203763927522
1731.8886,-2.9111171978497623
1733.5964,-2.8924316122397613
1735.3036,4.639125883700672
1737.0099,-3.0165263113744913
1738.7156,13.54053015479758
1740.4204,-4.6397562304237
1742.1246,-6.557437115081029
1743.8279,5.6874822039440005
1745.5306,3.6450619385668688
1747.2325,13.015362243830168
1748.9336,2.5984432383238527
1750.634,-6.655635089512089
1752.3336,7.603187222779525
1754.0325,8.075036627447844
1755.7307,-3.189960499287281
1757.4281,2.408322138042422
1759.1247,21.820042702610863
1760.8206,12.795359333508713
1762.5158,19.134429951629045
1764.2102,20.537412349911392
1765.9039,13.804464129952976
1767.5968,-3.7642573120233465
1769.289,0.9314052821619043
1770.9804,6.04164677561721
1772.6711,16.616662022139735
1774.361,35.35664581511037
1776.0502,15.711792781743497
1777.7386,22.38229719568949
1779.4263,19.01835317348082
1781.1132,31.220154607829727
1782.7994,20.18789520126529
1784.4849,24.271768344116254
1786.1696,26.67196722483277
1787.8535,35.888684789147646
1789.5367,23.922113716074136
1791.2192,38.622446325737656
1792.9009,23.789874699044958
1794.5818,39.02459053068037
1796.2621,33.276785277432054
1797.9415,19.84665000584323
1799.6202,37.13437544968997
1801.2982,36.74015214428232
1802.9755,44.41417025358646
1804.6519,55.10661957416801
1806.3277,41.81768945845124
1808.0027,35.69756870779611
1809.6769,35.19644570538571
1811.3504,44.41450847742885
1813.0231,49.45194469817079
1814.6951,49.10894159771283
1816.3664,61.735685911636665
1818.0369,55.08236388443652
1819.7067,49.999161143250376
1821.3757,52.886262764393905
1823.044,61.14385332419124
1824.7115,68.82211687010613
1826.3783,49.37123683816526
1828.0443,57.59139597617536
1829.7096,57.382776538232065
1831.3741,64.09556020251785
1833.0379,76.07992807338951
1834.701,59.98606061424766
1836.3633,76.16413752769631
1838.0248,69.61433791647778
1839.6856,73.13684012169483
1841.3457,70.18182178830784
1843.005,82.74945982990857
1844.6636,87.13993045827192
1846.3214,85.30340905768003
1847.9785,82.89007014101571
1849.6349,82.90008736812797
1851.2904,94.88363356996615
1852.9453,90.29088074847937
1854.5994,86.37199995678179
1856.2528,90.02716134507818
1857.9054,101.1565341998546
1859.5572,86.81028690732501
1861.2083,89.13858684213892
1862.8587,100.09160051084314
1864.5084,95.46949352860065
1866.1572,99.82243050965758
1867.8054,91.15057511356667
1869.4528,100.80409000165741
1871.0994,94.03313692375377
1872.7453,93.63787662163986
1874.3905,89.66846889676958
1876.0349,99.17507261421792
1877.6786,98.10784574237641
1879.3215,107.31694525788703
1880.9637,102.75252715631359
1882.6051,103.01474636005264
1884.2458,102.50375676397493
1885.8858,97.21971123280423
1887.525,99.86276160622833
1889.1634,100.38305875173774
1890.8011,98.83075253819584
1892.4381,87.60599183063641
1894.0743,97.55892450578585
1895.7098,96.78969756431161
1897.3446,106.59845703129304
1898.9786,101.63534796391264
1900.6118,110.00051435336945
1902.2443,101.29409917450971
1903.8761,101.81624430217562
1905.5071,96.61709059826967
1907.1374,104.54677790653227
1908.7669,109.6554451045331
1910.3957,106.79323002437468
1912.0237,78.66026940160623
1913.651,105.85669890384543
1915.2776,88.78265341210863
1916.9034,103.08826674884449
1918.5285,98.62367184867708
1920.1528,100.18900061534691
1921.7764,106.88438396636025
1923.3992,102.30995181733306
1925.0213,90.4658330150396
1926.6427,92.30215538315474
1928.2633,71.96904584069648
1929.8832,104.06663038366105
1931.5023,101.29503428835483
1933.1207,84.9543817904198
1934.7383,93.89479611254728
1936.3552,91.51639962788522
1937.9714,76.66931377063452
1939.5868,92.95365905983249
1941.2015,79.91955524782361
1942.8154,85.26712115741611
1944.4286,79.79647481222355
1946.041,81.00773338318982
1947.6528,75.00101324329466
1949.2637,66.57642995544256
1950.8739,73.63409833252945
1952.4834,70.62413252168744
1954.0921,74.44664593370953
1955.7001,85.80175127314715
1957.3074,64.33956050008715
1958.9139,68.31018471659786
1960.5197,73.61373438135297
1962.1247,47.9503192699251
1963.729,62.6200484217502
1965.3325,51.92303039676176
1966.9353,62.75937312869337
1968.5374,52.479184032048124
1970.1387,50.1325698937369
1971.7393,49.66963697587812
1973.3392,55.79049103926582
1974.9383,60.04523734799773
1976.5366,54.533980608268394
1978.1342,46.95682492581955
1979.7311,66.66387386105316
1981.3273,48.45523050480483
1982.9227,59.63099728127145
1984.5173,48.79127613009882
1986.1112,58.286168394622564
1987.7044,55.41577493026557
1989.2968,50.58019600959051
1990.8885,53.52953135100279
1992.4795,58.56388016710662
1994.0697,43.18334113521155
1995.6592,53.888012346988944
1997.2479,52.17799146227799
1998.8359,51.55337560203702
2000.4232,41.46426136544619
2002.0097,56.46074483615121
2003.5955,45.54292168315624
2005.1805,47.11088701085805
2006.7648,52.114735468225945
2008.3484,48.35456123311951
2009.9312,57.83045796225224
2011.5133,62.342518828792436
2013.0946,59.59083642760493
2014.6752,49.77550273012935
2016.2551,52.19660911189817
2017.8342,47.954246450689425
2019.4126,49.99850510231636
2020.9902,49.17947494305031
2022.5672,39.99724534917755
2024.1433,45.501905205190724
2025.7188,48.843542995610505
2027.2935,50.272246749939086
2028.8674,51.038104009245444
2030.4406,45.44120181187509
2032.0131,49.431626685795436
2033.5849,51.30946470456024
2035.1559,48.52480144740957
2036.7261,52.12772198048833
2038.2957,51.918310884695074
2039.8645,43.69665221965079
2041.4325,52.71282952579372
2042.9998,46.11692590659686
2044.5664,55.10902393840502
2046.1323,48.98920573639384
2047.6974,47.80755286464978
2049.2617,47.664146397366494
2050.8254,39.85906693066363
2052.3883,47.94239458401944
2053.9504,47.114209078322574
2055.5118,34.42458965503715
2057.0725,39.02361508448689
2058.6325,54.01136379274931
2060.1917,46.587913815667434
2061.7502,35.95334264897042
2063.3079,47.00772732250971
2064.8649,44.25114450660294
2066.4212,41.98367040149128
2067.9767,43.9553807649047
2069.5315,26.56635093473733
2071.0856,34.01665580932945
2072.6389,29.756370021360226
2074.1915,26.735567863341885
2075.7433,35.35432333022436
2077.2945,42.16271014960216
2078.8448,24.010801695527334
2080.3945,33.298670920425366
2081.9434,33.2763905366146
2083.4916,29.79403292342772
2085.039,27.001670127433727
2086.5857,28.49937389726165
2088.1317,31.037215711525278
2089.677,29.76526676384492
2091.2215,36.53359793746972
2092.7652,24.792279817996587
2094.3083,31.391382625687356
2095.8506,29.130976332880437
2097.3921,39.211130598001546
2098.933,34.38191478816748
2100.4731,37.39339787838367
2102.0124,28.895648499836852
2103.5511,35.73873490978053
2105.089,43.17272507651205
2106.6261,42.547686610942264
2108.1626,40.66368669225517
2109.6983,37.32079207415791
2111.2332,42.169069103721995
2112.7675,36.05858375481148
2114.301,32.68940157959969
2115.8337,42.66158776967518
2117.3657,36.575207189732055
2118.897,32.93032427784988
2120.4276,37.32700310635596
2121.9575,43.71530741827519
2123.4866,35.145300583362996
2125.0149,33.86704553422169
2126.5426,33.680604852002034
2128.0695,33.13604077918421
2129.5956,38.78341522144251
2131.1211,36.67278975309159
2132.6458,37.054225560612394
2134.1698,34.227783463759124
2135.693,31.49352391174307
2137.2155,37.45150701149828
2138.7373,28.60179255502385
2140.2584,36.14443995980491
2141.7787,28.029508357308714
2143.2983,27.507056517558567
2144.8171,37.67714293028371
2146.3353,25.339825810142884
2147.8527,31.645162995024293
2149.3693,40.29321206941927
2150.8853,38.384030301367375
2152.4005,25.06767455597742
2153.9149,31.094201314518386
2155.4287,42.06366680758265
2156.9417,32.37612695482244
2158.454,21.231637255252963
2159.9655,36.080252884130005
2161.4764,31.772028804392562
2162.9865,41.957019618178265
2164.4958,40.18527960990423
2166.0045,27.05686264441897
2167.5124,37.871822184717985
2169.0195,33.33021142322889
2170.526,35.532083173662045
2172.0317,42.97748991642504
2173.5367,23.86648377660572
2175.0409,32.64911644951724
2176.5445,43.27543939180771
2178.0473,34.79550373363486
2179.5494,34.60936017240192
2181.0507,30.117059057557867
2182.5513,31.168650392458176
2184.0512,23.614183879288248
2185.5504,30.653708908547628
2187.0488,16.38727463459486
2188.5465,20.764929905251734
2190.0435,30.13672340446783
2191.5397,20.652703608544357
2193.0353,32.6629186924157
2194.5301,31.867416624490033
2196.0241,29.616245046547306
2197.5175,25.50945128169326
2199.0101,22.14708235687158
2200.502,32.87918504393224
2201.9931,30.155805893254524
2203.4835,14.426991126426742
2204.9733,27.44278666347941
2206.4622,17.75323828017406
2207.9505,22.058391477844793
2209.438,16.608291580294463
2210.9248,23.402983690742303
2212.4109,26.44251274632518
2213.8962,26.426923450150753
2215.3809,17.356260240902316
2216.8648,16.18056729299451
2218.3479,15.599888607279922
2219.8304,24.064268022806118
2221.3121,17.473749222622814
2222.7931,3.328375649137115
2224.2733,15.378190570019001
2225.7529,18.47323721965506
2227.2317,26.063558678650338
2228.7098,22.59919784287831
2230.1872,10.880197347576768
2231.6638,12.25659960199198
2233.1397,15.278446906568547
2234.6149,9.645781439185953
2236.0894,15.408645224939505
2237.5632,8.617080192467256
2239.0362,16.021128116321165
2240.5085,9.970830684882571
2241.9801,14.916229426322047
2243.4509,3.257365769102421
2244.921,4.544280992524477
2246.3904,1.4770163433155403
2247.8591,2.8056130227605536
2249.3271,4.4801122173749945
2250.7943,1.6005550856182253
2252.2608,0.01698274114994547
2253.7266,11.529436281624271
2255.1917,0.23795663503733522
2256.656,0.19258461409197025
2258.1197,4.093358654303529
2259.5826,5.040315267267033
2261.0447,6.483490923644354
2262.5062,-1.927077956305311
2263.9669,8.458644982842657
2265.4269,8.390715348021331
2266.8862,11.069188661577641
2268.3448,11.844120361951468
2269.8026,2.2155657768909123
2271.2598,15.433580115703194
2272.7162,1.2982185655401963
2274.1719,0.15953615921830533
2275.6268,10.817574960350044
2277.0811,13.572375438781137
2278.5346,20.323977956181693
2279.9874,16.022422738498562
2281.4395,7.467749808439294
2282.8908,5.7099990284881414
2284.3414,7.449210186451751
2285.7914,9.235423013037348
2287.2406,7.518677164461451
2288.689,4.149012204587734
2290.1368,13.426467622094833
2291.5838,13.551082864171121
2293.0302,15.672897243741318
2294.4758,7.44194993821975
2295.9206,5.908279968292163
2297.3648,7.071926280225284
2298.8082,16.28292776120327
2300.251,12.541323227691691
2301.693,4.947151333326815
2303.1343,6.250450606332947
2304.5748,12.901259525463047
2306.0147,6.7496165069659355
2307.4538,9.395559838078384
2308.8922,5.989127738541811
2310.3299,3.430358334141715
2311.7669,10.219289690773053
2313.2031,4.755959840027344
2314.6387,5.090406711303331
2316.0735,4.372668186440478
2317.5076,11.10278209637454
2318.941,12.780786228314696
2320.3737,5.406718258442538
2321.8056,8.93061573513205
2323.2369,5.652516152690168
2324.6674,5.872456916118381
2326.0972,6.890475373892741
2327.5263,10.956608815765208
2328.9547,2.670894462583533
2330.3823,12.133369425629553
2331.8092,9.894044133949137
2333.2355,8.852928895255218
2334.661,4.360033918320028
2336.0858,8.315369323387358
2337.5098,7.368945187100849
2338.9332,6.82077150295072
2340.3558,4.370858190737863
2341.7778,19.91921510205634
2343.199,18.165852044792018
2344.6195,13.110778627638638
2346.0393,10.654004277631884
2347.4583,20.995538290699983
2348.8767,18.3853898562312
2350.2943,12.623567953658949
2351.7113,16.0100813785632
2353.1275,14.49493880028865
2354.543,17.628148728079395
2355.9578,20.559719526230765
2357.3718,23.33965938275685
2358.7852,17.56797628007473
2360.1978,11.644677967205325
2361.6098,12.969772017489959
2363.021,13.193265887823827
2364.4315,21.165166905404703
2365.8413,24.135482265497785
2367.2504,19.404218951716985
2368.6587,21.47138370632183
2370.0664,27.93698307753027
2371.4733,17.101023398846337
2372.8795,14.413510724404432
2374.285,14.724450937329834
2375.6899,20.483849776612487
2377.0939,10.141712833998326
2378.4973,10.848045496395343
2379.9,19.402853049294322
2381.3019,22.15614066970602
2382.7032,16.5579133406128
2384.1037,20.508175823435977
2385.5035,14.756932714018149
2386.9027,20.204188403120384
2388.3011,11.599947133935302
2389.6987,13.594212947613642
2391.0957,23.786989769307183
2392.492,11.278281388225878
2393.8876,4.818091355710521
2395.2824,8.106423110319042
2396.6765,8.5432319578764
2398.07,12.928473123143817
2399.4627,12.812101745450377
2400.8547,17.894072834840358
2402.246,9.424341273237474
2403.6366,8.452861763625151
2405.0265,15.979588914743545
2406.4156,17.65447725080469
2407.8041,10.92748113622531
2409.1918,18.648554758877708
2410.5789,21.51765219735978
2411.9652,14.08472734378472
2413.3508,12.849733875089214
2414.7358,16.01262532736314
2416.12,11.423355108199189
2417.5035,17.58187646506417
2418.8863,21.88814253119142
2420.2684,23.242106263995993
2421.6497,27.643720402011695
2423.0304,15.892937451351372
2424.4104,29.939709641690797
2425.7896,23.43398904377659
2427.1682,14.025727428958135
2428.546,21.9648763342459
2429.9232,22.051387156393048
2431.2996,24.285211072504126
2432.6753,22.866299039170826
2434.0503,14.994601770132476
2435.4246,19.27006975046629
2436.7982,15.642653315303392
2438.1711,26.912302607074707
2439.5433,20.228967611784697
2440.9148,19.892598046314674
2442.2856,18.453143425256712
2443.6557,23.0605530642772
2445.025,18.71477609451108
2446.3937,25.815761416488158
2447.7617,21.263457743590948
2449.1289,26.757813531044235
2450.4955,31.448777021438787
2451.8613,27.03629618978755
2453.2265,18.870318696615414
2454.5909,24.150791932084758
2455.9546,27.027663097655136
2457.3177,28.800879153278174
2458.68,28.620386788629503
2460.0416,28.136132405376202
2461.4025,30.948062118982193
2462.7627,34.90612176355012
2464.1222,36.060256863702534
2465.4811,36.76041259500096
2466.8392,38.75653377240462
2468.1966,35.09856484326872
2469.5533,37.536449867383226
2470.9093,45.32013255355275
2472.2645,46.34955623521739
2473.6191,42.92466379261634
2474.973,44.695397642493276
2476.3262,45.9116997723454
2477.6787,42.32351172271626
2479.0305,38.680774575032615
2480.3816,46.03342898748622
2481.7319,43.88141523146169
2483.0816,46.67467311800931
2484.4306,41.81314201936607
2485.7789,42.79676084102232
2487.1264,46.22546807033723
2488.4733,40.24920176670298
2489.8195,40.817899527257055
2491.165,49.08149854664532
2492.5097,45.63993561133486
2493.8538,45.243147016978014
2495.1972,38.69106860282807
2496.5398,42.133635755707076
2497.8818,45.12078347552659
2499.2231,47.80244634086216
2500.5637,48.47855847908119
2501.9035,38.94905353952748
2503.2427,43.1138646867588
2504.5812,48.822924695843255
2505.919,42.3761659107098
2507.256,53.923520187058784
2508.5924,40.464918956829024
2509.9281,43.20029311272424
2511.2631,47.77957314279945
2512.5974,50.052689103106616
2513.9309,53.51957057190242
2515.2638,46.63014662691711
2516.596,50.834345810685306
2517.9275,55.532096199440275
2519.2583,43.9733253610724
2520.5884,51.85796030815101
2521.9178,49.08592761351258
2523.2465,53.357153331414
2524.5745,54.17156302525348
2525.9018,49.87908172485777
2527.2284,52.279633918338334
2528.5543,55.123143595015904
2529.8796,61.55953422141539
2531.2041,61.93872871283048
2532.5279,53.560649368959446
2533.851,64.7252178701142
2535.1735,63.13235536099961
2536.4952,49.28198233906875
2537.8163,66.5240186704512
2539.1366,61.108383728456886
2540.4562,53.53499622115544
2541.7752,61.20377424553311
2543.0935,62.914635363226125
2544.411,70.81749652383371
2545.7279,57.36227404780834
2547.0441,62.298883547428204
2548.3596,67.4772400613482
2549.6744,66.3972580052349
2550.9885,61.80885111998293
2552.3019,65.5119324825144
2553.6146,59.256414551663454
2554.9266,63.99220913114499
2556.2379,60.01922743211003
2557.5485,63.68738002578772
2558.8585,67.6465768832154
2560.1677,67.69672733855685
2561.4762,59.83774004951033
2562.7841,62.56952299680711
2564.0913,62.09198356280149
2565.3977,68.00502850415268
2566.7035,68.20856395660047
2568.0086,63.45249537583476
2569.313,70.68672753545985
2570.6167,70.66116457455558
2571.9197,68.57570992533476
2573.222,71.28026631339884
2574.5236,70.02473577859206
2575.8246,75.50901964795662
2577.1248,73.88301854828717
2578.4244,76.09663235128852
2579.7232,73.5497601898357
2581.0214,82.44230043583775
2582.3189,90.47415072570624
2583.6157,80.79520787142991
2584.9118,89.6053677802559
2586.2072,88.15452555147954
2587.5019,86.29257538834258
2588.7959,93.26941061254183
2590.0893,89.73492368284849
2591.3819,106.58900612533984
2592.6739,95.73154856874385
2593.9652,100.16244057589876
2595.2557,107.58157075232737
2596.5456,104.08882670192827
2597.8348,105.83409495278448
2599.1234,104.1172609920909
2600.4112,117.03820924870172
2601.6983,117.49682311029846
2602.9848,108.34298479418095
2604.2705,111.92657534268074
2605.5556,116.6974747146997
2606.84,116.80556174987413
2608.1237,117.45071412086577
2609.4067,116.68280833228101
2610.689,117.95171971421945
2611.9707,118.10732242995255
2613.2516,108.34948946323476
2614.5319,112.17809261674762
2615.8115,114.29300260967801
2617.0903,108.89408903943195
2618.3685,116.68122036048595
2619.6461,121.10426393837554
2620.9229,115.56308597182442
2622.199,117.90755144851397
2623.4745,116.98752420049459
2624.7493,125.4028668807415
2626.0234,120.45344097235466
2627.2968,122.98910670440534
2628.5695,123.0597231014309
2629.8415,121.6151479580779
2631.1128,126.10523783839562
2632.3835,123.32984809028216
2633.6535,119.6888328005835
2634.9228,123.08204482284708
2636.1914,122.90933581373201
2637.4593,128.8705561990772
2638.7265,125.06555517562822
2639.9931,128.5441806514254
2641.259,128.90627928385345
2642.5242,130.05169644485557
2643.7887,123.5302762173124
2645.0525,126.64186138358747
2646.3156,125.23629349074207
2647.5781,122.2134128194188
2648.8398,120.62305839789792
2650.1009,114.31506803232548
2651.3613,120.03927832261701
2652.6211,116.29552472553775
2653.8801,122.58364149746001
2655.1385,118.50346173180117
2656.3961,123.35481729614236
2657.6531,120.43753887303023
2658.9094,125.10145591146329
2660.1651,128.9463966560648
2661.42,128.72218810044347
2662.6743,128.3786559487441
2663.9279,126.26562461788978
2665.1808,123.53291724101712
2666.433,136.68035568860665
2667.6846,135.85776059580974
2668.9354,137.11495123097427
2670.1856,137.9517455038707
2671.4351,139.8179599531199
2672.6839,146.71340973782543
2673.9321,143.83790861891117
2675.1795,148.84126889016716
2676.4263,148.67330140700443
2677.6724,150.3338155364217
2678.9179,149.27261915868473
2680.1626,156.63951865072113
2681.4067,154.58431889673278
2682.6501,156.4568232145266
2683.8928,155.15683337606657
2685.1348,153.28414958874856
2686.3761,141.83857050840015
2687.6168,141.16989325800773
2688.8568,149.07791354217215
2690.0961,136.96242565379555
2691.3348,144.7232223950013
2692.5727,130.5600951982886
2693.81,131.22283404892448
2695.0466,126.46122762657518
2696.2826,129.37506329867898
2697.5178,132.86412716806194
2698.7524,132.87820404379954
2699.9863,132.4670774063262
2701.2195,128.2805294072944
2702.452,135.66834087368625
2703.6839,139.03029134967824
2704.9151,144.51615902276387
2706.1456,154.42572069013403
2707.3755,149.50875170381778
2708.6046,158.5650258715874
2709.8331,175.3943155061275
2711.0609,178.6463913344727
2712.2881,182.47102232971446
2713.5145,189.76797567848047
2714.7403,205.68701674268834
2715.9654,208.62790898657607
2717.1899,221.04041381751182
2718.4136,234.6742905565847
2719.6367,247.62929631447986
2720.8591,257.10518585513984
2722.0809,265.90171146621424
2723.3019,278.71862286430115
2724.5223,281.3056671069816
2725.7421,276.6125884646506
2726.9611,290.7891283946467
2728.1795,288.4350255881823
2729.3972,286.80001582857926
2730.6142,260.633832014809
2731.8306,256.4362041778428
2733.0462,240.1068597423142
2734.2612,225.44552356849454
2735.4756,208.0019181155866
2736.6892,187.22576358833822
2737.9022,170.01677811147823
2739.1145,158.874677937478
2740.3262,151.89917761864166
2741.5372,130.38999011852644
2742.7475,116.59682688169818
2743.9571,108.66939804882298
2745.1661,96.4574125945989
2746.3744,83.61057840703012
2747.582,80.9786024095468
2748.7889,64.46119068947388
2749.9952,58.808048524350056
2751.2008,56.16888054710296
2752.4057,56.44339080257947
2753.61,45.43128277393822
2754.8136,43.43225937990377
2756.0165,42.69602308488834
2757.2188,37.672275918981654
2758.4204,34.91071948531345
2759.6213,35.46105501029092
2760.8215,29.172983371214457
2762.0211,30.896205090774004
2763.22,26.630420399929676
2764.4182,20.525329220679907
2765.6158,21.730631208718933
2766.8127,17.44602581448777
2768.009,10.021212271121328
2769.2045,2.9058896372945924
2770.3994,-0.9502431285293937
2771.5936,-5.397487096946406
2772.7872,0.4138661543764215
2773.9801,-15.16642103133222
2775.1723,-14.938586314982217
2776.3639,-19.75271584493771
2777.5548,-17.058746533085525
2778.745,-21.456417961681268
2779.9346,-12.34529929610295
2781.1235,-10.674745352113234
2782.3117,-12.843987615934907
2783.4992,-10.502150933084977
2784.6861,-11.498231837644028
2785.8723,-14.481121947205338
2787.0579,-2.5495980120261947
2788.2428,0.24770788404413224
2789.427,9.462189127640045
2790.6106,17.445239102919288
2791.7935,24.198251099417917
2792.9757,39.37261823221996
2794.1573,40.86973337442737
2795.3382,61.09098900541585
2796.5184,73.63777719586409
2797.698,84.91148940554132
2798.8769,96.06351635783943
2800.0551,114.89524792703531
2801.2327,126.10807302677091
2802.4096,153.05337942173566
2803.5859,166.68255361553838
2804.7615,185.64698058125424
2805.9364,211.94804362513293
2807.1106,234.9371241969552
2808.2842,257.5656016270212
2809.4572,291.8348528962599
2810.6294,315.24625240994465
2811.801,363.90117165500044
2812.972,405.25097896588983
2814.1423,437.9970390380639
2815.3119,496.8407125144639
2816.4808,530.6333556580607
2817.6491,589.3263197634188
2818.8167,632.1209508187686
2819.9837,673.8185889190788
2821.15,717.9205678381077
2822.3157,769.1782146114283
2823.4807,810.1928490954089
2824.645,857.1657834546351
2825.8086,892.8483217517647
2826.9716,918.3917594777971
2828.134,945.4473831952497
2829.2957,998.6664702827217
2830.4567,1020.1502886643394
2831.617,1024.6500962775644
2832.7767,1048.7671408583553
2833.9358,1045.5026598961701
2835.0941,1036.7078803927957
2836.2519,1021.6840188949916
2837.4089,1002.4822815824402
2838.5653,996.1538644179832
2839.7211,989.1999533396402
2840.8761,994.521724323892
2842.0306,1011.0203434552204
2843.1843,1046.0969668728903
2844.3374,1093.3027406059628
2845.4899,1148.5888002225306
2846.6417,1228.7062703576582
2847.7928,1279.4562641605235
2848.9433,1372.7398824932413
2850.0931,1442.7082134233642
2851.2422,1537.712331291046
2852.3907,1606.3032960093592
2853.5385,1674.232152114253
2854.6857,1719.2499280786442
2855.8323,1787.4576356331286
2856.9781,1820.056269315802
2858.1233,1877.4468057901854
2859.2679,1929.580203519237
2860.4118,1965.107402191448
2861.555,2020.329322199506
2862.6976,2040.8968642850261
2863.8395,2077.9609089863307
2864.9808,2107.1723164327727
2866.1214,2107.981925974098
2867.2614,2126.5905558883287
2868.4007,2134.0990033736675
2869.5393,2145.8580443624123
2870.6773,2163.9184334458714
2871.8146,2175.8809037567735
2872.9513,2167.296166788661
2874.0874,2167.3149122762716
2875.2227,2158.6378082813762
2876.3574,2152.315501192602
2877.4915,2124.3986158121943
2878.6249,2090.4377554192474
2879.7577,2061.1835020488675
2880.8898,2047.5864168317846
2882.0212,2024.4470402868942
2883.152,2007.7658924572277
2884.2821,1987.743473141346
2885.4116,1991.4802620601533
2886.5405,1987.1767190571168
2887.6686,1989.5832840609023
2888.7962,2007.9503771284099
2889.923,2016.278398420705
2891.0493,2014.367728019352
2892.1748,2035.46872584313
2893.2997,2046.0317316671417
2894.424,2072.907064911803
2895.5476,2083.795024537213
2896.6706,2102.6958887744
2897.7929,2132.3099150164426
2898.9145,2157.137339629461
2900.0355,2188.1283776564765
2901.1559,2223.3832225691376
2902.2756,2242.402045957809
2903.3946,2284.534997179024
2904.513,2309.0322031652945
2905.6308,2345.793768003785
2906.7479,2359.919772691337
2907.8643,2402.460274766855
2908.9801,2419.065308170045
2910.0953,2431.1348828160117
2911.2098,2417.868984429208
2912.3236,2405.8675744227357
2913.4368,2424.63059003101
2914.5494,2400.9079444297677
2915.6613,2360.249526548442
2916.7725,2332.455201307388
2917.8831,2319.0248100244635
2918.9931,2278.858170692976
2920.1024,2247.4550781159833
2921.211,2250.2153043079634
2922.319,2216.4385988088434
2923.4264,2211.374688656397
2924.5331,2187.7232787240123
2925.6391,2170.3840517713315
2926.7445,2180.6566686807637
2927.8493,2167.340768630877
2928.9534,2165.035968993676
2930.0569,2162.341865467753
2931.1597,2149.558032101346
2932.2619,2140.984021319272
2933.3634,2137.769364050768
2934.4643,2131.1635698152318
2935.5645,2108.3161267543674
2936.6641,2082.526501698243
2937.763,2027.8941403937674
2938.8613,1998.3684677625831
2939.959,1923.1988884473922
2941.056,1849.1347871072117
2942.1523,1767.925529169071
2943.248,1679.5204615686516
2944.3431,1598.3189135623793
2945.4375,1491.7701976114763
2946.5313,1385.0736101939765
2947.6244,1289.7284328702108
2948.7169,1176.8839333497763
2949.8087,1101.8393664449845
2950.8999,1002.2439751993091
2951.9904,924.1969916378298
2953.0803,843.647637763187
2954.1696,783.3951263360515
2955.2582,722.6386616806183
2956.3462,690.8774402871308
2957.4335,656.1106514194463
2958.5202,616.9874774326481
2959.6062,586.8570941207133
2960.6916,574.568671107745
2961.7764,548.7713721492747
2962.8605,541.6143552551489
2963.9439,536.2467729474995
2965.0267,527.8177723323159
2966.1089,514.1264951531198
2967.1905,517.8720778752553
2968.2714,511.20365182280193
2969.3516,513.1203431411184
2970.4312,520.3712728635273
2971.5102,533.6055568921481
2972.5885,525.2723059253877
2973.6662,531.5706253255977
2974.7432,537.7996152024069
2975.8196,531.4083703497387
2976.8954,522.3459801835196
2977.9705,512.6115288055935
2979.045,508.3040950943441
2980.1188,486.42275280204024
2981.192,471.2165705979103
2982.2645,463.73461228695487
2983.3364,439.17593696200925
2984.4077,415.98959907856295
2985.4783,389.77464870034646
2986.5483,368.2301317311942
2987.6177,330.6050901771946
2988.6864,308.3485623621352
2989.7545,273.25958330375295
2990.8219,239.6371849362991
2991.8887,208.43039646142938
2992.9548,181.08824468442793
2994.0204,156.50975432627524
2995.0852,127.49394829706955
2996.1495,112.43984794181188
2997.2131,94.69647333056406
2998.276,72.06284340898975
2999.3383,54.287976175787776
3000.4,45.32088890902895
3001.4611,28.41059834390444
3002.5215,22.056120762396915
3003.5812,14.456472162383363
3004.6404,-2.189331678819997
3005.6989,-1.7322751284616515
3006.7567,-5.023320682367
3007.8139,-5.963413530932826
3008.8705,-9.40344868158246
3009.9264,-13.794261567238436
3010.9818,-10.086593680371436
3012.0364,-14.38104870877936
3013.0905,-6.228129575189712
3014.1439,-4.428195535653629
3015.1966,-3.481543627208282
3016.2487,3.7115733507823734
3017.3002,-1.199062620424968
3018.3511,8.286330403310899
3019.4013,12.417546344766492
3020.4509,18.794379043855088
3021.4998,22.81662221631484
3022.5481,24.284069389940328
3023.5958,23.046513864360065
3024.6428,28.303748696361936
3025.6892,42.50556671226917
3026.735,43.851760455367355
3027.7802,51.99212204388681
3028.8247,60.57644315754027
3029.8685,63.504514956119465
3030.9118,77.92612799365202
3031.9544,79.54107218912043
3032.9963,91.24913668224633
3034.0376,93.15010981734059
3035.0783,103.59377902622305
3036.1184,118.12993080921257
3037.1578,124.05835063069031
3038.1966,125.72882277373873
3039.2348,134.94113028085673
3040.2723,135.4950549372552
3041.3092,133.69037717873374
3042.3455,141.9268760861417
3043.3811,147.65432940342464
3044.4161,143.97251345525933
3045.4505,141.28120308977952
3046.4842,145.23017171539402
3047.5173,138.66919132769965
3048.5498,132.9980324699917
3049.5816,132.66646429887373
3050.6128,123.9742546409692
3051.6434,121.37116999623714
3052.6734,117.60697562489418
3053.7027,118.88143557344546
3054.7314,115.69431271232651
3055.7594,112.64536872315858
3056.7868,110.63436413062004
3057.8136,112.36105833293561
3058.8398,105.27520962198668
3059.8653,108.376575166044
3060.8902,105.36491108062648
3061.9145,105.88997239748755
3062.9381,99.8515130947313
3063.9612,95.14928609156229
3064.9835,104.28304330867024
3066.0053,94.80253571525199
3067.0264,94.75751323767392
3068.0469,85.7977248542773
3069.0668,76.87291859582842
3070.086,74.68284163511646
3071.1046,76.37724037620154
3072.1226,64.65586047631538
3073.1399,64.31844682891756
3074.1567,52.714743680909294
3075.1727,49.94449463600725
3076.1882,46.00744277078098
3077.203,40.653330662355245
3078.2173,32.13190042778041
3079.2308,28.292893777573738
3080.2438,21.586052100933557
3081.2561,15.761116504129319
3082.2678,14.867827877570022
3083.2789,10.95592695405358
3084.2893,10.175154317699736
3085.2991,5.42525044306899
3086.3083,4.605955702970533
3087.3169,4.467010415960971
3088.3248,-2.191845145462537
3089.3321,-2.3208707534728035
3090.3388,-0.47030428370979394
3091.3449,1.409639573685297
3092.3503,-2.2312491730889406
3093.3551,-1.7931805299303676
3094.3593,-4.926342212557557
3095.3629,-3.08090402281573
3096.3658,-2.156986548391444
3097.3681,-3.8046795987401367
3098.3698,-6.024051435021704
3099.3708,-3.065132309646856
3100.3713,-1.3778922947525984
3101.3711,-4.262270841804195
3102.3702,-3.6181936371229426
3103.3688,-2.2455437869444665
3104.3667,0.3058317482499717
3105.364,-0.8638915590384784
3106.3607,1.7954587084320792
3107.3568,6.734063598180214
3108.3522,7.052104139769895
3109.347,6.699761295424565
3110.3412,4.027215956846689
3111.3348,8.284648948741179
3112.3277,8.072241055540871
3113.32,9.8401729788321
3114.3117,17.13862533947885
3115.3028,15.41777865994348
3116.2932,14.327813291302064
3117.2831,17.118909430453044
3118.2723,19.191247131016752
3119.2608,20.845006275424467
3120.2488,17.280366554195055
3121.2361,20.397507449397395
3122.2229,24.04660827029676
3123.209,26.527848122183286
3124.1944,31.291405869881018
3125.1793,27.83746011293563
3126.1635,28.766189137978927
3127.1471,29.027770953268018
3128.1301,34.47238327939819
3129.1125,31.550203546687
3130.0942,34.711408840728176
3131.0753,29.50617593161347
3132.0558,36.1346812423206
3133.0357,38.447100900765534
3134.015,36.343610673517425
3134.9936,40.724385942674445
3135.9716,41.58960172689866
3136.949,43.33943263760831
3137.9258,38.42405287032564
3138.902,41.09363618717858
3139.8775,45.2483559660546
3140.8524,47.788385173904786
3141.8267,47.0638963251967
3142.8004,50.17506145651409
3143.7735,49.322052133801726
3144.7459,55.555039421253774
3145.7178,55.87419388984394
3146.689,50.679685554995494
3147.6596,54.221683873389864
3148.6295,56.20035779491157
3149.5989,55.91587572722835
3150.5676,60.41840551600433
3151.5357,59.20811444774497
3152.5032,59.58516920477162
3153.4701,61.749735877324525
3154.4364,63.801979959792234
3155.402,66.69206632906595
3156.367,64.77015922401709
3157.3315,64.2864222165964
3158.2952,63.54101823105304
3159.2584,64.48410954877195
3160.221,68.01585781572791
3161.1829,65.3864240330546
3162.1442,71.79596852172712
3163.105,69.1946509488563
3164.065,74.23263026359338
3165.0245,73.81006472314297
3165.9834,77.12711184238347
3166.9416,76.38392839809259
3167.8993,77.18067039577691
3168.8563,81.71749307710375
3169.8127,78.79455091193367
3170.7684,82.21199755295238
3171.7236,82.51998586489995
3172.6782,84.56866789039657
3173.6321,84.65819484686251
3174.5854,86.58871710603138
3175.5381,85.8603841930548
3176.4902,93.27334476719724
3177.4417,90.87774662911932
3178.3926,91.22373664674816
3179.3428,92.01146077923343
3180.2924,93.34106407348744
3181.2415,92.66269065630783
3182.1899,90.82648372108162
3183.1377,93.33258553456886
3184.0848,97.23113745526481
3185.0314,95.8222799083388
3185.9773,98.75615234664879
3186.9227,103.7328932648299
3187.8674,99.2526401699557
3188.8115,103.01552953177085
3189.755,103.02169682749357
3190.6979,104.02127650418676
3191.6402,105.36440197869632
3192.5818,108.40120562765537
3193.5229,109.03181877405298
3194.4633,108.35637165686613
3195.4031,109.32499342475359
3196.3423,109.0878121428104
3197.2809,108.44495478288167
3198.2189,114.3465472259343
3199.1563,115.54271426848575
3200.0931,118.4335795635879
3201.0292,117.01926560886541
3201.9648,119.79989371760722
3202.8997,116.12558403290952
3203.834,118.99645549986951
3204.7677,118.06262590232862
3205.7008,122.2242118341636
3206.6333,120.88132870862495
3207.5652,126.13409071672102
3208.4964,122.6326108406468
3209.4271,127.5270008012564
3210.3571,126.06737109307778
3211.2865,126.00383093536881
3212.2154,125.78648828671365
3213.1436,132.36544984565808
3214.0712,131.54082105288302
3214.9982,134.41270602541476
3215.9246,131.3312075648714
3216.8503,133.09642712874387
3217.7755,136.158464861211
3218.7001,135.86741957548736
3219.624,136.9733887232028
3220.5473,139.37646839731295
3221.4701,137.3767533210396
3222.3922,141.3743368238396
3223.3137,140.06931086140247
3224.2346,144.2117659756741
3225.1549,143.00179130790735
3226.0746,143.68947455723736
3226.9937,147.1249019927813
3227.9121,144.9081584467615
3228.83,145.8893272801512
3229.7473,150.76849040484217
3230.6639,150.39572827383273
3231.5799,153.82111983243632
3232.4954,151.59474252200917
3233.4102,151.96667224569615
3234.3244,155.63698339069467
3235.238,156.55574882453536
3236.151,156.22303985837897
3237.0634,163.03892623782863
3237.9752,159.35347614625715
3238.8864,158.81675613664788
3239.797,162.57883116844948
3240.7069,162.03976461294295
3241.6163,162.34961821562092
3242.5251,162.65845210157835
3243.4332,164.76632477241398
3244.3408,163.32329310314194
3245.2477,164.77941232111306
3246.154,167.7847360204452
3247.0598,168.53931614746205
3247.9649,170.74320297063994
3248.8694,170.54644507306205
3249.7733,171.64908933037933
3250.6766,171.25118091277832
3251.5793,174.0527632739547
3252.4814,171.1538781550923
3253.3829,171.30456555684725
3254.2838,174.15486376833698
3255.1841,178.2048093656332
3256.0838,176.70443718325902
3256.9829,178.4537802736893
3257.8814,178.25286992235436
3258.7792,180.7517356301469
3259.6765,181.40040511543063
3260.5731,180.54890428905196
3261.4692,178.84725724785312
3262.3647,180.04548628318727
3263.2595,186.8936118979348
3264.1538,182.29165279452118
3265.0474,184.03962580643574
3265.9404,185.73754594425114
3266.8329,188.58542637814384
3267.7247,184.43327842091466
3268.616,190.43111149951034
3269.5066,188.27893319654459
3270.3966,188.77674919032006
3271.286,190.77456327634988
