RamanShift,CorrectedData
30.1047,1331.7119113713418
32.3739,1232.1022766170836
34.6426,1140.292628545706
36.9109,1045.1829415190673
39.1787,949.4231784960989
41.4461,856.1632919839021
43.7131,759.0532249953466
45.9796,668.0429119816683
48.2456,569.382279803571
50.5112,478.1712486413289
52.7764,387.959732981393
55.0411,294.44764252850234
57.3054,200.63488310779792
59.5692,110.67135759994457
61.8326,17.656966879258164
64.0955,-74.25838928665891
66.3579,-162.07481130677397
68.6199,-239.49165774874538
70.8815,-314.7066680528668
73.1426,-345.2651891377711
75.4032,-257.65942400247735
77.6634,104.57187355323413
79.9231,1129.942523747229
82.1824,3479.066345751654
84.4412,7862.957147439232
86.6995,14197.228701892023
88.9574,20549.844703562514
91.2148,25119.41870493091
93.4717,27330.214052978965
95.7282,27852.593843494244
97.9842,27762.470898962176
100.2398,27219.90776334226
102.4949,26521.666702969265
104.7495,25690.50971197891
107.0036,24827.048519290223
109.2573,23879.894596917155
111.5105,22964.709168603164
113.7632,22052.653219292763
116.0154,21247.087504283383
118.2672,20643.372558345905
120.5185,19959.718703780363
122.7693,19421.18605645305
125.0197,19010.48453263306
127.2696,18602.473854377666
129.519,18412.11355363925
131.7679,18080.712976345494
134.0163,17909.031284302924
136.2642,17647.127458510953
138.5117,17347.860300878663
140.7587,17080.93843684388
143.0052,16830.470318365835
145.2512,16552.214226594355
147.4967,16239.42827437458
149.7417,15961.220409029513
151.9863,15759.898415487865
154.2304,15613.469919066149
156.4739,15380.39238748189
158.717,15207.623132317927
160.9596,14930.369311353172
163.2017,14590.637930290299
165.4433,14172.735845528303
167.6844,13739.219767559789
169.925,13292.946265150018
172.1651,12787.67176967204
174.4047,12370.102579569459
176.6439,11997.294865409149
178.8825,11606.054674056966
181.1206,11372.737932405817
183.3582,11062.950451288065
185.5954,10845.647927808699
187.832,10648.235948443198
190.0681,10499.969991210572
192.3037,10411.955427647466
194.5388,10276.147524290825
196.7734,10215.65144355805
199.0075,10189.122245105053
201.2411,10239.514886431247
203.4742,10220.434223144823
205.7068,10255.685008458826
207.9389,10303.321893381959
210.1704,10334.149426366075
212.4015,10372.872052829818
214.632,10462.59411485033
216.862,10575.619850776045
219.0915,10689.80339432945
221.3205,10841.598773476844
223.549,11112.209909286497
225.777,11406.490614410695
228.0044,11820.894590379623
230.2314,12291.32542465858
232.4578,12758.236586503903
234.6837,13122.23142225869
236.909,13281.013150683677
239.1339,13138.984859317283
241.3582,12792.79950288781
243.582,12198.059904733711
245.8053,11661.068760265443
248.0281,11156.328642912877
250.2503,10736.042009495191
252.472,10427.111205268293
254.6932,10217.938468127664
256.9139,9971.575931697673
259.134,9813.925627423316
261.3536,9621.139487033832
263.5727,9490.2193441192
265.7912,9252.666936058016
268.0092,9143.233905326684
270.2267,8948.921801874943
272.4436,8823.182084220194
274.6601,8671.916121390623
276.8759,8548.925194182608
279.0913,8494.410496673365
281.3061,8464.973137450865
283.5204,8500.214140158978
285.7341,8579.834443791837
287.9473,8751.634902341448
290.16,8968.666284001474
292.3721,9255.529269449235
294.5837,9703.474449675385
296.7947,10006.0023231153
299.0052,10207.113291169606
301.2152,9949.707655178914
303.4246,9414.335614412703
305.6334,8764.347268643382
307.8418,8094.542623500007
310.0495,7594.621596968165
312.2568,7210.034026088024
314.4635,6980.279671953538
316.6696,6861.20822355832
318.8752,6780.619300093193
321.0802,6797.012452136903
323.2847,6859.887162462004
325.4887,6881.192845870935
327.692,6753.078848567258
329.8949,6568.244447942623
332.0972,6248.3388538579
334.2989,5865.0112104915115
336.5001,5495.210599538497
338.7007,5205.786044043796
340.9008,5066.986512100251
343.1003,4879.560919742846
345.2992,4789.608132336703
347.4976,4720.9269664513395
349.6955,4672.766190760201
351.8927,4691.824526727467
354.0895,4603.650649089652
356.2856,4627.493185665036
358.4812,4605.600718235401
360.6763,4573.07178230759
362.8707,4488.454867332464
365.0646,4475.948417030158
367.258,4407.200830236272
369.4508,4350.260461026915
371.643,4351.925619406198
373.8346,4269.194571875629
376.0257,4184.765541417464
378.2162,4046.986708322029
380.4062,3866.8562110319963
382.5956,3657.5721475201735
384.7844,3526.0325770908094
386.9726,3389.985522472438
389.1603,3296.2289711332833
391.3474,3171.0608766417135
393.5339,3150.929159603811
395.7199,3078.7817089150576
397.9052,3052.716381961649
400.09,3019.281005341967
402.2743,3038.1233751272393
404.4579,3011.69125719588
406.641,3160.2323870450855
408.8235,3403.1944700551394
411.0054,3722.075180004009
413.1868,4198.772156637724
415.3675,4584.53300248157
417.5477,4789.055278073116
419.7273,4796.486498104605
421.9064,4659.374129377733
424.0848,4463.365590729332
426.2627,4168.258254402501
428.4399,3835.199448006688
430.6166,3399.48645746876
432.7928,2971.8665303636026
434.9683,2603.9368802712415
437.1432,2348.8946910530412
439.3176,2118.737120530999
441.4914,2009.8613030381766
443.6645,1960.4643517202621
445.8371,1906.5433596243456
448.0091,1781.895400192865
450.1806,1710.8175278028393
452.3514,1590.006779012334
454.5216,1573.8101732712457
456.6913,1472.3747141294116
458.8603,1483.9473893985723
461.0288,1524.7751721667191
463.1967,1546.705020682386
465.3639,1657.5838779463556
467.5306,1785.7086714923662
469.6967,1986.7263122783224
471.8622,2185.633693405045
474.0271,2334.5776881060974
476.1914,2368.455147758703
478.3551,2303.512900394315
480.5182,2238.497750359833
482.6807,2197.806478967035
484.8426,2236.035845142733
487.0039,2465.082585835671
489.1647,2900.3434156342464
491.3248,3354.3650244760374
493.4843,3557.8440732951985
495.6432,3604.677189482234
497.8015,3470.5609648492155
499.9592,3478.441955161452
502.1163,3456.4666814786488
504.2728,3238.4316300760966
506.4287,2892.533252664429
508.5839,2406.1179685699644
510.7386,2036.182168193698
512.8927,1767.1722178754517
515.0461,1589.9344635932302
517.199,1453.8652336533178
519.3512,1362.5608404626546
521.5029,1371.8675818895372
523.6539,1366.0317421766558
525.8043,1380.5495918480374
527.9541,1424.7673877673915
530.1033,1464.5813729929396
532.2519,1538.8877763352375
534.3999,1707.5328119590304
536.5472,2061.062678640197
538.694,2642.6235580792836
540.8401,3324.211611366214
542.9856,3931.0729731646843
545.1305,4124.703744896286
547.2748,3944.749988671876
549.4185,3481.507725355281
551.5615,3029.322936362829
553.704,2829.5415682957773
555.8458,2694.2595374621596
557.987,2625.272731874593
560.1276,2494.727012603111
562.2675,2358.8682144650174
564.4069,2237.5421473303486
566.5456,2094.294597480468
568.6837,1920.0213288213126
570.8212,1694.7680843158887
572.958,1433.3305877269831
575.0942,1280.8045458697106
577.2299,1181.7856512258768
579.3648,1225.9195834692546
581.4992,1350.952010455756
583.6329,1593.2285877821087
585.766,1831.694957535523
587.8985,1986.4967458709343
590.0304,2006.329560626331
592.1616,1943.8889897747322
594.2922,1847.7706012258714
596.4222,1697.119943450598
598.5515,1541.632546442057
600.6802,1381.4039232222021
602.8083,1156.129571396661
604.9358,1072.3549747570305
607.0626,955.4256055336136
609.1888,908.3869252331697
611.3144,770.7843858082142
613.4393,602.3134301273858
615.5636,468.46949335149657
617.6873,313.5980046182194
619.8103,261.99438838054266
621.9327,208.6540659554812
624.0544,219.42245604011623
626.1756,246.19497524499275
628.2961,223.86703798643612
630.4159,171.93405621882448
632.5351,122.74143965787516
634.6537,61.784596299963596
636.7716,36.558932914065736
638.8889,18.709855651315593
641.0056,65.38277029727033
643.1216,85.27289572602422
645.237,109.47545015784453
647.3518,119.3856509602756
649.4659,165.24871440611605
651.5793,183.05985557431268
653.6922,183.1142878913288
655.8043,178.90722295303385
657.9159,153.1338705241651
660.0268,60.98943858038729
662.137,8.269133566032906
664.2466,-33.93183868445158
666.3556,-31.96835494527113
668.4639,-41.94495301157258
670.5716,29.934148685360924
672.6786,138.51515074431518
674.785,216.74425346474345
676.8907,314.2676557609466
678.9958,444.2815543797915
681.1002,410.6321429254749
683.204,400.4656105593731
685.3072,327.9281423365537
687.4097,252.9659193074349
689.5115,199.47511924315768
691.6127,137.1019173852128
693.7132,63.092486980340254
695.8131,-5.207000095722833
697.9123,-25.55037259816163
700.0109,-81.09140726424084
702.1089,-83.88362558299923
704.2061,-81.47973894032475
706.3028,-22.981620724689492
708.3987,60.409669658014536
710.4941,157.84330238828807
712.5887,371.51844704252835
714.6827,717.0342716187097
716.7761,1156.1399403996238
718.8688,1604.4346104977158
720.9608,1852.8174274640442
723.0522,1825.7375208053218
725.1429,1568.2440015000902
727.233,1157.4359622695301
729.3224,800.5124801523943
731.4112,496.12262061308684
733.4993,226.46544111088951
735.5867,97.78999414386453
737.6735,42.395329945429694
739.7596,-10.669502228894999
741.845,-1.055453547536672
743.9298,-20.213368590595564
746.014,34.705918605797706
748.0974,47.901775937067214
750.1802,45.12357095157677
752.2624,75.9706707186906
754.3439,102.44244185652678
756.4247,168.5382502235134
758.5048,284.55746065365565
760.5843,483.5994362955862
762.6631,774.2135374523696
764.7413,1227.9991195910789
766.8188,1790.7055304366568
768.8956,2303.332105434065
770.9718,2664.8281621212136
773.0473,2544.8929950026904
775.1221,2207.9758719348138
777.1962,1812.2760353249705
779.2697,1618.0427055008022
781.3426,1728.125084667192
783.4147,2058.9223588485984
785.4862,2429.4836967882366
787.557,2459.708246640099
789.6271,2102.8951322633584
791.6966,1512.8934529200978
793.7654,1004.6022868434575
795.8335,690.5206971376465
797.901,521.447736860855
799.9678,469.9324521660674
802.0339,519.423883991798
804.0993,588.2210685772388
806.1641,589.2230369673489
808.2282,544.3788143248821
810.2916,443.5374199203634
812.3544,349.14786758054106
814.4164,250.15916669679245
816.4778,272.22032316901823
818.5385,292.2803403955295
820.5986,323.1882190524393
822.658,383.5429568930649
824.7166,401.24354843884794
826.7747,574.3889843758025
828.832,713.0782513775139
830.8886,789.7103303736822
832.9446,977.5841951632337
834.9999,1075.3988116479886
837.0545,1181.3531359539375
839.1085,1272.5961134530753
841.1618,1298.87667770388
843.2143,1325.5437495388596
845.2662,1295.4462368017685
847.3175,1232.4830340809312
849.368,1150.2530230102075
851.4179,1017.7050728986342
853.467,875.7880415527288
855.5155,767.2007766019651
857.5633,646.0921169179437
859.6105,551.7108937002577
861.6569,487.75593168759406
863.7027,424.7260501015262
865.7478,424.32006328607713
867.7922,453.53678133800713
869.8359,538.6750101108919
871.8789,677.6335509229357
873.9212,848.7111997055999
875.9629,1058.0067456140223
878.0039,1266.7689693162247
880.0441,1390.6966409001707
882.0837,1386.0385177861353
884.1226,1266.7933434874267
886.1609,1122.1098476569732
888.1984,986.7867472797752
890.2352,937.1727481197395
892.2714,874.1665460729073
894.3069,834.5668276635915
896.3416,822.0222706744516
898.3757,814.7815445424767
900.4091,795.5433104844469
902.4418,820.8062215693208
904.4739,843.9689229106243
906.5052,844.2300514138333
908.5358,725.5882355447384
910.5658,584.742095326832
912.595,448.44024352772794
914.6236,324.78128706762254
916.6515,322.663828382314
918.6786,368.7364666598014
920.7051,400.74779786144154
922.7309,541.4464142612387
924.756,635.8309041257144
926.7804,742.2498503069355
928.8041,736.5518292986644
930.8272,769.6354101721709
932.8495,700.2491546332103
934.8711,643.9416166911942
936.892,477.11134335303996
938.9123,318.4568751862598
940.9318,183.57674798725475
942.9506,76.96949436786326
944.9688,-10.166354895840414
946.9862,-61.682269797470326
949.003,-84.27961876875816
951.019,-69.50915403556519
953.0344,-23.270785870365216
955.0491,46.9862698508141
957.063,124.21302972708963
959.0763,256.01050988772386
961.0888,333.22972521984593
963.1007,412.77168805048495
965.1119,489.38740737437456
967.1223,512.1278880585369
969.1321,562.4441300761246
971.1412,626.2871282790193
973.1495,644.657871894663
975.1572,687.3573438876283
977.1641,762.7865207759141
979.1704,743.7963722039549
981.1759,770.7378601883138
983.1808,842.9619393076046
985.1849,954.6695564330594
987.1884,1172.0616500062943
989.1911,1386.589148922235
991.1932,1531.5529703551874
993.1945,1621.6540176135786
995.1951,1588.3931786903076
997.1951,1548.5213253617349
999.1943,1499.9393135202954
1001.1928,1447.947983573209
1003.1906,1458.0481609283124
1005.1877,1496.8906565139632
1007.1841,1440.8762666780503
1009.1798,1332.1557727995478
1011.1748,1127.9299418486762
1013.1691,948.5495274740961
1015.1627,743.2652720451779
1017.1556,571.2279084457941
1019.1477,469.3381621271683
1021.1392,447.64675282824555
1023.1299,449.40439559459264
1025.12,504.61180099531066
1027.1093,550.0196751054646
1029.0979,678.8287189540042
1031.0859,728.9896280696885
1033.0731,735.0030911929862
1035.0596,657.6697897744762
1037.0454,517.3403979147006
1039.0304,417.16558313751284
1041.0148,305.6460077933634
1042.9985,218.0323300610553
1044.9814,216.57520506293076
1046.9636,200.3252857410116
1048.9452,154.58322287157443
1050.926,189.5996652276417
1052.9061,162.52526003640742
1054.8855,173.96065262906995
1056.8642,228.1564867115776
1058.8421,290.2134042502703
1060.8194,313.582044929929
1062.7959,343.06304553320297
1064.7717,383.457039706921
1066.7469,363.91465766728743
1068.7213,379.2365257959418
1070.695,353.42326683537976
1072.6679,284.77549973573787
1074.6402,247.54383991291888
1076.6117,245.4788999350776
1078.5826,267.0312898949296
1080.5527,359.10161743040953
1082.5221,532.7904875091399
1084.4908,779.5985015077313
1086.4587,1050.7762554748952
1088.426,1231.924337663355
1090.3925,1239.9933258180763
1092.3584,1151.533785364788
1094.3235,962.5962693292868
1096.2879,879.1313192220359
1098.2515,867.3394669275403
1100.2145,900.3712355389971
1102.1767,962.4771394762074
1104.1382,1129.25768415526
1106.099,1357.9633653674773
1108.0591,1567.3946676116066
1110.0185,1720.8520618067641
1111.9771,1712.7860031981227
1113.9351,1483.296929822338
1115.8923,1122.6352625882091
1117.8488,800.2514075715717
1119.8045,537.0457596219076
1121.7596,399.4187055861921
1123.7139,338.370626940944
1125.6675,358.90190116849953
1127.6204,455.46290236749246
1129.5726,494.35400104753717
1131.524,546.9255631636288
1133.4748,579.0779497272224
1135.4248,632.7615162805187
1137.3741,695.126612574938
1139.3226,661.2735820342923
1141.2705,652.4027611311276
1143.2176,597.7644797252588
1145.164,652.7090611524754
1147.1097,692.4868227709267
1149.0546,680.3980754116719
1150.9989,582.7931229809064
1152.9424,410.67226258084884
1154.8852,213.58578548579226
1156.8272,87.2839788633064
1158.7686,4.0171277451108836
1160.7092,-25.26448370991693
1162.6491,-1.610571383066599
1164.5883,98.02940123656026
1166.5267,190.80598674946577
1168.4644,332.96973677586266
1170.4014,523.3712010279032
1172.3377,765.5109258880466
1174.2732,983.6894525050438
1176.2081,1199.707314372541
1178.1421,1388.965035147291
1180.0755,1514.6631264889756
1182.0082,1533.8520861676316
1183.9401,1441.2823968066614
1185.8713,1259.3045256909527
1187.8017,1031.2689256925705
1189.7315,784.3760370905384
1191.6605,546.0262898511919
1193.5888,368.8701060971089
1195.5163,263.1579024906023
1197.4432,170.59009200528544
1199.3693,108.26708498319476
1201.2947,69.03929006046747
1203.2193,77.50711479057372
1205.1432,102.97096603659338
1207.0664,175.23124988653763
1208.9889,269.08837139870866
1210.9106,388.5927338790989
1212.8316,489.7947379428142
1214.7519,570.6947803190369
1216.6715,599.9932528390027
1218.5903,601.1405416270018
1220.5084,566.837026807395
1222.4257,539.4830824931423
1224.3424,513.9790771288353
1226.2583,581.9753737642368
1228.1735,709.5223303093217
1230.0879,840.770298854316
1232.0016,1021.2196243942244
1233.9146,1037.9206435163533
1235.8269,971.6236825958158
1237.7384,816.2290576285241
1239.6492,675.1870748941537
1241.5592,563.5480325100943
1243.4686,481.4122218418679
1245.3772,416.02992861952134
1247.285,370.5514337589784
1249.1922,355.32701401586746
1251.0986,349.30694244030474
1253.0042,379.1414885291397
1254.9092,460.13091828615416
1256.8134,572.3254939237158
1258.7169,759.025473052885
1260.6196,918.3311075614702
1262.5216,1091.5426417470262
1264.4229,1250.3603107238032
1266.3234,1392.7343386906286
1268.2232,1417.9649373427264
1270.1223,1430.952304447982
1272.0207,1399.0966235946307
1273.9183,1368.9480640613874
1275.8151,1324.2567811360059
1277.7113,1226.2729164167604
1279.6067,1102.2965982593578
1281.5014,946.6779427567799
1283.3953,792.467054979039
1285.2885,704.8140305293737
1287.181,637.718957086352
1289.0727,671.0319152804041
1290.9637,729.9029793647742
1292.854,857.2322168823885
1294.7435,1025.219688077149
1296.6323,1278.1154446206356
1298.5204,1565.1195279322346
1300.4077,1827.4819666501817
1302.2943,2034.5527737615184
1304.1802,2133.981943978467
1306.0653,2095.2694516677248
1307.9497,1987.065249856173
1309.8333,1929.0692706179952
1311.7162,1926.6814261567215
1313.5984,2040.9516093851953
1315.4798,2220.929693949448
1317.3605,2413.7155330859987
1319.2405,2599.208957822071
1321.1197,2652.9097750477376
1322.9982,2650.1177656609834
1324.876,2642.2826840306943
1326.753,2642.2542580245718
1328.6293,2650.9321890874917
1330.5048,2700.266152241793
1332.3796,2701.8057960004935
1334.2537,2659.2507418739524
1336.127,2635.200584354475
1337.9996,2585.5048913418577
1339.8714,2545.863204383896
1341.7426,2483.1750391733394
1343.6129,2451.2398859443056
1345.4826,2370.4072100991652
1347.3515,2362.426452527895
1349.2196,2321.1970304164006
1351.087,2324.068337326321
1352.9537,2387.2897436073335
1354.8197,2490.6105963684295
1356.6849,2684.5802188457073
1358.5493,2780.04790936916
1360.4131,2776.8629394229793
1362.276,2715.274552690881
1364.1383,2561.881965087955
1365.9998,2350.084365376547
1367.8606,2089.9809167001868
1369.7206,1871.9707587015637
1371.5799,1734.80301012356
1373.4384,1632.0767709893535
1375.2962,1510.1911239740948
1377.1533,1314.1951354321673
1379.0096,1027.3878566160465
1380.8652,762.6183256362556
1382.7201,569.2355703294397
1384.5742,388.43861090606606
1386.4275,257.7264618842473
1388.2802,177.1481338977119
1390.132,89.20263500292731
1391.9832,50.33897148488359
1393.8336,-10.493851263456236
1395.6832,1.9531716474848508
1397.5322,-26.420850059146687
1399.3803,-33.86680667973178
1401.2278,-20.185324566365125
1403.0745,-18.676691741743525
1404.9204,6.359005422829796
1406.7656,25.121867136200308
1408.6101,44.21199354362943
1410.4538,90.52948453915633
1412.2968,149.32443957470878
1414.139,206.69695719692072
1415.9805,326.1971344591843
1417.8213,436.9750663479231
1419.6613,592.0308445875894
1421.5006,800.2645565328876
1423.3391,1102.4762836182153
1425.1769,1494.7660992753244
1427.0139,2020.6840659112117
1428.8502,2670.230230985209
1430.6858,3317.054621749814
1432.5206,3801.707238755221
1434.3547,4052.588049381081
1436.188,4114.1469829899725
1438.0206,4045.1339284186
1439.8524,3919.3487333621993
1441.6835,3823.4912050646667
1443.5139,3761.7611115764207
1445.3435,3685.2081827129664
1447.1724,3651.4821106721993
1449.0005,3578.982550799935
1450.8279,3532.259121927171
1452.6545,3503.1114070950807
1454.4804,3546.5889540222483
1456.3056,3549.591275396145
1458.13,3459.0678484383516
1459.9536,3232.8181148745402
1461.7766,2877.141481839705
1463.5987,2449.7373241406613
1465.4202,2077.2549878128098
1467.2409,1725.6437943941792
1469.0608,1437.7030446502495
1470.88,1208.4820220900647
1472.6984,1002.9799958456379
1474.5161,796.5962229641668
1476.3331,662.1299504630501
1478.1493,567.2804173937279
1479.9648,473.59685618634285
1481.7795,402.32849359823376
1483.5935,347.7245516507751
1485.4067,286.0342483420545
1487.2192,250.7067981929158
1489.031,207.79141286386448
1490.842,202.53730150833917
1492.6522,184.64367120186535
1494.4618,163.05972699459653
1496.2705,156.93467209025084
1498.0785,157.517708061951
1499.8858,136.45803491347533
1501.6924,134.5548510734261
1503.4981,134.30735360582776
1505.3032,124.96473822915914
1507.1075,119.12619931882773
1508.911,106.74093000059656
1510.7138,102.10812220896923
1512.5159,79.87696681104035
1514.3172,56.946653652828445
1516.1178,37.7663717815808
1517.9176,40.68530967508195
1519.7166,12.90265543345322
1521.515,24.317596749963286
1523.3126,1.97932118885592
1525.1094,-15.562983928798076
1526.9055,-13.910131301720867
1528.7008,-30.212778154424996
1530.4954,-29.97144274921402
1532.2893,-18.236341522738257
1534.0824,-17.257391496938
1535.8747,-2.2843275127020206
1537.6663,2.183287990419103
1539.4572,-9.304084606693323
1541.2473,14.55401505501095
1543.0367,31.908140282386285
1544.8253,12.058844236747063
1546.6132,31.606679760328007
1548.4003,49.50219957477748
1550.1867,60.495956085679154
1551.9723,85.2885012035972
1553.7572,137.98038623413686
1555.5414,161.67216163001876
1557.3247,196.76437646416252
1559.1074,261.6075781927657
1560.8893,332.10231230438467
1562.6705,393.1991216715005
1564.4509,490.648545845575
1566.2305,575.5011204460784
1568.0094,680.2073761859965
1569.7876,771.2678380233065
1571.565,847.1830241139132
1573.3417,920.903444901046
1575.1176,952.2296023561034
1576.8928,918.7119892414507
1578.6672,854.3010887971595
1580.4409,747.3473750761814
1582.2138,638.8513135884596
1583.986,522.4633623704667
1585.7575,450.3339730701623
1587.5282,385.76359211087674
1589.2981,334.70266141260026
1591.0673,296.50161903769185
1592.8358,297.91089970148596
1594.6035,284.530935154301
1596.3704,303.71215416734776
1598.1366,326.3049826665283
1599.9021,353.95984354062557
1601.6668,384.327156415372
1603.4308,444.15733737690516
1605.194,521.2507986680912
1606.9564,619.8579480902245
1608.7182,710.4291882320931
1610.4791,855.264915483906
1612.2394,1045.3155191315832
1613.9988,1237.231379908395
1615.7576,1481.5128680944604
1617.5156,1720.3603415975863
1619.2728,1964.57414351045
1621.0293,2170.154599722128
1622.785,2261.4520164759565
1624.54,2216.266678313726
1626.2942,2090.8988471627094
1628.0477,1857.7987627875114
1629.8005,1619.0666440437521
1631.5525,1401.5526912090631
1633.3037,1185.0570883704095
1635.0542,1042.8300055992336
1636.804,922.8716011164042
1638.553,823.4820227144955
1640.3013,807.761408957364
1642.0488,759.8598901740461
1643.7955,767.877588615966
1645.5416,796.9146189359503
1647.2868,865.2210881080487
1649.0313,935.7470951371679
1650.7751,1116.3427303760059
1652.5181,1309.5080748197888
1654.2604,1551.143198300318
1656.0019,1904.5981575543133
1657.7427,2269.9229938070644
1659.4828,2635.96772923788
1661.222,2872.7823633268413
1662.9606,2916.716869194354
1664.6984,2768.4211912330015
1666.4354,2431.345244668202
1668.1717,2001.7889170411604
1669.9072,1555.6520715796287
1671.642,1203.7345514934732
1673.3761,920.2861844360382
1675.1094,716.706786023326
1676.8419,552.7461626684749
1678.5737,447.00411361755687
1680.3048,373.13043258918196
1682.0351,306.4749088319222
1683.7646,246.98732786304618
1685.4934,211.01747213507406
1687.2215,199.96512163065427
1688.9488,156.33005422226324
1690.6754,145.3620457827251
1692.4012,149.21087062156448
1694.1263,127.9763015946869
1695.8506,99.2081100658902
1697.5742,110.50606611920966
1699.297,95.81993884660096
1701.0191,84.64949623495795
1702.7404,82.39450531297643
1704.461,45.554732262858124
1706.1808,67.52994244286083
1707.8999,58.619900755694744
1709.6182,51.82437142877279
1711.3358,42.24311810331119
1713.0527,38.6759039022827
1714.7688,41.772491526228805
1716.4841,21.732643288936288
1718.1987,25.4061210864661
1719.9126,35.54268659755462
1721.6257,25.842101246879793
1723.338,19.054126103692397
1725.0496,-5.2714780211763355
1726.7605,9.465049492565868
1728.4706,5.013521927274269
1730.18,3.5237524706567456
1731.8886,6.295554260284462
1733.5964,7.478740398491482
1735.3036,11.473123924658921
1737.0099,-2.571482196619854
1738.7156,-2.905265115481143
1740.4204,-16.928386292953974
1742.1246,-6.640978166469949
1743.8279,15.10699594111702
1745.5306,7.865639050324489
1747.2325,2.485054030600395
1748.9336,2.815343672737299
1750.634,-9.94338925732336
1752.3336,5.658957978208264
1754.0325,7.172587451578693
1755.7307,1.1477011784463684
1757.4281,6.884501102745389
1759.1247,9.683189156933167
1760.8206,12.143967204623323
1762.5158,13.16703701259803
1764.2102,9.252600226201139
1765.9039,8.300858359106996
1767.5968,13.562012832464006
1769.289,19.636264984412946
1770.9804,30.923816017475474
1772.6711,19.124866937812385
1774.361,12.739618442347592
1776.0502,7.418271036756778
1777.7386,21.46102509931984
1779.4263,23.16808093413556
1781.1132,32.03963863069339
1782.7994,22.825898046801967
1784.4849,23.727058719875913
1786.1696,21.943319959071005
1787.8535,25.17488083627245
1789.5367,22.02194020393449
1791.2192,34.634696662761144
1792.9009,25.21334859323906
1794.5818,43.958094029509084
1796.2621,30.569130753579884
1797.9415,33.796656107880835
1799.6202,35.94086712915032
1801.2982,44.05196051616167
1802.9755,42.2301326082802
1804.6519,30.675579304352368
1806.3277,36.488496080923596
1808.0027,41.4190781077848
1809.6769,47.21752018984262
1811.3504,37.08401671781394
1813.0231,49.56876161024161
1814.6951,57.57194841482942
1816.3664,60.593770183594415
1818.0369,66.13441939283507
1819.7067,48.244087912912846
1821.3757,53.8729669528459
1823.044,59.62124723921329
1824.7115,53.939118959865255
1826.3783,57.276771706441195
1828.0443,50.934394531190264
1829.7096,56.112175913594
1831.3741,63.860303823790446
1833.0379,54.17896567079674
1834.701,56.21834822502842
1836.3633,69.37863771511229
1838.0248,70.66001980749252
1839.6856,62.06267947482797
1841.3457,73.33680098317791
1843.005,75.78256797797599
1844.6636,75.90016337128804
1846.3214,76.13976931735556
1847.9785,86.05156721141907
1849.6349,91.53573768732122
1851.2904,83.59246051839045
1852.9453,68.5719145625983
1854.5994,97.2242778419934
1856.2528,86.64972769290557
1857.9054,101.94844047942138
1859.5572,93.92059169913136
1861.2083,103.41635583014181
1862.8587,100.18590641135461
1864.5084,94.17941594750778
1866.1572,99.94705594148058
1867.8054,103.6389969543593
1869.4528,90.75540854775977
1871.0994,85.79645924690863
1872.7453,91.4123166694792
1874.3905,92.10314757517926
1876.0349,97.86911780959554
1877.6786,93.86039229728362
1879.3215,99.92713498410922
1880.9637,98.06950887733456
1882.6051,89.83767598495274
1884.2458,93.63179733426114
1885.8858,90.20203305418272
1887.525,95.7485423373214
1889.1634,88.27148347426169
1890.8011,87.47101379810329
1892.4381,104.79728975923308
1894.0743,99.80046693332702
1895.7098,92.53069984809031
1897.3446,99.1881420332229
1898.9786,97.42294609311966
1900.6118,98.53526364029267
1902.2443,101.07524531302647
1903.8761,104.39304076425151
1905.5071,95.73879863614616
1907.1374,91.36266652695872
1908.7669,98.81479107755013
1910.3957,104.74531801515491
1912.0237,98.55439207886116
1913.651,104.54215696030337
1915.2776,102.80875536557323
1916.9034,97.60432895533995
1918.5285,89.42901836218721
1920.1528,86.08296324265484
1921.7764,101.46630235899352
1923.3992,100.27917361262485
1925.0213,83.07171389030759
1926.6427,91.59405907600853
1928.2633,77.2963442229784
1929.8832,102.87870346852787
1931.5023,84.54127017700489
1933.1207,93.73417668397087
1934.7383,98.40755447957486
1936.3552,87.11153411662394
1937.9714,85.14624516385038
1939.5868,84.36181631887143
1941.2015,83.60837542784202
1942.8154,84.88604949330056
1944.4286,79.54496468170146
1946.041,75.78524631064056
1947.6528,80.85701890226551
1949.2637,75.91040622087257
1950.8739,68.04553122218817
1952.4834,75.36251610283557
1954.0921,66.31148237898356
1955.7001,80.54255081317547
1957.3074,78.50584150484087
1958.9139,64.10147374798407
1960.5197,69.179566051552
1962.1247,69.59023628347654
1963.729,56.9336016198954
1965.3325,55.50977854104417
1966.9353,64.26888295782305
1968.5374,60.761030226036155
1970.1387,62.78633505879816
1971.7393,58.99491156161503
1973.3392,55.036873212129876
1974.9383,52.362332898037266
1976.5366,60.021402956664815
1978.1342,50.31419520171653
1979.7311,57.19082084668298
1981.3273,74.60139060191295
1982.9227,54.946014605847495
1984.5173,56.52480225091472
1986.1112,61.387862380082424
1987.7044,55.18530327107078
1989.2968,64.31723258772195
1990.8885,57.383757442024944
1992.4795,55.334984302797466
1994.0697,60.92101906501989
1995.6592,55.34196707032311
1997.2479,56.59793305112794
1998.8359,58.389021186436366
2000.4232,52.2653350892715
2002.0097,44.126977788766226
2003.5955,54.374051791400916
2005.1805,51.65665916238754
2006.7648,56.024901423197434
2008.3484,57.52887957873668
2009.9312,60.368694073663164
2011.5133,48.94444477734555
2013.0946,58.70623095546625
2014.6752,50.80415138426429
2016.2551,53.73830425291612
2017.8342,60.25878724255767
2019.4126,62.81569749694199
2020.9902,48.45913155723565
2022.5672,48.689185336447736
2024.1433,51.30595426299715
2025.7188,57.45953327841153
2027.2935,44.60001681115932
2028.8674,43.6774987151141
2030.4406,56.79207239815037
2032.0131,49.14383083136704
2033.5849,50.83286641794416
2035.1559,56.7092710696229
2036.7261,51.62313618981648
2038.2957,48.274552614846016
2039.8645,51.56361066480122
2041.4325,48.94040017702628
2042.9998,51.90501047323096
2044.5664,51.107530385719656
2046.1323,34.74804822774763
2047.6974,36.5766518014957
2049.2617,38.39342856166445
2050.8254,39.09846559718903
2052.3883,33.04184961306919
2053.9504,27.473666923321844
2055.5118,26.544003511544815
2057.0725,28.952945086599584
2058.6325,28.150577091907962
2060.1917,30.88698468136249
2061.7502,30.962252727351597
2063.3079,39.22646579339289
2064.8649,50.57970813338261
2066.4212,57.92206360895352
2067.9767,60.00361557594192
2069.5315,57.4244468109639
2071.0856,57.78463949059983
2072.6389,60.93427521718763
2074.1915,53.07343501521791
2075.7433,45.802199299839
2077.2945,40.42064795546571
2078.8448,42.978860408490846
2080.3945,35.12691568110199
2081.9434,33.26489236569773
2083.4916,31.19286870340784
2085.039,25.960922602713026
2086.5857,28.769131660166977
2088.1317,49.21757321271389
2089.677,39.156324309606816
2091.2215,25.485461507923446
2092.7652,29.355060973179434
2094.3083,35.16519861603638
2095.8506,36.665950053605684
2097.3921,36.65739055134691
2098.933,44.139595008059814
2100.4731,39.062637955972605
2102.0124,41.726593485916965
2103.5511,40.981535298097924
2105.089,35.87753667545553
2106.6261,29.564670491115407
2108.1626,36.79300925942755
2109.6983,34.012625199095964
2111.2332,36.773590160894855
2112.7675,41.475975655472666
2114.301,35.969852825742464
2115.8337,48.555292399858445
2117.3657,39.93236474627622
2118.897,39.90113974789915
2120.4276,46.46168688830721
2121.9575,43.814075252069415
2123.4866,33.15837345913894
2125.0149,35.99464969132862
2126.5426,31.87297179886798
2128.0695,37.44340727204053
2129.5956,33.25602328239995
2131.1211,36.31088662706691
2132.6458,49.808063770601166
2134.1698,34.947620814454694
2135.693,39.12962336199939
2137.2155,37.604136667131684
2138.7373,39.721225592452356
2140.2584,36.73095462452102
2141.7787,29.43338785268554
2143.2983,28.07858899898406
2144.8171,31.516621491122237
2146.3353,32.697548476019165
2147.8527,38.37143278542908
2149.3693,35.88833692413061
2150.8853,40.698323013188656
2152.4005,32.65145281478465
2153.9149,34.54778768411745
2155.4287,44.887388649871696
2156.9417,27.570316395254736
2158.454,36.14663115460053
2159.9655,41.16639288654096
2161.4764,31.829661188241744
2162.9865,33.38649524520588
2164.4958,45.93695392463985
2166.0045,37.631095759885625
2167.5124,33.46897882491601
2169.0195,39.500660817393396
2170.526,31.326199100290523
2172.0317,39.94565064157371
2173.5367,42.40907209594718
2175.0409,32.56651971865995
2176.5445,47.668049340870766
2178.0473,37.66371646807386
2179.5494,35.60357612908297
2181.0507,39.93768297607505
2182.5513,45.51609130519114
2184.0512,43.18885501319642
2185.5504,37.15602754169481
2187.0488,33.11766190040248
2188.5465,24.823810727475347
2190.0435,32.924526329892956
2191.5397,38.969860766397574
2193.0353,30.05986576648661
2194.5301,28.594592669959184
2196.0241,34.824092516016776
2197.5175,34.79841605791512
2199.0101,29.417613700669676
2200.502,29.281735501312255
2201.9931,35.040831222699126
2203.4835,27.59495033486951
2204.9733,29.7441419574551
2206.4622,28.588454934138213
2207.9505,24.227937811160245
2209.438,22.81263884887801
2210.9248,17.442606065369432
2212.4109,27.117887250586932
2213.8962,27.638530020057374
2215.3809,31.304581718129498
2216.8648,24.866089412766883
2218.3479,35.22309985888808
2219.8304,17.825659562750957
2221.3121,23.223814678382723
2222.7931,22.617611181554366
2224.2733,26.607094815799428
2225.7529,19.642311098475716
2227.2317,23.323305280870386
2228.7098,27.85012241784807
2230.1872,12.272807331041122
2231.6638,21.34140456358125
2233.1397,15.105958535872901
2234.6149,27.46651345490693
2236.0894,31.0231133766149
2237.5632,15.375802082263363
2239.0362,14.274623042888948
2240.5085,15.569619575769934
2241.9801,21.810834855438884
2243.4509,21.198311900733188
2244.921,13.032093512381266
2246.3904,10.76222227912956
2247.8591,7.788740659403629
2249.3271,12.011691004007616
2250.7943,14.431115585858379
2252.2608,7.397056557756628
2253.7266,8.109555928192776
2255.1917,10.018655631687238
2256.656,12.1743975216649
2258.1197,12.176823351364874
2259.5826,10.775974752282764
2261.0447,16.471893234146023
2262.5062,7.814620198922853
2263.9669,7.004196883862505
2265.4269,10.140664448068947
2266.8862,12.724063980604456
2268.3448,7.554436469124653
2269.8026,18.48182277404544
2271.2598,9.406263680238112
2272.7162,3.8777997877567714
2274.1719,11.996471602593033
2275.6268,23.312319591961
2277.0811,7.125384103109695
2278.5346,11.335705250165802
2279.9874,10.943323076002457
2281.4395,16.998277510136063
2282.8908,13.750608372649594
2284.3414,22.75035531364381
2285.7914,20.947557845713845
2287.2406,7.7422552539513845
2288.689,12.834486613973354
2290.1368,17.824290923974786
2291.5838,12.61170705380539
2293.0302,19.196773695072807
2294.4758,19.07952941326812
2295.9206,17.86001258191493
2297.3648,14.488261383742156
2298.8082,20.114313822878557
2300.251,13.238207758570866
2301.693,15.609980848923442
2303.1343,25.3296706196586
2304.5748,13.897314440399555
2306.0147,13.46294942747295
2307.4538,22.0266125582325
2308.8922,13.888340675402901
2310.3299,16.14817040144294
2311.7669,20.15613821992804
2313.2031,12.212280452952086
2314.6387,17.2166332210478
2316.0735,14.41923252262609
2317.5076,13.220114183931514
2318.941,4.869313887016801
2320.3737,8.666867181734005
2321.8056,19.662760973489185
2323.2369,14.006982081019942
2324.6674,13.89951712643699
2326.0972,15.690352591781107
2327.5263,22.37947482009838
2328.9547,17.916869997531762
2330.3823,26.502524086429958
2331.8092,18.886422869972876
2333.2355,24.01855186631633
2334.661,17.84889640475194
2336.0858,15.077441574386057
2337.5098,15.50417228583683
2338.9332,29.72907329894838
2340.3558,14.802129218523305
2341.7778,26.72332435207386
2343.199,19.692642859090824
2344.6195,26.210068631832655
2346.0393,24.27558536563174
2347.4583,28.139176493719674
2348.8767,22.70082520657286
2350.2943,26.060514413275655
2351.7113,32.06822679590414
2353.1275,31.873944775929772
2354.543,26.177650454142054
2355.9578,29.679325612591356
2357.3718,27.77895177155176
2358.7852,38.02651015450431
2360.1978,30.621981707141117
2361.6098,27.465346994889273
2363.021,29.706586276956273
2364.4315,31.1456795378964
2365.8413,33.582606465198864
2367.2504,33.017346434895785
2368.6587,31.199878487193587
2370.0664,20.080181332126017
2371.4733,29.80823336772812
2372.8795,27.034012791233295
2374.285,35.05749750179325
2375.6899,34.37866512821972
2377.0939,29.5974929487503
2378.4973,31.063957897836076
2379.9,28.478036613954373
2381.3019,23.389705424942576
2382.7032,28.998940373858204
2384.1037,27.35571726986177
2385.5035,22.310011632124315
2386.9027,27.46179870626031
2388.3011,20.911053514784726
2389.6987,29.6077508055954
2391.0957,19.75186511748052
2392.492,27.193370693151792
2393.8876,22.432241577801847
2395.2824,14.618451544689833
2396.6765,25.00197414275283
2398.07,27.232782774743782
2399.4627,33.46085059339589
2400.8547,26.986150479115167
2402.246,22.858654977699302
2403.6366,21.57833636508485
2405.0265,20.445166688622294
2406.4156,18.509117779878693
2407.8041,23.970161265969637
2409.1918,26.7782685889199
2410.5789,27.783410951052815
2411.9652,22.585559286909074
2413.3508,29.584684253195746
2414.7358,36.88075628076433
2416.12,35.173745504619774
2417.5035,29.61362169095935
2418.8863,25.500354254243575
2420.2684,36.283912312796815
2421.6497,36.51426472994012
2423.0304,31.49138000615585
2424.4104,28.715226276783824
2425.7896,32.735771362250375
2427.1682,33.95298279582971
2428.546,30.91682778343852
2429.9232,37.32727319146454
2431.2996,29.084285577126707
2432.6753,31.537831124372133
2434.0503,33.48787572630488
2435.4246,34.134384960651005
2436.7982,33.677324070257896
2438.1711,33.366657956628956
2439.5433,32.30235118449491
2440.9148,36.63436798491989
2442.2856,32.71267226594455
2443.6557,31.83722756926636
2445.025,31.457997109456073
2446.3937,29.67494378271283
2447.7617,33.98803017065586
2449.1289,37.947218558155214
2450.4955,40.15247089020113
2451.8613,37.00374873231152
2453.2265,39.85101324848006
2454.5909,32.54422523266345
2455.9546,36.48334508030791
2457.3177,43.76833286141817
2458.68,42.29914828116557
2460.0416,46.175750607038424
2461.4025,46.94809868353332
2462.7627,41.466150893389965
2464.1222,45.629865149867385
2465.4811,45.28919895156338
2466.8392,50.79410934077737
2468.1966,44.89455290691666
2469.5533,61.690485731447666
2470.9093,49.831863446891646
2472.2645,49.368641068865145
2473.6191,54.10077311466591
2474.973,51.77821360790557
2476.3262,58.850916031188376
2477.6787,57.168833349336296
2479.0305,56.73191793866249
2480.3816,54.190121603791965
2481.7319,58.943395582030575
2483.0816,54.94169056878343
2484.4306,58.48495667002129
2485.7789,59.47314344229869
2487.1264,56.20619985732026
2488.4733,54.63407429206006
2489.8195,59.556714561430056
2491.165,53.274067934001835
2492.5097,47.386081082779924
2493.8538,54.24270014802846
2495.1972,50.24387079615076
2496.5398,50.18953815112371
2497.8818,60.179646834485595
2499.2231,52.0641409658794
2500.5637,58.14296406315219
2501.9035,52.066059123509774
2503.2427,48.18336856272873
2504.5812,59.69483427592559
2505.919,57.350397676383636
2507.256,61.949999580437805
2508.5924,60.24358023091912
2509.9281,60.981079251158974
2511.2631,54.562435662052906
2512.5974,65.33758787468588
2513.9309,60.60647375451862
2515.2638,54.11903051363629
2516.596,69.12519475805942
2517.9275,64.32490255261837
2519.2583,62.91808927089136
2520.5884,61.70468964320793
2521.9178,62.88463777071678
2523.2465,60.25786713752001
2524.5745,62.07431059887364
2525.9018,59.93390040745544
2527.2284,66.68656819520021
2528.5543,68.1322449947042
2529.8796,72.47086117169817
2531.2041,68.20234641059062
2532.5279,65.72662967108192
2533.851,63.993639230849055
2535.1735,73.80330271030277
2536.4952,69.30554708991758
2537.8163,65.20029861213521
2539.1366,65.33748282634213
2540.4562,71.41702462992191
2541.7752,70.53884826688363
2543.0935,73.90287726706606
2544.411,70.80903445492004
2545.7279,72.65724191586776
2547.0441,69.54742102724128
2548.3596,73.02949243980026
2549.6744,77.75337610883025
2550.9885,72.71899125932231
2552.3019,72.1262563387337
2553.6146,75.27508906733198
2554.9266,67.9654064441225
2556.2379,72.29712471535959
2557.5485,71.22015944764388
2558.8585,69.88442548460466
2560.1677,75.18983695766991
2561.4762,74.48630729942369
2562.7841,75.62374919055179
2564.0913,77.90207456687727
2565.3977,77.32119460798577
2566.7035,73.3310197144425
2568.0086,71.98145951360084
2569.313,77.82242289950409
2570.6167,73.2538180463813
2571.9197,70.37555235023746
2573.222,73.93753247453958
2574.5236,81.5896643789996
2575.8246,83.9318532839539
2577.1248,82.76400359384269
2578.4244,84.18601887378759
2579.7232,86.39780186127035
2581.0214,84.84925445191266
2582.3189,97.14027767735848
2583.6157,93.32077172075941
2584.9118,89.84063579386441
2586.2072,94.29976817521458
2587.5019,105.39806624494497
2588.7959,100.58542644019303
2590.0893,100.46174414411581
2591.3819,102.97691373401642
2592.6739,108.78082858258074
2593.9652,102.7733810327257
2595.2557,114.90446233956021
2596.5456,115.92396273045944
2597.8348,118.98177128375386
2599.1234,119.07777591853477
2600.4112,122.26186336407568
2601.6983,117.38391915887274
2602.9848,123.74382761880355
2604.2705,116.84147188590686
2605.5556,127.82673386478348
2606.84,124.54949429161934
2608.1237,121.05963262433335
2609.4067,118.9570270753494
2610.689,123.74155464649533
2611.9707,129.31309115002887
2613.2516,122.77151116079244
2614.5319,117.31668796049746
2615.8115,118.99849360314079
2617.0903,117.36679896955224
2618.3685,119.92147375057698
2619.6461,121.86238646339217
2620.9229,127.13940442596027
2622.199,123.75239373762008
2623.4745,119.50121922631666
2624.7493,119.4857444824712
2626.0234,117.655831901493
2627.2968,122.41134268393381
2628.5695,129.20213685378752
2629.8415,128.6280732109346
2631.1128,129.88900926323436
2632.3835,136.4348012322655
2633.6535,131.11530404071698
2634.9228,134.53037124692986
2636.1914,127.97985509809223
2637.4593,127.51360649608893
2638.7265,129.23147506300631
2639.9931,132.48330914579492
2641.259,130.66895579909078
2642.5242,131.58826075269718
2643.7887,123.4410684297278
2645.0525,125.92722193741429
2646.3156,129.8965631485774
2647.5781,128.24893267676595
2648.8398,127.93416983656317
2650.1009,124.10211266006314
2651.3613,120.8025979000185
2652.6211,123.83546106816067
2653.8801,122.95053646819542
2655.1385,120.29765716547371
2656.3961,124.37665499584142
2657.6531,125.78736059216789
2658.9094,129.57960334355607
2660.1651,129.30321138123531
2661.42,126.20801154063912
2662.6743,126.54382936416903
2663.9279,130.86048913214648
2665.1808,135.1578138594552
2666.433,138.33562525237386
2667.6846,136.04374366560353
2668.9354,137.93198807048913
2670.1856,136.60017607793816
2671.4351,141.64812391953853
2672.6839,150.92564646087646
2673.9321,146.58255715105707
2675.1795,156.11866792992913
2676.4263,161.43378927151616
2677.6724,153.07773008865536
2678.9179,156.900297679846
2680.1626,164.65129781281018
2681.4067,156.33053468626707
2682.6501,164.93781085242273
2683.8928,155.1729273001783
2685.1348,154.83568336905688
2686.3761,145.02587684685244
2687.6168,151.1933039730024
2688.8568,140.53775953668537
2690.0961,149.2090368151471
2691.3348,139.156927680256
2692.5727,137.3812225117901
2693.81,135.1817102979585
2695.0466,133.7081786531582
2696.2826,125.56041383996944
2697.5178,128.98820078389105
2698.7524,132.84132315481764
2699.9863,136.16956333276204
2701.2195,136.522702369324
2702.452,135.00051995440793
2703.6839,148.20279441269105
2704.9151,150.62930271884562
2706.1456,148.37982036551603
2707.3755,159.80412133905378
2708.6046,163.75197814201232
2709.8331,170.12316167890395
2711.0609,176.61744121672126
2712.2881,183.08458432122575
2713.5145,192.77435679200437
2714.7403,205.63652259779855
2715.9654,216.12084377960593
2717.1899,226.47708032205918
2718.4136,240.5049900485826
2719.6367,243.60432851783008
2720.8591,266.97484888340546
2722.0809,269.81630186286975
2723.3019,288.6784355040354
2724.5223,297.96099515655226
2725.7421,296.1637232832857
2726.9611,288.6363593674916
2728.1795,286.1786399307886
2729.3972,290.3902986084322
2730.6142,265.0710661738915
2731.8306,262.520670496733
2733.0462,243.08883679581265
2734.2612,226.42528766478006
2735.4756,205.97974326639633
2736.6892,193.8519214991702
2737.9022,169.59153820181285
2739.1145,162.5483072745165
2740.3262,147.871940921558
2741.5372,136.76214972173136
2742.7475,124.16864277511138
2743.9571,111.34112781415138
2745.1661,93.17931132961871
2746.3744,92.48289869886929
2747.582,78.80159436746624
2748.7889,63.985101856143615
2749.9952,56.433123897619964
2751.2008,57.09536258476277
2752.4057,56.771519446108414
2753.61,43.2612954392398
2754.8136,41.01439095402486
2756.0165,36.48050594771877
2757.2188,38.85933996743273
2758.4204,35.15059219547328
2759.6213,30.803961425553496
2760.8215,35.36914609988071
2762.0211,28.495844352622782
2763.22,28.583753964256402
2764.4182,26.982572430300195
2765.6158,18.191996960435517
2766.8127,21.811724494518046
2768.009,5.141451790483984
2769.2045,6.630875388152219
2770.3994,-0.12030822407251662
2771.5936,-5.562402624094204
2772.7872,-2.845710187937584
2773.9801,-15.920477723225645
2775.1723,-18.18692360893681
2776.3639,-14.495107178477156
2777.5548,-14.44490607788623
2778.745,-16.086053147083305
2779.9346,-15.718136921376072
2781.1235,-16.140585236401535
2782.3117,-20.852668903609185
2783.4992,-18.75349749000202
2784.6861,-8.741972244420879
2785.8723,-2.5668070682668827
2787.0579,0.8233714693614615
2788.2428,-0.07003755823217261
2789.427,13.054364914022585
2790.6106,12.797977951896826
2791.7935,26.212200490618216
2792.9757,37.69843133743467
2794.1573,51.25806903747281
2795.3382,58.04251175887492
2796.5184,67.70315715720295
2797.698,88.59140230759397
2798.8769,102.95864360815375
2800.0551,116.50627657107418
2801.2327,133.985695678961
2802.4096,158.5982942493576
2803.5859,168.09546425995023
2804.7615,197.77859610244292
2805.9364,212.299078487585
2807.1106,231.9582981483402
2808.2842,267.9076396946811
2809.4572,296.6984854169983
2810.6294,342.98221492660565
2811.801,361.61020486783286
2812.972,416.48382845518773
2814.1423,457.8044552870763
2815.3119,502.8234507970665
2816.4808,549.7421758406819
2817.6491,590.9119862452117
2818.8167,642.4342323405247
2819.9837,694.9102585473688
2821.15,735.0414028621508
2822.3157,789.3789963321752
2823.4807,819.924362654332
2824.645,856.8288176317219
2825.8086,892.4436688682028
2826.9716,931.1202153993436
2828.134,966.1597473362774
2829.2957,993.7635454789356
2830.4567,1022.9828809656518
2831.617,1047.869014997125
2832.7767,1052.623198544226
2833.9358,1045.096672099134
2835.0941,1037.7906656277985
2836.2519,1011.406398645201
2837.4089,1004.1950802884172
2838.5653,1005.4579095804585
2839.7211,989.4460755023857
2840.8761,1000.1607569806815
2842.0306,1025.2531230473678
2843.1843,1064.0243327328594
2844.3374,1105.82553481504
2845.4899,1164.8078674315507
2846.6417,1228.5724576617768
2847.7928,1307.170420937026
2848.9433,1380.2528604028817
2850.0931,1475.2208661332234
2851.2422,1553.1255143994017
2852.3907,1622.3678667205604
2853.5385,1687.148969084586
2854.6857,1745.1698512556902
2855.8323,1804.2815261265912
2856.9781,1840.6349891383124
2858.1233,1892.3812176890594
2859.2679,1928.7711707706906
2860.4118,1989.1557884512508
2861.555,2008.5859915110746
2862.6976,2044.1626808389383
2863.8395,2086.13673723776
2864.9808,2098.40902106883
2866.1214,2107.1803718320725
2867.2614,2130.351608043321
2868.4007,2143.173527146607
2869.5393,2151.1969052824443
2870.6773,2147.622497159613
2871.8146,2176.1510359749245
2872.9513,2175.6832334489645
2874.0874,2188.0697795408105
2875.2227,2164.1613424527054
2876.3574,2160.0585685061965
2877.4915,2121.312082381217
2878.6249,2083.2724871571145
2879.7577,2073.0403647001167
2880.8898,2048.8162760437262
2882.0212,2029.0507614910439
2883.152,2017.9943408570052
2884.2821,2016.8975136660397
2885.4116,1994.6107592626345
2886.5405,1994.0845368223013
2887.6686,2012.569285574445
2888.7962,2024.6154248076245
2889.923,2025.3733536847067
2891.0493,2028.2434511224046
2892.1748,2041.9260757836983
2893.2997,2067.2715660491335
2894.424,2083.930239879996
2895.5476,2088.302394564856
2896.6706,2112.8883065529812
2897.7929,2131.6382314106163
2898.9145,2188.9524035751224
2900.0355,2210.781036167479
2901.1559,2242.524320419143
2902.2756,2284.5824254537583
2903.3946,2318.455497969728
2904.513,2335.7436618196307
2905.6308,2360.7470176714896
2906.7479,2379.865642835892
2907.8643,2400.949591015954
2908.9801,2431.8488921161384
2910.0953,2436.21355203141
2911.2098,2436.593552338247
2912.3236,2434.0888502509906
2913.4368,2431.099378618048
2914.5494,2405.175045946938
2915.6613,2373.5657364341846
2916.7725,2349.121310224563
2917.8831,2333.8916037271892
2918.9931,2306.276429859969
2920.1024,2274.47557820189
2921.211,2250.638815269177
2922.319,2233.6658848332995
2923.4264,2216.406508159339
2924.5331,2201.760384175718
2925.6391,2190.477189646794
2926.7445,2184.606579319323
2927.8493,2174.4481860352853
2928.9534,2176.3516207906
2930.0569,2174.916472836702
2931.1597,2157.492309661511
2932.2619,2147.328677003782
2933.3634,2135.125099027348
2934.4643,2127.7310784227534
2935.5645,2117.9460965292938
2936.6641,2078.7196134089536
2937.763,2041.8010679442555
2938.8613,1981.589878230529
2939.959,1937.4354419450897
2941.056,1852.4871369493574
2942.1523,1779.1443217303965
2943.248,1692.8063362504001
2944.3431,1585.0225026801186
2945.4375,1485.3921262622398
2946.5313,1384.1144963892252
2947.6244,1277.6888875996176
2948.7169,1177.714560590814
2949.8087,1063.7407632833226
2950.8999,988.9667318205076
2951.9904,911.5916917083247
2953.0803,832.2648585630628
2954.1696,778.3354388850943
2955.2582,730.6026308521434
2956.3462,684.2156248585806
2957.4335,643.6236039927493
2958.5202,606.9257445008374
2959.6062,588.5212161927972
2960.6916,572.4091828093237
2961.7764,554.4388022059003
2962.8605,545.759226513918
2963.9439,529.9196023203801
2965.0267,523.6190707546991
2966.1089,517.9067676470905
2967.1905,512.4818235915802
2968.2714,510.79336400312627
2969.3516,513.090509171869
2970.4312,517.7723742800154
2971.5102,533.9880693788675
2972.5885,533.1866993420039
2973.6662,534.8673637031231
2974.7432,541.8291566640568
2975.8196,525.3211670779629
2976.8954,523.1424783797086
2977.9705,518.6421687509493
2979.045,500.2693111419162
2980.1188,501.2229733164187
2981.192,472.5022180355735
2982.2645,457.4061030482675
2983.3364,427.8836813783662
2984.4077,406.2840014756739
2985.4783,382.30610751115887
2986.5483,355.29903959294927
2987.6177,319.5118340061131
2988.6864,296.1935234827277
2989.7545,262.6931375597527
2990.8219,245.3097028122125
2991.8887,203.1422431882006
2992.9548,174.689780182714
2994.0204,149.4513332593271
2995.0852,123.02592013471701
2996.1495,106.31255703104785
2997.2131,89.36025894022481
2998.276,72.01803979102766
2999.3383,55.78491261863428
3000.4,38.25988973804226
3001.4611,29.841982906400403
3002.5215,17.23020349825879
3003.5812,13.573562589748008
3004.6404,0.6710710846967345
3005.6989,-0.0282602488019279
3006.7567,-11.725420649365219
3007.8139,-6.271399355327617
3008.8705,-12.267068468071443
3009.9264,-13.013237437699786
3010.9818,-13.960593166302033
3012.0364,-11.609692553725665
3013.0905,-0.610953033492649
3014.1439,-2.6646760582967204
3015.1966,1.928843022589092
3016.2487,-4.330664519994627
3017.3002,2.656532565504733
3018.3511,7.8402087939778085
3019.4013,8.220138653750155
3020.4509,18.69609655474528
3021.4998,10.467856824685441
3022.5481,29.885193604331903
3023.5958,27.347880929767882
3024.6428,34.85569253822496
3025.6892,40.258401893455925
3026.735,45.35578211065666
3027.7802,51.54760590243984
3028.8247,57.53364552785996
3029.8685,71.51367273049607
3030.9118,75.13745867859069
3031.9544,86.80477382525027
3032.9963,99.5153878722067
3034.0376,97.61906965314438
3035.0783,108.36558700659407
3036.1184,116.80470679489605
3037.1578,124.98619479673471
3038.1966,135.50981562274768
3039.2348,132.67533263371064
3040.2723,139.73250783530136
3041.3092,144.13110190644448
3042.3455,141.07087412873966
3043.3811,141.60158234247575
3044.4161,147.0729829772328
3045.4505,133.88483104657547
3046.4842,137.73688009333847
3047.5173,132.1788823215084
3048.5498,130.51058855770304
3049.5816,122.43174830675162
3050.6128,124.59210976837727
3051.6434,127.69141991798602
3052.6734,122.92942448506267
3053.7027,117.8058679221781
3054.7314,118.37049345260891
3055.7594,115.12304312157318
3056.7868,117.46325779058412
3057.8136,107.69087716992487
3058.8398,104.40563979524586
3059.8653,107.757283125289
3060.8902,104.39554357473989
3061.9145,101.12015648071147
3062.9381,100.93085613636131
3063.9612,98.92737582364566
3064.9835,95.50944781521213
3066.0053,97.37680339443489
3067.0264,92.07917288959368
3068.0469,84.41628565520028
3069.0668,83.38787012497488
3070.086,74.84365388847482
3071.1046,72.38336370137904
3072.1226,68.40672557093
3073.1399,61.01346478053665
3074.1567,56.303305929540755
3075.1727,48.17597300714954
3076.1882,47.13118943953728
3077.203,33.01867817111855
3078.2173,26.888161674996184
3079.2308,27.539362094086243
3080.2438,22.372001302423342
3081.2561,15.985800898648563
3082.2678,17.03048225768302
3083.2789,10.705766594589875
3084.2893,15.511374954127604
3085.2991,1.6970282739970344
3086.3083,7.212447336785317
3087.3169,3.007352908109368
3088.3248,-0.8185343185382976
3089.3321,-4.015493679738796
3090.3388,-0.38379633491544496
3091.3449,-8.473673328709793
3092.3503,-4.4853518716380165
3093.3551,-3.6689745222197416
3094.3593,-3.924639030309578
3095.3629,-4.602406492706734
3096.3658,-2.9522987990666536
3097.3681,-3.374291861003968
3098.3698,-1.1683320966683084
3099.3708,-0.6843322150338054
3100.3713,-2.072193253436822
3101.3711,-1.6318094127350378
3102.3702,-1.6630541925756575
3103.3688,-1.7157847908298294
3104.3667,-0.5398417914574054
3105.364,6.464951362271734
3106.3607,2.6487766201071565
3107.3568,4.4618158671488715
3108.3522,6.55425096200922
3109.347,7.7762637186824435
3110.3412,10.878035885620307
3111.3348,9.259749133512074
3112.3277,15.171585024266719
3113.32,11.513725027195719
3114.3117,13.786350459894848
3115.3028,16.189642524822602
3116.2932,18.07378228657403
3117.2831,24.338950647847852
3118.2723,18.085328330605066
3119.2608,17.513095813417152
3120.2488,26.27243339400239
3121.2361,23.71352119494813
3122.2229,20.786539076117478
3123.209,27.89166666023833
3124.1944,23.92908336217313
3125.1793,29.148968317867713
3126.1635,30.001500423976907
3127.1471,33.58685828566593
3128.1301,30.955220208085038
3129.1125,35.156764160515976
3130.0942,36.69166780268825
3131.0753,34.96010844276381
3132.0558,44.162263021987876
3133.0357,38.498308132004645
3134.015,39.968419922835665
3134.9936,40.022774159519415
3135.9716,39.56154620741019
3136.949,41.634911031634566
3137.9258,44.143043201703684
3138.902,45.68611687077957
3139.8775,47.514305750593856
3140.8524,46.327783096016965
3141.8267,46.17672168677633
3142.8004,47.61129383932151
3143.7735,52.63167140833489
3144.7459,53.63802577238592
3145.7178,50.88052778372737
3146.689,52.10934775823171
3147.6596,54.27465550296619
3148.6295,55.57662030390459
3149.5989,57.26541090427415
3150.5676,57.84119549153589
3151.5357,56.60414168049676
3152.5032,63.054416507551764
3153.4701,61.84218644305447
3154.4364,60.46761732681429
3155.402,66.43087438021881
3156.367,62.932122219979405
3157.3315,68.57152479849876
3158.2952,66.09924543885828
3159.2584,67.46544677842418
3160.221,69.6202907935702
3161.1829,70.41393878601568
3162.1442,71.84655136127691
3163.105,70.51828842073091
3164.065,70.37930914728915
3165.0245,75.72977201868021
3165.9834,76.16983480883957
3166.9416,77.34965453440499
3167.8993,77.76938745031586
3168.8563,79.82918903801504
3169.8127,78.7292140012515
3170.7684,79.31961624548228
3171.7236,79.15054888887232
3172.6782,82.97216425639034
3173.6321,83.68461388149959
3174.5854,87.13804846794162
3175.5381,88.48261788261189
3176.4902,90.86847112102534
3177.4417,90.14575629387069
3178.3926,94.96462060315199
3179.3428,92.72521034941568
3180.2924,90.52767088356197
3181.2415,92.87214662923901
3182.1899,96.20878110481816
3183.1377,95.33771689994933
3184.0848,98.7590956421946
3185.0314,99.12305800573886
3185.9773,102.27974367717604
3186.9227,101.72929135186948
3187.8674,102.32183870238507
3188.8115,104.45752238399578
3189.755,103.48647802875612
3190.6979,103.80884022414537
3191.6402,104.87474252277798
3192.5818,104.13431743917997
3193.5229,110.28769643912992
3194.4633,112.8850099470632
3195.4031,108.77638728453819
3196.3423,108.56195664426315
3197.2809,109.74184513118246
3198.2189,113.96617876462085
3199.1563,117.53508246648461
3200.0931,114.69868001901824
3201.0292,115.95709402911538
3201.9648,117.2104459566828
3202.8997,117.45885610205627
3203.834,118.80244359346712
3204.7677,122.541326384558
3205.7008,121.07562124094721
3206.6333,123.75544370283963
3207.5652,125.18090809968399
3208.4964,127.35212752337458
3209.4271,126.16921381399658
3210.3571,127.23227753811375
3211.2865,128.49142800059784
3212.2154,127.39677323399765
3213.1436,132.29841998594776
3214.0712,130.39647373011496
3214.9982,132.94103861718182
3215.9246,132.58221749386604
3216.8503,132.62011187747504
3217.7755,134.95482195949387
3218.7001,134.3864466052066
3219.624,138.46508333034888
3220.5473,139.04082830679187
3221.4701,137.06377632175594
3222.3922,142.63402077205296
3223.3137,142.50165368385723
3224.2346,141.8667656570027
3225.1549,143.7794458663067
3226.0746,144.93978206791888
3226.9937,149.04786058019445
3227.9121,144.7537662720907
3228.83,149.85758252208626
3229.7473,147.25939126112206
3230.6639,148.90927292156317
3231.5799,149.7073064631806
3232.4954,151.1035693566527
3233.4102,153.59813757558464
3234.3244,155.74108558254582
3235.238,154.5324863041242
3236.151,155.97241110949693
3237.0634,158.61092982251614
3237.9752,161.04811070730997
3238.8864,157.9340204418971
3239.797,157.21872409381507
3240.7069,160.85228515126113
3241.6163,160.1847655302452
3242.5251,165.71622553825415
3243.4332,164.59672388092724
3244.3408,166.87631760674125
3245.2477,169.50506211820573
3246.154,168.9830111490669
3247.0598,170.66021673802047
3247.9649,169.73672923393175
3248.8694,172.71259727906406
3249.7733,172.73786781831322
3250.6766,170.06258606944905
3251.5793,173.4367955228627
3252.4814,176.31053796831924
3253.3829,175.6838534612159
3254.2838,176.05678029384435
3255.1841,178.5793550016578
3256.0838,176.8016123595415
3256.9829,178.82358535658722
3257.8814,176.39530521387044
3258.7792,176.91680136423062
3259.6765,180.38810147655423
3260.5731,180.4592314505596
3261.4692,181.33021538208405
3262.3647,180.90107556237245
3263.2595,183.02183246936747
3264.1538,182.84250477200095
3265.0474,183.51310930898643
3265.9404,187.48366109061237
3266.8329,185.30417329203607
3267.7247,190.02465721357822
3268.616,190.34512230251764
3269.5066,187.21557610588653
3270.3966,190.08602426726557
3271.286,187.0564705580799
