RamanShift,CorrectedData
30.1047,153.86786363052968
32.3739,141.96715456731232
34.6426,129.5664439654163
36.9109,118.41572886649145
39.1787,106.56500501652309
41.4461,95.8642669773392
43.7131,87.0135082451177
45.9796,73.31272135739377
48.2456,62.96189798156747
50.5112,54.96102905191164
52.7764,38.71010487308011
55.0411,32.55911520011643
57.3054,18.40804940096306
59.5692,8.206896517971307
61.8326,-1.694354590588004
64.0955,-13.145715148513016
66.3579,-22.747179452999525
68.6199,-30.798610475549008
70.8815,-35.74964394334022
73.1426,-35.54960790543328
75.4032,-22.79747327194537
77.6634,26.008144187589238
79.9231,156.01885645039425
82.1824,438.13627523361197
84.4412,934.112010694196
86.6995,1598.7476686077378
88.9574,2229.894845408708
91.2148,2694.3051215441014
93.4717,2903.880055161964
95.7282,2952.62117746729
97.9842,2952.779990626275
100.2398,2904.3579672789
102.4949,2864.00655053735
104.7495,2818.227154470227
107.0036,2790.3211645060696
109.2573,2735.3399378911436
111.5105,2657.734803968505
113.7632,2583.9570647278088
116.0154,2510.107995581363
118.2672,2441.5888461019053
120.5185,2348.750840761092
122.7693,2283.895179614694
125.0197,2215.423039230971
127.2696,2119.5855733392327
129.519,2083.633913514558
131.7679,2052.7191701361708
134.0163,2038.5924327469554
136.2642,2009.9547703626047
138.5117,2007.607231612887
140.7587,1976.1008450280235
143.0052,1914.4366190621631
145.2512,1881.965542408447
147.4967,1817.738584615649
149.7417,1783.9566964128894
151.9863,1738.270810351902
154.2304,1716.781841144853
156.4739,1694.4906861212025
158.717,1687.5982254425908
160.9596,1694.455322325753
163.2017,1679.1128231114412
165.4433,1697.971557195854
167.6844,1679.4823371840635
169.925,1651.595958701425
172.1651,1594.0632005784714
174.4047,1540.3848251297763
176.6439,1489.8115787292813
178.8825,1473.2941923470796
181.1206,1446.7833820551498
183.3582,1419.7298491925278
185.5954,1397.0342806304166
187.832,1393.1473490427202
190.0681,1387.3697131330007
192.3037,1376.0020176733465
194.5388,1346.7448935621487
196.7734,1353.6489579377794
199.0075,1340.6148144711606
201.2411,1352.893053296726
203.4742,1361.5842511427618
205.7068,1355.8389712086237
207.9389,1366.857763077826
210.1704,1362.5911627754926
212.4015,1350.6896926581708
214.632,1333.6038614564973
216.862,1334.2841643942106
219.0915,1334.0810833590117
221.3205,1325.04508689576
223.549,1315.2766302085054
225.777,1298.126155250845
228.0044,1299.9440908236124
230.2314,1287.5808527463792
232.4578,1260.7868438392761
234.6837,1235.312454046627
236.909,1222.1580607048859
239.1339,1186.1740287973848
241.3582,1174.0607110858734
243.582,1165.3684484703629
245.8053,1151.897570110257
248.0281,1147.098393511275
250.2503,1149.8712246601617
252.472,1121.0163580726776
254.6932,1144.8840767658717
256.9139,1118.3746525466292
259.134,1128.788345772995
261.3536,1130.7254056192683
263.5727,1133.9860699718638
265.7912,1134.4205654099446
268.0092,1177.4291071728135
270.2267,1208.8118991555657
272.4436,1232.7191334790086
274.6601,1237.0509901758305
276.8759,1238.707636951527
279.0913,1256.3392291410883
281.3061,1242.7459096924247
283.5204,1268.027808990059
285.7341,1258.6850449910526
287.9473,1267.81772297219
290.16,1265.125935623406
292.3721,1230.5597629564568
294.5837,1193.4692723318415
296.7947,1160.7045188044601
299.0052,1125.8155454945218
301.2152,1102.1523839151905
303.4246,1101.1150543214758
305.6334,1075.7035659468647
307.8418,1061.1679170136938
310.0495,1027.3080949872644
312.2568,994.6740767211986
314.4635,955.3158287960391
316.6696,914.1833078455875
318.8752,862.4764609504871
321.0802,844.7952260495495
323.2847,832.3895324568216
325.4887,817.3593010383988
327.692,820.6544443364814
329.8949,851.474866719677
332.0972,860.720464350049
334.2989,885.1911248749125
336.5001,881.9367273343782
338.7007,863.1071419166465
340.9008,813.3522299905512
343.1003,760.6218442938541
345.2992,726.1158294307959
347.4976,674.9340223993993
349.6955,656.8262529365288
351.8927,635.3423440297097
354.0895,608.3321120982046
356.2856,592.8953672078537
358.4812,571.8819133411762
360.6763,564.8915485517384
362.8707,550.8740651742883
365.0646,546.279249894659
367.258,543.1568838899441
369.4508,539.7567428744455
371.643,544.9285971308964
373.8346,575.122211544463
376.0257,588.187345551027
378.2162,606.1737528352471
380.4062,614.3311811999106
382.5956,586.8093723860668
384.7844,557.9080619914541
386.9726,507.52697974571765
389.1603,491.2658497994223
391.3474,461.12439122786304
393.5339,462.75231819367787
395.7199,460.9493402482599
397.9052,466.16516231548076
400.09,496.0994847097186
402.2743,517.6020030837003
404.4579,536.1224081291589
406.641,567.460385361808
408.8235,586.8156149361384
411.0054,639.8377713320369
413.1868,690.0765231612354
415.3675,739.131532637088
417.5477,761.052455072185
419.7273,715.7889383878016
421.9064,609.9906228946897
424.0848,541.2571417457114
426.2627,485.93812199382387
428.4399,445.2831852794136
430.6166,389.6919483834861
432.7928,364.5640236342156
434.9683,317.4490194628572
437.1432,292.9965406550273
439.3176,278.7061888218516
441.4914,255.27756264449113
443.6645,264.5602580170455
445.8371,250.15386828084002
448.0091,255.2579841315969
450.1806,246.07219376350122
452.3514,227.64608281815845
454.5216,229.1292344764529
456.6913,212.57122964280757
458.8603,212.42164693035465
461.0288,219.4300628265139
463.1967,206.74605169448955
465.3639,202.46918570318576
467.5306,193.4490349540472
469.6967,187.73516752382716
471.8622,183.27714955478905
474.0271,186.97454531184508
476.1914,169.82691722713662
478.3551,175.43382586306097
480.5182,155.8948300837476
482.6807,164.50948699898754
484.8426,179.97735215962553
487.0039,200.5979794714101
489.1647,234.82092104031904
491.3248,277.69572696634987
493.4843,284.3719450012911
495.6432,276.69912011997576
497.8015,244.62679445351637
499.9592,216.85450736603502
502.1163,175.23179577538644
504.2728,144.7581944308813
506.4287,135.1832363295125
508.5839,105.75645302069142
510.7386,104.57737470199731
512.8927,101.99553051344674
515.0461,107.06044854928268
517.199,112.57165588379394
519.3512,132.37867852066506
521.5029,189.58104133786492
523.6539,239.22826788957673
525.8043,249.66987983417334
527.9541,202.0553964377466
530.1033,146.5843344696891
532.2519,123.15620867884081
534.3999,97.72053234819805
536.5472,100.62681752919661
538.694,85.27457529606681
540.8401,94.21331571677251
542.9856,101.9425480065322
545.1305,122.56178043843215
547.2748,137.62052026613378
549.4185,137.4182735176821
551.5615,136.90454484491738
553.704,151.42883752549733
555.8458,150.64065346803477
557.987,166.98949306685518
560.1276,179.8748552098773
562.2675,236.24623711512686
564.4069,289.5531342018803
566.5456,321.09503952695263
568.6837,300.07144325162835
570.8212,250.53183232624156
572.958,190.075690700412
575.0942,166.0024998184415
577.2299,142.06173922387507
579.3648,101.40288680023355
581.4992,81.07541901042123
583.6329,83.82881130331407
585.766,110.41253831703466
587.8985,135.9260738514181
590.0304,168.71889060217518
592.1616,197.6404599057555
594.2922,204.49025141142124
596.4222,188.3677327920309
598.5515,130.72236967553954
600.6802,86.65362580622696
602.8083,59.56096362114931
604.9358,44.893844690827336
607.0626,44.101729990172316
609.1888,43.384080045157816
611.3144,60.04035494074196
613.4393,92.52001432804218
615.5636,127.2725172577725
617.6873,164.2973218554473
619.8103,191.94388497385603
621.9327,198.61166182281545
624.0544,187.20010569270403
626.1756,129.20866788778358
628.2961,87.73679784031424
630.4159,70.63394369047
632.5351,77.1995527010572
634.6537,58.68307142854246
636.7716,58.1339456573985
638.8889,63.751620585266664
641.0056,66.38554082845076
643.1216,70.73515036573735
645.237,88.49989251205852
647.3518,74.1292098749966
649.4659,57.672544177134796
651.5793,35.579336399765
653.6922,18.899026947455013
655.8043,26.331055868978865
657.9159,12.724863024121532
660.0268,7.679888009356773
662.137,5.795570293911169
664.2466,4.971272624929043
666.3556,8.956299851806307
668.4639,14.249907160926114
670.5716,1.6013496491079877
672.6786,1.609882270673097
674.785,-11.775256017541778
676.8907,-19.454842341423728
678.9958,-14.779536192053683
681.1002,-2.049802706637365
683.204,-0.7659593748148836
685.3072,-2.8283032086981166
687.4097,4.362876431535142
689.5115,-5.342681559544189
691.6127,1.3047616690062114
693.7132,-7.245001658482579
695.8131,-17.69219235225023
697.9123,-2.3369588449702405
700.0109,4.1207271756863975
702.1089,4.830917368265091
704.2061,16.7936633501065
706.3028,48.259016690241424
708.3987,52.52702878976561
710.4941,65.39775056718486
712.5887,79.82123241573595
714.6827,77.24752407467713
716.7761,74.97667448505626
718.8688,68.00873181544557
720.9608,67.84374348465303
723.0522,77.28175623139896
725.1429,83.37281611596677
727.233,108.0169684258226
729.3224,161.61425761470468
731.4112,195.66472705618207
733.4993,210.01841850768142
735.5867,206.52537176998226
737.6735,157.03562454368148
739.7596,114.29921246412209
741.845,94.91616959629141
743.9298,92.18652886218524
746.014,117.71032223463817
748.0974,122.03758076462032
750.1802,131.71833432599806
752.2624,120.45261157226332
754.3439,96.3904398397242
756.4247,81.33184526016407
758.5048,91.5268530014614
760.5843,92.72548741817764
762.6631,109.22777194960577
764.7413,162.8337291077844
766.8188,200.9433803124748
768.8956,253.10674535510157
770.9718,300.3238420176558
773.0473,309.49468555106137
775.1221,274.31928820300527
777.1962,261.2976591262268
779.2697,305.32980473027465
781.3426,371.61572881172106
783.4147,432.7554321138409
785.4862,433.1489116637522
787.557,390.9461601610203
789.6271,290.8471659737211
791.6966,205.9519135604694
793.7654,125.46038447140927
795.8335,81.42255819716593
797.901,55.38841297376189
799.9678,57.20792622299405
802.0339,56.931074812775705
804.0993,65.50783503894195
806.1641,66.6881826280171
808.2282,50.6720926514472
810.2916,30.40953951379788
812.3544,26.450497112913126
814.4164,21.844939042542364
816.4778,27.342838631931045
818.5385,35.49416899187486
820.5986,63.59890295974219
822.658,98.75701301795971
824.7166,147.86847101296507
826.7747,206.4332478036265
828.832,265.151312770128
830.8886,312.2226332283217
832.9446,325.39717384254686
834.9999,325.57489615491727
837.0545,275.25575845357525
839.1085,209.28971577091352
841.1618,149.826720386769
843.2143,103.61672248808122
845.2662,87.25967076352322
847.3175,86.20551286560158
849.368,65.65419557422615
851.4179,71.30566480725247
853.467,79.50986582599376
855.5155,83.11674317870711
857.5633,73.17624061855145
859.6105,67.23830106751893
861.6569,81.05286671583917
863.7027,64.96987908135952
865.7478,62.18927887139887
867.7922,42.41100614357822
869.8359,41.28500033362627
871.8789,45.41120045316234
873.9212,44.98954510095575
875.9629,46.31997242166483
878.0039,46.10242011005187
880.0441,71.28682539768079
882.0837,81.42312505509142
884.1226,99.61125513995557
886.1609,123.95115089571368
888.1984,162.84274656969444
890.2352,189.53597516971615
892.2714,215.48076807516952
894.3069,194.97705477008685
896.3416,157.72476258369238
898.3757,127.22381689544068
900.4091,109.17414150753893
902.4418,109.62565894995669
904.4739,132.27829066092227
906.5052,146.88195698240793
908.5358,148.436576933604
910.5658,136.79206806488025
912.595,114.04834644224218
914.6236,81.45532676377377
916.6515,70.96292258707751
918.6786,56.171046655201735
920.7051,52.129611001567014
922.7309,45.63852709788364
924.756,37.697705894565956
926.7804,46.907057885643894
928.8041,58.11649318817081
930.8272,70.32592145012984
932.8495,86.43525173834018
934.8711,88.74439241636264
936.892,93.05325098340654
938.9123,111.91173405123698
940.9318,127.36974730108807
942.9506,146.927195295077
944.9688,149.98398132162322
946.9862,122.69000719987548
949.003,94.04517324914241
951.019,83.44937856183321
953.0344,78.70252128990523
955.0491,67.10449875082281
957.063,56.605207475025054
959.0763,66.95454332190707
961.0888,50.6024015848127
963.1007,60.99867688754068
965.1119,46.0932633478659
967.1223,54.98605447357727
969.1321,52.27694331153202
971.1412,54.86582235872652
973.1495,46.10258358938847
975.1572,38.18711842908715
977.1641,46.619317842366854
979.1704,41.24907241190135
981.1759,49.326272254171386
983.1808,54.30080707316745
985.1849,46.42256607961792
987.1884,38.44143794124295
989.1911,52.1073108615376
991.1932,55.57007265958305
993.1945,56.82961063338723
995.1951,56.88581152525785
997.1951,49.188561509206465
999.1943,50.587746190387065
1001.1928,49.13325068206825
1003.1906,65.72495959164144
1005.1877,81.96275703516585
1007.1841,93.49652647145126
1009.1798,112.72615053968048
1011.1748,101.2015109440714
1013.1691,92.6724882615805
1015.1627,68.43896205714975
1017.1556,40.65081096899564
1019.1477,24.457912950946138
1021.1392,15.210145550321272
1023.1299,12.70738606986231
1025.12,14.79951166020976
1027.1093,17.03639934493026
1029.0979,31.46792599959565
1031.0859,49.593968329414565
1033.0731,54.664402724916954
1035.0596,60.97910508069367
1037.0454,54.087950744691625
1039.0304,46.64081445506713
1041.0148,32.987570409097316
1042.9985,20.37809233765097
1044.9814,11.412253641722259
1046.9636,4.089927518524746
1048.9452,8.810987051149596
1050.926,22.92530528178986
1052.9061,42.38275516452859
1054.8855,39.83320942419573
1056.8642,52.2765403617949
1058.8421,48.512619879997715
1060.8194,41.64131935871069
1062.7959,45.362509692714866
1064.7717,46.676061360378185
1066.7469,36.83184438644389
1068.7213,39.42972832889552
1070.695,51.469582377397955
1072.6679,65.4012753273197
1074.6402,88.42467545933334
1076.6117,98.18965040009903
1078.5826,85.14606689203038
1080.5527,60.34379069564477
1082.5221,35.3326867199994
1084.4908,19.46261927071407
1086.4587,14.83345230008183
1088.426,-2.304950434229795
1090.3925,-1.6027253228876361
1092.3584,3.3899912664915064
1094.3235,7.073062982317879
1096.2879,21.296353439102518
1098.2515,37.65972618062551
1100.2145,59.56304453770451
1102.1767,75.70617146456004
1104.1382,110.13896931978297
1106.099,153.01129970490285
1108.0591,179.92302312005938
1110.0185,210.1739985352798
1111.9771,241.61408312136143
1113.9351,271.24313194736226
1115.8923,315.6109976661992
1117.8488,349.4675302183589
1119.8045,325.512576388218
1121.7596,253.89597946547917
1123.7139,189.26757948471902
1125.6675,129.22721394155462
1127.6204,125.47471843892777
1129.5726,147.80992728750846
1131.524,152.9326735432196
1133.4748,126.9427887838857
1135.4248,81.49010305800493
1137.3741,56.42444514464762
1139.3226,37.145643007983494
1141.2705,32.30352404793712
1143.2176,41.047915292978246
1145.164,46.27864344854072
1147.1097,48.645534809579544
1149.0546,40.498415208263964
1150.9989,20.53710999030818
1152.9424,6.761444096442574
1154.8852,-9.478757737972956
1156.8272,-3.8336708451925006
1158.7686,-2.2533758646812885
1160.7092,-11.587915137532377
1162.6491,-19.237308493614478
1164.5883,-1.2514599995237177
1166.5267,12.169918458854909
1168.4644,30.127127497721858
1170.4014,45.07046761157892
1172.3377,72.75023899365658
1174.2732,116.01674138648104
1176.2081,165.32027380507623
1178.1421,249.31113410429873
1180.0755,338.68961848580284
1182.0082,392.6560206581315
1183.9401,407.910630942932
1185.8713,333.25373573529123
1187.8017,242.73561735119029
1189.7315,154.5065547740735
1191.6605,104.26682456002891
1193.5888,70.41670172007991
1195.5163,48.806460222581336
1197.4432,30.686373331722393
1199.3693,30.156713823627683
1201.2947,6.067754167558633
1203.2193,7.1197665312096206
1205.1432,3.2630230215979736
1207.0664,2.3977956745437723
1208.9889,3.974356493236769
1210.9106,-4.20702254311027
1212.8316,7.103930504971572
1214.7519,4.757529605106697
1216.6715,10.504088653880217
1218.5903,17.693921500302622
1220.5084,39.12734188834361
1222.4257,38.50466338503384
1224.3424,52.82619916613146
1226.2583,60.99226202234763
1228.1735,80.65316421613227
1230.0879,108.20921740001268
1232.0016,129.6607324199848
1233.9146,164.9080190399526
1235.8269,172.8013857272132
1237.7384,173.59113929998284
1239.6492,166.97758484846474
1241.5592,177.1110257269504
1243.4686,207.64176361995612
1245.3772,249.8200984408884
1247.285,315.3963280267362
1249.1922,368.02074771628804
1251.0986,415.4936496943692
1253.0042,463.0653224655987
1254.9092,513.9860503796583
1256.8134,580.1061131555781
1258.7169,643.4257853725264
1260.6196,694.8953358086118
1262.5216,716.9650268076845
1264.4229,720.1851137646422
1266.3234,696.3558449047321
1268.2232,653.5774612513515
1270.1223,613.3501968643385
1272.0207,588.6742792677574
1273.9183,568.2499298521707
1275.8151,563.5773641213985
1277.7113,596.0567918967614
1279.6067,652.0384173638072
1281.5014,750.4724387475156
1283.3953,865.8590477524824
1285.2885,1010.3984285785797
1287.181,1132.1907567670892
1289.0727,1181.2861977553089
1290.9637,1140.1349056586298
1292.854,1071.7870227795802
1294.7435,968.9926800193413
1296.6323,894.1519975612224
1298.5204,805.3150858986079
1300.4077,757.6320465833624
1302.2943,705.5029731141993
1304.1802,689.2779514135118
1306.0653,668.4570603486642
1307.9497,638.5403718942404
1309.8333,631.1279513402546
1311.7162,608.6198575913174
1313.5984,588.1161432407605
1315.4798,585.7168547957167
1317.3605,577.8220328821579
1319.2405,590.5317122688878
1321.1197,599.0959219464902
1322.9982,576.2146850002322
1324.876,531.2880185244213
1326.753,470.56593385121903
1328.6293,404.79843699990613
1330.5048,344.5355292841051
1332.3796,291.32720796945364
1334.2537,246.42346687623478
1336.127,208.7242969114593
1337.9996,193.32968651790384
1339.8714,183.7896220511028
1341.7426,171.10408793329373
1343.6129,159.67306674881831
1345.4826,143.99653937097764
1347.3515,135.82448507634228
1349.2196,134.30688170151734
1351.087,116.54370572486368
1352.9537,113.5349322816736
1354.8197,124.88053534180199
1356.6849,128.63048773975504
1358.5493,139.68476106123387
1360.4131,157.3933256056347
1362.276,191.7061502755064
1364.1383,213.52320239946494
1365.9998,227.84444738906473
1367.8606,217.01984852062867
1369.7206,211.14936679203538
1371.5799,208.68296103096532
1373.4384,206.72058795360533
1375.2962,194.76220218931314
1377.1533,156.40775630024064
1379.0096,124.15720090091827
1380.8652,109.96048504179907
1382.7201,90.46755653176422
1384.5742,65.72836208009028
1386.4275,59.09284749137828
1388.2802,42.910957912945946
1390.132,43.78263790118319
1391.9832,43.55783158337033
1393.8336,33.036482648961965
1395.6832,22.3185343518345
1397.5322,23.753929615499942
1399.3803,14.042611140285658
1401.2278,13.73452138898
1403.0745,8.479602683945643
1404.9204,3.7777972102001627
1406.7656,1.429047067965314
1408.6101,1.4832943196850579
1410.4538,-3.209518986487012
1412.2968,-4.249450817229842
1414.139,-0.5365270761278111
1415.9805,12.629268785248257
1417.8213,9.197958675232542
1419.6613,23.6695643758668
1421.5006,38.79410757721365
1423.3391,73.22160973264033
1425.1769,100.45209190757288
1427.0139,156.98557443522185
1428.8502,216.67207664427644
1430.6858,268.5116162935706
1432.5206,289.5542089752177
1434.3547,282.0998675962151
1436.188,272.59860216801803
1438.0206,264.85041988108355
1439.8524,244.2553251998831
1441.6835,250.81331994038362
1443.5139,254.47440347599934
1445.3435,252.738572672011
1447.1724,259.7558218489558
1449.0005,256.3261427999854
1450.8279,252.89952472069325
1452.6545,257.42595424341204
1454.4804,247.00541547147884
1456.3056,248.83788993397178
1458.13,240.27335668991446
1459.9536,224.3617923099523
1461.7766,202.40317096199692
1463.5987,173.59746457034248
1465.4202,145.04464303525168
1467.2409,126.39467452101246
1469.0608,106.69752574146713
1470.88,91.45316214651098
1472.6984,75.01154811906486
1474.5161,54.97264712751763
1476.3331,48.386421890143424
1478.1493,36.55283457548978
1479.9648,36.271846868240175
1481.7795,38.44342008755007
1483.5935,45.56751518985658
1485.4067,41.99409274716271
1487.2192,54.17311287579639
1489.031,44.75453527214472
1490.842,52.73831909086391
1492.6522,52.82442303906515
1494.4618,49.91280529647645
1496.2705,51.25342351458198
1498.0785,50.296234845738184
1499.8858,45.691195929767105
1501.6924,48.688262903528766
1503.4981,46.93739144697139
1505.3032,39.38853675316102
1507.1075,34.84165354578977
1508.911,32.69669615466489
1510.7138,32.25361856117763
1512.5159,26.262374419752177
1514.3172,23.672917062276724
1516.1178,18.58519955801603
1517.9176,20.19917473950602
1519.7166,14.364795253431112
1521.515,14.232013544483891
1523.3126,5.850781913709284
1525.1094,17.471052519832256
1526.9055,4.892777463070047
1528.7008,5.165908668929603
1530.4954,3.4403980139902046
1532.2893,11.416197323172469
1534.0824,7.293258386993159
1535.8747,-0.5784671181926342
1537.6663,8.650972411037856
1539.4572,3.731534356993734
1541.2473,8.663176015474164
1543.0367,8.945854644963447
1544.8253,7.829527417314182
1546.6132,17.01415141492072
1548.4003,18.599683641881995
1550.1867,23.186080932156187
1551.9723,31.323299933704334
1553.7572,37.66129706262711
1555.5414,51.100028421792274
1557.3247,72.13944973745492
1559.1074,95.12951622486986
1560.8893,115.17018237789773
1562.6705,134.41140173910406
1564.4509,163.4031266993528
1566.2305,176.9953083053942
1568.0094,170.28789596994721
1569.7876,175.98083733577818
1571.565,182.07407834277427
1573.3417,181.917563171015
1575.1176,181.26123417983894
1576.8928,196.35503190940938
1578.6672,207.89889508727708
1580.4409,222.34276047744305
1582.2138,244.88656276491895
1583.986,274.13023441128934
1585.7575,309.37370542927334
1587.5282,327.66690309028803
1589.2981,353.90975157201336
1591.0673,358.60217177546053
1592.8358,363.3440810625434
1594.6035,367.8853932091541
1596.3704,352.5760183577435
1598.1366,348.0158629719095
1599.9021,321.10482998948925
1601.6668,309.9928188681618
1603.4308,300.129725854558
1605.194,296.7154440953807
1606.9564,311.59986373603545
1608.7182,337.3328719547738
1610.4791,392.46435281384856
1612.2394,458.7441870021841
1613.9988,536.3722512840612
1615.7576,598.9984178363193
1617.5156,625.622553472075
1619.2728,610.7945190144615
1621.0293,557.3641690303859
1622.785,493.7813519788107
1624.54,412.5959107450566
1626.2942,335.8576832766309
1628.0477,275.26650339508217
1629.8005,216.02220156338188
1631.5525,177.52460549183672
1633.3037,144.7735407305314
1635.0542,121.21883105430493
1636.804,103.96029879026082
1638.553,91.14776505331446
1640.3013,78.18104991877834
1642.0488,67.5099725504873
1643.7955,62.9343513304662
1645.5416,51.20400396564014
1647.2868,45.91874753359082
1649.0313,38.978398599859986
1650.7751,32.682773270802215
1652.5181,40.38168726298818
1654.2604,39.12495596616088
1656.0019,37.51239436624661
1657.7427,49.493817057922
1659.4828,65.8690382607399
1661.222,77.93787169931534
1662.9606,107.50013043957301
1664.6984,128.40562676805894
1666.4354,137.15417189631802
1668.1717,125.79557575183901
1669.9072,109.07964689056911
1671.642,85.15619261049997
1673.3761,61.82501911882696
1675.1094,37.13593177118344
1676.8419,30.08873530495279
1678.5737,24.78323408615921
1680.3048,18.269232179939394
1682.0351,10.896533403598113
1683.7646,5.714941391747743
1685.4934,5.524259670035434
1687.2215,7.22429170695915
1688.9488,1.2148409157741753
1690.6754,2.54571063749313
1692.4012,5.616704200980422
1694.1263,3.1276249096436004
1695.8506,2.7282760107230786
1697.5742,1.618460720183208
1699.297,-1.3520177732942784
1701.0191,-3.6833562972122706
1702.7404,-0.7257381724161576
1704.461,-4.6293099230220776
1706.1808,0.8057891769781236
1707.8999,-1.4705338996014063
1709.6182,-3.4583721880042333
1711.3358,-2.9078040328404313
1713.0527,4.181126770417961
1714.7688,-0.941594524738889
1716.4841,-3.97598270663201
1718.1987,2.5779568429468895
1719.9126,0.2202584622733923
1721.6257,2.350956463843545
1723.338,-0.5799148420490212
1725.0496,0.927678831379751
1726.7605,-1.6262224357368495
1728.4706,5.958421427457779
1730.18,0.18166673778225118
1731.8886,-1.706430247528914
1733.5964,2.8441867269422403
1735.3036,4.283590963851907
1737.0099,7.711855737414567
1738.7156,8.429054279008852
1740.4204,4.885259742895045
1742.1246,7.3305451990430015
1743.8279,3.2649836685699256
1745.5306,7.588648099287781
1747.2325,8.501611406358876
1748.9336,7.65394642905909
1750.634,7.945725921648375
1752.3336,13.377022561847241
1754.0325,12.247908947919314
1755.7307,9.508457544358123
1757.4281,10.658740693178174
1759.1247,13.098830641309547
1760.8206,7.928799529094874
1762.5158,14.748719365888718
1764.2102,17.608662081757643
1765.9039,11.95869945928112
1767.5968,15.948903104952024
1769.289,15.579344505676431
1770.9804,15.50009498887158
1772.6711,16.711225726161246
1774.361,17.66280773416841
1776.0502,20.25491186240376
1777.7386,17.687608783750022
1779.4263,16.260968968540794
1781.1132,17.275062710233613
1782.7994,19.72996013967648
1784.4849,24.575731214966737
1786.1696,20.512445696902375
1787.8535,21.140173100524066
1789.5367,22.35898273574813
1791.2192,20.168943701089205
1792.9009,22.6201248714722
1794.5818,23.81259492013274
1796.2621,16.346422294105253
1797.9415,21.121675202298263
1799.6202,26.138421690156065
1801.2982,21.296729591906256
1802.9755,26.396666480392412
1804.6519,21.688299715490786
1806.3277,23.371696393111023
1808.0027,24.046923392279865
1809.6769,19.264047358307124
1811.3504,22.82313469603355
1813.0231,22.174251617659394
1814.6951,28.46746410715369
1816.3664,21.252837926743013
1818.0369,22.930438553979315
1819.7067,22.700331253886333
1821.3757,23.812581062183426
1823.044,22.16725278758682
1824.7115,21.414411000686954
1826.3783,21.1541200504019
1828.0443,27.286444071505684
1829.7096,26.611446987231233
1831.3741,23.629192447947162
1833.0379,26.539743837907736
1834.701,24.843164305075334
1836.3633,32.23951673201498
1838.0248,28.52886375286019
1839.6856,23.861267679349424
1841.3457,31.886790537932512
1843.005,27.855494116446664
1844.6636,27.317439883861255
1846.3214,30.522689030590897
1847.9785,28.4213024738757
1849.6349,25.863340825729125
1851.2904,30.248864413951623
1852.9453,25.827933307710197
1854.5994,31.300607273683255
1856.2528,27.716945820269956
1857.9054,26.67700814286343
1859.5572,29.43085315968736
1861.2083,29.028539522195558
1862.8587,25.770125587533272
1864.5084,33.80566942256053
1866.1572,28.685228836436153
1867.8054,29.758861300262367
1869.4528,26.32662399828905
1871.0994,30.588573817177547
1872.7453,28.844767380323105
1874.3905,34.69526100523524
1876.0349,30.290110720975832
1877.6786,32.029372209654326
1879.3215,33.963100850479066
1880.9637,33.14135170236483
1882.6051,30.564179484595343
1884.2458,28.331638585040935
1885.8858,26.843783085930113
1887.525,28.75066678617526
1889.1634,30.45234321625074
1890.8011,31.39886561912448
1892.4381,34.34028693324092
1894.0743,32.826659783056016
1895.7098,30.15803644962287
1897.3446,31.684468885728023
1898.9786,27.60600874257777
1900.6118,37.422707354533756
1902.2443,27.034615779897607
1903.8761,29.291784702743897
1905.5071,34.144264536801174
1907.1374,31.092105402880122
1908.7669,28.035357080348817
1910.3957,30.57406903765441
1912.0237,30.908290462890506
1913.651,29.93807023841009
1915.2776,32.36345693748339
1916.9034,28.23449883399985
1918.5285,22.601243878214447
1920.1528,29.913739738037208
1921.7764,27.172033855365854
1923.3992,29.926173372960704
1925.0213,31.2262051618618
1926.6427,26.322175793847578
1928.2633,29.11413152843444
1929.8832,31.302118361917053
1931.5023,31.036181999448885
1933.1207,26.76636783316225
1934.7383,30.892720944827715
1936.3552,31.315286148552246
1937.9714,30.984107949515604
1939.5868,28.549230539744713
1941.2015,32.76069780142548
1942.8154,28.218553331251655
1944.4286,28.972840398309998
1946.041,25.223601989501788
1947.6528,26.720880801999982
1949.2637,27.264719280741588
1950.8739,21.70515960345479
1952.4834,28.092243675220658
1954.0921,25.826013184068785
1955.7001,24.706509537106285
1957.3074,34.08377388318027
1958.9139,27.457847124072813
1960.5197,24.22876982072836
1962.1247,26.596582259512914
1963.729,23.761324484504783
1965.3325,22.423036273816635
1966.9353,25.931757167947822
1968.5374,25.937526483167474
1970.1387,27.19038327642714
1971.7393,23.390366345303207
1973.3392,22.787514215468164
1974.9383,28.731865178690995
1976.5366,23.4234572988654
1978.1342,29.412328352566647
1979.7311,25.59851588213536
1981.3273,25.882057135788898
1982.9227,25.16298910575962
1984.5173,21.791348525459256
1986.1112,23.96717187666971
1987.7044,25.090495423259455
1989.2968,26.361355189425268
1990.8885,24.329786948459088
1992.4795,26.095826210039277
1994.0697,25.059508240546336
1995.6592,23.820868045402577
1997.2479,21.229940379435234
1998.8359,22.686759759262927
2000.4232,20.891360489204857
2002.0097,23.243776646712703
2003.5955,25.244042100324535
2005.1805,23.54219048614081
2006.7648,17.638255187821485
2008.3484,21.732269353604806
2009.9312,25.524265955346465
2011.5133,25.06427774757958
2013.0946,21.65233722959455
2014.6752,22.988476650039146
2016.2551,23.672728041037743
2017.8342,21.40512320483012
2019.4126,23.53569370692871
2020.9902,18.91447089879486
2022.5672,19.591485896532987
2024.1433,23.916769627102852
2025.7188,24.640352821549442
2027.2935,22.312265971750023
2028.8674,22.832539323178494
2030.4406,26.10120289818613
2032.0131,25.0182864907989
2033.5849,22.883819634030743
2035.1559,21.947831610712797
2036.7261,23.910351474838095
2038.2957,15.921408060921337
2039.8645,19.63102996437364
2041.4325,26.089245621392124
2042.9998,26.946083271863657
2044.5664,26.75157089478273
2046.1323,19.95573619968299
2047.6974,25.60860662858242
2049.2617,23.160209423941794
2050.8254,20.560571572135743
2052.3883,23.759719827936976
2053.9504,23.657680740512546
2055.5118,25.05448062143239
2057.0725,21.550145545689688
2058.6325,24.044701337732874
2060.1917,17.08817360650896
2061.7502,23.68058772051795
2063.3079,22.471968877378146
2064.8649,18.862342037902067
2066.4212,24.70173193818256
2067.9767,20.390163125689114
2069.5315,23.927659900873962
2071.0856,27.114246360287694
2072.6389,21.09994636120433
2074.1915,17.63478348975552
2075.7433,24.668781121073494
2077.2945,22.201962453942656
2078.8448,24.834350440459687
2080.3945,23.265967810701667
2081.9434,16.846837046402143
2083.4916,23.526980396635096
2085.039,19.756419942006175
2086.5857,27.33517752785133
2088.1317,23.96327480194236
2089.677,20.640733138699346
2091.2215,24.217573672909666
2092.7652,21.84381733295342
2094.3083,18.769484805035063
2095.8506,22.044596556920894
2097.3921,21.8191728686824
2098.933,28.693233799945233
2100.4731,22.7167991921433
2102.0124,20.53988859977828
2103.5511,21.562521350183815
2105.089,23.084716565294784
2106.6261,22.70649315142083
2108.1626,23.87786978402451
2109.6983,24.698864911503435
2111.2332,25.569496743476577
2112.7675,23.289783242574288
2114.301,22.559742115731964
2115.8337,21.77939083698722
2117.3657,23.798746654780288
2118.897,23.567826599757495
2120.4276,22.08664746457781
2121.9575,24.405225806221907
2123.4866,23.973577960804136
2125.0149,21.79172002038655
2126.5426,21.95966783729554
2128.0695,19.627437045940226
2129.5956,15.895043061133165
2131.1211,20.712501101412542
2132.6458,17.47982622636617
2134.1698,24.74703328845689
2135.693,22.014136965349337
2137.2155,20.63115168723779
2138.7373,19.048091664175246
2140.2584,22.11497089990324
2141.7787,16.731803207682432
2143.2983,20.348602179623782
2144.8171,18.71538124052033
2146.3353,21.332153611679175
2147.8527,19.848932327253692
2149.3693,19.715730208075726
2150.8853,17.932559876487815
2152.4005,19.14943375767527
2153.9149,23.066364097497882
2155.4287,22.633362950321086
2156.9417,15.950442139846757
2158.454,20.317613263443178
2159.9655,17.43488775897427
2161.4764,16.85227686112789
2162.9865,19.919791630243054
2164.4958,21.837442958135966
2166.0045,22.505241537425007
2167.5124,19.873197842354102
2169.0195,21.99132212211481
2170.526,14.559624427166753
2172.0317,19.82811458805641
2173.5367,20.296802289733947
2175.0409,19.565697018868548
2176.5445,15.184808059161355
2178.0473,17.454144498656646
2179.5494,19.4237152735506
2181.0507,17.143529145498036
2182.5513,15.413594681916663
2184.0512,17.433920278788946
2185.5504,16.104514177961462
2187.0488,18.225384446941646
2188.5465,16.64653899219182
2190.0435,15.167985537920487
2191.5397,17.139731641870767
2193.0353,16.81178471010604
2194.5301,19.484151977292356
2196.0241,18.656840509977997
2197.5175,15.429857179869742
2199.0101,13.203208672106015
2200.502,17.426901517526645
2201.9931,13.450942114939451
2203.4835,16.5253366888833
2204.9733,15.050091329387655
2206.4622,15.675211961228683
2207.9505,17.950704358681705
2209.438,13.926574139269917
2210.9248,15.302826741009511
2212.4109,12.529467462650985
2213.8962,14.456501449916573
2215.3809,14.933933723233963
2216.8648,14.211769158465913
2218.3479,16.4400124821358
2219.8304,19.568668278649454
2221.3121,16.8977409680126
2222.7931,17.177234774544317
2224.2733,12.80715375358632
2225.7529,13.287501788708028
2227.2317,11.368282635407326
2228.7098,12.799499916307084
2230.1872,13.531157140347375
2231.6638,11.063257688473342
2233.1397,15.845804806318554
2234.6149,15.678801628884074
2236.0894,14.312251132712959
2237.5632,11.446156137560266
2239.0362,16.130519320058596
2240.5085,13.815343242379
2241.9801,8.8006303053874
2243.4509,10.736382771796329
2244.921,11.422602816312036
2246.3904,11.959292506276952
2247.8591,12.04645379480759
2249.3271,10.734088515427572
2250.7943,10.972198381196051
2252.2608,14.01078499783128
2253.7266,9.1498498613296
2255.1917,6.989394327579504
2256.656,11.679419660971078
2258.1197,13.069927056000552
2259.5826,10.260917590369957
2261.0447,10.10239221108209
2262.5062,10.494351762530584
2263.9669,7.186796988085149
2265.4269,11.929728526172042
2266.8862,9.923146943349522
2268.3448,9.517052686878642
2269.8026,10.011446104789059
2271.2598,10.056327449939928
2272.7162,11.25169687507595
2274.1719,9.147554432378584
2275.6268,8.343900061512343
2277.0811,10.590733610666291
2278.5346,7.788054844590434
2279.9874,8.935863422127568
2281.4395,9.884158924239912
2282.8908,7.48294084253115
2284.3414,8.63220856976342
2285.7914,5.581961423869444
2287.2406,11.432198636459916
2288.689,4.632919383325941
2290.1368,6.584122725936709
2291.5838,5.9858076794322415
2293.0302,7.787973193111398
2294.4758,7.690618156415013
2295.9206,9.843741380904191
2297.3648,8.597341601233921
2298.8082,6.0014174536218405
2300.251,9.155967488312157
2301.693,10.01099019553493
2303.1343,8.316483973960601
2304.5748,10.872447122149708
2306.0147,12.02887785549801
2307.4538,10.735774280676821
2308.8922,10.39313438406866
2310.3299,8.700956044698415
2311.7669,6.359237037659682
2313.2031,5.167975051036507
2314.6387,10.077167709320648
2316.0735,11.486812585324117
2317.5076,8.646907151087262
2318.941,8.357448763782301
2320.3737,6.118434694112423
2321.8056,9.379862129206373
2323.2369,12.641728195008554
2324.6674,9.504029923664888
2326.0972,14.266764220904022
2327.5263,13.92992789741443
2328.9547,17.993517621216995
2330.3823,16.407529921033316
2331.8092,10.32196114564995
2333.2355,6.186807479778182
2334.661,6.8520650049097895
2336.0858,5.317729740668483
2337.5098,7.2337976381574265
2338.9332,9.850264595302406
2340.3558,5.467126437691249
2341.7778,3.3343788924092053
2343.199,8.502017631870373
2344.6195,8.620038295145122
2346.0393,8.68843643628368
2347.4583,8.407207523135966
2348.8767,8.026346936667565
2350.2943,6.645849973772101
2351.7113,9.165711851079735
2353.1275,5.185927718762159
2354.543,4.45649263533403
2355.9578,7.9274016074507045
2357.3718,7.798649597202683
2358.7852,11.470231487406437
2360.1978,5.492142082892016
2361.6098,6.814376073787244
2363.021,6.836928095298447
2364.4315,9.20979271448823
2365.8413,6.3329644300499695
2367.2504,10.006437648579151
2368.6587,6.430206713341633
2370.0664,8.504265867538962
2371.4733,6.778609290070634
2372.8795,5.853231074793484
2374.285,7.778125247778348
2375.6899,9.003285776563743
2377.0939,4.9787065509069635
2378.4973,2.754381370532556
2379.9,6.730303985378029
2381.3019,3.7564681178370876
2382.7032,5.132867423000405
2384.1037,8.509495518394061
2385.5035,7.286345970215507
2386.9027,8.01341225956719
2388.3011,6.99068779468827
2389.6987,4.56816590368382
2391.0957,8.795839844752038
2392.492,1.7237028304095077
2393.8876,1.4017479852144419
2395.2824,5.679968416488023
2396.6765,3.708357217534015
2398.07,8.186907424856514
2399.4627,3.51561203787611
2400.8547,3.9944639741442955
2402.246,4.623456116056516
2403.6366,3.2025813060635357
2405.0265,3.681832340381632
2406.4156,6.5612019832013
2407.8041,1.290682961894717
2409.1918,1.4202679382221532
2410.5789,4.449949561037059
2411.9652,0.7797204649901914
2413.3508,6.209573240232928
2414.7358,4.03950046911946
2416.12,4.569494671908259
2417.5035,0.849548328462916
2418.8863,6.779653872952039
2420.2684,4.559803731048802
2421.6497,5.489990260629867
2423.0304,2.4702057739738734
2424.4104,4.65044252845955
2425.7896,3.3806927567636222
2427.1682,3.1109486450584427
2428.546,5.691202345709385
2429.9232,2.9714459799724295
2431.2996,3.501671612191487
2432.6753,4.38187127699608
2434.0503,3.2120369739990196
2435.4246,4.54216065899449
2436.7982,2.1222342556562808
2438.1711,3.3022496422366316
2439.5433,2.982198675765474
2440.9148,3.1620731802502746
2442.2856,0.3918649498765774
2443.6557,1.7715657472092374
2445.025,4.451167330894492
2446.3937,4.430661441862952
2447.7617,3.7100397765335913
2449.1289,1.3892939870187817
2450.4955,1.418415688330505
2451.8613,3.8973964815878546
2453.2265,3.3262279537258053
2454.5909,6.804901652705389
2455.9546,-0.7665909067745957
2457.3177,7.1117417219356724
2458.68,4.139898643729126
2460.0416,5.86787889238132
2461.4025,2.545681460268831
2462.7627,2.773305281089506
2464.1222,2.50074926308438
2465.4811,2.678012286761522
2466.8392,3.455093207621495
2468.1966,3.031990854384823
2469.5533,4.8087040212210965
2470.9093,1.735231471980093
2472.2645,1.461571922424568
2473.6191,3.08772407096496
2474.973,3.4636866013960415
2476.3262,5.289458166635356
2477.6787,3.1150373849635784
2479.0305,2.9904228217668773
2480.3816,4.915613011281025
2481.7319,4.490606457837615
2483.0816,6.165401616612108
2484.4306,3.739996897873908
2485.7789,3.414390650238495
2487.1264,3.038581184921398
2488.4733,2.512566778994241
2489.8195,0.18634567914293854
2491.165,3.259916106927747
2492.5097,3.9332762820455187
2493.8538,2.0564243915939713
2495.1972,2.779358583338116
2496.5398,4.202076984478708
2497.8818,4.074577694422992
2499.2231,3.696858770557448
2500.5637,2.168918229522802
2501.9035,7.240754050991207
2503.2427,6.712364192945671
2504.5812,4.633746540961695
2505.919,3.9548989134911494
2507.256,6.475819082648449
2508.5924,4.496504780999054
2509.9281,6.716953676350251
2511.2631,3.237163391544321
2512.5974,1.0071314822540032
2513.9309,4.776855471780429
2515.2638,5.246332873353488
2516.596,1.6155611524344877
2517.9275,3.53453772202149
2519.2583,8.753259978956955
2520.5884,2.2717252847379896
2521.9178,5.989930913329118
2523.2465,7.25787411597765
2524.5745,6.075552084031564
2525.9018,1.39296193626015
2527.2284,4.060100730677213
2528.5543,3.9269655113669657
2529.8796,0.8435532818126319
2531.2041,1.3598610062278027
2532.5279,5.975885640390544
2533.851,0.9416241264803631
2535.1735,-0.1429266530820783
2536.4952,1.572230174707677
2537.8163,4.837092910691311
2539.1366,4.15165983998822
2540.4562,3.7159291993469097
2541.7752,4.979899183999322
2543.0935,6.543567952018137
2544.411,3.106933611677057
2545.7279,3.1199942058141232
2547.0441,0.43274774619804646
2548.3596,5.345192213397631
2549.6744,4.9573255836542245
2550.9885,3.3191457797572568
2552.3019,5.880650674922961
2553.6146,3.2918381091761546
2554.9266,2.5027058637351587
2556.2379,3.013251686899949
2557.5485,6.173473301943439
2558.8585,6.93336840200606
2560.1677,5.0429346184935255
2561.4762,3.952169513477905
2562.7841,3.7110705986019497
2564.0913,5.019635345986742
2565.3977,6.277861190642689
2566.7035,4.835745517383806
2568.0086,4.543285648245558
2569.313,6.800478856905919
2570.6167,4.507322371610016
2571.9197,4.363813352598228
2573.222,5.069948915037713
2574.5236,1.3257261304575323
2575.8246,5.931142019687215
2577.1248,2.6861935902990908
2578.4244,3.040877790554127
2579.7232,6.095191541851378
2581.0214,4.099131735181103
2582.3189,6.802695200581631
2583.6157,5.455878727099979
2584.9118,4.208679035756248
2586.2072,7.361092793011778
2587.5019,4.06311662324115
2588.7959,5.814747077208047
2590.0893,3.4159806650450477
2591.3819,8.316813838737225
2592.6739,5.167243016109914
2593.9652,6.267264531820345
2595.2557,9.966874668853322
2596.5456,6.466069647521017
2597.8348,9.064845588466909
2599.1234,9.163198547673773
2600.4112,7.211124490475953
2601.6983,6.108619290575817
2602.9848,7.355678749564504
2604.2705,3.952298607946986
2605.5556,8.14847453267145
2606.84,4.144202151163128
2608.1237,10.439477009362541
2609.4067,5.684294611768202
2610.689,6.07865035848387
2611.9707,6.122539592770416
2613.2516,3.165957597102256
2614.5319,5.308899592728416
2615.8115,2.301360769238393
2617.0903,5.393336263132724
2618.3685,5.184821187898322
2619.6461,2.775810603088793
2620.9229,8.866299516409548
2622.199,4.65628290780792
2623.4745,5.445755668568246
2624.7493,5.184712643412084
2626.0234,3.323148622603412
2627.2968,3.9610583445591487
2628.5695,5.898436514464706
2629.8415,6.135277797894943
2631.1128,5.171576801440331
2632.3835,6.807328070338613
2633.6535,6.342526098111769
2634.9228,7.677165310208494
2636.1914,4.661240068652276
2637.4593,4.344744658694928
2638.7265,4.5776733189759184
2639.9931,6.360020244687263
2641.259,6.841779585244282
2642.5242,3.2229454264621182
2643.7887,5.153511785738132
2645.0525,7.233472648240252
2646.3156,4.412821947601287
2647.5781,6.991553545119366
2648.8398,4.069661257964398
2650.1009,6.997138833390814
2651.3613,6.023979977956429
2652.6211,7.050178328247689
2653.8801,7.075727460611255
2655.1385,1.6506208808920348
2656.3961,4.4748520241776575
2657.6531,4.048414309049555
2658.9094,4.521301109340698
2660.1651,5.0435057583998955
2661.42,5.565021544362963
2662.6743,6.935841704930674
2663.9279,4.005959422153602
2665.1808,5.625367808723901
2666.433,7.094059937274146
2667.6846,5.9120288241832455
2668.9354,7.179267414889516
2670.1856,4.64576859571099
2671.4351,4.711525181173073
2672.6839,6.87652993934347
2673.9321,7.9407755911746705
2675.1795,7.3042547888538465
2676.4263,8.666960105160449
2677.6724,8.928884039831388
2678.9179,11.040019005934006
2680.1626,9.000357327246817
2681.4067,8.859891217148139
2682.6501,6.918612799012763
2683.8928,8.576514107616575
2685.1348,8.583587108549366
2686.3761,5.289823681635809
2687.6168,3.2952156208646954
2688.8568,9.499754667326606
2690.0961,5.253432529159973
2691.3348,8.606240819505707
2692.5727,8.508171098970436
2693.81,6.209214842098355
2695.0466,8.109363438352027
2696.2826,3.408608215101829
2697.5178,6.806940418624535
2698.7524,2.0043512611108554
2699.9863,7.8508318866821085
2701.2195,7.246373419416095
2702.452,5.6909669048823375
2703.6839,7.734603316186622
2704.9151,4.5272735695251
2706.1456,5.3689685037478725
2707.3755,10.25967891243235
2708.6046,11.549395535466275
2709.8331,8.338109010140613
2711.0609,7.875809858252403
2712.2881,9.812488518217634
2713.5145,6.048135349694192
2714.7403,6.2827406142150934
2715.9654,10.466294512832008
2717.1899,9.748787183769217
2718.4136,9.83020866058807
2719.6367,10.760548879362084
2720.8591,11.039797677862701
2722.0809,12.117944786255904
2723.3019,16.444979824309712
2724.5223,11.570892290612719
2725.7421,14.445671519303716
2726.9611,12.519306728812609
2728.1795,12.391786993112596
2729.3972,12.613101260983854
2730.6142,10.083238357288671
2731.8306,10.40218698075838
2733.0462,12.419935729291943
2734.2612,6.836473096766447
2735.4756,10.601787452859647
2736.6892,6.1658670988845685
2737.9022,7.628700230136403
2739.1145,4.590274980251664
2740.3262,8.500579406579888
2741.5372,6.7096015205678725
2742.7475,6.01732924865663
2743.9571,9.323750450191177
2745.1661,6.078852924343259
2746.3744,6.882624377047122
2747.582,5.635052453448534
2748.7889,2.586124729867027
2749.9952,1.3858287262716082
2751.2008,4.434151936770078
2752.4057,1.7810818416119503
2753.61,5.626605876705245
2754.8136,2.6707114601471673
2756.0165,5.113385953768901
2757.2188,2.554616692694534
2758.4204,3.4443909609143155
2759.6213,1.5326960168723396
2760.8215,0.1195190845688252
2762.0211,3.0548473726770453
2763.22,2.9386680886751044
2764.4182,1.6209684094926722
2765.6158,4.801735482672715
2766.8127,2.230956439548553
2768.009,1.3586183634361682
2769.2045,2.7847083153419803
2770.3994,4.159213342686247
2771.5936,1.8821204650421386
2772.7872,2.8534166603907245
2773.9801,2.4730888878918478
2775.1723,0.7411240781712003
2776.3639,-1.442490862876408
2777.5548,-0.17776903676737987
2778.745,1.7852908654655764
2779.9346,2.49669192870239
2781.1235,3.406437219970112
2782.3117,-0.3854702186711414
2783.4992,-0.17902737922558032
2784.6861,-0.4242274028499722
2785.8723,1.2789383577824296
2787.0579,1.1304827880301183
2788.2428,2.0804187604622157
2789.427,2.128759136343003
2790.6106,0.12551675613260116
2791.7935,-2.3792955609964572
2792.9757,0.36433500287320797
2794.1573,-0.24355496517835462
2795.3382,0.9470711182855531
2796.5184,1.2862522698157264
2797.698,0.5740274964922456
2798.8769,0.4104357925327058
2800.0551,-0.40448385358556393
2801.2327,2.529307542510427
2802.4096,2.3618530059873457
2803.5859,2.143195536718789
2804.7615,1.0733781109598546
2805.9364,-0.5975563164663171
2807.1106,-0.4695648014703515
2808.2842,2.1574015696247173
2809.4572,3.183396401448224
2810.6294,7.308473277055452
2811.801,5.982685747667766
2812.972,7.706087291421824
2814.1423,8.128731326627388
2815.3119,6.500671194533361
2816.4808,5.921960155101331
2817.6491,9.092651403286183
2818.8167,14.612798074823235
2819.9837,15.582453214521276
2821.15,18.001669721061162
2822.3157,20.170500337299252
2823.4807,24.938997626075206
2824.645,31.407213948523722
2825.8086,34.025201416389535
2826.9716,40.34301182734524
2828.134,45.36069663881145
2829.2957,49.22830690477868
2830.4567,52.895893225630495
2831.617,56.163505709467415
2832.7767,58.68119393543104
2833.9358,59.34900692102789
2835.0941,59.4669930969526
2836.2519,51.63520030040967
2837.4089,52.95367577393377
2838.5653,53.82246624370749
2839.7211,48.19161790637674
2840.8761,43.56117642036276
2842.0306,46.33118696217062
2843.1843,41.55169427269364
2844.3374,45.87274262951326
2845.4899,44.24437589469404
2846.6417,43.86663747157306
2847.7928,48.58957032104371
2848.9433,47.763216965333
2850.0931,46.08761944077227
2851.2422,50.91281930606067
2852.3907,51.98885765902121
2853.5385,47.96577508834871
2854.6857,48.89361166284943
2855.8323,50.57240697167189
2856.9781,54.602200115028495
2858.1233,54.33302968740764
2859.2679,61.01493373727569
2860.4118,60.147949769768765
2861.555,61.68211467987364
2862.6976,63.46746476109765
2863.8395,65.30403569012694
2864.9808,67.19186250897309
2866.1214,69.63097960660724
2867.2614,71.07142070008202
2868.4007,70.16321881014021
2869.5393,71.65640624681045
2870.6773,72.70101461848915
2871.8146,70.94707481700874
2872.9513,76.19461700719143
2874.0874,73.19367064438873
2875.2227,79.44426442200603
2876.3574,77.19642630151202
2877.4915,79.95018344993278
2878.6249,83.45556226233012
2879.7577,83.46258833426404
2880.8898,83.97128642673896
2882.0212,83.23168046613338
2883.152,89.94379353911299
2884.2821,89.25764790002665
2885.4116,86.27326490378533
2886.5405,91.19066501272349
2887.6686,91.359867826443
2888.7962,91.53089203263907
2889.923,95.65375540540828
2891.0493,97.52847480353826
2892.1748,93.85506612927917
2893.2997,91.43354430959634
2894.424,94.31392333290455
2895.5476,93.0462162732831
2896.6706,88.43043526167206
2897.7929,91.06659149854934
2898.9145,90.95469530008856
2900.0355,89.6947560717974
2901.1559,92.13678230963663
2902.2756,88.33078161261943
2903.3946,82.92676065839123
2904.513,92.17472524128961
2905.6308,87.07468032638458
2906.7479,90.77662995699893
2907.8643,90.23057730570865
2908.9801,88.03652463732348
2910.0953,91.29447331434736
2911.2098,88.75442381891904
2912.3236,88.41637572023254
2913.4368,89.13032769993765
2914.5494,84.7962775555204
2915.6613,86.11422219316363
2916.7725,80.6841576710873
2917.8831,81.40607918636928
2918.9931,81.97998112924579
2920.1024,82.90585707589231
2921.211,76.58369978268456
2922.319,79.61350117693965
2923.4264,75.4452524201377
2924.5331,77.22894387762389
2925.6391,77.71456516029083
2926.7445,69.90210510674171
2927.8493,75.14155177843413
2928.9534,79.98289253780462
2930.0569,80.07611399587425
2931.1597,82.02120196383517
2932.2619,76.6681414521184
2933.3634,79.41691665094297
2934.4643,81.71751098384647
2935.5645,79.81990708019734
2936.6641,80.37408675218893
2937.763,78.93003101381555
2938.8613,81.88772007533062
2939.959,82.39713335768727
2941.056,78.00824946296144
2942.1523,79.67104616925776
2943.248,75.33550047459835
2944.3431,69.35158858029484
2945.4375,62.41928593430394
2946.5313,58.08856729106644
2947.6244,52.80940678083032
2948.7169,53.231777952957856
2949.8087,45.80565382871731
2950.8999,44.131006897059166
2951.9904,37.7578091888774
2953.0803,33.88603229375593
2954.1696,32.81564742370058
2955.2582,33.99662545185686
2956.3462,33.62893692321383
2957.4335,30.31255204279428
2958.5202,30.697440679331674
2959.6062,28.883572398433945
2960.6916,29.320916458734654
2961.7764,29.40944183003163
2962.8605,31.64911718891358
2963.9439,31.989910917874774
2965.0267,30.08179108291833
2966.1089,29.674725430148275
2967.1905,32.31868140485072
2968.2714,30.36362615556454
2969.3516,28.75952650764181
2970.4312,27.85634898279836
2971.5102,29.55405981515476
2972.5885,28.15262496026811
2973.6662,27.302010078154908
2974.7432,30.80218054730541
2975.8196,30.75310147318977
2976.8954,28.004737653256367
2977.9705,30.457053577422577
2979.045,29.510013455558415
2980.1188,28.913581192963374
2981.192,31.217720399836825
2982.2645,26.422394397242332
2983.3364,28.02756619406629
2984.4077,27.133198534971136
2985.4783,27.18925388434369
2986.5483,25.845694435238777
2987.6177,21.8024821088187
2988.6864,21.00957856778882
2989.7545,20.716945256829725
2990.8219,23.42454341052619
2991.8887,19.682334056293584
2992.9548,15.940277987301855
2994.0204,14.548335799897618
2995.0852,16.006467931024726
2996.1495,11.564634672143647
2997.2131,13.222796154650204
2998.276,10.480912394293888
2999.3383,7.18894327459622
3000.4,10.24684857426961
3001.4611,4.90458800013705
3002.5215,8.312121156553054
3003.5812,6.319407598826274
3004.6404,1.6764067991441607
3005.6989,3.1830781665001204
3006.7567,1.089381093123496
3007.8139,2.2452749394128624
3008.8705,1.700719054872991
3009.9264,1.2556727665559073
3010.9818,1.6100953845064652
3012.0364,-1.6360537937872053
3013.0905,1.8171845130620738
3014.1439,2.069785930618874
3015.1966,3.3217260662759394
3016.2487,-0.07701949327184465
3017.3002,0.9235248054531624
3018.3511,0.8733352853533205
3019.4013,-1.0276117399042306
3020.4509,1.820660034614292
3021.4998,-0.33186282031604364
3022.5481,-0.03519375212676579
3023.5958,3.3606571070601703
3024.6428,2.3056799767083724
3025.6892,0.9998650426748945
3026.735,1.0432024677599863
3027.7802,1.0856824047652722
3028.8247,2.327294996060349
3029.8685,1.5680303731580203
3030.9118,-1.6421213557018692
3031.9544,0.9968299020402327
3032.9963,0.9348906437362174
3034.0376,2.6720673567696807
3035.0783,2.10836651917532
3036.1184,2.7937945822671644
3037.1578,0.428357976275592
3038.1966,2.612063103493032
3039.2348,3.694916361928348
3040.2723,2.2269241234697787
3041.3092,2.5080927230563947
3042.3455,2.0384284733580422
3043.3811,3.217937661963637
3044.4161,4.196626556077831
3045.4505,6.124501390725891
3046.4842,3.701568358966828
3047.5173,4.927833592614649
3048.5498,6.4033031864676655
3049.5816,2.877983186045876
3050.6128,4.751879572836248
3051.6434,4.2249982995459305
3052.6734,5.8973452713632835
3053.7027,6.168926351226688
3054.7314,2.8897473431010745
3055.7594,5.559813989262128
3056.7868,5.329132003088056
3057.8136,5.397707042358945
3058.8398,7.365544711563546
3059.8653,4.232650561213559
3060.8902,3.3990300681652315
3061.9145,7.7646886669483095
3062.9381,5.37963175810224
3063.9612,7.593864664519595
3064.9835,7.757392655296622
3066.0053,6.520220923590944
3067.0264,4.532354584986248
3068.0469,7.843798689864018
3069.0668,5.0545582432821945
3070.086,8.01463817186073
3071.1046,5.674043351673996
3072.1226,9.282778578650003
3073.1399,7.940848591976323
3074.1567,6.4482580380127565
3075.1727,7.955011483710617
3076.1882,4.61111343153866
3077.203,5.616568304415523
3078.2173,7.72138047914871
3079.2308,5.975554276380048
3080.2438,3.4790939395375577
3081.2561,6.032003652293728
3082.2678,2.7342875635301116
3083.2789,4.685949761808224
3084.2893,6.536994308346719
3085.2991,5.087425217504753
3086.3083,5.78724643827154
3087.3169,5.986461868762051
3088.3248,4.3350753492187994
3089.3321,3.8830906600196844
3090.3388,1.4305115381918583
3091.3449,5.6773416819315745
3092.3503,3.6735847751299744
3093.3551,2.4692444449047866
3094.3593,5.614324281637904
3095.3629,2.9588278510187713
3096.3658,3.9527586625936078
3097.3681,4.796120196320352
3098.3698,3.588915892629366
3099.3708,4.831149143989814
3100.3713,4.4728233069817005
3101.3711,4.913941689873548
3102.3702,0.6545075562056528
3103.3688,6.7945241203788935
3104.3667,1.583994590249084
3105.364,5.972922105726791
3106.3607,2.661309790882644
3107.3568,6.549160710058056
3108.3522,3.4864779009813454
3109.347,6.173264335889234
3110.3412,1.4595229521536695
3111.3348,3.245256625413951
3112.3277,1.38046821671416
3113.32,3.065160554645809
3114.3117,4.649336453995735
3115.3028,1.9829986988991735
3116.2932,4.616150026998001
3117.2831,2.4487931561041085
3118.2723,3.3809307578678913
3119.2608,2.6125654794518187
3120.2488,3.943699934209051
3121.2361,1.6743367093670978
3122.2229,3.0044783527164745
3123.209,4.784127395304331
3124.1944,0.7632863381330397
3125.1793,2.041957634363703
3126.1635,4.920143729524568
3127.1471,0.2478470487243074
3128.1301,4.025069967870164
3129.1125,4.40181486039091
3130.0942,3.078084059464617
3131.0753,4.753879854251211
3132.0558,2.279204503129778
3133.0357,3.7040602169406123
3134.015,4.878449183731962
3134.9936,1.3023735545114778
3135.9716,1.6258354315023231
3136.949,3.4988369039039293
3137.9258,3.9213800446573757
3138.902,4.543466891715375
3139.8775,4.315099443816848
3140.8524,3.7862796542660417
3141.8267,4.657009433216214
3142.8004,1.9772906529578336
3143.7735,3.797125139211272
3144.7459,1.1165146979240026
3145.7178,1.3354610970722485
3146.689,2.2539660934670875
3147.6596,-0.42796856943501016
3148.6295,3.4396588292827674
3149.5989,3.906854285943237
3150.5676,3.273623762472634
3151.5357,4.389973181728653
3152.5032,4.755908433832749
3153.4701,3.8714353650066524
3154.4364,3.586559773913004
3155.402,3.851287420500098
3156.367,5.265624028850636
3157.3315,1.2795752845344488
3158.2952,4.543146820465124
3159.2584,2.4563442567605085
3160.221,2.7691731681069767
3161.1829,2.1816391046274664
3162.1442,5.393747588753187
3163.105,4.305504121098958
3164.065,1.4669141483421244
3165.0245,3.7279830741049924
3165.9834,2.7387162873407327
3166.9416,3.149119139722683
3167.8993,4.059196955537019
3168.8563,4.7189550275787315
3169.8127,6.078398608050839
3170.7684,4.687532901966808
3171.7236,5.346363053556129
3172.6782,5.2048941601729535
3173.6321,2.963131265707816
3174.5854,3.4710793620023033
3175.5381,2.578743411266693
3176.4902,2.586128341000471
3177.4417,4.44323905291569
3178.3926,2.1000804228631207
3179.3428,7.5566572822611455
3180.2924,3.5629744415273423
3181.2415,6.369036635512721
3182.1899,2.4248485634385486
3183.1377,5.580414860835726
3184.0848,5.3357401389866705
3185.0314,0.4908289533696535
3185.9773,1.5956858061055477
3186.9227,5.200315194406935
3187.8674,5.204721599529542
3188.8115,4.258909450725945
3189.755,2.662883125201501
3190.6979,3.166646957572482
3191.6402,4.870205255826325
3192.5818,2.7735622962839996
3193.5229,3.676722306564426
3194.4633,4.329689486550903
3195.4031,4.482467999359505
3196.3423,1.5350619648094161
3197.2809,3.6874754578951383
3198.2189,3.6397125382605555
3199.1563,5.191777228674802
3200.0931,4.243673515509883
3201.0292,1.1454053332200353
3201.9648,1.7469765738227632
3202.8997,4.448391117881516
3203.834,4.349652828489981
3204.7677,2.8007655242579323
3205.7008,3.95173298029862
3206.6333,2.1525589437176347
3207.5652,1.7032471221032448
3208.4964,2.6538012015181254
3209.4271,5.904224850992484
3210.3571,4.554521713018513
3211.2865,6.254695371046161
3212.2154,5.404749362980158
3213.1436,5.404687164178283
3214.0712,2.3545121959508224
3214.9982,6.2042278255611905
3215.9246,2.3038373967276806
3216.8503,4.853344191126309
3217.7755,1.7027514673947197
3218.7001,5.552062435637114
3219.624,2.9012802889301836
3220.5473,4.400408164829992
3221.4701,4.499449171879803
3222.3922,5.698406374618796
3223.3137,4.59728279259166
3224.2346,5.146081388359019
3225.1549,4.144805078508676
3226.0746,5.893456728167617
3226.9937,6.942039161014779
3227.9121,4.190555141794531
3228.83,6.439007365830851
3229.7473,5.637398486542169
3230.6639,6.93573109295684
3231.5799,4.884007717729236
3232.4954,3.7822308241564135
3233.4102,7.78040282669536
3234.3244,5.778526101980746
3235.238,3.3266029488432216
3236.151,2.524635608328172
3237.0634,5.822626288214955
3237.9752,9.470577171036568
3238.8864,5.818490381099757
3239.797,5.116367948005483
3240.7069,7.264211843169813
3241.6163,5.362023986845131
3242.5251,7.059806226641703
3243.4332,6.557560356549556
3244.3408,4.555288099960651
3245.2477,4.702991114691349
3246.154,5.05067101300513
3247.0598,6.798329360135556
3247.9649,5.495967670809487
3248.8694,6.693587391770485
3249.7733,5.941189914802436
3250.6766,2.838776564753361
3251.5793,6.0363486070593755
3252.4814,5.53390727876884
3253.3829,6.481453756566626
3254.2838,6.778989161798535
3255.1841,4.126514550995828
3256.0838,2.8240309128998793
3256.9829,6.2715391949869135
3257.8814,6.669040316492847
3258.7792,3.8165351339382028
3259.6765,5.064024437153102
3260.5731,5.561508977802313
3261.4692,7.108989456910359
3262.3647,7.006466519886674
3263.2595,7.503940741050798
3264.1538,2.1514126246576017
3265.0474,5.048882599922552
3265.9404,4.3963510745469865
3266.8329,4.293818405743416
3267.7247,4.54128490676084
3268.616,5.938750847910075
3269.5066,5.5362164540890895
3270.3966,5.083681890808337
3271.286,5.931147268216113
