RamanShift,CorrectedData
30.1047,1179.6323472971003
32.3739,1095.7170776417572
34.6426,1010.6517961900903
36.9109,927.3864801886056
39.1787,843.9710967772903
41.4461,759.7056038222669
43.7131,677.889950749946
45.9796,593.1240793896824
48.2456,511.9579247919308
50.5112,424.9914160759051
52.7764,345.27447724123954
55.0411,264.75702803765444
57.3054,179.638984762125
59.5692,100.37026106405614
61.8326,18.70076879646291
64.0955,-61.119581191342164
66.3579,-138.9908782370543
68.6199,-211.86260109375255
70.8815,-275.6828399956426
73.1426,-301.8475686695456
75.4032,-226.90000677071077
77.6634,90.7196415028227
79.9231,956.5734386840835
82.1824,2985.7734463989045
84.4412,6782.731716707383
86.6995,12175.410271811887
88.9574,17645.17106608746
91.2148,21590.12593215505
93.4717,23481.886526183895
95.7282,23950.564288441965
97.9842,23937.270424378374
100.2398,23429.015899936592
102.4949,22923.96144168738
104.7495,22155.867541911353
107.0036,21372.6944636495
109.2573,20613.15224838414
111.5105,19876.850723870644
113.7632,19117.69951173288
116.0154,18466.558034826183
118.2672,17931.33552482891
120.5185,17389.491028753844
122.7693,16953.783414300393
125.0197,16590.62137527308
127.2696,16269.663435938573
129.519,16054.917954657343
131.7679,15798.243127093216
134.0163,15625.046988360844
136.2642,15386.037415592455
138.5117,15163.0221296698
140.7587,14925.558697614266
143.0052,14722.754534817013
145.2512,14461.266907413617
147.4967,14175.802934312116
149.7417,13989.869589807879
151.9863,13769.373706438244
154.2304,13681.271976841846
156.4739,13448.670955963607
158.717,13292.177061935705
160.9596,13046.196578403627
163.2017,12759.185656091086
165.4433,12430.20031525983
167.6844,12024.74644857975
169.925,11664.579824418743
172.1651,11248.056090897227
174.4047,10920.53077948984
176.6439,10593.759309190647
178.8825,10276.496989788417
181.1206,10030.699025134316
183.3582,9777.570516314552
185.5954,9604.51646410834
187.832,9454.14177151919
190.0681,9318.901245505454
192.3037,9227.84959848406
194.5388,9090.69144968293
196.7734,9046.081326051488
199.0075,9032.023663632244
201.2411,9068.9728080069
203.4742,9047.033014436925
205.7068,9091.358447494058
207.9389,9078.753181279717
210.1704,9135.421198981729
212.4015,9153.866393000393
214.632,9226.392564381802
216.862,9303.603422633387
219.0915,9427.502584998649
221.3205,9545.29357568507
223.549,9761.2798246251
225.777,9974.764666298266
228.0044,10317.251337571295
230.2314,10694.892975563274
232.4578,11060.39261422078
234.6837,11364.403180541454
236.909,11512.377490919032
239.1339,11394.168248103202
241.3582,11063.778039719902
243.582,10581.559339453375
245.8053,10162.514510350094
248.0281,9728.145809640942
250.2503,9376.905392931658
252.472,9119.145318546533
254.6932,8940.317551040793
256.9139,8733.573963778228
259.134,8647.516340719445
261.3536,8485.446378489321
263.5727,8352.86568723757
265.7912,8204.575792259446
268.0092,8072.328135321549
270.2267,7914.524076144726
272.4436,7781.264893726541
274.6601,7672.851787919331
276.8759,7558.085880762779
279.0913,7507.268217568058
281.3061,7478.099768065489
283.5204,7504.131426912711
285.7341,7564.414013986368
287.9473,7655.598274121791
290.16,7849.034876510181
292.3721,8112.524413786752
294.5837,8454.61740009638
296.7947,8761.964268458702
299.0052,8857.46536734717
301.2152,8664.820957615608
303.4246,8239.431211543195
305.6334,7665.046214760893
307.8418,7122.065970505359
310.0495,6649.890405362793
312.2568,6355.869374698739
314.4635,6140.102667379837
316.6696,6043.340008714042
318.8752,6002.481062608278
321.0802,5996.325432536076
323.2847,6054.172661946161
325.4887,6040.122234324006
327.692,5930.02357261336
329.8949,5791.376039356761
332.0972,5517.028937796513
334.2989,5188.781513261163
336.5001,4879.832955908976
338.7007,4644.132404010412
340.9008,4490.3789470376
343.1003,4337.121628021356
345.2992,4260.759445088706
347.4976,4166.541352995468
349.6955,4155.066263889868
351.8927,4163.333048254721
354.0895,4143.1905350221805
356.2856,4143.237511491081
358.4812,4067.6727235283543
360.6763,4064.994875568558
362.8707,3992.152631369532
365.0646,3954.5446140391705
367.258,3927.0694067638524
369.4508,3868.425553184503
371.643,3884.511557671358
373.8346,3827.275885910407
376.0257,3742.9169647425224
378.2162,3643.1331827358335
380.4062,3493.372891029305
382.5956,3298.7844043305613
384.7844,3156.4160024135126
386.9726,3034.56593206423
389.1603,2961.032408504627
391.3474,2884.6636166109656
393.5339,2829.5577116491913
395.7199,2767.8128200386127
397.9052,2741.7270399029676
400.09,2694.0984416878746
402.2743,2720.675068421684
404.4579,2721.354936191761
406.641,2853.2860338787304
408.8235,2997.916323149675
411.0054,3303.8937371388165
413.1868,3713.0661790012273
415.3675,4022.931518853042
417.5477,4215.1375896797435
419.7273,4189.532184237498
421.9064,4033.7130531311013
424.0848,3901.827905070033
426.2627,3634.1244084266473
428.4399,3342.3001925550216
430.6166,3001.052850467995
432.7928,2589.57994175541
434.9683,2302.0289959965903
437.1432,2101.047516875058
439.3176,1932.882985054057
441.4914,1837.9328601863508
443.6645,1783.4945825958876
445.8371,1686.8655742272858
448.0091,1599.2932391902232
450.1806,1545.974964725723
452.3514,1457.8581220818833
454.5216,1438.640067047063
456.6913,1320.6681408310324
458.8603,1323.6396702571747
461.0288,1377.7519689421952
463.1967,1379.4523372664062
465.3639,1486.4380618326086
467.5306,1613.45641544908
469.6967,1748.1546560597253
471.8622,1896.7300254738875
474.0271,2013.4797480193665
476.1914,2067.7010290566614
478.3551,2016.441053811477
480.5182,1947.6469868325075
482.6807,1899.9159725040463
484.8426,1940.045135733917
487.0039,2142.5315824307945
489.1647,2471.9723991029005
491.3248,2853.0146508331563
493.4843,3025.8553779847607
495.6432,3035.5415923907694
497.8015,2942.9202756256946
499.9592,2955.188378908635
502.1163,2923.2428240294994
504.2728,2727.0305032263095
506.4287,2449.5482795046682
508.5839,2053.5929885998794
510.7386,1723.5614417517681
512.8927,1500.900429664238
515.0461,1383.9067258055802
517.199,1244.6770886350841
519.3512,1189.0082627729716
521.5029,1189.2969803927008
523.6539,1199.339961777654
525.8043,1196.5339153182467
527.9541,1234.125537411499
530.1033,1268.3115124891046
532.2519,1314.138512641497
534.3999,1462.853197276012
536.5472,1760.8522126585904
538.694,2224.882190426657
540.8401,2815.5897446091076
542.9856,3286.1214669860274
545.1305,3443.7739211816097
547.2748,3287.5436379588355
549.4185,2891.177113642947
551.5615,2530.370811683757
553.704,2346.171166619304
555.8458,2253.774587683931
557.987,2205.5774606502673
560.1276,2091.8261487532054
562.2675,2007.0669931718621
564.4069,1936.9963141670942
566.5456,1817.3604119290958
568.6837,1670.8055672780993
570.8212,1462.1780428607362
572.958,1298.7740846155866
575.0942,1089.2399238594517
577.2299,1000.7217789213973
579.3648,1040.565857238089
581.4992,1121.2183562389782
583.6329,1340.625462947868
585.766,1561.0333531763808
587.8985,1670.538189329889
590.0304,1683.1861182034372
592.1616,1604.1732698866927
594.2922,1512.7957576374574
596.4222,1400.6496786718144
598.5515,1265.8811150778947
600.6802,1099.536134937327
602.8083,974.9607936729371
604.9358,910.6011357121952
607.0626,829.903195732968
609.1888,741.3629993071117
611.3144,640.3265637074601
613.4393,522.7398987932174
615.5636,376.94900802033044
617.6873,309.7998896173449
619.8103,221.58853804333194
621.9327,184.6609446593593
624.0544,163.06309861062618
626.1756,213.0409871957254
628.2961,197.2905960826156
630.4159,142.75790880886052
632.5351,114.63890693911344
634.6537,67.62957061045563
636.7716,24.575878813588133
638.8889,32.17380986292483
641.0056,74.76909655984673
643.1216,69.10747138399893
645.237,96.48466606734473
647.3518,96.5464116507701
649.4659,131.93843821032533
651.5793,147.85647485659138
653.6922,150.19624938077504
655.8043,156.80348809551833
657.9159,136.7739158115055
660.0268,60.05325577138865
662.137,3.787229850093354
664.2466,-31.228440677990875
666.3556,-53.048072372903334
668.4639,-52.225669822570126
670.5716,28.23529233532463
672.6786,110.53186119753627
674.785,189.4610835784697
676.8907,265.92000518721034
678.9958,361.0056698382341
681.1002,344.815118686829
683.204,317.24538927822505
685.3072,258.99351570950785
687.4097,203.55652890531746
689.5115,168.3314572003601
691.6127,122.26532689378473
693.7132,54.75516260143377
695.8131,5.3479877164936624
697.9123,-30.359174915385665
700.0109,-57.669355874963
702.1089,-71.8852824548485
704.2061,-72.40910583078403
706.3028,-16.392259044549064
708.3987,56.664548229049615
710.4941,112.2107700738652
712.5887,302.4458600071157
714.6827,586.5692704239118
716.7761,954.680450694912
718.8688,1323.2288443250782
720.9608,1517.4638852725748
723.0522,1510.2849942632747
725.1429,1278.9415768484268
727.233,989.9830234764249
729.3224,659.0587118062522
731.4112,412.21800959706707
733.4993,227.9102780174435
735.5867,102.18487411378555
737.6735,36.891152653393874
739.7596,-14.171532618269339
741.845,14.946171675346704
743.9298,18.693760484400627
746.014,21.720728609598154
748.0974,51.226570664703104
750.1802,82.3107810462825
752.2624,62.072853638634115
754.3439,75.71228150296156
756.4247,126.92855707973285
758.5048,255.7711720523057
760.5843,405.38961683475645
762.6631,649.4833792834525
764.7413,1053.5019432008721
766.8188,1520.0947858946583
768.8956,1960.8113741374436
770.9718,2240.101159500922
773.0473,2106.5135739486686
775.1221,1832.2480270432497
777.1962,1514.5539072821066
779.2697,1333.8805848401953
781.3426,1414.177414746935
783.4147,1712.7437386929414
785.4862,1990.2288842270664
787.557,2047.6821617707246
789.6271,1739.3028618430544
791.6966,1265.6902544863697
793.7654,825.3435923499619
795.8335,557.4621154262222
797.901,420.4450554541072
799.9678,379.49163859795954
802.0339,395.50108681767415
804.0993,450.8226182782346
806.1641,460.2054471896208
808.2282,433.8487832535866
810.2916,343.6018315698311
812.3544,242.96379289957622
814.4164,194.03386456802946
816.4778,219.76124147076007
818.5385,194.24511656300092
820.5986,250.934680602375
822.658,319.3291224040586
824.7166,363.8776282738909
826.7747,511.6793813244294
828.832,594.6835610294511
830.8886,675.189341745946
832.9446,828.2458918840675
834.9999,900.2023731020827
837.0545,994.4579387758004
839.1085,1055.2117332790103
841.1618,1063.6628910409272
843.2143,1078.810535938659
845.2662,1057.7537812126839
847.3175,1011.0417293153769
849.368,910.2734721215847
851.4179,826.0980913957374
853.467,702.6646597995314
855.5155,604.8222417336874
857.5633,542.1698945722756
859.6105,470.0066696411468
861.6569,404.8816128444578
863.7027,326.9437653862933
865.7478,337.3921644219299
867.7922,362.5258438372075
869.8359,429.5938341440469
871.8789,546.295162229113
873.9212,697.8288506831386
875.9629,876.1939166339116
878.0039,1067.5893702309322
880.0441,1157.814212861772
882.0837,1121.467435238108
884.1226,1038.0980164934836
886.1609,917.6049245467748
888.1984,804.4371169358756
890.2352,752.8435420226406
892.2714,710.8231401245548
894.3069,707.574844030667
896.3416,647.2475794218035
898.3757,649.5402649030402
900.4091,685.1018126069803
902.4418,709.0811281708275
904.4739,716.9771103807698
906.5052,695.1886509321866
908.5358,634.4146343506973
910.5658,489.9539382100347
912.595,376.2054337397931
914.6236,271.3679872700295
916.6515,283.2404613687477
918.6786,274.9217158902775
920.7051,342.9606078565512
922.7309,471.6559915402813
924.756,545.7067177845811
926.7804,635.6616327160027
928.8041,614.1695770040342
930.8272,626.6293849615495
932.8495,568.1398847597275
934.8711,513.9498983034573
936.892,389.7582418162292
938.9123,278.263726382037
940.9318,146.36515918729856
942.9506,53.16134463579965
944.9688,-19.548914332323875
946.9862,-39.01681530854421
949.003,-70.243360590679
951.019,-47.82916269856469
953.0344,-16.12413242087132
955.0491,33.222297267068825
957.063,115.71085446999678
959.0763,187.09226696043788
961.0888,247.81726135380632
963.1007,331.9865623945934
965.1119,396.45089234912484
967.1223,446.1609701638654
969.1321,479.9675108207766
971.1412,513.1212248402153
973.1495,530.6728179428665
975.1572,552.022990718212
977.1641,631.5724384490086
979.1704,611.021850897786
981.1759,614.2219115113512
983.1808,692.0732976262962
985.1849,773.2266804369974
987.1884,951.4327242171012
989.1911,1116.8420855079921
991.1932,1258.5554113367261
993.1945,1309.5233375619428
995.1951,1300.9464874567302
997.1951,1288.5254711989455
999.1943,1235.8108859569893
1001.1928,1194.3033160140103
1003.1906,1181.9533332950496
1005.1877,1215.6114977821235
1007.1841,1202.0283576377133
1009.1798,1109.8544488681928
1011.1748,965.9402954596544
1013.1691,783.9364102996487
1015.1627,615.34329661633
1017.1556,467.0114497984887
1019.1477,397.7413590814831
1021.1392,340.0335090305616
1023.1299,381.838380233562
1025.12,397.25644987799205
1027.1093,461.1881913329753
1029.0979,536.7840739950752
1031.0859,601.3945626489767
1033.0731,596.620116711526
1035.0596,553.1111895856257
1037.0454,429.11822870797914
1039.0304,321.39167598418226
1041.0148,246.18196902864838
1042.9985,163.33954224188074
1044.9814,163.56482756256355
1046.9636,120.70825529598551
1048.9452,122.97025411179493
1050.926,140.25125147255676
1052.9061,139.05167361113854
1054.8855,136.92194535789895
1056.8642,175.36249015268186
1058.8421,203.5237300661156
1060.8194,253.7560854152025
1062.7959,277.1599744817149
1064.7717,316.6858130098635
1066.7469,307.8340139722686
1068.7213,287.1049871746891
1070.695,277.0991393445529
1072.6679,220.71687433823354
1074.6402,201.85859324111516
1076.6117,179.02469493141598
1078.5826,199.5655762687702
1080.5527,278.3816323225665
1082.5221,423.32325616653816
1084.4908,598.0908380906103
1086.4587,833.3347641514738
1088.426,975.5054144249161
1090.3925,993.4031606533799
1092.3584,917.7783648242594
1094.3235,799.38137899092
1096.2879,725.2125460289453
1098.2515,691.9222008201068
1100.2145,713.7606709940537
1102.1767,772.928277261215
1104.1382,923.025333194415
1106.099,1114.4521446371964
1108.0591,1315.359008202855
1110.0185,1440.2962093601664
1111.9771,1421.8640204243247
1113.9351,1249.8126993075612
1115.8923,979.5424897034709
1117.8488,681.8036228075298
1119.8045,453.3463200197848
1121.7596,343.870795922252
1123.7139,300.7272605634862
1125.6675,314.7159205533353
1127.6204,386.7869794943772
1129.5726,402.44063784203536
1131.524,437.07709218386753
1133.4748,479.39653508301944
1135.4248,526.3991547318701
1137.3741,561.7351345288334
1139.3226,530.904652608333
1141.2705,533.0578814874461
1143.2176,471.44498837420633
1145.164,505.01613514607016
1147.1097,546.0714789660451
1149.0546,538.4611719469804
1150.9989,475.7853607410116
1152.9424,322.84418661566633
1154.8852,165.28778608062203
1156.8272,53.41629241711598
1158.7686,23.32983725351096
1160.7092,-22.97144831599053
1162.6491,-15.437433430481178
1164.5883,66.93224225570975
1166.5267,164.73809330821314
1168.4644,289.78063362333796
1170.4014,435.210375450014
1172.3377,647.9778281393701
1174.2732,826.0834966904322
1176.2081,1019.0278796224529
1178.1421,1165.561467193852
1180.0755,1287.38473947277
1182.0082,1332.8981648717381
1183.9401,1276.9021989294415
1185.8713,1112.6472838555837
1187.8017,912.4338490908476
1189.7315,705.6123129494454
1191.6605,490.68308462125333
1193.5888,347.69656624002346
1195.5163,250.3031550326823
1197.4432,188.35324474919344
1199.3693,138.54722663649136
1201.2947,108.93549005798013
1203.2193,115.16842299159362
1205.1432,159.6964123259122
1207.0664,201.06984379783535
1208.9889,285.73910154729947
1210.9106,357.3545677035463
1212.8316,445.11662153842735
1214.7519,522.8756387502517
1216.6715,550.9319905861621
1218.5903,551.0360430645514
1220.5084,504.03815669448704
1222.4257,490.48868647468225
1224.3424,448.93798236347175
1226.2583,497.1363894143042
1228.1735,628.2342481912465
1230.0879,721.6818942870095
1232.0016,866.8796570119594
1233.9146,888.3778584596421
1235.8269,845.6768120548131
1237.7384,727.0768223384575
1239.6492,579.6781853947887
1241.5592,487.98119003725515
1243.4686,419.9861192825256
1245.3772,378.5432512674579
1247.285,336.5028599290499
1249.1922,336.91521541887323
1251.0986,319.4305845234694
1253.0042,340.6492306602295
1254.9092,400.97141405224374
1256.8134,505.94739151610975
1258.7169,649.2274158587161
1260.6196,791.0617348274773
1262.5216,975.0505896775358
1264.4229,1075.2442137534217
1266.3234,1188.3428306491596
1268.2232,1224.9966532063345
1270.1223,1208.8558823831008
1272.0207,1187.8707068876556
1273.9183,1172.3913033396348
1275.8151,1112.8178364799705
1277.7113,1061.3004593256874
1279.6067,948.0393137656301
1281.5014,817.1845310756444
1283.3953,710.386233051182
1285.2885,656.4445333158537
1287.181,624.3095383894106
1289.0727,644.9813482271602
1290.9637,668.8100565413124
1292.854,805.7957505942677
1294.7435,921.0385109603276
1296.6323,1147.98841015584
1298.5204,1370.5455114867718
1300.4077,1603.809866779211
1302.2943,1767.481514153791
1304.1802,1851.660475693052
1306.0653,1785.7467558047192
1307.9497,1699.440340379916
1309.8333,1642.4911974523002
1311.7162,1640.4992780611274
1313.5984,1731.5645168207411
1315.4798,1867.2868319404997
1317.3605,2018.8161243141149
1319.2405,2167.6022761624317
1321.1197,2222.845149518137
1322.9982,2208.3445847379
1324.876,2186.40039994994
1326.753,2173.262391199035
1328.6293,2210.980332665963
1330.5048,2230.4039767988834
1332.3796,2203.033053936155
1334.2537,2183.067272112102
1336.127,2179.3563173307202
1337.9996,2142.499853765339
1339.8714,2129.3475237957227
1341.7426,2067.648948376641
1343.6129,2049.703727169389
1345.4826,1995.0114391587722
1347.3515,1960.47164283256
1349.2196,1937.0838767284104
1351.087,1943.7976597792622
1352.9537,2010.2124915472205
1354.8197,2125.177852156414
1356.6849,2267.643201628851
1358.5493,2346.5079787347595
1360.4131,2351.4215995679415
1362.276,2319.333456757123
1364.1383,2167.49291941681
1365.9998,1987.6493334681827
1367.8606,1775.5020231574917
1369.7206,1582.4002928544987
1371.5799,1448.7934291739484
1373.4384,1372.6307029065802
1375.2962,1285.3613703552041
1377.1533,1121.1346740963281
1379.0096,884.0998438528454
1380.8652,662.3060981363064
1382.7201,491.5526466172637
1384.5742,339.288692343212
1386.4275,221.71343344612296
1388.2802,135.62606466508078
1390.132,78.92577852204204
1391.9832,60.16176618270174
1393.8336,14.083218023501104
1395.6832,-7.560676180733935
1397.5322,-32.870726796009876
1399.3803,-23.9976686571772
1401.2278,-17.441908220528603
1403.0745,4.546387794351176
1404.9204,-2.5327730874596455
1406.7656,16.02061661365451
1408.6101,46.40658967971058
1410.4538,85.77517873251918
1412.2968,131.3264159298269
1414.139,183.51033257163044
1415.9805,272.8769586446665
1417.8213,362.9763223005689
1419.6613,504.50844896220497
1421.5006,661.7733604226801
1423.3391,912.7210734300179
1425.1769,1244.151598114514
1427.0139,1693.6649354792526
1428.8502,2227.1610740858027
1430.6858,2765.6899855590873
1432.5206,3154.801619252419
1434.3547,3366.945896862212
1436.188,3407.072708536864
1438.0206,3334.781910755318
1439.8524,3246.7233259257937
1441.6835,3176.9967431086866
1443.5139,3110.3019188971657
1445.3435,3061.988578114427
1447.1724,3019.1564144806525
1449.0005,2968.305091096139
1450.8279,2888.4342408696234
1452.6545,2897.3434670267916
1454.4804,2927.832343908986
1456.3056,2939.6504168841197
1458.13,2865.5972020417835
1459.9536,2699.3721860750643
1461.7766,2359.9748270210794
1463.5987,2024.1045559232275
1465.4202,1720.3607802251568
1467.2409,1421.6928871294758
1469.0608,1196.4002466351844
1470.88,990.4322145243555
1472.6984,815.6881346150622
1474.5161,659.3173408210564
1476.3331,542.2191588992109
1478.1493,455.49290801322513
1479.9648,378.73790190460977
1481.7795,331.4034497599482
1483.5935,271.68885697844553
1485.4067,238.59342564527515
1487.2192,209.86645512872337
1489.031,198.10724241114212
1490.842,164.46508237622038
1492.6522,151.7392679265772
1494.4618,121.37909032018115
1496.2705,143.4838392976094
1498.0785,126.35280338564644
1499.8858,114.08526967624175
1501.6924,122.88052399781463
1503.4981,94.23785103793489
1505.3032,104.1565342553672
1507.1075,107.63585616649925
1508.911,93.72509824615963
1510.7138,82.17354089281707
1512.5159,50.380463567690185
1514.3172,40.34514491026175
1516.1178,22.066863056212696
1517.9176,9.244895737775096
1519.7166,9.128520466513692
1521.515,7.267014661546455
1523.3126,7.609655650707282
1525.1094,-6.14427931084083
1526.9055,-4.695513044030577
1528.7008,-4.694706988445887
1530.4954,-30.392475675495007
1532.2893,-15.089386736466622
1534.0824,-24.13570418182053
1535.8747,-16.881541279041812
1537.6663,-3.476770179932828
1539.4572,-12.12109438970083
1541.2473,-3.3141826806208883
1543.0367,5.6444172647629784
1544.8253,2.60519087259172
1546.6132,21.718623512561408
1548.4003,35.58520052831818
1550.1867,77.95540704632413
1551.9723,86.42972783719006
1553.7572,109.15864689197497
1555.5414,122.59264733744294
1557.3247,184.9822112087718
1559.1074,224.97781931521604
1560.8893,294.1799506162074
1562.6705,350.3390818214011
1564.4509,423.30568669865306
1566.2305,483.48023551243205
1568.0094,583.0131942941512
1569.7876,647.3050242404206
1571.565,699.5561807177223
1573.3417,762.6671126194865
1575.1176,770.9882618435845
1576.8928,777.52006266122
1578.6672,705.0629416337138
1580.4409,628.0173175471878
1582.2138,531.3336021371351
1583.986,442.4622008588781
1585.7575,369.0035138544026
1587.5282,316.75793684107384
1589.2981,285.4758618462238
1591.0673,266.6076777296048
1592.8358,260.2037704962131
1594.6035,259.06452348496805
1596.3704,254.34031743275318
1598.1366,283.8815304858085
1599.9021,319.6385382469716
1601.6668,350.8617134802653
1603.4308,397.1514257533281
1605.194,457.408041125183
1606.9564,542.6819216833396
1608.7182,646.8234249412276
1610.4791,754.6829029854594
1612.2394,901.7107014344156
1613.9988,1077.4571583596467
1615.7576,1271.172602815598
1617.5156,1484.4573530821476
1619.2728,1681.8117147274465
1621.0293,1848.2859784750754
1622.785,1904.580418230495
1624.54,1883.7952894163104
1626.2942,1764.2808284093235
1628.0477,1589.7872527483842
1629.8005,1380.5147623295356
1631.5525,1203.1135411509504
1633.3037,1037.0837594056538
1635.0542,918.8255752555378
1636.804,822.3891364916581
1638.553,758.8745817168151
1640.3013,734.4820413099192
1642.0488,703.6116380611352
1643.7955,720.2134874158091
1645.5416,737.8376977831704
1647.2868,796.6343703703169
1649.0313,876.5535990059675
1650.7751,997.7454695525007
1652.5181,1184.6600591067609
1654.2604,1386.2974347881363
1656.0019,1665.407651869417
1657.7427,1964.9407517604163
1659.4828,2269.7467592168746
1661.222,2460.6756793451236
1662.9606,2518.5274945540277
1664.6984,2367.8021626456966
1666.4354,2087.3996162369626
1668.1717,1710.919764266639
1669.9072,1333.862494799544
1671.642,1035.5776787913
1673.3761,807.365173858906
1675.1094,607.6748272635841
1676.8419,471.0564781929079
1678.5737,395.5599597577029
1680.3048,316.3851003582322
1682.0351,267.9317244391591
1683.7646,234.6996532812982
1685.4934,196.9887054861474
1687.2215,170.29869730820974
1688.9488,150.02944303210188
1690.6754,132.48075523945727
1692.4012,125.45244501161415
1694.1263,112.54432210510686
1695.8506,110.90619502194613
1697.5742,103.23787113870003
1699.297,76.23915672287512
1701.0191,65.40985700960073
1702.7404,66.6497764716164
1704.461,55.10871892756313
1706.1808,57.73648752958661
1707.8999,44.73288487874697
1709.6182,41.84771299873864
1711.3358,38.08077346593018
1713.0527,36.23186743821361
1714.7688,28.700795692673182
1716.4841,10.68735864407563
1718.1987,24.491356420182
1719.9126,16.162589041878164
1721.6257,16.55085628513916
1723.338,11.70595776431469
1725.0496,6.677692928245278
1726.7605,2.8658611087157624
1728.4706,11.720261570734237
1730.18,5.8906935506515765
1731.8886,5.126956167618118
1733.5964,-3.6711515181225423
1735.3036,8.596169502404791
1737.0099,15.428754912976956
1738.7156,-0.7735596885902396
1740.4204,-8.210938858768031
1742.1246,-8.033539426166953
1743.8279,6.908563807880228
1745.5306,9.865376297099147
1747.2325,-10.513096573869461
1748.9336,3.7731504809617036
1750.634,-2.8257722265859684
1752.3336,15.590245577577889
1754.0325,4.2213423970069925
1755.7307,-4.632343420645611
1757.4281,2.9793264300599276
1759.1247,7.156536531673964
1760.8206,6.749471436954082
1762.5158,4.708315627093953
1764.2102,12.533253515793149
1765.9039,6.7244694696687475
1767.5968,16.03214773000741
1769.289,9.056472470850395
1770.9804,5.247627705917921
1772.6711,19.005797358366408
1774.361,17.98116529887716
1776.0502,24.623915208073413
1777.7386,19.034230586766853
1779.4263,12.06229468953211
1781.1132,21.908290580601715
1782.7994,17.57240120358597
1784.4849,28.604809283013992
1786.1696,25.55569736769121
1787.8535,46.67524772037655
1789.5367,18.21364234827297
1791.2192,30.371062791831037
1792.9009,19.04769040936685
1794.5818,24.64370625548554
1796.2621,39.75929119431726
1797.9415,36.49462584355524
1799.6202,35.04989042330203
1801.2982,43.77526478871482
1802.9755,34.77092844445133
1804.6519,47.53706045741865
1806.3277,45.07383954681313
1808.0027,32.18144395646232
1809.6769,43.76005147945489
1811.3504,30.859839587066745
1813.0231,47.38098531297351
1814.6951,47.87366538225342
1816.3664,53.538056046175825
1818.0369,51.37433307727406
1819.7067,56.982671712701176
1821.3757,56.46324667586873
1823.044,55.81623212036152
1824.7115,50.89180163513333
1826.3783,47.740128250976795
1828.0443,56.11138448976635
1829.7096,47.40574239597731
1831.3741,62.37337345297192
1833.0379,64.46444867005516
1834.701,47.62913843279898
1836.3633,62.16761248213152
1838.0248,74.5300400826909
1839.6856,61.166589877439264
1841.3457,66.42742976403929
1843.005,70.31272702848787
1844.6636,72.8726482925083
1846.3214,89.9573594746962
1847.9785,87.06702576492239
1849.6349,82.30181145348638
1851.2904,73.66187996001827
1852.9453,86.2973938811308
1854.5994,78.00851507681887
1856.2528,88.49540454410453
1857.9054,88.00822249992507
1859.5572,90.64712827626431
1861.2083,96.61228032502436
1862.8587,95.50383619163563
1864.5084,91.52195245540724
1866.1572,86.96678474061196
1867.8054,86.08848775630304
1869.4528,90.68721534186784
1871.0994,99.61312047580941
1872.7453,98.76635522975857
1874.3905,79.7970706792164
1876.0349,74.75541691202079
1877.6786,91.74154321803962
1879.3215,85.40559813958794
1880.9637,87.14772930156505
1882.6051,96.26808347481551
1884.2458,97.66680655870618
1885.8858,98.54404348992466
1887.525,95.89993822849056
1889.1634,88.28463374898456
1890.8011,83.79827206698837
1892.4381,90.7909943152381
1894.0743,103.41294078848841
1895.7098,92.16425087358357
1897.3446,97.89506292323927
1898.9786,91.50551436852925
1900.6118,97.89574166157695
1902.2443,93.5658803394515
1903.8761,91.56606496026438
1905.5071,85.4964291464687
1907.1374,96.70710560485873
1908.7669,99.94822618726425
1910.3957,100.3199217784445
1912.0237,85.92232226367719
1913.651,85.25555652504136
1915.2776,92.11975258539314
1916.9034,98.91503761503395
1918.5285,85.39153786306792
1920.1528,84.49937858945054
1921.7764,94.13868420022254
1923.3992,92.50957825643127
1925.0213,85.41218337773807
1926.6427,81.696621258709
1928.2633,61.86301273978847
1929.8832,99.01147784445561
1931.5023,89.49213597755806
1933.1207,83.80510555383034
1934.7383,85.45050409308396
1936.3552,82.92844827708109
1937.9714,77.63905393307869
1939.5868,83.63243605905018
1941.2015,79.9087088765798
1942.8154,83.11798577092759
1944.4286,74.66037932826725
1946.041,67.58600130359287
1947.6528,76.79496270529512
1949.2637,63.68737386590533
1950.8739,62.31334435000599
1952.4834,70.77298308530567
1954.0921,64.36639837638108
1955.7001,68.04369782007961
1957.3074,73.35498836958459
1958.9139,62.000376297643925
1960.5197,60.9799671434555
1962.1247,60.74386582621446
1963.729,59.94217665531619
1965.3325,51.72500333271819
1966.9353,56.242448960956835
1968.5374,47.244616125318544
1970.1387,41.93160684866643
1971.7393,53.95352268141755
1973.3392,51.0604647546736
1974.9383,48.75253366000197
1976.5366,64.1798294783664
1978.1342,44.842451803204995
1979.7311,50.59049958615992
1981.3273,57.57407133044899
1982.9227,55.393265033386115
1984.5173,51.19817811654502
1986.1112,46.58890744756786
1987.7044,42.66554938211425
1989.2968,51.47819980995655
1990.8885,44.92695419421125
1992.4795,48.26190748321346
1994.0697,55.28315417603085
1995.6592,42.19078828911097
1997.2479,47.48490328607113
1998.8359,56.715592208621956
2000.4232,35.78294762362498
2002.0097,48.48706153078706
2003.5955,39.778025571985154
2005.1805,40.05593090422599
2006.7648,47.87086828673796
2008.3484,47.672928078190125
2009.9312,46.9122001585431
2011.5133,56.4887739310293
2013.0946,44.80273832976036
2014.6752,51.80418172396003
2016.2551,56.493192034824915
2017.8342,50.019856665511725
2019.4126,46.48426245424366
2020.9902,42.23649573904754
2022.5672,47.72664239310711
2024.1433,56.70478786724175
2025.7188,41.87101713500465
2027.2935,39.42541460290181
2028.8674,44.168064258730055
2030.4406,50.94904969603249
2032.0131,37.61845406667203
2033.5849,50.076360013021485
2035.1559,48.12284980127038
2036.7261,49.35800519684449
2038.2957,39.18190748394181
2039.8645,48.74463745318121
2041.4325,43.34627550336245
2042.9998,44.33690154583951
2044.5664,46.46659505850312
2046.1323,46.8354350758766
2047.6974,39.79350016781609
2049.2617,32.54086843582468
2050.8254,41.67761758347069
2052.3883,47.30382498891413
2053.9504,43.91956761353913
2055.5118,40.62492194569313
2057.0725,32.71996403452749
2058.6325,51.10476952294448
2060.1917,33.779413726647135
2061.7502,36.343971450291065
2063.3079,34.39851716073804
2064.8649,26.94312496140992
2066.4212,52.077868611745544
2067.9767,39.552821601752385
2069.5315,40.66805690065962
2071.0856,46.773647082169646
2072.6389,36.71966431330475
2074.1915,32.506180293352145
2075.7433,33.733266354402076
2077.2945,20.700993503484142
2078.8448,27.75943241029563
2080.3945,37.5086535375242
2081.9434,33.798727070263794
2083.4916,29.279722818522487
2085.039,28.951710254320915
2086.5857,27.414758556883953
2088.1317,34.51893661591862
2089.677,26.31431304698458
2091.2215,27.65095612045286
2092.7652,24.878933843551863
2094.3083,31.198313947000543
2095.8506,33.10916391272883
2097.3921,39.111550910684855
2098.933,35.65554177972456
2100.4731,33.24120296758974
2102.0124,32.96860056546677
2103.5511,46.53780033213047
2105.089,32.448867696670845
2106.6261,33.201867622799455
2108.1626,27.39686474974019
2109.6983,36.33392338469855
2111.2332,42.96310756091191
2112.7675,34.684480948278974
2114.301,22.64810678706749
2115.8337,38.204047970700685
2117.3657,30.752367166120848
2118.897,42.493126658230835
2120.4276,26.52638842440956
2121.9575,29.952214017105348
2123.4866,33.97066472350309
2125.0149,41.08180153126648
2126.5426,30.53568508835258
2128.0695,32.03237563190123
2129.5956,29.67193309369577
2131.1211,20.204417085196724
2132.6458,23.17988692114568
2134.1698,30.44840171424005
2135.693,35.210020345378894
2137.2155,31.114801390977732
2138.7373,32.662803075352485
2140.2584,29.904083311670547
2141.7787,32.98869968647227
2143.2983,25.516709487257685
2144.8171,34.63816967163996
2146.3353,35.953136942065726
2147.8527,27.561667654600797
2149.3693,34.36381780578063
2150.8853,32.85964311652424
2152.4005,30.299198964112975
2153.9149,31.08254039723215
2155.4287,33.9097221615757
2156.9417,28.680798692012672
2158.454,22.695824084315063
2159.9655,33.50485214744754
2161.4764,25.10793646341733
2162.9865,27.605130279182617
2164.4958,26.196486590623408
2166.0045,29.532058117568226
2167.5124,37.66189731788165
2169.0195,30.786056354108382
2170.526,30.354587012174534
2172.0317,36.11754077014575
2173.5367,33.67496880254237
2175.0409,36.9269219227092
2176.5445,38.57345060724208
2178.0473,30.26460496346772
2179.5494,39.200434712979245
2181.0507,33.58098927472406
2182.5513,37.956317675645096
2184.0512,34.32646860687623
2185.5504,32.89149037998857
2187.0488,24.35143096328852
2188.5465,31.856337996167895
2190.0435,29.056258874505147
2191.5397,28.051240675615418
2193.0353,37.591330186251525
2194.5301,27.726573912654544
2196.0241,29.907017985152265
2197.5175,26.33270825680711
2199.0101,31.003690281611284
2200.502,19.420009350230657
2201.9931,16.13171044329465
2203.4835,13.188838347233286
2204.9733,22.541437687159373
2206.4622,28.089552956298576
2207.9505,11.583228422462184
2209.438,22.12250807256669
2210.9248,25.757435777696855
2212.4109,25.28805518771287
2213.8962,20.314409694900746
2215.3809,16.386542438666766
2216.8648,29.654496355273636
2218.3479,32.218314217119314
2219.8304,20.77803850005671
2221.3121,16.983711357756306
2222.7931,9.535374736108679
2224.2733,16.68307041116759
2225.7529,23.82684006363388
2227.2317,21.666725207377795
2228.7098,19.152767118002203
2230.1872,19.53500685444226
2231.6638,18.86348528410599
2233.1397,14.988243079051813
2234.6149,20.20932072270284
2236.0894,15.27675854860047
2237.5632,16.090596688193045
2239.0362,15.350875120161732
2240.5085,7.8076336622821145
2241.9801,2.6609119788215594
2243.4509,12.060749655971222
2244.921,13.00718625331399
2246.3904,9.800261209825408
2247.8591,9.290013834409478
2249.3271,9.97648333796758
2250.7943,4.209708838501456
2252.2608,8.08972935424788
2253.7266,7.91658386134759
2255.1917,8.640311255044026
2256.656,2.110950351414999
2258.1197,7.82853988013585
2259.5826,1.9931185497725892
2261.0447,11.054724990606019
2262.5062,9.613397812986364
2263.9669,3.2191755167164047
2265.4269,13.172096505465674
2266.8862,14.772199150712254
2268.3448,14.419521692213152
2269.8026,0.9641022220041577
2271.2598,9.405978687925654
2272.7162,13.645179406437364
2274.1719,7.481732599938255
2275.6268,23.715666354376026
2277.0811,17.597008680881572
2278.5346,15.22578735342995
2279.9874,10.652029970025296
2281.4395,15.275763976415192
2282.8908,11.847016711826427
2284.3414,10.46581536272879
2285.7914,21.532186997121926
2287.2406,19.64615857834724
2288.689,15.507756854424088
2290.1368,10.217008376910712
2291.5838,13.773939542287962
2293.0302,8.528576644867144
2294.4758,13.580945841220569
2295.9206,3.231073202635457
2297.3648,13.678984664589507
2298.8082,11.17467388413911
2300.251,15.71813438155084
2301.693,15.509359565344994
2303.1343,12.848342686860747
2304.5748,18.63507684234378
2306.0147,17.76955499955693
2307.4538,17.151769939912015
2308.8922,18.031714267126404
2310.3299,14.359380413399549
2311.7669,6.734760630614119
2313.2031,19.157847027059688
2314.6387,11.278631643677954
2316.0735,6.147106329833036
2317.5076,15.26326282210266
2318.941,12.327092795593785
2320.3737,6.338587772781466
2321.8056,11.447739152869758
2323.2369,10.20453827167728
2324.6674,13.958976350545186
2326.0972,13.311044508769214
2327.5263,14.360733726055287
2328.9547,11.65803484899891
2330.3823,13.452938580588238
2331.8092,12.945435507232105
2333.2355,13.935516080809862
2334.661,16.673170623746955
2336.0858,16.958389319113962
2337.5098,11.39116218324989
2338.9332,17.12147906291011
2340.3558,19.89932969093877
2341.7778,14.824703628965494
2343.199,16.39759023962756
2344.6195,26.96797873731498
2346.0393,26.53585817244266
2347.4583,20.701217325745574
2348.8767,29.014044712600935
2350.2943,19.62432864137361
2351.7113,19.832057130288717
2353.1275,13.187218001328347
2354.543,21.639798878154807
2355.9578,21.389787252557994
2357.3718,19.73717039993005
2358.7852,22.581935381766016
2360.1978,24.224069062189642
2361.6098,24.363558079505424
2363.021,20.10038882977767
2364.4315,28.684547465434775
2365.8413,30.916019937901865
2367.2504,21.944791911758784
2368.6587,26.620848742425324
2370.0664,24.044175565873388
2371.4733,31.714757251866786
2372.8795,17.432578429727755
2374.285,28.247623411631025
2375.6899,11.359876335426065
2377.0939,20.969321056486706
2378.4973,23.725941316587978
2379.9,23.479720647811973
2381.3019,23.63064234498154
2382.7032,25.028689468122707
2384.1037,24.273844840954894
2385.5035,27.566091036911075
2386.9027,27.4554103866858
2388.3011,26.591784945312952
2389.6987,26.025196493272574
2391.0957,23.405626545126893
2392.492,15.33305635518684
2393.8876,22.807466943707027
2395.2824,22.12883917761178
2396.6765,18.847153695750762
2398.07,19.612390915685296
2399.4627,21.474531066505733
2400.8547,19.53355418117826
2402.246,21.439440077924814
2403.6366,16.74216837963104
2405.0265,21.341718494789234
2406.4156,18.088069664470368
2407.8041,21.181200916328407
2409.1918,25.571091097136787
2410.5789,24.357718841857604
2411.9652,14.24106252974218
2413.3508,25.121100296464988
2414.7358,23.397810135290342
2416.12,26.121169788271573
2417.5035,17.49115676348481
2418.8863,19.507748307794145
2420.2684,28.670921493152832
2421.6497,26.280653196436333
2423.0304,33.83692000781127
2424.4104,29.139698254638006
2425.7896,19.98896392590825
2427.1682,22.234692719216355
2428.546,31.026860132267757
2429.9232,21.715441440421273
2431.2996,33.90041160876706
2432.6753,27.531745385241493
2434.0503,31.359417178776937
2435.4246,23.783401122988607
2436.7982,27.15367103789788
2438.1711,33.77020050569217
2439.5433,29.232962837022512
2440.9148,28.041931004838318
2442.2856,28.19707768975934
2443.6557,28.398375291986554
2445.025,29.195795929750034
2446.3937,26.38931143729667
2447.7617,24.278893356915205
2449.1289,31.464512967001667
2450.4955,24.44614130316336
2451.8613,31.92374908636259
2453.2265,36.19730679310055
2454.5909,38.96678458064093
2455.9546,29.732152244274857
2457.3177,31.443379189625603
2458.68,24.750434524995512
2460.0416,33.55328704425324
2461.4025,33.7019052937639
2462.7627,40.79625748435967
2464.1222,37.8363114898541
2465.4811,35.37203477609813
2466.8392,36.05339443058023
2468.1966,39.53035718706843
2469.5533,44.95288941879721
2470.9093,38.820957103697765
2472.2645,50.034525770172536
2473.6191,44.843560558414424
2474.973,43.49802610827163
2476.3262,44.29788661115691
2477.6787,37.593105823502924
2479.0305,46.43364705876371
2480.3816,49.419473254462446
2481.7319,44.300546883786126
2483.0816,40.626829925727066
2484.4306,46.498283916272044
2485.7789,41.31486998513992
2487.1264,49.976548797066926
2488.4733,39.133280603640685
2489.8195,50.73502515668355
2491.165,45.58174181668522
2492.5097,41.97338943678551
2493.8538,42.95992641430706
2495.1972,43.591310726839026
2496.5398,42.8174999223711
2497.8818,52.78845111298
2499.2231,47.70412098256759
2500.5637,41.914465687151846
2501.9035,38.71944090570963
2503.2427,51.06900189807345
2504.5812,50.01310353688166
2505.919,52.351700184082574
2507.256,54.03474570149365
2508.5924,48.262193427415355
2509.9281,56.13399615980103
2511.2631,47.1501062139821
2512.5974,52.6104753439505
2513.9309,46.41505483219714
2515.2638,51.11379543510856
2516.596,52.556647444921055
2517.9275,59.043560642732984
2519.2583,47.574484284076505
2520.5884,49.44936703404824
2521.9178,51.0681570820002
2523.2465,54.330802122791
2524.5745,54.93724934059799
2525.9018,53.38744537629077
2527.2284,54.131336321366575
2528.5543,56.568867733448315
2529.8796,59.799984628845834
2531.2041,58.4746314581804
2532.5279,57.84275207407347
2533.851,53.354289744400546
2535.1735,56.30918715860946
2536.4952,53.857386472605526
2537.8163,54.54882927920238
2539.1366,54.53345663263974
2540.4562,55.061209041669485
2541.7752,55.83202646970881
2543.0935,54.29584832956351
2544.411,58.8526134757189
2545.7279,54.70226021970217
2547.0441,58.944726284514275
2548.3596,57.67994884613415
2549.6744,63.907864491093164
2550.9885,51.9284092291237
2552.3019,62.241518430879694
2553.6146,54.597126947731056
2554.9266,62.395169008632536
2556.2379,59.33557829656803
2557.5485,56.56828787056992
2558.8585,56.143230196314846
2560.1677,67.71033717379697
2561.4762,59.86954014157834
2562.7841,54.720769761117594
2564.0913,60.31395609517858
2565.3977,67.89902865931725
2566.7035,58.92591636595057
2568.0086,61.544547448505284
2569.313,62.804849551149175
2570.6167,60.45674970260495
2571.9197,66.95017430354659
2573.222,63.785049150080965
2574.5236,67.6612993688131
2575.8246,61.028849448497795
2577.1248,64.83762320127704
2578.4244,68.13754382900441
2579.7232,68.27853388515757
2581.0214,74.21051524183872
2582.3189,70.78340908836503
2583.6157,72.99713587194856
2584.9118,79.65161533196749
2586.2072,78.0967664778288
2587.5019,76.33250752242333
2588.7959,81.9087558976745
2590.0893,84.97542827218064
2591.3819,92.58244049545283
2592.6739,86.87970756724798
2593.9652,91.317143561499
2595.2557,94.64466168334155
2596.5456,93.56217422474032
2597.8348,100.41959253121314
2599.1234,93.56682701265663
2600.4112,94.4037870747714
2601.6983,90.73038118759024
2602.9848,107.54651687710816
2604.2705,95.15210076201623
2605.5556,102.69703838554085
2606.84,100.78123433938703
2608.1237,102.85459218828987
2609.4067,102.26701448917225
2610.689,106.06840277041107
2611.9707,106.05865753771309
2613.2516,100.88767823610152
2614.5319,97.65536325001278
2615.8115,102.66160995500707
2617.0903,98.45631475009111
2618.3685,102.23937300765562
2619.6461,97.91067911552835
2620.9229,103.47012643914348
2622.199,103.96760736482827
2623.4745,112.45301324420865
2624.7493,105.92623438923471
2626.0234,98.68715998732654
2627.2968,104.08567816664208
2628.5695,103.77167606846785
2629.8415,107.29503979323357
2631.1128,102.60565440365258
2632.3835,112.45340388948756
2633.6535,109.88817121444504
2634.9228,109.6098382176977
2636.1914,112.66828563953669
2637.4593,110.66339312415494
2638.7265,112.29503918906266
2639.9931,115.51310124513617
2641.259,106.76745558030154
2642.5242,106.25797732735435
2643.7887,104.03454055141543
2645.0525,103.39701825502624
2646.3156,106.89528240038288
2647.5781,102.5792039157115
2648.8398,109.14865266028573
2650.1009,101.70349746758706
2651.3613,98.59360607961071
2652.6211,103.71884522131728
2653.8801,101.92908063173138
2655.1385,98.67417701268943
2656.3961,103.10399804673722
2657.6531,96.56840642967887
2658.9094,99.71726382627861
2660.1651,107.20043093561674
2661.42,112.56776745960087
2662.6743,107.51913202813466
2663.9279,110.15438214544417
2665.1808,109.87337424056426
2666.433,105.82596364098606
2667.6846,109.61200457546732
2668.9354,117.18135021450627
2670.1856,116.78385263248117
2671.4351,122.46936273195723
2672.6839,121.2877302476611
2673.9321,126.58880368962605
2675.1795,129.522430355008
2676.4263,131.33845627507498
2677.6724,128.4867261858709
2678.9179,126.3670835100553
2680.1626,140.12937038542054
2681.4067,133.17342768608825
2682.6501,133.69909488488662
2683.8928,128.65621012290967
2685.1348,129.89461020426057
2686.3761,117.81413064648046
2687.6168,124.46460566816484
2688.8568,126.34586830976787
2690.0961,116.95775036709762
2691.3348,117.7000823725038
2692.5727,112.17269368875861
2693.81,113.22541250163351
2695.0466,112.95806587517342
2696.2826,108.5704797411691
2697.5178,112.41247890183075
2698.7524,109.68388707366387
2699.9863,111.48452684904919
2701.2195,114.56421972352871
2702.452,116.37278607779939
2703.6839,116.3600451469161
2704.9151,124.17581500220592
2706.1456,132.26991255139575
2707.3755,134.84215346045426
2708.6046,140.74235207265127
2709.8331,148.97032138283527
2711.0609,148.6258729784313
2712.2881,151.40881695716143
2713.5145,160.16896193048888
2714.7403,171.756114995789
2715.9654,175.12008164874732
2717.1899,197.4106656674885
2718.4136,199.37766907893638
2719.6367,212.92089193590823
2720.8591,212.0901322974447
2722.0809,230.0351860933776
2723.3019,233.8558471326378
2724.5223,236.20190692380424
2725.7421,235.6731546368975
2726.9611,241.6693770799194
2728.1795,238.24035870414014
2729.3972,241.78588154413654
2730.6142,228.25572525208207
2731.8306,206.99966706229162
2733.0462,196.91748192652278
2734.2612,185.75894272653687
2735.4756,161.42382037492035
2736.6892,156.41188392667038
2737.9022,142.97290082254608
2739.1145,130.50663693918767
2740.3262,121.6628567235066
2741.5372,112.49132331734813
2742.7475,90.39179864592893
2743.9571,85.91404350955258
2745.1661,75.60781780460485
2746.3744,80.9228805683311
2747.582,66.15899008189865
2748.7889,56.565903817246124
2749.9952,51.94337858472204
2751.2008,48.191170629016256
2752.4057,43.70903567538477
2753.61,39.64672896717212
2754.8136,39.25400531063258
2756.0165,41.48061911555328
2757.2188,31.92632439918134
2758.4204,32.59087476395797
2759.6213,28.624023493061316
2760.8215,30.32552354376105
2762.0211,25.54512758708671
2763.22,20.082587990812726
2764.4182,22.537656867262513
2765.6158,13.160086127933766
2766.8127,10.249627458947941
2768.009,10.306032414825665
2769.2045,3.9290524475914594
2770.3994,4.568438906209906
2771.5936,-3.8260568996450957
2772.7872,1.3453162940162997
2773.9801,-11.967652026507722
2775.1723,-12.315172388372048
2776.3639,-14.297335761887837
2777.5548,-12.764110088794212
2778.745,-13.315320480446303
2779.9346,-16.700664534739303
2781.1235,-10.569706829517202
2782.3117,-11.471845102985355
2783.4992,-16.30637150197805
2784.6861,-5.422463569597028
2785.8723,-11.81913594829308
2787.0579,3.4546508898941397
2788.2428,3.9500545460930994
2789.427,13.268232586885972
2790.6106,17.060342539354338
2791.7935,22.977541797897686
2792.9757,36.02098758631257
2794.1573,41.091836898620045
2795.3382,54.891246368631414
2796.5184,63.7703722192399
2797.698,75.83037012442628
2798.8769,94.22239512046787
2800.0551,97.89760148533867
2801.2327,108.5571425547891
2802.4096,119.90217068559343
2803.5859,142.23383714895488
2804.7615,159.70329201705516
2805.9364,177.76168393973768
2807.1106,188.5601599698133
2808.2842,222.54986538247607
2809.4572,252.23194356731864
2810.6294,271.00753568843515
2811.801,302.17778038760054
2812.972,342.8938135965147
2814.1423,374.2067682250998
2815.3119,405.21777375434016
2816.4808,461.37795592315234
2817.6491,494.7384364182757
2818.8167,527.8003323126702
2819.9837,570.1647557319113
2821.15,605.3828135235717
2822.3157,641.5556068335767
2823.4807,676.7342307540239
2824.645,710.519773961455
2825.8086,743.5133183650698
2826.9716,768.6159387688706
2828.134,808.1287025417273
2829.2957,836.4026693663493
2830.4567,846.3888908441602
2831.617,865.6884102125564
2832.7767,863.8022622450458
2833.9358,869.2814730582527
2835.0941,858.9770601307787
2836.2519,852.440032248411
2837.4089,831.2713896071671
2838.5653,822.4721238786639
2839.7211,829.0432184218041
2840.8761,825.9856483707699
2842.0306,844.5503805693116
2843.1843,866.9883736013234
2844.3374,907.7505776051958
2845.4899,965.4379340494354
2846.6417,1018.7013753250446
2847.7928,1093.9918241686457
2848.9433,1152.810193129848
2850.0931,1222.7073838183421
2851.2422,1279.2342863157178
2852.3907,1331.2417784764903
2853.5385,1397.0807253628327
2854.6857,1435.2519787245003
2855.8323,1494.006376340441
2856.9781,1522.044741637084
2858.1233,1563.9678831007936
2859.2679,1611.426593997489
2860.4118,1641.2716519534097
2861.555,1665.1538184805288
2862.6976,1707.6738386781049
2863.8395,1718.2324409938567
2864.9808,1746.1803367987668
2866.1214,1756.0182202814917
2867.2614,1770.4467681688868
2868.4007,1763.9166396276232
2869.5393,1791.2284761199073
2870.6773,1791.2329014687766
2871.8146,1793.7805215849862
2872.9513,1813.4719244669614
2874.0874,1799.9576801753228
2875.2227,1808.3383406359728
2876.3574,1787.9644397752365
2877.4915,1757.436493436056
2878.6249,1726.654999581729
2879.7577,1709.0204386011897
2880.8898,1687.0332736168218
2882.0212,1682.4939506608043
2883.152,1675.4528988949846
2884.2821,1661.2105306562707
2885.4116,1651.6672415270423
2886.5405,1658.623410477573
2887.6686,1664.6793999614652
2888.7962,1661.8355558460873
2889.923,1679.2422073520133
2891.0493,1677.349667081463
2892.1748,1690.3082308442333
2893.2997,1691.7181776766251
2894.424,1720.729769711858
2895.5476,1731.143252165969
2896.6706,1740.6588530476974
2897.7929,1767.076783054352
2898.9145,1792.447235476652
2900.0355,1824.870385934549
2901.1559,1870.1463921235227
2902.2756,1887.1253934903498
2903.3946,1902.0075107803414
2904.513,1931.3428458675571
2905.6308,1944.7314816059802
2906.7479,1976.8234815361666
2907.8643,2009.9188897513577
2908.9801,2018.617730576559
2910.0953,2020.37000823759
2911.2098,2012.325706774091
2912.3236,2012.0847900220024
2913.4368,1998.5472016940098
2914.5494,2003.8128653819483
2915.6613,1977.0816846921828
2916.7725,1946.2535431929496
2917.8831,1917.1283046816689
2918.9931,1886.0058134932247
2920.1024,1872.5858947912197
2921.211,1857.5683548791985
2922.319,1840.9029813348452
2923.4264,1825.5895431601618
2924.5331,1818.4777909481222
2925.6391,1798.1674570358025
2926.7445,1799.8082555755032
2927.8493,1794.04988273785
2928.9534,1788.6420166953867
2930.0569,1779.9843176801571
2931.1597,1785.576428037788
2932.2619,1777.5179723140602
2933.3634,1770.208557198993
2934.4643,1763.6977716074239
2935.5645,1723.0851867521062
2936.6641,1715.770356208816
2937.763,1674.9528163224763
2938.8613,1638.082086280308
2939.959,1586.407668520003
2941.056,1533.4790490984333
2942.1523,1461.2956982083936
2943.248,1374.8570707078889
2944.3431,1305.6626068419673
2945.4375,1228.8617331071068
2946.5313,1141.10386294316
2947.6244,1053.0883975013617
2948.7169,971.0147265219091
2949.8087,898.2822292141151
2950.8999,827.2402750771463
2951.9904,752.7382246273473
2953.0803,684.47543010866
2954.1696,646.0012362376451
2955.2582,604.2149808861078
2956.3462,573.6159954658424
2957.4335,537.1036053464934
2958.5202,506.0271301615453
2959.6062,494.6358841734468
2960.6916,479.7291765843757
2961.7764,461.4063116501509
2962.8605,453.56658882929986
2963.9439,450.90930296628756
2965.0267,429.28374436991317
2966.1089,433.1391988398831
2967.1905,431.5749478830667
2968.2714,436.9902686749418
2969.3516,435.4844340752366
2970.4312,436.8567125737777
2971.5102,446.70636830554673
2972.5885,443.4326610369588
2973.6662,451.0848460673655
2974.7432,447.8621742617922
2975.8196,446.9638919744162
2976.8954,437.18924108079307
2977.9705,430.7874589868398
2979.045,421.80777872658115
2980.1188,415.4494290261676
2981.192,407.2116343936719
2982.2645,381.3436151826725
2983.3364,367.2445876746317
2984.4077,339.76376433757616
2985.4783,324.40035396708646
2986.5483,306.75356196110613
2987.6177,273.0225904735754
2988.6864,241.35663859089908
2989.7545,220.25490266925652
2990.8219,196.06657665126045
2991.8887,173.29085227697493
2992.9548,146.37691932579838
2994.0204,121.77396584422075
2995.0852,112.9811784149631
2996.1495,85.64774240300693
2997.2131,77.02284204352213
2998.276,61.85566071520151
2999.3383,49.04538102650952
3000.4,35.99118496735406
3001.4611,26.94225403718957
3002.5215,26.147769375558937
3003.5812,6.156911852582596
3004.6404,6.118862076903554
3005.6989,1.6828005955956087
3006.7567,-8.90209210545595
3007.8139,-7.236635557193608
3008.8705,-8.37156035866002
3009.9264,-10.60752481490897
3010.9818,-1.6451035991061644
3012.0364,-9.734765415244794
3013.0905,-5.526962532733194
3014.1439,-5.372049970673459
3015.1966,-7.220327533812167
3016.2487,-1.1720413601166797
3017.3002,5.372634543517563
3018.3511,10.363537878888167
3019.4013,6.900506294066815
3020.4509,13.533377333489625
3021.4998,17.61198847258777
3022.5481,16.436177051458856
3023.5958,19.955780234080578
3024.6428,25.070635020069005
3025.6892,40.48057820948253
3026.735,35.93544635167325
3027.7802,47.885075591187615
3028.8247,51.92930171321791
3029.8685,51.16796002410575
3030.9118,63.550885310900355
3031.9544,71.5279118489712
3032.9963,82.24887327817925
3034.0376,78.91360252310636
3035.0783,89.32193168584593
3036.1184,102.02369207935527
3037.1578,103.71871412337282
3038.1966,110.00682721739986
3039.2348,114.13785972375081
3040.2723,116.31163890467195
3041.3092,122.52799088103092
3042.3455,122.13674061057907
3043.3811,117.23771182578832
3044.4161,121.98072703776302
3045.4505,117.66560758523059
3046.4842,117.54217358711136
3047.5173,109.81024398566959
3048.5498,115.26963654774792
3049.5816,110.22016794208665
3050.6128,107.71165368472984
3051.6434,98.19390818952016
3052.6734,99.16674479318382
3053.7027,98.02997585050807
3054.7314,87.38341272461287
3055.7594,87.52686579831857
3056.7868,89.46014458061154
3057.8136,93.98305770520963
3058.8398,88.44541291122945
3059.8653,86.19701699795701
3060.8902,87.53767588022444
3061.9145,82.66719461089363
3062.9381,84.13537736744982
3063.9612,84.74202750070617
3064.9835,79.53694752012242
3066.0053,83.81993908773788
3067.0264,71.04080307022258
3068.0469,71.09933949604698
3069.0668,70.7453476832739
3070.086,63.47862623897268
3071.1046,57.44897306275939
3072.1226,58.856185419463884
3073.1399,50.85005999942646
3074.1567,46.680392904425645
3075.1727,36.7469797277395
3076.1882,34.549615595842226
3077.203,36.78809526773827
3078.2173,30.46221315693623
3079.2308,27.471763309063675
3080.2438,16.566539465126084
3081.2561,13.946335091411385
3082.2678,12.81094348854225
3083.2789,9.260157817678078
3084.2893,7.243771111868966
3085.2991,6.6115763115635104
3086.3083,7.963366284772661
3087.3169,-2.6010661666082058
3088.3248,0.9180716796826118
3089.3321,5.420598530557925
3090.3388,1.0563330837497915
3091.3449,-2.324906017215625
3092.3503,0.42669986062446696
3093.3551,-2.9390074239560704
3094.3593,-1.1721860164502829
3095.3629,-5.822964701667146
3096.3658,-2.6414605542774012
3097.3681,-3.5277324775344425
3098.3698,0.3681870134991527
3099.3708,-2.2536993541918804
3100.3713,-2.3433925318110767
3101.3711,-4.00087095610553
3102.3702,-4.976089653330959
3103.3688,-0.8689636810422599
3104.3667,4.570641614341213
3105.364,2.44286956734733
3106.3607,-0.602136533202497
3107.3568,3.135766577084567
3108.3522,6.55672817794526
3109.347,7.46089751775871
3110.3412,9.598423779336741
3111.3348,8.569456070882282
3112.3277,8.924143404614057
3113.32,10.562634707056205
3114.3117,12.3350788154915
3115.3028,9.841624461576401
3116.2932,11.332420253616647
3117.2831,15.857614701501731
3118.2723,14.717356201796974
3119.2608,16.861792992491544
3120.2488,15.141073164401092
3121.2361,21.805344639723387
3122.2229,17.354755189245466
3123.209,20.93945236570093
3124.1944,23.25958354827589
3125.1793,24.665295906761884
3126.1635,22.00673637835463
3127.1471,25.084051653596852
3128.1301,24.097388202963927
3129.1125,26.2968922460908
3130.0942,28.532709761638593
3131.0753,30.254986465299552
3132.0558,30.763867787438905
3133.0357,31.80949885587198
3134.015,32.692024490775424
3134.9936,30.861589194230973
3135.9716,35.218337141400085
3136.949,36.36241219882834
3137.9258,36.193957880877996
3138.902,36.66311733828716
3139.8775,37.070033359854385
3140.8524,39.86484836774707
3141.8267,40.24770441343228
3142.8004,40.91874314972863
3143.7735,41.22810582697771
3144.7459,42.27593328633367
3145.7178,44.56236595666962
3146.689,42.28754384409939
3147.6596,45.60160650911307
3148.6295,49.3046930893254
3149.5989,48.94694226633503
3150.5676,44.87849222869373
3151.5357,50.04948067548382
3152.5032,48.410044857002745
3153.4701,52.51032152305313
3154.4364,50.500446939337145
3155.402,51.880556846453786
3156.367,54.950786479997554
3157.3315,53.4612705567574
3158.2952,53.46214324401443
3159.2584,56.153538174437
3160.221,53.735588446072086
3161.1829,58.90842659543126
3162.1442,55.97218462167021
3163.105,56.67699393486038
3164.065,59.27298538535132
3165.0245,58.110289256722716
3165.9834,61.78903523982433
3166.9416,62.50935244440306
3167.8993,62.82136936231546
3168.8563,63.725213860324516
3169.8127,65.92101317697957
3170.7684,69.35889391357777
3171.7236,63.93898201220618
3172.6782,67.76140272136288
3173.6321,69.62628065015615
3174.5854,70.78373973008021
3175.5381,71.38390319636648
3176.4902,69.77689357640895
3177.4417,72.46283268376263
3178.3926,75.59184163421347
3179.3428,76.01404081891918
3180.2924,75.129549873119
3181.2415,77.93848767191173
3182.1899,80.74097233910072
3183.1377,80.03712121910439
3184.0848,80.17705084893144
3185.0314,81.16087696521934
3185.9773,80.08871450283507
3186.9227,78.91067758503678
3187.8674,86.12687953419552
3188.8115,83.68743288357553
3189.755,88.39244930517219
3190.6979,86.39203963410657
3191.6402,84.88631382157521
3192.5818,89.42538095485429
3193.5229,90.05934927235677
3194.4633,91.43832611824175
3195.4031,91.11241793607489
3196.3423,90.33173025503854
3197.2809,92.84636769319083
3198.2189,92.10643396527263
3199.1563,95.01203185756111
3200.0931,94.46326323526904
3201.0292,94.71022901348888
3201.9648,94.75302916268038
3202.8997,97.49176270620102
3203.834,99.42652771987792
3204.7677,98.30742130462058
3205.7008,100.58453956707316
3206.6333,101.2079776308056
3207.5652,103.0278296135424
3208.4964,100.64418862092826
3209.4271,103.90714672832954
3210.3571,103.81679500467064
3211.2865,104.17322347980456
3212.2154,108.32652114541628
3213.1436,108.4267759514585
3214.0712,108.02407476461869
3214.9982,110.51850336731647
3215.9246,111.66014646173076
3216.8503,109.39908764485538
3217.7755,110.73540939708263
3218.7001,114.06919310481393
3219.624,112.85051904709661
3220.5473,114.32946636228596
3221.4701,113.6061130602321
3222.3922,115.13053600749048
3223.3137,116.30281093455534
3224.2346,116.27301242061554
3225.1549,118.74121388183181
3226.0746,117.65748757163468
3226.9937,120.87190455604255
3227.9121,121.43453472449895
3228.83,124.0954467577283
3229.7473,125.00470812210962
3230.6639,123.01238504306747
3231.5799,124.41854249597924
3232.4954,127.47324422609836
3233.4102,128.12655273449286
3234.3244,126.5785292474983
3235.238,128.92923371018458
3236.151,133.22872480183634
3237.0634,129.07705991244586
3237.9752,129.62429509971807
3238.8864,130.5704851305873
3239.797,131.91568347574486
3240.7069,134.75994230017733
3241.6163,136.15331244971424
3242.5251,135.69584342258577
3243.4332,133.5875833554889
3244.3408,136.42857902816223
3245.2477,135.6688758844684
3246.154,137.05851800398435
3247.0598,139.24754810959806
3247.9649,141.28600755361236
3248.8694,138.9739362958545
3249.7733,139.61137288329155
3250.6766,143.14835447315127
3251.5793,138.43491682654755
3252.4814,141.32109427311076
3253.3829,144.00691975812194
3254.2838,144.6924248136513
3255.1841,143.1276395316996
3256.0838,146.41259255734352
3256.9829,144.44731110438318
3257.8814,147.13182092249284
3258.7792,148.81614631687347
3259.6765,149.75031012140792
3260.5731,149.48433368181742
3261.4692,146.06823684632008
3262.3647,150.15203796829067
3263.2595,150.73575394042143
3264.1538,150.8694001538842
3265.0474,153.40299049249313
3265.9404,153.2365373313684
3266.8329,154.87005151160017
3267.7247,153.3035423419131
3268.616,154.8870175823313
3269.5066,155.97048345984356
3270.3966,155.2039446525682
3271.286,156.63740427891875
