RamanShift,CorrectedData
30.1047,1564.3111890096925
32.3739,1456.812367011229
34.6426,1345.7635293696535
36.9109,1232.4146458737303
39.1787,1122.165672854588
41.4461,1016.1165543192083
43.7131,898.5672230529159
45.9796,793.767601679869
48.2456,686.8676038385538
50.5112,575.1671352297799
52.7764,469.5660946856807
55.0411,358.2643752867182
57.3054,249.66186541769315
59.5692,146.7084498807626
61.8326,35.054010981464884
64.0955,-69.50157044174611
66.3579,-168.65841390095665
68.6199,-267.3659445875642
70.8815,-348.02190279541173
73.1426,-389.87135783255593
75.4032,-306.0559022682447
77.6634,85.38676614313829
79.9231,1179.5720071456726
82.1824,3722.5151796295713
84.4412,8504.131630689328
86.6995,15344.086670194283
88.9574,22208.895522972463
91.2148,27019.82326041103
93.4717,29333.23473180819
95.7282,29815.694516263913
97.9842,29728.666899545824
100.2398,29093.815869264603
102.4949,28379.555115744268
104.7495,27503.898038370673
107.0036,26624.007752734127
109.2573,25707.247099385953
111.5105,24846.9286526374
113.7632,23971.164729727258
116.0154,23227.31739942501
118.2672,22687.048490788522
120.5185,22063.26960060246
122.7693,21554.89209878102
125.0197,21125.8771346057
127.2696,20765.285641809078
129.519,20469.52834286497
131.7679,20154.465752594322
134.0163,19911.15818112281
136.2642,19595.01573703144
138.5117,19258.048329789657
140.7587,18921.46567291674
143.0052,18596.177287351493
145.2512,18215.592504818058
147.4967,17859.370471078808
149.7417,17617.120149740203
151.9863,17374.25032581499
154.2304,17177.86960814472
156.4739,16927.236431828438
158.717,16761.00906018649
160.9596,16463.14558726688
163.2017,16093.10393950751
165.4433,15671.491878714818
167.6844,15212.817005764227
169.925,14752.286764816221
172.1651,14294.308447903131
174.4047,13861.689199534409
176.6439,13506.586021276435
178.8825,13124.755776078695
181.1206,12865.855191824809
183.3582,12569.740865150856
185.5954,12342.16926403435
187.832,12132.146730755412
190.0681,11962.129484172461
192.3037,11857.873621822459
194.5388,11744.485121621068
196.7734,11701.119842905217
199.0075,11668.333527566982
201.2411,11700.28180048725
203.4742,11595.520169863572
205.7068,11672.95402689069
207.9389,11705.788646808138
210.1704,11734.879188125919
212.4015,11749.080692296151
214.632,11801.398083422155
216.862,11903.886168116464
219.0915,11990.249634977616
221.3205,12101.143053565305
223.549,12258.070873536733
225.777,12468.837423537672
228.0044,12756.546909633194
230.2314,13137.5534132
232.4578,13497.760888049328
234.6837,13741.623156616879
236.909,13829.643906360761
239.1339,13658.426687322846
241.3582,13353.574911248581
243.582,12933.24185329914
245.8053,12474.230655099962
248.0281,12065.744328944067
250.2503,11726.585762382178
252.472,11490.657722307575
254.6932,11344.062858347683
256.9139,11162.503705223358
259.134,11073.532684214828
261.3536,10979.252104977284
263.5727,10945.414166430603
265.7912,10817.520957702138
268.0092,10745.224458465107
270.2267,10639.276540217526
272.4436,10533.728967005163
274.6601,10386.583396481039
276.8759,10204.09138096088
279.0913,10084.654368894584
281.3061,9931.973706691151
283.5204,9931.000639913033
285.7341,9887.386314802943
287.9473,10022.381778293604
290.16,10158.537978443874
292.3721,10393.705763088798
294.5837,10756.635878478051
296.7947,11049.178966924255
299.0052,11142.935563173669
301.2152,10925.80609148077
303.4246,10479.99086467069
305.6334,9824.3900863105
307.8418,9219.403855167364
310.0495,8711.182171764562
312.2568,8286.774944431325
314.4635,7964.8319943850765
316.6696,7826.65305997549
318.8752,7674.337799903926
321.0802,7677.985794605216
323.2847,7739.846547770818
325.4887,7687.469486312339
327.692,7585.353959742924
329.8949,7359.699240701037
332.0972,7051.304525971602
334.2989,6653.468938742566
336.5001,6352.741531688829
338.7007,6088.02129095061
340.9008,5921.657139140727
343.1003,5721.797937991792
345.2992,5602.892490019842
347.4976,5496.03954052295
349.6955,5414.287778770262
351.8927,5431.335839070542
354.0895,5324.182301589668
356.2856,5294.725692180182
358.4812,5280.8644834527895
360.6763,5214.347095070969
362.8707,5136.22189388954
365.0646,5124.737194619875
367.258,5061.591260611123
369.4508,5014.282303965068
371.643,5029.558486167585
373.8346,4989.067918561723
376.0257,4888.658662194965
378.2162,4771.728728224125
380.4062,4621.4760789194315
382.5956,4406.898628833829
384.7844,4236.194246305506
386.9726,4051.710755603677
389.1603,3946.745938635622
391.3474,3901.8975367915227
393.5339,3820.0132519941035
395.7199,3690.9907471471197
397.9052,3662.9776469541994
400.09,3626.2215392090748
402.2743,3648.8699750757078
404.4579,3692.2704694558433
406.641,3827.170500762535
408.8235,4010.5675104861475
411.0054,4336.858901845344
413.1868,4701.3920379531155
415.3675,4956.6142385538715
417.5477,5129.772776378119
419.7273,5157.764874590217
421.9064,4955.6877050568
424.0848,4803.238388066871
426.2627,4547.913994352555
428.4399,4175.961546613595
430.6166,3764.4780220706034
432.7928,3355.810356184591
434.9683,2996.9554467717917
437.1432,2719.810158090342
439.3176,2516.221324428827
441.4914,2355.885752877737
443.6645,2297.200225365361
445.8371,2193.011500261131
448.0091,2063.416312962476
450.1806,2032.661376936725
452.3514,1955.2933850170466
454.5216,1898.3590097100023
456.6913,1814.5549039692269
458.8603,1806.3277017647688
461.0288,1875.5240189211381
463.1967,1849.8904531995704
465.3639,1906.2235836060754
467.5306,1989.6699706477539
469.6967,2105.326155769484
471.8622,2203.6386605194493
474.0271,2342.753985392572
476.1914,2407.968608847388
478.3551,2367.578985914901
480.5182,2322.7815475464213
482.6807,2277.5227010174895
484.8426,2370.9488303758317
487.0039,2621.1062968939495
489.1647,3037.3914381348695
491.3248,3491.000565450562
493.4843,3637.679959819099
495.6432,3582.1258673085413
497.8015,3461.6344976101645
499.9592,3430.1020245939944
502.1163,3323.07458751372
504.2728,3068.6482913220116
506.4287,2749.3192077408075
508.5839,2297.3833778055705
510.7386,1945.7868150585746
512.8927,1729.7255100682723
515.0461,1596.995433945247
517.199,1536.142540502835
519.3512,1526.7127675844185
521.5029,1520.5020376719622
523.6539,1614.1062579803074
525.8043,1652.4713205192893
527.9541,1667.0931011576777
530.1033,1635.417459239543
532.2519,1652.3402374380348
534.3999,1768.5572620721305
536.5472,2035.1643429374144
538.694,2503.9572721438926
540.8401,3092.731821449941
542.9856,3599.033737574371
545.1305,3745.408736308682
547.2748,3585.1024974540323
549.4185,3166.010663357505
551.5615,2783.0788405151616
553.704,2621.202603762964
555.8458,2539.277500106082
557.987,2544.5490503376677
560.1276,2519.462749858114
562.2675,2498.1640686223163
564.4069,2525.648451390549
566.5456,2525.061317941445
568.6837,2460.8980627971687
570.8212,2170.7040552292674
572.958,1816.9746399003143
575.0942,1524.8051397658473
577.2299,1290.9408596116555
579.3648,1271.527088975492
581.4992,1344.0591044856938
583.6329,1566.7321700553402
585.766,1814.44153615693
587.8985,1910.432437595644
590.0304,1925.2500910322524
592.1616,1844.989694023212
594.2922,1733.1964248724707
596.4222,1572.3654434340988
598.5515,1390.8418922302026
600.6802,1223.9208980592375
602.8083,1029.0475738112473
604.9358,997.4670201370718
607.0626,914.1743273970842
609.1888,872.4145759769872
611.3144,809.5828371207517
613.4393,704.2741733482089
615.5636,595.6836390833632
617.6873,521.1062817074871
619.8103,434.1871426450198
621.9327,346.4212581093525
624.0544,317.1036599720119
626.1756,312.9293766403207
628.2961,280.64343335056765
630.4159,200.24085220975394
632.5351,175.2166525184548
634.6537,100.4158515748386
636.7716,91.48346492492055
638.8889,123.86450711056932
641.0056,138.30399175882485
643.1216,131.24693125809608
645.237,136.53833661375393
647.3518,114.07321751869313
649.4659,126.89658230043642
651.5793,143.80343814576554
653.6922,118.73879097251665
655.8043,99.74764526048057
657.9159,98.02500430208602
660.0268,37.16587039227852
662.137,7.215244845763664
664.2466,-21.832242309808862
666.3556,-48.9820331270912
668.4639,-41.9893515546446
670.5716,-3.658932210521016
672.6786,95.80490976084184
674.785,146.19789576773292
676.8907,191.11574626039692
678.9958,282.4541802271124
681.1002,253.65891474500313
683.204,262.8256640666659
685.3072,207.15013990811167
687.4097,130.37805135710187
689.5115,109.60510542989141
691.6127,52.27700783896944
693.7132,3.689463200777027
695.8131,-26.611824391009577
697.9123,-61.23118770045221
700.0109,-85.52269363948653
702.1089,-94.63979742049196
704.2061,-70.78509988414407
706.3028,-32.2602564195513
708.3987,14.633784727320744
710.4941,120.04639759046768
712.5887,284.27681001236124
714.6827,599.6742486350231
716.7761,949.3879372577085
718.8688,1333.5170936829436
720.9608,1530.8109262193811
723.0522,1572.7186298405086
725.1429,1407.8893842117068
727.233,1115.7223532711741
729.3224,854.4166868782158
731.4112,598.021523734913
733.4993,400.8859939991835
735.5867,253.9592218487378
737.6735,137.14032745242912
739.7596,52.62842843953513
741.845,15.422641067922086
743.9298,11.722081069181513
746.014,-6.224135979316998
748.0974,39.38310538258338
750.1802,67.09298279415088
752.2624,60.40467350083236
754.3439,107.51735407715205
756.4247,216.88020049358238
758.5048,345.7923876454388
760.5843,560.0530882592338
762.6631,869.4114716035674
764.7413,1382.5167013465089
766.8188,2003.41793246202
768.8956,2465.6143060989034
770.9718,2756.204943371782
773.0473,2644.3389407391533
775.1221,2331.765367097467
777.1962,1975.733264899798
779.2697,1779.34165328157
781.3426,1837.0895316208862
783.4147,2130.5758815024365
785.4862,2431.799666140025
787.557,2431.459827441702
789.6271,2088.7552829975302
791.6966,1497.4849260829797
793.7654,977.947629085973
795.8335,654.79224941959
797.901,470.41763471743434
799.9678,371.8226260651991
802.0339,349.55605984439717
804.0993,424.06676871833224
806.1641,427.55358185475234
808.2282,399.11532418073875
810.2916,305.5508163478553
812.3544,227.30887501650977
814.4164,134.13831379161456
816.4778,165.587944005003
818.5385,170.40657564711728
820.5986,252.6930170525302
822.658,392.1460748517529
824.7166,494.36455314836894
826.7747,743.5472521245119
828.832,950.5429670186804
830.8886,1150.8504856339077
832.9446,1282.3685862677994
834.9999,1328.746035709457
837.0545,1324.7815879242971
839.1085,1304.073983590295
841.1618,1267.2719501376032
843.2143,1227.524201955639
845.2662,1145.5794407611065
847.3175,1084.5363559954767
849.368,989.7436256444271
851.4179,867.7999168482747
853.467,746.9038868499065
855.5155,641.5041842142218
857.5633,564.849450037078
859.6105,449.6883189992968
861.6569,395.61942013321095
863.7027,338.54137797426847
865.7478,318.85281310173013
867.7922,361.1523427094471
869.8359,408.18858080274913
871.8789,521.4101377754432
873.9212,687.9156199394602
875.9629,878.6036283926278
878.0039,1075.872757353638
880.0441,1172.6215922551364
882.0837,1189.5987077710524
884.1226,1115.0026668491046
886.1609,1022.9820205410324
888.1984,898.935308748556
890.2352,920.8110611435732
892.2714,892.8577984086405
894.3069,858.4740320182136
896.3416,799.9582645181745
898.3757,753.3589898696682
900.4091,779.1746940342564
902.4418,779.5538554399191
904.4739,814.8949447228915
906.5052,824.0964247238753
908.5358,739.7567501346402
910.5658,610.4243674059871
912.595,457.39771559115616
914.6236,329.4752276391537
916.6515,275.05533192501025
918.6786,268.93645352900967
920.7051,354.91701478088726
922.7309,458.8454353210291
924.756,519.2701312406443
926.7804,629.3895140425029
928.8041,616.1519900366693
930.8272,650.7559592393172
932.8495,603.0998155051057
934.8711,560.0319461811341
936.892,422.0507325835133
938.9123,284.3545504280428
940.9318,180.54177121001885
942.9506,88.86076358119499
944.9688,1.1098943879205763
946.9862,-27.262470412058974
949.003,-58.75796487209482
951.019,-84.42795069346175
953.0344,-68.07320258536492
955.0491,6.706348178209737
957.063,70.86145037457027
959.0763,185.5428527139684
961.0888,245.95130319804593
963.1007,328.03754797302645
965.1119,398.6523307256266
967.1223,417.79639186218446
969.1321,478.0704678025195
971.1412,527.8752907884937
973.1495,529.7615882812588
975.1572,553.230082463233
977.1641,602.2314902192138
979.1704,607.6665229017071
981.1759,593.9358858409068
983.1808,659.0402782903438
985.1849,766.3803935641972
987.1884,941.7069183862513
989.1911,1114.7205318164888
991.1932,1272.721903497828
993.1945,1321.1116919259894
995.1951,1281.6405428694743
997.1951,1275.4590888856783
999.1943,1198.9679497155976
1001.1928,1190.9677323456417
1003.1906,1216.2590317725444
1005.1877,1269.8924310833609
1007.1841,1271.2685012025668
1009.1798,1198.7878003557162
1011.1748,1017.3008740556816
1013.1691,850.8582558274575
1015.1627,660.460469023039
1017.1556,442.9580284858457
1019.1477,383.701442454696
1021.1392,289.39121473884006
1023.1299,278.577845310514
1025.12,317.56183124805284
1027.1093,398.0936668440172
1029.0979,481.573843215343
1031.0859,577.1528474980387
1033.0731,598.0311620123684
1035.0596,533.5592633070792
1037.0454,420.787621950607
1039.0304,321.16670317580247
1041.0148,200.89696800763886
1042.9985,94.22887425943372
1044.9814,69.01287773553668
1046.9636,2.249433298011354
1048.9452,16.438995118794992
1050.926,43.232017347339934
1052.9061,62.228953968704445
1054.8855,75.88025853563886
1056.8642,91.83638397860341
1058.8421,164.64778246926653
1060.8194,206.66490526093548
1062.7959,257.2882019604385
1064.7717,288.61812010796166
1066.7469,336.4551046708075
1068.7213,318.1495977301056
1070.695,303.7520380024398
1072.6679,299.7128610229047
1074.6402,263.9324992890779
1076.6117,254.46138230141332
1078.5826,231.69993692103526
1080.5527,261.24858746447353
1082.5221,395.4077559312518
1084.4908,591.5778617084197
1086.4587,779.2593202289481
1088.426,931.1525410100312
1090.3925,929.6079257762831
1092.3584,906.0758669407915
1094.3235,776.9067476205637
1096.2879,697.7009418718571
1098.2515,703.1588159818602
1100.2145,787.4307292607646
1102.1767,902.5670339871722
1104.1382,1079.968074565384
1106.099,1324.5841863740388
1108.0591,1548.515693992098
1110.0185,1710.2129087526791
1111.9771,1740.276126503748
1113.9351,1548.955625991147
1115.8923,1268.4016685579645
1117.8488,979.1145000577308
1119.8045,695.2443536599676
1121.7596,574.3414527430514
1123.7139,513.206013732919
1125.6675,534.6382473121002
1127.6204,618.8383590310677
1129.5726,620.2065490939103
1131.524,638.4930115163397
1133.4748,606.5979341120064
1135.4248,619.7214983096273
1137.3741,614.9638794719567
1139.3226,561.2752467645341
1141.2705,563.5557632032669
1143.2176,459.45558619131316
1145.164,448.67486749628006
1147.1097,494.663754291224
1149.0546,476.52238926245536
1150.9989,405.60091014965565
1152.9424,238.6994499272787
1154.8852,111.51813751377995
1156.8272,11.707099440622187
1158.7686,-31.18353887590456
1160.7092,-41.35365213657951
1162.6491,-26.552803518626206
1164.5883,53.819856923713814
1166.5267,162.2154443986983
1168.4644,332.5350735763859
1170.4014,507.4798575046907
1172.3377,775.5009059061776
1174.2732,1034.1993234286174
1176.2081,1312.7762069647724
1178.1421,1516.6326430654171
1180.0755,1773.2197051535632
1182.0082,1911.1384514859055
1183.9401,1918.7399225869349
1185.8713,1784.0251398697628
1187.8017,1527.9951055601096
1189.7315,1306.3508040434463
1191.6605,1021.2432044252964
1193.5888,839.6732627476822
1195.5163,749.7919248401968
1197.4432,657.1001281357012
1199.3693,612.1488025691442
1201.2947,600.1388715044768
1203.2193,594.171252184171
1205.1432,649.6468558493061
1207.0664,680.0665877992578
1208.9889,712.6313468369362
1210.9106,758.0420249645886
1212.8316,812.2495070581508
1214.7519,906.7046704131399
1216.6715,919.1583842025811
1218.5903,937.7115085324558
1220.5084,949.3148943171655
1222.4257,986.2193830939977
1224.3424,944.6258069070973
1226.2583,1009.484987938411
1228.1735,1108.0477389236357
1230.0879,1240.3148625036192
1232.0016,1373.4371502387357
1233.9146,1438.1153812862058
1235.8269,1350.3003210688903
1237.7384,1242.292720628493
1239.6492,1061.1933175037257
1241.5592,955.4028368103745
1243.4686,902.971993052296
1245.3772,902.0014911793232
1247.285,867.7420271115752
1249.1922,874.6942877491592
1251.0986,918.0089513147641
1253.0042,895.5366872841369
1254.9092,963.628155952938
1256.8134,1077.2340086614659
1258.7169,1247.4548871137413
1260.6196,1433.2914222414502
1262.5216,1627.7942325017284
1264.4229,1824.5139220188012
1266.3234,1964.9010786389563
1268.2232,2048.2562719633424
1270.1223,2046.3300519441027
1272.0207,2061.1729480508175
1273.9183,2051.435469289776
1275.8151,1976.168104055535
1277.7113,1916.9713202282983
1279.6067,1791.5455659265945
1281.5014,1752.4912700992436
1283.3953,1719.408843779609
1285.2885,1762.3986804761507
1287.181,1787.4611565032392
1289.0727,1871.9966305512617
1290.9637,1997.5554434359938
1292.854,2100.0379172532485
1294.7435,2217.144354123292
1296.6323,2381.87503516602
1298.5204,2611.080219329887
1300.4077,2843.8101417446023
1302.2943,2950.065011429071
1304.1802,2996.595008964103
1306.0653,2863.8002854298593
1307.9497,2715.730961940558
1309.8333,2589.4871309724167
1311.7162,2502.818857844344
1313.5984,2551.1761819803796
1315.4798,2645.809117776381
1317.3605,2770.067654116444
1319.2405,2899.5517534265764
1321.1197,2883.261350432118
1322.9982,2768.096350862892
1324.876,2730.1066316161177
1326.753,2694.1420419080487
1328.6293,2659.702403653876
1330.5048,2675.2375118273712
1332.3796,2660.4471348052894
1334.2537,2642.331014212009
1336.127,2627.5888650674387
1337.9996,2597.0203759681854
1339.8714,2579.3252092349685
1341.7426,2579.9530012183086
1343.6129,2581.503362475478
1345.4826,2539.725877764219
1347.3515,2543.5701060272504
1349.2196,2512.035580810032
1351.087,2530.7718102223243
1352.9537,2615.97827725354
1354.8197,2749.3544395853714
1356.6849,2932.2497287397346
1358.5493,3051.063548744999
1360.4131,3108.1452743070413
1362.276,3105.344249621101
1364.1383,2980.309787800973
1365.9998,2747.1911709070037
1367.8606,2467.637651196451
1369.7206,2176.948453454658
1371.5799,1978.0727777905968
1373.4384,1809.4598025437535
1375.2962,1697.7086862728956
1377.1533,1444.368569442191
1379.0096,1165.2385755387277
1380.8652,896.2678136059094
1382.7201,652.6553810347568
1384.5742,452.6003662536159
1386.4275,320.35185116428147
1388.2802,201.3589131425506
1390.132,115.77062636069968
1391.9832,79.08606297742335
1393.8336,-1.14570600629213
1395.6832,-3.22561038031472
1397.5322,-17.80456848891572
1399.3803,-19.78346645252259
1401.2278,2.386987476075774
1403.0745,26.706282680918775
1404.9204,40.62390852217504
1406.7656,63.38935409295391
1408.6101,83.65210808012762
1410.4538,133.06165853668062
1412.2968,199.0174926790769
1414.139,274.31909639316746
1415.9805,386.31595357462993
1417.8213,497.55754537595476
1419.6613,649.3433490864754
1421.5006,862.1228370199515
1423.3391,1115.0454749967148
1425.1769,1460.7107202158677
1427.0139,1968.91801872606
1428.8502,2595.0668019688364
1430.6858,3188.0564816965652
1432.5206,3623.8364437109512
1434.3547,3901.306041933133
1436.188,3940.5645940458853
1438.0206,3854.8113787189313
1439.8524,3718.445635216349
1441.6835,3646.5665642541016
1443.5139,3558.7233293637028
1445.3435,3522.6150576109976
1447.1724,3500.790840474606
1449.0005,3430.299734206991
1450.8279,3337.990760052716
1452.6545,3317.8629049533365
1454.4804,3374.8651224705145
1456.3056,3369.84633298728
1458.13,3313.2054231380152
1459.9536,3146.6412458586356
1461.7766,2780.352620953013
1463.5987,2412.438336758605
1465.4202,2055.14715380935
1467.2409,1712.8278085148004
1469.0608,1421.0790167330424
1470.88,1187.99947719388
1472.6984,966.4878744163334
1474.5161,799.8428810394262
1476.3331,654.6131600373092
1478.1493,564.3473663857039
1479.9648,463.0941485142075
1481.7795,387.9021492089478
1483.5935,349.67000662511236
1485.4067,301.94635503887184
1487.2192,259.3298252296963
1489.031,214.36904495759518
1490.842,214.41263938928023
1492.6522,199.4592315477721
1494.4618,182.70744231196932
1496.2705,176.75589056618082
1498.0785,152.40319336764423
1499.8858,137.74796600603713
1501.6924,133.93882224701338
1503.4981,124.77437447874581
1505.3032,123.25323375002608
1507.1075,98.37400986190187
1508.911,103.08531138289345
1510.7138,76.23574589778218
1512.5159,55.67391996049082
1514.3172,33.64843936258876
1516.1178,33.80790933890967
1517.9176,29.600934787800725
1519.7166,-8.17387973046516
1521.515,-4.8679299516225
1523.3126,-8.732529954350866
1525.1094,-16.26894518671179
1526.9055,-26.478353858796254
1528.7008,-35.21177165393601
1530.4954,-44.619949736707895
1532.2893,-2.7532875060915103
1534.0824,-22.711738607768893
1535.8747,-16.84522918208404
1537.6663,-11.953458479115397
1539.4572,-23.785957465099273
1541.2473,-2.292137691226344
1543.0367,14.828826913025296
1544.8253,18.977785316635163
1546.6132,54.20558634029567
1548.4003,46.063078614921324
1550.1867,106.90111022937799
1551.9723,143.4705288119003
1553.7572,206.97218092171624
1555.5414,242.4069116833507
1557.3247,325.0255641516078
1559.1074,406.3789789572229
1560.8893,501.4679934806809
1562.6705,618.5934410386794
1564.4509,713.7061499332362
1566.2305,770.5069422804377
1568.0094,871.2966330593085
1569.7876,918.7260295438055
1571.565,954.8959302949224
1573.3417,1001.3071246863965
1575.1176,1017.6603925430068
1576.8928,1000.1565036764641
1578.6672,933.4962177218754
1580.4409,874.2302843127877
1582.2138,769.6094437477841
1583.986,687.5844275831487
1585.7575,633.155959679073
1587.5282,592.6247570199066
1589.2981,599.7915302584393
1591.0673,592.2569841212166
1592.8358,613.6218173368734
1594.6035,632.3867227114765
1596.3704,669.4523869148743
1598.1366,720.469490293051
1599.9021,758.338706497465
1601.6668,840.460701974886
1603.4308,933.0861355886914
1605.194,1051.2156577976561
1606.9564,1161.2499097296927
1608.7182,1318.2895220005612
1610.4791,1496.9351136135228
1612.2394,1705.9872903889473
1613.9988,1911.4466431778533
1615.7576,2129.6637457713905
1617.5156,2372.639152846246
1619.2728,2565.7733977824664
1621.0293,2715.41699023371
1622.785,2761.170414195906
1624.54,2685.3341265108115
1626.2942,2555.25855640848
1628.0477,2338.9941062656276
1629.8005,2114.0911529063865
1631.5525,1917.3500497649493
1633.3037,1753.5211291346013
1635.0542,1636.1047041351253
1636.804,1529.7510703510998
1638.553,1463.3105070060524
1640.3013,1467.7832780260073
1642.0488,1450.119632703882
1643.7955,1503.6198056547637
1645.5416,1549.7840169925448
1647.2868,1667.7624717949207
1649.0313,1784.655359641748
1650.7751,1951.0628534352622
1652.5181,2138.285108231147
1654.2604,2362.9722595744597
1656.0019,2652.9244216274087
1657.7427,2959.2416849224837
1659.4828,3315.6741134629315
1661.222,3482.321741659583
1662.9606,3517.534570766531
1664.6984,3293.462567214649
1666.4354,2927.5556622594677
1668.1717,2424.663754221894
1669.9072,1960.2367121472794
1671.642,1541.774380834343
1673.3761,1223.8265854794363
1675.1094,964.2431358611689
1676.8419,767.2238295198877
1678.5737,633.1184543535101
1680.3048,513.3767905877162
1682.0351,433.04861211700245
1683.7646,373.03368770209954
1685.4934,336.18178177325444
1687.2215,288.9926550303785
1688.9488,258.3160648115636
1690.6754,241.20176556497745
1692.4012,218.8995091556294
1694.1263,192.15904503651382
1695.8506,188.33012047163038
1697.5742,178.01248080339246
1699.297,145.25586949091303
1701.0191,128.56002821318225
1702.7404,131.47469719663104
1704.461,104.29961538209182
1706.1808,90.98452039565291
1707.8999,100.57914882040723
1709.6182,92.63323632960237
1711.3358,57.396517590699204
1713.0527,63.06872634482443
1714.7688,71.14959575914145
1716.4841,55.938858370127036
1718.1987,59.23624600276389
1719.9126,33.141489922647
1721.6257,40.10432080301098
1723.338,37.974468985677504
1725.0496,34.65166441142537
1726.7605,44.63563664129151
1728.4706,34.77611488979619
1730.18,16.472827925105776
1731.8886,27.325504167628424
1733.5964,22.033871873044518
1735.3036,44.09765902378058
1737.0099,28.766593381927123
1738.7156,17.89040226859879
1740.4204,20.3688127172436
1742.1246,22.401551582407592
1743.8279,7.238345514949742
1745.5306,7.878920941713659
1747.2325,-6.226995782838458
1748.9336,0.920321616966703
1750.634,-13.979338375512725
1752.3336,-15.476187286119966
1754.0325,2.72970301289115
1755.7307,5.838415256374901
1757.4281,3.7500321518909914
1759.1247,14.264636348615113
1760.8206,-7.367689541773871
1762.5158,11.103136949755026
1764.2102,5.6272718954519405
1765.9039,2.6548712565354435
1767.5968,-9.263909062047333
1769.289,11.67108681810305
1770.9804,10.810107321835858
1772.6711,7.553400757291001
1774.361,17.55121532450994
1776.0502,19.853799148000235
1777.7386,13.46140017676089
1779.4263,1.9742661612517622
1781.1132,23.892644717319854
1782.7994,22.166783441069583
1784.4849,26.296929689679928
1786.1696,6.533330598662815
1787.8535,18.57623304056233
1789.5367,14.875883822591277
1791.2192,47.03252956619917
1792.9009,33.89641674407949
1794.5818,31.91779135860088
1796.2621,46.04689907316879
1797.9415,48.38398523201295
1799.6202,43.229294718894835
1801.2982,33.38307193373612
1802.9755,48.195560844168995
1804.6519,36.66700508399208
1806.3277,48.24764780505211
1808.0027,25.737731792524755
1809.6769,46.08749934911293
1811.3504,43.74719252014029
1813.0231,55.817052890058676
1814.6951,46.99732160584881
1816.3664,66.93823925632341
1818.0369,72.540045960322
1819.7067,70.00298116730391
1821.3757,52.47728360132896
1823.044,61.51319128642763
1824.7115,71.06094172186022
1826.3783,71.52077179175421
1828.0443,71.84291766963133
1829.7096,68.9776148138044
1831.3741,65.82509796416025
1833.0379,73.08560117080788
1834.701,85.65935782560655
1836.3633,87.64660058955997
1838.0248,75.49756126708007
1839.6856,84.56247078611159
1841.3457,86.59155931962823
1843.005,96.43505619497955
1844.6636,96.09318987360075
1846.3214,89.51618785257779
1847.9785,100.60427666806436
1849.6349,96.40768196105591
1851.2904,104.07662836650434
1852.9453,109.11133955528658
1854.5994,98.31203815751496
1856.2528,113.12894571218885
1857.9054,121.56228277518903
1859.5572,117.7122687711103
1861.2083,110.6291219089253
1862.8587,115.06305922048432
1864.5084,122.76429663134786
1866.1572,111.38304891644702
1867.8054,119.41952962307141
1869.4528,118.02395118468121
1871.0994,110.14652484054386
1872.7453,120.78746064968573
1874.3905,112.3469675696706
1876.0349,109.77525335018618
1877.6786,120.07252461745247
1879.3215,143.23898689993848
1880.9637,142.32484452538893
1882.6051,138.3303003891583
1884.2458,142.6555559633548
1885.8858,122.25081133678577
1887.525,131.31626517170344
1889.1634,124.9521149078505
1890.8011,123.25855667181031
1892.4381,127.53578534064445
1894.0743,131.33399455883
1895.7098,118.55337669548635
1897.3446,110.54412280639326
1898.9786,131.6564227617987
1900.6118,137.54046532650955
1902.2443,129.24643794877102
1903.8761,132.97452670142366
1905.5071,122.12491636484447
1907.1374,134.79779038966763
1908.7669,139.843331005276
1910.3957,133.7617190930771
1912.0237,122.20313413604617
1913.651,142.9177542795403
1915.2776,130.45575644688802
1916.9034,117.71731613224051
1918.5285,125.70260752519266
1920.1528,109.16180363816761
1921.7764,125.29507622656183
1923.3992,135.35259595415664
1925.0213,124.3845322317818
1926.6427,110.09105311674216
1928.2633,99.67232542249667
1929.8832,136.02851486159648
1931.5023,111.10978614986811
1933.1207,116.96630264285636
1934.7383,127.44822658500743
1936.3552,116.65571905110778
1937.9714,118.9889398414623
1939.5868,119.29804758982095
1941.2015,116.03319974004398
1942.8154,116.59455254301247
1944.4286,98.98226108927634
1946.041,88.34647930344045
1947.6528,91.93736012028853
1949.2637,93.10505559114063
1950.8739,94.44971684794405
1952.4834,100.92149409159606
1954.0921,94.7205365784987
1955.7001,94.39699255584014
1957.3074,101.30100932360483
1958.9139,87.782733237809
1960.5197,80.99230964145886
1962.1247,87.7798829997339
1963.729,85.09559696789279
1965.3325,81.88959432339584
1966.9353,81.7620169927468
1968.5374,84.51300608355587
1970.1387,85.19270188581254
1971.7393,91.35124384437722
1973.3392,70.53877055218345
1974.9383,70.55541968865236
1976.5366,63.751328227818476
1978.1342,71.22663243816214
1979.7311,76.381467950652
1981.3273,79.51596968399122
1982.9227,69.18027179306864
1984.5173,79.97450763761458
1986.1112,60.448809885557466
1987.7044,73.35331040508117
1989.2968,68.83814045988197
1990.8885,81.85343058012268
1992.4795,79.94931060758722
1994.0697,76.37590956552526
1995.6592,73.33335567769382
1997.2479,64.2717764040924
1998.8359,65.74129847138647
2000.4232,74.69204796352369
2002.0097,65.77415030704083
2003.5955,65.23773018155407
2005.1805,58.73291160893905
2006.7648,69.70981795869466
2008.3484,65.4185720129924
2009.9312,61.4592958569051
2011.5133,76.43211092132174
2013.0946,72.38713802253915
2014.6752,72.97449721253497
2016.2551,75.69430781941628
2017.8342,71.24668844154598
2019.4126,85.48175692034442
2020.9902,76.59963038476712
2022.5672,71.80042510895146
2024.1433,76.73425660103908
2025.7188,70.45123965116954
2027.2935,71.3514882821396
2028.8674,66.53511581223393
2030.4406,68.75223484622347
2032.0131,64.60295732352938
2033.5849,55.887394496051684
2035.1559,58.105656969661595
2036.7261,52.557854791356476
2038.2957,64.69409742707762
2039.8645,66.41449381718871
2041.4325,70.51915225511334
2042.9998,67.70818037013032
2044.5664,73.53168508632893
2046.1323,67.13977265071662
2047.6974,69.08254857498491
2049.2617,64.76011769942852
2050.8254,66.02258417351777
2052.3883,69.72005149912138
2053.9504,57.8526225178839
2055.5118,60.07039937425088
2057.0725,67.27348363414035
2058.6325,62.96197626276785
2060.1917,60.23597755261517
2061.7502,72.89558716654483
2063.3079,66.99090416506078
2064.8649,71.92202687971167
2066.4212,68.03905297213737
2067.9767,73.84207938475856
2069.5315,64.73120237960507
2071.0856,63.156517480286084
2072.6389,66.11811956309975
2074.1915,61.16610287277808
2075.7433,50.150560992873125
2077.2945,61.87158689527587
2078.8448,48.72927305037342
2080.3945,46.1737113098377
2081.9434,53.654993038049724
2083.4916,54.72320913765361
2085.039,45.02844997474426
2086.5857,53.020805368185165
2088.1317,50.75036468655617
2089.677,60.46721676822949
2091.2215,54.071449944073265
2092.7652,60.413151940284706
2094.3083,47.64240994234706
2095.8506,43.10931053161403
2097.3921,70.11393981301467
2098.933,50.20638346038663
2100.4731,54.936726446429475
2102.0124,54.10505324177916
2103.5511,65.4614477677053
2105.089,60.805993404427
2106.6261,55.58877287755104
2108.1626,56.10986830462457
2109.6983,53.519361247308325
2111.2332,67.31733270616519
2112.7675,67.25386314656475
2114.301,52.37903236070338
2115.8337,73.14291946824073
2117.3657,65.79560306504527
2118.897,55.78716101555733
2120.4276,59.86767052626192
2121.9575,53.98720824577208
2123.4866,63.14585022402571
2125.0149,73.8436719710894
2126.5426,59.73074836557112
2128.0695,56.107153547643975
2129.5956,68.87296106017311
2131.1211,55.0282438849531
2132.6458,61.223074315049644
2134.1698,56.25752409324559
2135.693,65.18166435009425
2137.2155,51.89556565357407
2138.7373,58.399297919846504
2140.2584,67.54293054611958
2141.7787,56.37653234560685
2143.2983,58.00017145609468
2144.8171,52.56391545160386
2146.3353,61.01783132615492
2147.8527,56.011985548128905
2149.3693,60.04644397572952
2150.8853,54.22127190703986
2152.4005,52.38653403968078
2153.9149,50.99229452905956
2155.4287,50.03861700671882
2156.9417,59.02556459427933
2158.454,61.05319991297574
2159.9655,59.7715849937897
2161.4764,51.680781257169656
2162.9865,58.980849525850545
2164.4958,57.521850105758176
2166.0045,59.103842713011545
2167.5124,60.8768864885119
2169.0195,64.99103998212172
2170.526,66.59636113493707
2172.0317,60.042907238142334
2173.5367,66.68073491696077
2175.0409,62.90990019618539
2176.5445,60.63045843380337
2178.0473,56.64246435870268
2179.5494,53.495972093468026
2181.0507,62.59103519425912
2182.5513,55.4277066822774
2184.0512,65.50603895281483
2185.5504,63.47608384688692
2187.0488,54.38789255044958
2188.5465,50.5415156146978
2190.0435,60.837003046948894
2191.5397,58.8244043491045
2193.0353,57.303768414697515
2194.5301,57.27514354901723
2196.0241,54.53857748431528
2197.5175,55.79411738009162
2199.0101,57.59180985046123
2200.502,49.23170095159844
2201.9931,50.363836163760425
2203.4835,49.28826047488769
2204.9733,54.30501836928306
2206.4622,57.514153838367065
2207.9505,53.81571033051205
2209.438,46.60973071894841
2210.9248,57.84625733874964
2212.4109,49.62533205889281
2213.8962,40.64699616989242
2215.3809,43.261290466009996
2216.8648,46.51825533503802
2218.3479,41.317930732156356
2219.8304,43.71035614736297
2221.3121,36.24557065747695
2222.7931,43.27361290221461
2224.2733,35.74452115883673
2225.7529,46.158333271869196
2227.2317,43.36508672839295
2228.7098,45.26481855390648
2230.1872,41.30756534025727
2231.6638,42.19336322664594
2233.1397,40.37224793919722
2234.6149,37.79425478210305
2236.0894,39.35941865583527
2237.5632,29.91777408292114
2239.0362,30.569355192295916
2240.5085,27.11419581371615
2241.9801,33.30232947124614
2243.4509,37.383789417807975
2244.921,22.408608573301308
2246.3904,35.926819483788904
2247.8591,24.18845447124704
2249.3271,24.543545498385356
2250.7943,24.69212428602873
2252.2608,26.334222309567622
2253.7266,41.81987079747205
2255.1917,24.249100714870792
2256.656,29.521942608693507
2258.1197,23.138426783380737
2259.5826,27.848583248154227
2261.0447,30.102441780851677
2262.5062,30.500031880825873
2263.9669,39.64138274640527
2265.4269,36.42652327091787
2266.8862,22.305481951279262
2268.3448,29.17828692013859
2269.8026,36.99496608709137
2271.2598,32.05554706995031
2272.7162,36.06005711657872
2274.1719,25.408523154284694
2275.6268,37.45097174977673
2277.0811,24.787429215678003
2278.5346,33.917921490102344
2279.9874,41.49247426329043
2281.4395,36.76111288630307
2282.8908,31.97386229527706
2284.3414,36.580747058739234
2285.7914,38.881791425476536
2287.2406,39.6270192784699
2288.689,41.06645411188231
2290.1368,40.55011902360707
2291.5838,25.97803670087353
2293.0302,39.35022942540991
2294.4758,31.916719219165884
2295.9206,39.377527710588424
2297.3648,36.282676208957696
2298.8082,46.48218562977979
2300.251,40.52607652573431
2301.693,36.964368984679254
2303.1343,43.0970826892127
2304.5748,44.62423695228961
2306.0147,30.695850655894105
2307.4538,39.861942235768765
2308.8922,44.32252982069792
2310.3299,35.62763114084635
2311.7669,27.27726348315366
2313.2031,29.371443778283833
2314.6387,37.410188684129366
2316.0735,39.643514564867814
2317.5076,38.67143741057612
2318.941,38.943972814895915
2320.3737,32.26113598475513
2321.8056,32.422941737642645
2323.2369,43.62940456843603
2324.6674,34.380538647783396
2326.0972,33.52635771003918
2327.5263,40.766875145753374
2328.9547,39.002104010212406
2330.3823,37.8820569510342
2331.8092,39.156746225816164
2333.2355,33.476183713334876
2334.661,46.0403809008003
2336.0858,37.29934894066071
2337.5098,35.25309852496082
2338.9332,30.251639972752173
2340.3558,36.444983250554856
2341.7778,48.68313802237412
2343.199,42.96611358776511
2344.6195,47.04391875945214
2346.0393,36.316561920498884
2347.4583,31.784050983529823
2348.8767,48.84639349800466
2350.2943,50.10359669554339
2351.7113,53.15566731930255
2353.1275,42.70261161140331
2354.543,44.894435282410655
2355.9578,53.431143615863675
2357.3718,51.46274144635822
2358.7852,41.08923307417888
2360.1978,54.41062228498322
2361.6098,46.42691245353706
2363.021,44.33810641049979
2364.4315,42.59420652226265
2365.8413,46.945214711835774
2367.2504,47.0911324762875
2368.6587,45.78196084323463
2370.0664,40.967700369383124
2371.4733,47.54835115362005
2372.8795,47.42391288515603
2374.285,49.79438477771873
2375.6899,40.70976557079689
2377.0939,45.87005350593597
2378.4973,40.82524641758425
2379.9,48.22534168148957
2381.3019,35.62033626514767
2382.7032,46.110226653801305
2384.1037,41.39500897649009
2385.5035,37.374678901152265
2386.9027,32.049231681776064
2388.3011,44.668662198603556
2389.6987,44.93296501138491
2391.0957,43.09213423318374
2392.492,43.1961635277346
2393.8876,37.04504612785047
2395.2824,31.488774834383435
2396.6765,39.82734207773535
2398.07,43.910739973420846
2399.4627,41.78896023868151
2400.8547,36.0119941516524
2402.246,41.0298325725787
2403.6366,40.09246600158633
2405.0265,42.84988452850325
2406.4156,43.002077842233234
2407.8041,32.74903520318185
2409.1918,40.64074544173411
2410.5789,38.37719706078485
2411.9652,37.40837815682198
2413.3508,46.53427644256226
2414.7358,35.05487925663908
2416.12,33.82017347234296
2417.5035,41.93014561241637
2418.8863,45.68478186139987
2420.2684,46.93406798453384
2421.6497,43.02798929021094
2423.0304,36.76653061748334
2424.4104,32.09967637512341
2425.7896,34.127410604238776
2427.1682,45.29971702494106
2428.546,38.166579016068
2429.9232,45.52797950346064
2431.2996,36.63390103129461
2432.6753,48.18432568846629
2434.0503,44.279235197532444
2435.4246,37.11861079920698
2436.7982,42.45243329141147
2438.1711,37.1806831008812
2439.5433,43.5533402298272
2440.9148,38.220384308655866
2442.2856,51.6817945322407
2443.6557,50.63754971325136
2445.025,38.28762814753975
2446.3937,44.08200762458284
2447.7617,33.370665550981926
2449.1289,47.70357889251818
2450.4955,37.330724281266384
2451.8613,51.252077872265545
2453.2265,49.21761544724791
2454.5909,44.27731227542483
2455.9546,41.33114313383203
2457.3177,47.77908235673215
2458.68,42.47110386507677
2460.0416,53.85718110202674
2461.4025,52.73728708603244
2462.7627,59.911394296972276
2464.1222,55.0794746873521
2465.4811,57.54149961056396
2466.8392,55.747439869205664
2468.1966,59.49726569046038
2469.5533,57.34094674403673
2470.9093,62.878452104671396
2472.2645,68.15975027369166
2473.6191,66.58480912364075
2474.973,52.903595845464565
2476.3262,59.5660769642617
2477.6787,68.52221847609485
2479.0305,57.02198578136654
2480.3816,60.01534359525749
2481.7319,62.40225606272895
2483.0816,60.23268672858899
2484.4306,59.456598513623476
2485.7789,62.82395373629174
2487.1264,64.83471412048732
2488.4733,55.088840761864844
2489.8195,49.18629410773167
2491.165,50.22703405450727
2492.5097,61.61102000674873
2493.8538,57.2382108667432
2495.1972,57.10856492066728
2496.5398,52.0720398823164
2497.8818,51.52859289440096
2499.2231,58.678180578911
2500.5637,56.07075904255146
2501.9035,58.45628380524613
2503.2427,57.08470982621111
2504.5812,60.65599148010028
2505.919,67.37008257072023
2507.256,61.57693629531832
2508.5924,57.676505177440845
2509.9281,62.818741124864914
2511.2631,60.353595468602634
2512.5974,71.73101891147883
2513.9309,67.15096155278286
2515.2638,63.563372774493814
2516.596,61.76820128708164
2517.9275,65.4653951653828
2519.2583,57.354901866552154
2520.5884,60.98666819309096
2521.9178,58.410640373951765
2523.2465,67.92676402822076
2524.5745,66.63498419087819
2525.9018,68.48524521763704
2527.2284,64.72749079786047
2528.5543,65.3116639360594
2529.8796,61.48770698947055
2531.2041,67.35556166221397
2532.5279,71.01516904353298
2533.851,70.66646954911585
2535.1735,68.30940288449926
2536.4952,67.09390804855548
2537.8163,73.1199233570635
2539.1366,78.33738645486324
2540.4562,69.64623425559535
2541.7752,75.09640288952687
2543.0935,74.53782779046287
2544.411,73.67044364124456
2545.7279,74.89418437933512
2547.0441,77.20898320549372
2548.3596,69.81477257153767
2549.6744,76.3614841571947
2550.9885,66.79904894404524
2552.3019,77.42739715005541
2553.6146,68.09645832520062
2554.9266,77.0561612451828
2556.2379,74.55643400473912
2557.5485,87.04720392804586
2558.8585,74.52839759371432
2560.1677,81.24994070988419
2561.4762,78.71175823941167
2562.7841,78.46377433265343
2564.0913,82.30591235284885
2565.3977,79.33809487859958
2566.7035,81.86024366544825
2568.0086,75.72227967555682
2569.313,81.47412305248417
2570.6167,83.46569318256729
2571.9197,76.8969086374019
2573.222,91.51768715392723
2574.5236,81.02794570011343
2575.8246,81.97760032875402
2577.1248,91.56656628236345
2578.4244,85.6947579836804
2579.7232,92.96208893977808
2581.0214,80.81847180078285
2582.3189,92.76381828720008
2583.6157,94.99803931135068
2584.9118,106.87104485791758
2586.2072,99.23274396160406
2587.5019,99.68304458840265
2588.7959,103.27185371197908
2590.0893,104.09907730916876
2591.3819,109.0646203240886
2592.6739,106.56838665986515
2593.9652,112.31027912897855
2595.2557,114.29019947822542
2596.5456,106.85804833129981
2597.8348,123.61372516899405
2599.1234,116.45712840352007
2600.4112,125.93815521095308
2601.6983,120.55670160279726
2602.9848,123.61266233117533
2604.2705,121.4059309426433
2605.5556,121.38639974763106
2606.84,123.05395984250941
2608.1237,123.75850110978558
2609.4067,117.64991220142747
2610.689,113.77808053181803
2611.9707,124.24289233884161
2613.2516,123.64423272260166
2614.5319,125.83198554077285
2615.8115,113.15603341458814
2617.0903,126.06625770696041
2618.3685,114.2125386492429
2619.6461,122.34475521212624
2620.9229,118.96278522417589
2622.199,111.11650529050996
2623.4745,118.60579082661889
2624.7493,127.83051613682846
2626.0234,118.34055433940654
2627.2968,123.88577727431635
2628.5695,130.76605559811588
2629.8415,119.98125872850557
2631.1128,123.18125477552553
2632.3835,127.41591064940388
2633.6535,125.03509202855594
2634.9228,122.88866331723841
2636.1914,119.57648766935733
2637.4593,130.0484270099317
2638.7265,134.9543420682163
2639.9931,128.394092272982
2641.259,125.667535703456
2642.5242,127.07452915492541
2643.7887,129.4149281660018
2645.0525,123.38858700455194
2646.3156,126.34535864429313
2647.5781,123.78509482505751
2648.8398,121.45764602322384
2650.1009,126.06286147731987
2651.3613,126.25058921129727
2652.6211,121.32067598847914
2653.8801,114.77296730968288
2655.1385,113.2573074625194
2656.3961,120.82353958687031
2657.6531,125.42150569004389
2658.9094,128.1010465711135
2660.1651,123.662001774938
2661.42,119.95420956536589
2662.6743,124.17750696962571
2663.9279,130.5817298154044
2665.1808,129.46671268861394
2666.433,126.23228886934919
2667.6846,127.92829034303793
2668.9354,134.15454783278528
2670.1856,131.11089078241372
2671.4351,148.34714729420017
2672.6839,144.21314415931317
2673.9321,148.0087066854498
2675.1795,153.883658738176
2676.4263,149.6378227029703
2677.6724,157.42101942647548
2678.9179,157.03306825895572
2680.1626,160.6737869764658
2681.4067,155.24299178472984
2682.6501,152.8904972827342
2683.8928,152.01611651703587
2685.1348,147.21966100528647
2686.3761,141.90094074497688
2687.6168,146.95976426140146
2688.8568,135.8959386608451
2690.0961,136.90926957999585
2691.3348,143.44956129658203
2692.5727,127.46661671923988
2693.81,131.1602373221101
2695.0466,126.38022330466731
2696.2826,130.52637355478453
2697.5178,122.34848569653235
2698.7524,126.39635604871802
2699.9863,128.76977970666394
2701.2195,130.6185505017288
2702.452,138.89246097757427
2703.6839,140.79130237167635
2704.9151,143.16486453258705
2706.1456,146.76293590094537
2707.3755,147.73530348574184
2708.6046,162.03175282833826
2709.8331,166.65206799274318
2711.0609,174.84603142264825
2712.2881,180.96342389522408
2713.5145,189.0040244391817
2714.7403,201.21761027359764
2715.9654,207.5039567275087
2717.1899,214.91283711777555
2718.4136,229.24402268621947
2719.6367,243.2472825255337
2720.8591,251.82238343597123
2722.0809,263.21908978531224
2723.3019,274.2871634231135
2724.5223,278.67636356674086
2725.7421,283.23644669068926
2726.9611,283.6171664826897
2728.1795,289.61827379810927
2729.3972,270.83951665614336
2730.6142,263.63064017980486
2731.8306,256.2913867837119
2733.0462,241.9214962461761
2734.2612,204.82070578259538
2735.4756,197.1387501891532
2736.6892,180.27536221382604
2737.9022,165.68027263320306
2739.1145,147.45321042112027
2740.3262,136.14390289461102
2741.5372,134.60207589617647
2742.7475,114.37745390687923
2743.9571,112.16976006176122
2745.1661,99.82871635209045
2746.3744,89.40404364743716
2747.582,75.09546181908502
2748.7889,65.90268984427718
2749.9952,62.02544594930248
2751.2008,46.813447701422945
2752.4057,51.31641204764645
2753.61,39.18405546684636
2754.8136,44.11609392473218
2756.0165,35.11224299517323
2757.2188,44.47221781087791
2758.4204,37.54573315343242
2759.6213,29.382503359701104
2760.8215,25.082242391091086
2762.0211,27.444663915184776
2763.22,24.41948134874241
2764.4182,30.756407834077663
2765.6158,15.705156269309668
2766.8127,15.16543924499365
2768.009,9.486969194633673
2769.2045,3.969458400079418
2770.3994,6.312619048310978
2771.5936,-1.8838367133855627
2772.7872,-7.070196800850113
2773.9801,-10.796730310393855
2775.1723,-10.913635707062156
2776.3639,-10.521003596564753
2777.5548,-22.868815557390803
2778.745,-11.05694806320389
2779.9346,-17.135049128200365
2781.1235,-14.65265630766595
2782.3117,-15.40913597774562
2783.4992,-16.05370813454789
2784.6861,-12.435438836913136
2785.8723,-7.203233767137533
2787.0579,-4.905874377483656
2788.2428,4.857929840091344
2789.427,2.439518403314878
2790.6106,15.940230781335458
2791.7935,9.361406418906824
2792.9757,22.154384601380627
2794.1573,33.52050452049474
2795.3382,55.011105146443526
2796.5184,61.62752511421655
2797.698,70.5711025086922
2798.8769,85.59317479847437
2800.0551,106.34507874645567
2801.2327,112.67815025959715
2802.4096,137.89372418140943
2803.5859,155.14313422862244
2804.7615,160.52771273902852
2805.9364,180.9487904989894
2807.1106,206.30769668959056
2808.2842,234.5057586824296
2809.4572,271.64430178602754
2810.6294,297.0746489638484
2811.801,333.79812046291363
2812.972,368.51603355949817
2814.1423,412.7797021918959
2815.3119,459.4904366132407
2816.4808,504.8495429488696
2817.6491,541.908322729215
2818.8167,593.0680724362148
2819.9837,636.530083132723
2821.15,695.4456399509136
2822.3157,738.5160216576593
2823.4807,781.9425000653774
2824.645,819.876339601325
2825.8086,865.2687968733339
2826.9716,910.0211202904738
2828.134,955.0845496091256
2829.2957,984.0603154854596
2830.4567,1008.2996390248011
2831.617,1022.603731491872
2832.7767,1031.9237940683984
2833.9358,1025.3610177100684
2835.0941,1019.8665830533337
2836.2519,1017.841660481035
2837.4089,1000.3374101773484
2838.5653,985.604982148033
2839.7211,967.3955163954745
2840.8761,972.7601430660083
2842.0306,986.3999826320156
2843.1843,1024.7661458382759
2844.3374,1072.7597335655696
2845.4899,1114.9818364470157
2846.6417,1184.5835343881356
2847.7928,1257.115896144634
2848.9433,1330.5799786263801
2850.0931,1398.2768261720844
2851.2422,1472.0574698146584
2852.3907,1540.4229266042455
2853.5385,1608.874198870415
2854.6857,1653.0622735385064
2855.8323,1718.7381214451188
2856.9781,1754.252696896228
2858.1233,1801.5569370104286
2859.2679,1840.2517613637895
2860.4118,1900.0380715168096
2861.555,1940.3667506274705
2862.6976,1958.3386628533742
2863.8395,1989.7046529484537
2864.9808,2023.0155460832575
2866.1214,2041.9221475312877
2867.2614,2050.57524233589
2868.4007,2061.5255951211907
2869.5393,2077.973950005563
2870.6773,2098.521030492124
2871.8146,2100.9675393042517
2872.9513,2098.8641581801144
2874.0874,2083.361547848205
2875.2227,2074.4603480483756
2876.3574,2074.411177686864
2877.4915,2050.1646349253037
2878.6249,2006.4712971812173
2879.7577,1979.881721370482
2880.8898,1959.3464443442613
2882.0212,1940.3159831549035
2883.152,1927.8408352612914
2884.2821,1930.221478719149
2885.4116,1920.8583723057918
2886.5405,1915.9519554963213
2887.6686,1925.052648557256
2888.7962,1930.2108525955946
2889.923,1937.8769494678113
2891.0493,1943.0013017282708
2892.1748,1959.73425255257
2893.2997,1970.376125686292
2894.424,1985.9272252776782
2895.5476,2003.8378357712081
2896.6706,2034.15822175209
2897.7929,2055.0386277671537
2898.9145,2090.1792780216483
2900.0355,2113.930376170435
2901.1559,2137.4421049665852
2902.2756,2170.7646260238653
2903.3946,2204.0480795816197
2904.513,2244.49258417155
2905.6308,2261.498236284874
2906.7479,2291.1151099678855
2907.8643,2302.9932566518964
2908.9801,2317.432704857068
2910.0953,2340.433460073628
2911.2098,2341.4955046174773
2912.3236,2325.4187974001857
2913.4368,2325.1032739183656
2914.5494,2302.7488464144426
2915.6613,2270.5554038798105
2916.7725,2249.122812278374
2917.8831,2237.650914868485
2918.9931,2177.0395324172673
2920.1024,2151.888463315336
2921.211,2153.9474841829115
2922.319,2131.1663501213284
2923.4264,2123.594794692448
2924.5331,2109.1825301464687
2925.6391,2083.3292474976415
2926.7445,2077.834616668392
2927.8493,2086.148286747853
2928.9534,2072.7198860468134
2930.0569,2066.549022014577
2931.1597,2082.585281373253
2932.2619,2068.878230179457
2933.3634,2065.9274136639538
2934.4643,2059.0323563687257
2935.5645,2049.5425621764807
2936.6641,2028.2575143796048
2937.763,1984.926675775057
2938.8613,1926.3494888772225
2939.959,1879.0253763512205
2941.056,1807.3037415986746
2942.1523,1737.4339692309559
2943.248,1662.3654257863973
2944.3431,1561.6974604289935
2945.4375,1456.1794056990852
2946.5313,1359.760578520038
2947.6244,1252.6402812534238
2948.7169,1154.2678026632093
2949.8087,1071.4424189869587
2950.8999,976.9133949195576
2951.9904,902.7799844414682
2953.0803,837.6914317640188
2954.1696,769.7969720707383
2955.2582,719.1458321682414
2956.3462,672.9372311651734
2957.4335,638.4703809787225
2958.5202,614.7944867967042
2959.6062,582.658747422231
2960.6916,563.6623555104707
2961.7764,545.3044978900041
2962.8605,541.3343557527887
2963.9439,526.0011048377378
2965.0267,515.8039154704205
2966.1089,509.5919527163961
2967.1905,507.06437648318445
2968.2714,515.1703415823865
2969.3516,510.25899775495964
2970.4312,519.2794895901576
2971.5102,527.7809565746451
2972.5885,524.9625330022917
2973.6662,535.7733478891582
2974.7432,547.7125250016799
2975.8196,538.3791827485584
2976.8954,530.1224340613711
2977.9705,526.4913864879037
2979.045,517.1351422747176
2980.1188,493.65279840346113
2981.192,480.84344668443157
2982.2645,466.1561739913983
2983.3364,448.19006238969666
2984.4077,417.7441892831008
2985.4783,390.7676275934841
2986.5483,377.20944606527837
2987.6177,331.6187095352392
2988.6864,313.9444790680284
2989.7545,277.28581241212044
2990.8219,251.5417641765461
2991.8887,219.6113861974777
2992.9548,199.04372779567063
2994.0204,163.93783609576656
2995.0852,139.04275623197015
2996.1495,121.55753169910815
2997.2131,96.43120460157968
2998.276,82.91281582820898
2999.3383,65.25140530350825
3000.4,58.046012122861555
3001.4611,39.445674729139284
3002.5215,31.949430984751984
3003.5812,14.906318357653845
3004.6404,13.615373996304925
3005.6989,2.97563490010225
3006.7567,-2.413862067710909
3007.8139,-2.704080073647333
3008.8705,-5.945958169737935
3009.9264,-11.490408394254018
3010.9818,-12.088283385344823
3012.0364,-14.74032099198024
3013.0905,-8.347138301178973
3014.1439,-7.759205144153668
3015.1966,-5.126907964205202
3016.2487,-5.100555690175554
3017.3002,-4.730406033096358
3018.3511,0.483334250551934
3019.4013,1.0905056610446877
3020.4509,2.1909486938245095
3021.4998,5.884503833428937
3022.5481,7.971011542486224
3023.5958,15.80031222477993
3024.6428,17.172246204383498
3025.6892,25.486653647367575
3026.735,32.89337454808043
3027.7802,42.49224864600393
3028.8247,45.633115351686286
3029.8685,50.015813650753216
3030.9118,56.340182072499545
3031.9544,66.5560586460619
3032.9963,76.36328083717541
3034.0376,81.91168544601476
3035.0783,85.051108509122
3036.1184,97.83138524392302
3037.1578,109.35235001733253
3038.1966,110.21383621795161
3039.2348,115.01567614085803
3040.2723,113.05770097899119
3041.3092,120.78974077513408
3042.3455,126.21162444149286
3043.3811,118.67317968237649
3044.4161,128.07423293997778
3045.4505,126.3146094697579
3046.4842,122.64413324643579
3047.5173,120.56262698158457
3048.5498,117.0199121603361
3049.5816,122.31580906219625
3050.6128,111.15013679647205
3051.6434,107.27271324931212
3052.6734,106.93335519536424
3053.7027,101.23187833654924
3054.7314,102.31809730545444
3055.7594,104.59182572234835
3056.7868,103.60287618431869
3057.8136,94.75106024253523
3058.8398,95.53618841213887
3059.8653,95.55807026076025
3060.8902,95.11651440066817
3061.9145,97.11132848855084
3062.9381,94.44231922993134
3063.9612,95.00929235921967
3064.9835,92.86205266640263
3066.0053,84.10040399137432
3067.0264,92.0241492454083
3068.0469,79.48309049877437
3069.0668,73.62702890150092
3070.086,73.05576480878574
3071.1046,70.21909783955641
3072.1226,66.91682688218302
3073.1399,57.24875012284471
3074.1567,58.664665078552474
3075.1727,42.71436869382984
3076.1882,42.3476573265539
3077.203,36.26432690745807
3078.2173,33.46417294379944
3079.2308,27.846990580191857
3080.2438,23.162574626607608
3081.2561,24.310719614549214
3082.2678,17.241219843893504
3083.2789,14.253869371410332
3084.2893,10.648462081457325
3085.2991,3.2747917158534676
3086.3083,9.932651909933298
3087.3169,3.3718362662835375
3088.3248,2.0421382881645513
3089.3321,3.0933514451183157
3090.3388,-2.974730813734368
3091.3449,-7.262315070206114
3092.3503,-1.3695781885488145
3093.3551,-0.8466244824867033
3094.3593,-1.9935445836581778
3095.3629,-6.51042066592305
3096.3658,-6.397314987630864
3097.3681,-0.35422476802872893
3098.3698,0.41891668281303396
3099.3708,4.072179593529313
3100.3713,-0.34436999222262443
3101.3711,-0.6806660715072042
3102.3702,-6.3366392011328685
3103.3688,-2.3122131380540054
3104.3667,3.2427516638005045
3105.364,2.428417849510936
3106.3607,-0.10505196826991892
3107.3568,7.342504798826724
3108.3522,2.2212517886385967
3109.347,3.1813525655785497
3110.3412,8.02297067184682
3111.3348,5.996269617830251
3112.3277,5.351412833685998
3113.32,4.838563689608634
3114.3117,7.857885502278592
3115.3028,11.909541539990812
3116.2932,11.493694992461357
3117.2831,12.16050893031094
3118.2723,15.410146309223322
3119.2608,15.342769963277348
3120.2488,15.408542572450386
3121.2361,19.007626663292157
3122.2229,19.79018460826697
3123.209,20.10637858976291
3124.1944,23.656370592266285
3125.1793,16.790322399199567
3126.1635,23.558395557421562
3127.1471,22.610751445887843
3128.1301,21.84755120797024
3129.1125,29.368955760933062
3130.0942,28.57512580356517
3131.0753,28.86622174096587
3132.0558,29.642403692483285
3133.0357,26.35383148880338
3134.015,31.450664664188125
3134.9936,32.78306248936117
3135.9716,37.3011839205396
3136.949,34.455187586109886
3137.9258,39.99523174144667
3138.902,34.37147429737276
3139.8775,34.384072764758656
3140.8524,38.383184310760214
3141.8267,36.768965758692566
3142.8004,38.74157354803902
3143.7735,43.051163750593275
3144.7459,45.6478920507333
3145.7178,47.48191370232543
3146.689,44.80338350275719
3147.6596,44.26245577459694
3148.6295,49.509284392379165
3149.5989,46.894022788013906
3150.5676,51.11682389831833
3151.5357,47.8778401911694
3152.5032,51.527223623275844
3153.4701,55.46512567256802
3154.4364,48.99169730170403
3155.402,56.25708891869075
3156.367,53.96145044161809
3157.3315,58.05493122600508
3158.2952,58.38768008775628
3159.2584,56.809845262226915
3160.221,56.37157440089544
3161.1829,57.373014587141824
3162.1442,58.214312340630336
3163.105,62.59561360729512
3164.065,64.16706375092718
3165.0245,60.37880750936141
3165.9834,68.43098897876206
3166.9416,67.12375165150533
3167.8993,70.45723833565754
3168.8563,66.08159116804748
3169.8127,70.14695158093157
3170.7684,71.50346034575036
3171.7236,72.15125753247484
3172.6782,71.89048249604143
3173.6321,72.17127386987396
3174.5854,76.04376956849146
3175.5381,74.2081067847002
3176.4902,78.76442195086878
3177.4417,79.76285075728467
3178.3926,81.35352810659121
3179.3428,81.58658810380315
3180.2924,82.2121640404
3181.2415,86.53038839199533
3182.1899,85.64139281208114
3183.1377,86.9453080888455
3184.0848,86.29226415406251
3185.0314,88.73239007005327
3185.9773,87.3658140362162
3186.9227,93.99266336462576
3187.8674,92.36306449369832
3188.8115,91.87714292192358
3189.755,95.3350232241606
3190.6979,93.08682905649695
3191.6402,96.53268312167005
3192.5818,95.92270719154891
3193.5229,99.90702207267579
3194.4633,100.1357476123658
3195.4031,95.9090026588639
3196.3423,101.77690505905747
3197.2809,102.28957170074389
3198.2189,101.19711845395146
3199.1563,100.79966016581272
3200.0931,108.39731067148904
3201.0292,108.99018279814513
3201.9648,108.27838828897256
3202.8997,107.8120377972611
3203.834,110.19124089351652
3204.7677,111.7161060701243
3205.7008,107.53674071755741
3206.6333,113.20325110912776
3207.5652,110.86574244277983
3208.4964,115.57431878442557
3209.4271,112.57908309131946
3210.3571,116.03013716497279
3211.2865,115.87758168110597
3212.2154,117.27151615513799
3213.1436,118.16203894371199
3214.0712,124.64924723075589
3214.9982,118.63323701857725
3215.9246,121.06410306299105
3216.8503,123.1419389334799
3217.7755,123.5668369888853
3218.7001,122.93888835662936
3219.624,127.40818292846579
3220.5473,128.6248093667594
3221.4701,128.48885505979308
3222.3922,130.1504061096017
3223.3137,126.55954733333144
3224.2346,131.86636224662442
3225.1549,130.07093309952722
3226.0746,135.07334082342282
3226.9937,133.6736650489848
3227.9121,135.67198405615324
3228.83,135.86837478813158
3229.7473,139.41291283140333
3230.6639,140.5556724137683
3231.5799,139.046726368897
3232.4954,137.58614612490328
3233.4102,139.4740017194337
3234.3244,143.16036181427322
3235.238,141.64529367646685
3236.151,143.12886314145587
3237.0634,145.41113462822855
3237.9752,146.59217112448448
3238.8864,149.77203416381187
3239.797,147.90078381387713
3240.7069,149.72847864462636
3241.6163,150.70517574699778
3242.5251,154.53093071464465
3243.4332,151.10579763416862
3244.3408,149.27982904686192
3245.2477,152.6030759829587
3246.154,157.1755879798948
3247.0598,150.4474130490753
3247.9649,156.36859763014922
3248.8694,156.68918665829145
3249.7733,159.75922350499087
3250.6766,154.82874997484436
3251.5793,161.14780627485658
3252.4814,163.1164310637446
3253.3829,160.23466138874744
3254.2838,161.75253266593967
3255.1841,162.67007870904922
3256.0838,164.4373317142787
3256.9829,165.85432225112973
3257.8814,164.62107924473054
3258.7792,166.18762996166623
3259.6765,167.204000022311
3260.5731,170.02021338516266
3261.4692,168.9362923366789
3262.3647,167.0522574631153
3263.2595,171.26812766136442
3264.1538,172.63392015779613
3265.0474,170.949650466099
3265.9404,169.9653323736223
3266.8329,173.43097795821868
3267.7247,169.84659759808756
3268.616,176.2621999371184
3269.5066,172.82779192073468
3270.3966,173.64337873173787
3271.286,171.80896382465139
