RamanShift,CorrectedData
30.1047,162.1204553622773
32.3739,148.14566507581173
34.6426,135.82087316814153
36.9109,124.44607653660555
39.1787,111.62127072033381
41.4461,100.29645001399548
43.7131,92.02160759604703
45.9796,76.59673564198036
48.2456,66.62182540707124
50.5112,53.49686738062809
52.7764,43.771851385741044
55.0411,32.196766710531556
57.3054,18.271602205402537
59.5692,9.646346398789237
61.8326,-2.7790123635891124
64.0955,-13.604485832476751
66.3579,-24.380057996284414
68.6199,-32.60557693460937
70.8815,-39.380647170269555
73.1426,-37.70454749636933
75.4032,-20.07616329334786
77.6634,29.60599672678508
79.9231,172.19362441289098
82.1824,474.0384113177714
84.4412,1019.2920472722918
86.6995,1735.7562173669335
88.9574,2414.3325964992573
91.2148,2901.7228422092626
93.4717,3120.978587893622
95.7282,3179.4014379317796
97.9842,3192.9929654933944
100.2398,3142.0047119541114
102.4949,3079.7881867596448
104.7495,3047.4448679356638
107.0036,2997.6262027099538
109.2573,2944.1836078358524
111.5105,2852.968470090436
113.7632,2773.732146808943
116.0154,2688.0759667969296
118.2672,2605.65123112263
120.5185,2517.559213973518
122.7693,2411.3511634805564
125.0197,2323.3783025991142
127.2696,2237.2918301710515
129.519,2184.3929218044445
131.7679,2130.3327307344503
134.0163,2104.162388352297
136.2642,2092.683004745887
138.5117,2077.795668961498
140.7587,2042.051449118577
143.0052,1989.701392558616
145.2512,1939.2465262025921
147.4967,1886.1878570744684
149.7417,1835.226372805743
151.9863,1784.9130421660366
154.2304,1764.5988155727046
156.4739,1729.8346255939737
158.717,1727.6213871520822
160.9596,1750.8599978709226
163.2017,1743.1513380981733
165.4433,1743.2462706729134
167.6844,1736.8956410027083
169.925,1714.9502770626614
172.1651,1646.4109894589192
174.4047,1589.228571648127
176.6439,1549.0538006228192
178.8825,1510.5874374832451
181.1206,1470.4802278391169
183.3582,1454.1829021942713
185.5954,1443.4961763477443
187.832,1411.4207515567425
190.0681,1406.3073146435108
192.3037,1392.0565383160865
194.5388,1380.8190812194348
196.7734,1370.795588077954
199.0075,1377.8366898078539
201.2411,1382.3430036173881
203.4742,1371.2151329364426
205.7068,1394.1036673714766
207.9389,1395.359182816795
210.1704,1403.4322412256697
212.4015,1377.9733905977796
214.632,1371.9831648984805
216.862,1357.2120843133966
219.0915,1352.6106553083196
221.3205,1350.529370776921
223.549,1357.4187100867653
225.777,1355.479139100125
228.0044,1326.311110105085
230.2314,1329.41506183494
232.4578,1304.7414197598732
234.6837,1285.590596055919
236.909,1254.3129898516963
239.1339,1233.95898741992
241.3582,1228.3789624901747
243.582,1200.1732764524559
245.8053,1189.1922784129683
248.0281,1182.4363054761861
250.2503,1172.9056828546604
252.472,1170.1007239365797
254.6932,1153.9217303810753
256.9139,1149.5689921462729
259.134,1129.6427876510788
261.3536,1158.4433838187128
263.5727,1181.2210362759652
265.7912,1194.175989065193
268.0092,1233.858474416546
270.2267,1265.0687126184102
272.4436,1296.5569116205916
274.6601,1318.873266722207
276.8759,1308.267960256806
279.0913,1338.191161369206
281.3061,1325.793026121545
283.5204,1337.1236971940518
285.7341,1346.333304009024
287.9473,1367.9219626175227
290.16,1353.1397756072768
292.3721,1307.4368318867955
294.5837,1251.8132068331897
296.7947,1213.1689627492037
299.0052,1191.5541494194495
301.2152,1152.2688044968506
303.4246,1153.9629537187893
305.6334,1128.9366112999614
307.8418,1114.1397799154345
310.0495,1094.5224509509085
312.2568,1066.0346046506877
314.4635,1009.3262103138509
316.6696,955.2472265791325
318.8752,905.3476019920049
321.0802,884.1772755454676
323.2847,861.1361771790466
325.4887,842.674227990494
327.692,855.6913404662014
329.8949,883.987418665818
332.0972,913.71235809208
334.2989,946.1160454078504
336.5001,941.5983581388675
338.7007,917.6091643497116
340.9008,862.4983226889785
343.1003,809.7656826291739
345.2992,740.9110850178192
347.4976,706.3343626047811
349.6955,668.1353407308152
351.8927,642.9138376733342
354.0895,615.1696650283975
356.2856,612.3026279629273
358.4812,583.562525492149
360.6763,588.1991505082626
362.8707,556.8122900678436
365.0646,562.0517253454773
367.258,556.2672319476267
369.4508,567.7085798602382
371.643,576.6755335065866
373.8346,590.0678516328614
376.0257,623.185287218497
378.2162,648.7275873422507
380.4062,651.8444928510269
382.5956,627.7857381044548
384.7844,596.5510509437197
386.9726,542.8401529321491
389.1603,501.3027596675611
391.3474,464.8385813193722
393.5339,469.99732304397253
395.7199,471.7786853493658
397.9052,497.6823640435839
400.09,518.1580502168717
402.2743,551.8554299826519
404.4579,575.5741842727659
406.641,610.1139885005034
408.8235,640.8745123234119
411.0054,684.6054192978997
413.1868,745.2063665716316
415.3675,806.7770044462172
417.5477,812.2169757712052
419.7273,762.725915328373
421.9064,665.0534497773313
424.0848,585.3491981504301
426.2627,534.362772829486
428.4399,487.94378034282477
430.6166,409.34182187514534
432.7928,368.8564937317085
434.9683,316.3873881243578
437.1432,298.6840935763728
439.3176,279.0461954471598
441.4914,252.47327610928392
443.6645,253.2149151448491
445.8371,247.12068961122804
448.0091,225.39017403364414
450.1806,243.6229404661151
452.3514,228.31855870875688
454.5216,212.27659612545676
456.6913,214.74661779691678
458.8603,226.27818668107375
461.0288,218.12086358839883
463.1967,215.67420706658208
465.3639,217.38777348210579
467.5306,214.96111704471082
469.6967,193.19378979026033
471.8622,187.03534160500794
474.0271,172.43532044326912
476.1914,173.99327238900742
478.3551,178.80874180183378
480.5182,168.48127130142825
482.6807,162.4604017193833
484.8426,185.89567220248023
487.0039,215.03662027289647
489.1647,255.83278159385327
491.3248,306.1336896782075
493.4843,309.3888754804873
495.6432,296.3978668938855
497.8015,280.06018871770607
499.9592,239.02536278727416
502.1163,188.49290813731454
504.2728,149.26234141229884
506.4287,128.78317737176963
508.5839,110.90492928264712
510.7386,111.8771091240194
512.8927,96.59922776592748
515.0461,105.8707949596419
517.199,115.99131949044158
519.3512,141.8103090848981
521.5029,200.9772703096703
523.6539,258.1417083133151
525.8043,269.3031262346178
527.9541,223.9610246309469
530.1033,167.81490136664115
532.2519,121.76425206642784
534.3999,105.65857067688717
536.5472,93.49734992695721
538.694,86.48008148899089
540.8401,100.10625610036891
542.9856,114.1753636336723
545.1305,126.48689296041994
547.2748,142.34033181037785
549.4185,149.7851666484446
551.5615,157.02088251611622
553.704,159.09696295703657
555.8458,178.6628899446423
557.987,185.71814386140045
560.1276,216.56220330314977
562.2675,271.044545008549
564.4069,343.4646435506345
566.5456,392.37197079199905
568.6837,369.4159951605877
570.8212,297.9461811606275
572.958,217.36198960218485
575.0942,171.6628783158651
577.2299,141.3483029586539
579.3648,122.31771747090875
581.4992,91.62057437950489
583.6329,98.75632498814116
585.766,111.27441968431208
587.8985,158.5243078679489
590.0304,174.15543782623945
592.1616,226.8672562611289
594.2922,240.15920813300932
596.4222,223.38073613360075
598.5515,170.38128055303127
600.6802,102.41027944762254
602.8083,50.06716916988421
604.9358,52.25138504822348
607.0626,49.96236191037656
609.1888,53.49953406156715
611.3144,77.11233530739582
613.4393,100.8001989184686
615.5636,150.66255739426856
617.6873,201.99884222627747
619.8103,242.25848339935146
621.9327,242.3909088783589
624.0544,218.44554420558347
626.1756,167.87181249940022
628.2961,124.56913469372785
630.4159,85.38693004376819
632.5351,76.07461655903103
634.6537,70.28161139515737
636.7716,80.7573309470431
638.8889,70.10119090676812
641.0056,82.0626061588398
643.1216,89.79099088675389
645.237,98.03575845338082
647.3518,86.29632132368215
649.4659,62.52209098226217
651.5793,48.96247805076291
653.6922,43.41689252560673
655.8043,19.48474391359082
657.9159,9.215441287344447
660.0268,14.408393524649682
662.137,8.76291744102923
664.2466,11.028329707922694
666.3556,4.953859455222982
668.4639,-0.36126429745922906
670.5716,5.982137980430252
672.6786,-4.416750571523835
674.785,-7.558806575296785
676.8907,-11.894862529524971
678.9958,-16.375675420368225
681.1002,-5.751883404311229
683.204,-3.2239610448416443
685.3072,0.9076745558672883
687.4097,-6.95736149698746
689.5115,3.080536834121631
691.6127,-12.378954909238018
693.7132,-19.13616121630298
695.8131,-7.891282910551354
697.9123,7.1056703547890265
700.0109,6.304767760406321
702.1089,14.306078415932689
704.2061,17.309671367953115
706.3028,47.4656155199923
708.3987,69.92397960247831
710.4941,83.08483187118418
712.5887,87.24823988264279
714.6827,95.36427036253917
716.7761,81.53298916407562
718.8688,85.10446118681216
720.9608,84.12875051497872
723.0522,90.50592038176137
725.1429,90.98603317905895
727.233,133.21915039371197
729.3224,192.40533260270172
731.4112,239.24463905081848
733.4993,266.9871270587994
735.5867,236.98285155493636
737.6735,178.38186479765113
739.7596,129.5842166755374
741.845,91.43995529337053
743.9298,99.99912746008545
746.014,92.86177907021693
748.0974,117.52795501830974
750.1802,116.7976992702911
752.2624,102.87105461680926
754.3439,102.0480626805363
756.4247,95.52876405543407
758.5048,100.56319831498513
760.5843,108.40140407738477
762.6631,124.64341895519783
764.7413,175.38927947697516
766.8188,241.18902092483427
768.8956,314.9926768270009
770.9718,362.95027829981063
773.0473,367.06185330967264
775.1221,330.7274261934938
777.1962,306.1470176175633
779.2697,367.57064494089514
781.3426,457.84832246103497
783.4147,537.6800607998218
785.4862,538.865866000612
787.557,487.25573872996097
789.6271,358.0496742657665
791.6966,248.49766301336945
793.7654,150.44969179761392
795.8335,107.10574495836909
797.901,66.01580533100719
799.9678,63.529854679843766
802.0339,64.797874109036
804.0993,59.469844087443335
806.1641,77.2957444359472
808.2282,59.02555438073114
810.2916,48.6092523750217
812.3544,34.39681628179005
814.4164,31.4382234779157
816.4778,36.43345099631006
818.5385,39.9824755555037
820.5986,81.2852735096933
822.658,126.14182081325112
824.7166,170.55209260769857
826.7747,248.21606277313845
828.832,324.5837034841536
830.8886,370.90498443316665
832.9446,417.0798720667631
834.9999,403.10832912247906
837.0545,329.3403141670524
839.1085,267.5757817361384
841.1618,190.86468307198948
843.2143,140.4569667411015
845.2662,104.70257940132365
847.3175,89.50146630593622
849.368,82.25357166119466
851.4179,80.45883877834035
853.467,83.4672101460792
855.5155,88.5286274485286
857.5633,107.2930315351357
859.6105,81.86036237006215
861.6569,97.43055884453906
863.7027,77.40355903119598
865.7478,68.27930002835683
867.7922,50.25771816030988
869.8359,42.03874906855117
871.8789,49.272327891999794
873.9212,37.058389349188246
875.9629,42.2968676659259
878.0039,52.68769669743847
880.0441,70.43080987598387
882.0837,90.82614010694306
884.1226,103.57361959138916
886.1609,143.57317962213415
888.1984,198.62475045625433
890.2352,235.27826091509564
892.2714,251.4336378337564
894.3069,233.2408056945526
896.3416,181.49968646546495
898.3757,142.36019978206673
900.4091,125.32226346493485
902.4418,128.58579391104468
904.4739,154.30070626415045
906.5052,176.6169143821494
908.5358,181.3843305799321
910.5658,164.95286540622033
912.595,136.9224275958934
914.6236,98.54292423430206
916.6515,77.16426103757385
918.6786,55.73634273640664
920.7051,53.10907328985604
922.7309,54.182356099615845
924.756,52.25609403628869
926.7804,63.33018942865533
928.8041,67.2045440829354
930.8272,96.12905917204785
932.8495,94.50363519686584
934.8711,114.92817169697332
936.892,113.85256726691739
938.9123,127.6267193519642
940.9318,160.35052425885465
942.9506,171.12387701806324
944.9688,180.49667105655976
946.9862,162.86879809007553
949.003,119.34014802937622
951.019,111.01060915653966
953.0344,93.73006856024256
955.0491,68.39841221905647
957.063,69.51552517425137
959.0763,55.0312917831144
961.0888,75.14559570777749
963.1007,76.30832006005915
965.1119,57.9193472003235
967.1223,47.92855872585085
969.1321,43.63583565472925
971.1412,49.99105852576156
973.1495,51.294107441392384
975.1572,49.49486200415595
977.1641,57.19320130364565
979.1704,56.98900393450651
981.1759,53.282147919452086
983.1808,55.272510711306154
985.1849,46.70996923007192
987.1884,39.944399843027895
989.1911,50.52567845035321
991.1932,52.00368055278352
993.1945,69.87828114579747
995.1951,56.849354704837765
997.1951,62.16677500656465
999.1943,57.08041525914541
1001.1928,54.94014804907977
1003.1906,69.84584539206344
1005.1877,93.79737875439184
1007.1841,116.59461890390196
1009.1798,133.38743567045708
1011.1748,126.42569771797525
1013.1691,107.05927237650019
1015.1627,66.28802571181905
1017.1556,42.6618227191268
1019.1477,31.18052773073873
1021.1392,19.544004652352328
1023.1299,14.152117077860566
1025.12,9.054728405717242
1027.1093,19.401701892854817
1029.0979,35.39290070565903
1031.0859,56.228187816499144
1033.0731,69.50742584381646
1035.0596,68.33047684377084
1037.0454,66.1972021774485
1039.0304,69.10746252263141
1041.0148,31.511117895129928
1042.9985,26.05802761968016
1044.9814,11.798050705907485
1046.9636,3.0310459028568175
1048.9452,15.80687184159342
1050.926,29.975387122872576
1052.9061,54.68645018938105
1054.8855,52.4899191840517
1056.8642,63.33565170295344
1058.8421,60.673504817255775
1060.8194,49.45333496477235
1062.7959,43.52499797658186
1064.7717,50.63834918922964
1066.7469,56.54324350401214
1068.7213,55.93953531584202
1070.695,65.27707845420025
1072.6679,80.35572618917229
1074.6402,118.1253311380741
1076.6117,122.38574511466356
1078.5826,113.3868187514463
1080.5527,90.27840145707023
1082.5221,48.06034150631592
1084.4908,26.482486271180278
1086.4587,3.3946826430576493
1088.426,3.74677724851756
1090.3925,4.088616680183122
1092.3584,5.320047493210495
1094.3235,10.440916201869413
1096.2879,23.70106926722974
1098.2515,52.4003530459529
1100.2145,70.68861365768987
1102.1767,83.96569669808832
1104.1382,134.53144705591035
1106.099,183.7357087802617
1108.0591,223.72832457493394
1110.0185,256.2591353063618
1111.9771,287.7279796036976
1113.9351,342.0846935335022
1115.8923,396.029110285058
1117.8488,442.01105962680003
1119.8045,425.730367366873
1121.7596,336.73685489331103
1123.7139,236.3303393368451
1125.6675,181.1106344608378
1127.6204,173.12755166534862
1129.5726,185.08090053933074
1131.524,202.4704889404619
1133.4748,163.59612287561106
1135.4248,117.70760632694225
1137.3741,65.00474164065895
1139.3226,46.93732998588882
1141.2705,38.955171881712545
1143.2176,46.40806737783737
1145.164,67.84581613441935
1147.1097,59.31821734753453
1149.0546,40.375069534801014
1150.9989,27.916170620655066
1152.9424,1.9413181257828
1154.8852,-11.099690708291064
1156.8272,-19.15705865945472
1158.7686,-4.4808776196865665
1160.7092,-10.071048101949259
1162.6491,-8.477425855238607
1164.5883,0.050233981220344504
1166.5267,5.812260957685567
1168.4644,29.40898462391317
1170.4014,58.740734471537166
1172.3377,93.20783969810225
1174.2732,125.21062891374629
1176.2081,195.69942979652876
1178.1421,294.1245687724038
1180.0755,412.13637031033124
1182.0082,484.6351559380256
1183.9401,493.4212430618377
1185.8713,425.44494424176787
1187.8017,314.4565671036037
1189.7315,212.15641501868402
1191.6605,128.99478821378227
1193.5888,75.57198479410818
1195.5163,63.488301574923526
1197.4432,46.24403461577117
1199.3693,30.239479341311494
1201.2947,13.274930713764888
1203.2193,7.400683392957262
1205.1432,-4.582968094034754
1207.0664,0.8742707058587484
1208.9889,-1.3272599704412187
1210.9106,10.662780105244678
1212.8316,-2.6052555795777153
1214.7519,12.368986355969923
1216.6715,18.88588531926871
1218.5903,35.14582059401005
1220.5084,45.94917127502754
1222.4257,48.796316105696405
1224.3424,69.18763336990048
1226.2583,80.5235008635608
1228.1735,97.75429569072185
1230.0879,128.28039415019407
1232.0016,161.35217156324484
1233.9146,185.42000196833783
1235.8269,201.78425779041584
1237.7384,205.14530960022182
1239.6492,208.65352595065656
1241.5592,204.95927334316787
1243.4686,253.01291619266885
1245.3772,303.96481686447964
1247.285,376.86533519379213
1249.1922,444.3648279761501
1251.0986,494.8636482384444
1253.0042,549.562144563918
1254.9092,630.7606605871779
1256.8134,708.0595344472099
1258.7169,801.0590979753937
1260.6196,872.6596759225134
1262.5216,917.3115850287634
1264.4229,916.8651333077407
1266.3234,901.4206195999275
1268.2232,843.2283335771547
1270.1223,789.8885558970467
1272.0207,759.6515587849456
1273.9183,733.8676065673077
1275.8151,728.0369559740741
1277.7113,749.7598563965098
1279.6067,826.1865499455121
1281.5014,933.4672712343786
1283.3953,1094.6522466145427
1285.2885,1283.441693102765
1287.181,1445.1858167692835
1289.0727,1506.6848108499212
1290.9637,1486.6388541286417
1292.854,1387.698110322562
1294.7435,1242.71272828241
1296.6323,1113.7828429819328
1298.5204,1014.3585769677514
1300.4077,936.3900416486571
1302.2943,878.7273382898571
1304.1802,845.0705587926583
1306.0653,809.8697862710944
1307.9497,790.425095388494
1309.8333,774.0865527094882
1311.7162,757.6542168944574
1313.5984,724.4281388629173
1315.4798,707.4083619578415
1317.3605,734.194922277923
1319.2405,744.4878488477702
1321.1197,763.3371633500444
1322.9982,731.2928800225277
1324.876,693.3050054696315
1326.753,627.8235389828386
1328.6293,541.6984729205824
1330.5048,460.1797933630605
1332.3796,380.8174809734869
1334.2537,321.2615118132775
1336.127,280.1618581356736
1337.9996,249.6184889813021
1339.8714,238.8813705891714
1341.7426,214.65046670210472
1343.6129,207.22573867411268
1345.4826,182.25714571270078
1347.3515,166.79464495311754
1349.2196,152.6881917080401
1351.087,153.43773962219962
1352.9537,151.2432408134456
1354.8197,148.40464586525025
1356.6849,158.22190384865382
1358.5493,171.14496235065008
1360.4131,191.27376737601458
1362.276,222.35826321807338
1364.1383,258.54839225741546
1365.9998,271.0440946510473
1367.8606,262.99530797049135
1369.7206,254.80196707682978
1371.5799,258.7140042011922
1373.4384,261.5813490266887
1375.2962,246.25392864928995
1377.1533,204.38166754915346
1379.0096,164.81448774389753
1380.8652,138.90230920732472
1382.7201,114.24505026509303
1384.5742,86.19262785383773
1386.4275,70.94495776774409
1388.2802,58.55195493907138
1390.132,56.563533590629845
1391.9832,46.92960735970996
1393.8336,43.450089317967354
1395.6832,33.274892067761925
1397.5322,35.65392777695331
1399.3803,25.887108280652342
1401.2278,15.924345057430969
1403.0745,11.715549326990299
1404.9204,3.5606321497880344
1406.7656,-1.3404955308727722
1408.6101,1.4120771927043734
1410.4538,-9.331725380233479
1412.2968,5.878021035440611
1414.139,-2.708666051210571
1415.9805,2.8082308100963473
1417.8213,18.87875612921789
1419.6613,28.402954387928844
1421.5006,57.780869879216425
1423.3391,83.31254661203889
1425.1769,134.4480280175461
1427.0139,194.3873566937625
1428.8502,277.88057389423284
1430.6858,335.3277189286281
1432.5206,359.5288283278137
1434.3547,366.5339352693783
1436.188,343.4430693356227
1438.0206,334.70625644350866
1439.8524,329.9235190755678
1441.6835,315.44487636726933
1443.5139,321.02034415484763
1445.3435,330.2499351200885
1447.1724,334.3336587345743
1449.0005,329.7715211673891
1450.8279,323.6135252442797
1452.6545,317.6096704932784
1454.4804,315.65995320628247
1456.3056,313.0643664990928
1458.13,306.02290033091083
1459.9536,286.78554153029427
1461.7766,265.0022738655722
1463.5987,229.17307823721796
1465.4202,197.64793289568263
1467.2409,166.22681379968674
1469.0608,137.15969493147145
1470.88,107.89654861101042
1472.6984,90.88734578668038
1474.5161,72.28205632789343
1476.3331,70.13064919518774
1478.1493,54.7330926262818
1479.9648,53.43935415758716
1481.7795,36.94940077818518
1483.5935,45.313198942763336
1485.4067,52.28071473651579
1487.2192,53.651913791505024
1489.031,64.87676121698661
1490.842,61.40522158569729
1492.6522,62.18725882160635
1494.4618,57.07283623463047
1496.2705,61.86191651281416
1498.0785,55.45446177347327
1499.8858,59.00043351530502
1501.6924,54.09979268246144
1503.4981,52.402499629090755
1505.3032,46.75851416834365
1507.1075,50.36779558934592
1508.911,43.93030271363847
1510.7138,37.195993859084126
1512.5159,37.01482690424314
1514.3172,31.236759355715776
1516.1178,22.611748349954155
1517.9176,22.78975071104304
1519.7166,19.77072303694962
1521.515,22.904621697743835
1523.3126,18.941402865788746
1525.1094,9.681022484401183
1526.9055,14.3234363074842
1528.7008,4.76859999213076
1530.4954,0.6664690521993748
1532.2893,9.866998953863003
1534.0824,4.920145156629928
1535.8747,8.725863021338853
1537.6663,5.0341078596269995
1539.4572,6.8448348958734755
1541.2473,5.707999304116527
1543.0367,5.5235561899461345
1544.8253,3.6414606018727795
1546.6132,20.0616675331716
1548.4003,22.334131940703344
1550.1867,28.458808580712514
1551.9723,33.08565198610262
1553.7572,51.86461640518928
1555.5414,62.39565575543185
1557.3247,79.57872343564378
1559.1074,111.41377222068206
1560.8893,149.80075408961682
1562.6705,177.1896199073804
1564.4509,207.28031904089795
1566.2305,222.07279908519848
1568.0094,230.16700556250777
1569.7876,230.31288177432378
1571.565,229.5103687204748
1573.3417,233.00940509766014
1575.1176,238.85992730747535
1576.8928,242.26186942142255
1578.6672,265.7651631224046
1580.4409,290.019737670706
1582.2138,320.57551966896
1583.986,359.8324328196025
1585.7575,394.19039761931435
1587.5282,430.6993309664527
1589.2981,453.25914581747054
1591.0673,465.91975082182785
1592.8358,487.6810500963933
1594.6035,484.59294309883836
1596.3704,475.05532441002384
1598.1366,453.3180837648818
1599.9021,427.78110614779115
1601.6668,402.99427200994984
1603.4308,382.85745752474486
1605.194,374.3705348356209
1606.9564,407.5833722574479
1608.7182,443.1458343613906
1610.4791,505.1577816427807
1612.2394,597.9190701654913
1613.9988,694.9795509418184
1615.7576,774.4390690048674
1617.5156,820.597462437948
1619.2728,801.3045615799799
1621.0293,757.1101885639082
1622.785,664.3141575096325
1624.54,553.6662749659511
1626.2942,454.91634083852034
1628.0477,369.8641494963345
1629.8005,287.4094907592244
1631.5525,240.0021507483794
1633.3037,198.19191271089397
1635.0542,160.47855749384138
1636.804,139.0118639623758
1638.553,105.34160937686613
1640.3013,94.86756960756259
1642.0488,81.28951947129968
1643.7955,71.15723283623618
1645.5416,72.17048275763568
1647.2868,61.52904157918948
1649.0313,50.53268092288437
1650.7751,51.28117179541664
1652.5181,46.074284698156305
1654.2604,44.51178961966161
1656.0019,50.193456087748075
1657.7427,62.26905318511365
1659.4828,71.78834949252155
1661.222,99.40111296804497
1662.9606,125.85711085187376
1664.6984,162.3561093901866
1666.4354,181.09787357059122
1668.1717,180.23216675713456
1669.9072,151.1587505028849
1671.642,119.87738455858886
1673.3761,88.78782716340584
1675.1094,60.03983535772136
1676.8419,41.43316529404291
1678.5737,28.41757252447968
1680.3048,20.64281218680935
1682.0351,15.608639134634132
1683.7646,16.914808015128187
1685.4934,14.211073319379182
1687.2215,7.147189369327009
1688.9488,-1.1270896551990859
1690.6754,0.7879903541585236
1692.4012,2.592194765382942
1694.1263,1.7852889385773665
1695.8506,5.917038207923326
1697.5742,0.8872078897496181
1699.297,0.14556324121468833
1701.0191,-1.1581304893950914
1702.7404,2.575891944751163
1704.461,-2.9525926397923286
1706.1808,-5.093807452229839
1707.8999,-2.397946205365429
1709.6182,-2.465151724866871
1711.3358,0.804457119080439
1713.0527,-7.789213916843238
1714.7688,-3.1462590840021107
1716.4841,2.083305180486491
1718.1987,-5.150506129366647
1719.9126,0.5023219596164097
1721.6257,1.4418558741695335
1723.338,4.368162036003497
1725.0496,-1.5686931475893289
1726.7605,5.881356687001784
1728.4706,3.468393574632188
1730.18,6.392499491343699
1731.8886,3.7037563784942904
1733.5964,4.752246113516975
1735.3036,4.038050536807333
1737.0099,7.711251441238659
1738.7156,6.821930579303711
1740.4204,6.120169626382818
1742.1246,8.45605018963721
1743.8279,7.079653815026461
1745.5306,7.591061963949727
1747.2325,6.840356027009818
1748.9336,7.6776173188989105
1750.634,7.952927085905998
1752.3336,7.466366497543532
1754.0325,13.368016643795016
1755.7307,9.457958539980325
1757.4281,10.88627306773921
1759.1247,10.45304101413177
1760.8206,17.658343057355637
1762.5158,13.65225977107832
1764.2102,16.18487155238401
1765.9039,14.256258661834863
1767.5968,16.51650119814437
1769.289,13.315679117463588
1770.9804,18.353872210778718
1772.6711,20.981160135919396
1774.361,20.197622367176535
1776.0502,18.053338169029445
1777.7386,19.348386603981368
1779.4263,22.032846554002134
1781.1132,21.456796707577894
1782.7994,18.070315532866374
1784.4849,22.373481283457437
1786.1696,21.316372032237894
1787.8535,22.24906562835986
1789.5367,23.17163970781192
1791.2192,18.38417168409225
1792.9009,19.836738738982575
1794.5818,20.37941787042311
1796.2621,24.662285877986733
1797.9415,25.13541935745235
1799.6202,24.948894657976098
1801.2982,28.502787877359964
1802.9755,23.997174863917053
1804.6519,24.38213118093276
1806.3277,23.257732151720603
1808.0027,24.6240528557731
1809.6769,27.231168140005394
1811.3504,25.67915260509227
1813.0231,29.068080579396792
1814.6951,24.34802613449054
1816.3664,22.51906305126454
1818.0369,23.681264867129443
1819.7067,26.38470489430543
1821.3757,25.37945620820011
1823.044,31.915591620374073
1824.7115,27.84318368859337
1826.3783,25.812304651468196
1828.0443,21.173026469177074
1829.7096,28.675420843775413
1831.3741,28.019559265588526
1833.0379,30.005512938187536
1834.701,26.083352784948147
1836.3633,30.453149429190915
1838.0248,35.56497323340304
1839.6856,30.968894255540448
1841.3457,32.564982197909444
1843.005,27.253306453127436
1844.6636,22.783936088162136
1846.3214,27.85693989744817
1847.9785,32.77238644758094
1849.6349,31.680344026586454
1851.2904,30.980880594766916
1852.9453,27.824063795621214
1854.5994,35.45996096283949
1856.2528,30.738639151871297
1857.9054,33.46016506356659
1859.5572,32.67460509138914
1861.2083,33.73202529420098
1862.8587,28.832491404118258
1864.5084,33.12606881593692
1866.1572,35.16282263612803
1867.8054,31.94281763990216
1869.4528,33.01611825084177
1871.0994,36.83278857310117
1872.7453,33.29289238067369
1874.3905,31.846493079224786
1876.0349,36.593653741491096
1877.6786,33.984437121744406
1879.3215,32.06890560832005
1880.9637,37.09712124970915
1882.6051,31.119145773713683
1884.2458,40.1350405371646
1885.8858,34.2948665857015
1887.525,36.89868456361347
1889.1634,31.54655477224128
1890.8011,38.08853714393888
1892.4381,31.674691295594783
1894.0743,32.805076463212174
1895.7098,33.82975156604749
1897.3446,36.148775195306484
1898.9786,34.66220560389738
1900.6118,32.12010068324068
1902.2443,37.52251797813503
1903.8761,36.06951471217812
1905.5071,33.96114773374245
1907.1374,39.64747353050552
1908.7669,28.878548250533356
1910.3957,34.80442764541729
1912.0237,28.825167177963294
1913.651,34.49082196293307
1915.2776,38.90144682683683
1916.9034,37.357096251276545
1918.5285,38.007824328839774
1920.1528,32.853684778543226
1921.7764,33.04473093932532
1923.3992,32.73101582158776
1925.0213,35.21259210528498
1926.6427,34.689512143061506
1928.2633,35.01182793543589
1929.8832,29.479591136031615
1931.5023,36.84285304835413
1933.1207,26.401664681112948
1934.7383,36.35607667458913
1936.3552,31.156139405047185
1937.9714,31.001902885190816
1939.5868,37.34341681616243
1941.2015,30.98073058908551
1942.8154,33.463893221649386
1944.4286,29.59295342173624
1946.041,32.417959562589346
1947.6528,29.63895972152261
1949.2637,27.10600165167034
1950.8739,32.21913280977731
1952.4834,32.22840038152836
1954.0921,30.733851230416974
1955.7001,30.635531897652754
1957.3074,30.233488617106815
1958.9139,30.92776731629513
1960.5197,33.51841362039883
1962.1247,29.555472845321447
1963.729,33.83898997178238
1965.3325,23.969009684946514
1966.9353,31.095576331588774
1968.5374,26.168734018794225
1970.1387,26.338526542692165
1971.7393,30.00499743772474
1973.3392,26.21818997494873
1974.9383,23.72814712537121
1976.5366,32.08491159781727
1978.1342,30.088525863830768
1979.7311,30.58903207410637
1981.3273,34.23647207845363
1982.9227,30.530887420791828
1984.5173,24.22231930267563
1986.1112,25.710808620350946
1987.7044,26.496396027840518
1989.2968,26.129121922059028
1990.8885,28.20902643495731
1992.4795,27.786149437195036
1994.0697,30.710530517341624
1995.6592,27.48220898610515
1997.2479,26.001223847088397
1998.8359,24.417613829072053
2000.4232,31.281417400824722
2002.0097,22.29267278693891
2003.5955,24.051417899192955
2005.1805,24.957690426438546
2006.7648,27.8115278170132
2008.3484,26.912967269677722
2009.9312,28.012045705077583
2011.5133,25.108799774728652
2013.0946,30.50326585002645
2014.6752,30.395480051278525
2016.2551,25.085478193759826
2017.8342,31.073295788790603
2019.4126,21.05896809683631
2020.9902,32.64253006762962
2022.5672,28.424016440313494
2024.1433,27.853461627605796
2025.7188,27.630899757984125
2027.2935,27.606364681391682
2028.8674,29.529889971462637
2030.4406,26.40150892576753
2032.0131,25.721254546578194
2033.5849,24.589159572151274
2035.1559,25.4552564835311
2036.7261,25.869577515870333
2038.2957,27.482154649769114
2039.8645,25.393019607132004
2041.4325,26.952203835041928
2042.9998,28.609738526651753
2044.5664,22.265654605592346
2046.1323,28.11998270939722
2047.6974,28.32275325294337
2049.2617,19.02399636990809
2050.8254,25.023741910741137
2052.3883,23.52201953565242
2053.9504,25.918858654614425
2055.5118,25.51428844237961
2057.0725,25.358337814511856
2058.6325,23.75103543143217
2060.1917,23.1924096999783
2061.7502,26.93248878947766
2063.3079,23.9213006373336
2064.8649,25.55887291162479
2066.4212,30.54523304121676
2067.9767,25.930408199386534
2069.5315,21.364425253958757
2071.0856,32.747310813454035
2072.6389,24.679091272748863
2074.1915,24.309792699246643
2075.7433,21.839440913559798
2077.2945,20.618061493202987
2078.8448,22.44567979729655
2080.3945,19.622320978780266
2081.9434,25.048009966137172
2083.4916,23.4727714916271
2085.039,17.446630037029834
2086.5857,25.51960984939754
2088.1317,29.54173500131604
2089.677,23.31302931017524
2091.2215,23.683516297947634
2092.7652,27.65321925347557
2094.3083,27.622161228766146
2095.8506,18.2403649992945
2097.3921,25.657853064314054
2098.933,21.974647740674698
2100.4731,23.140771088647938
2102.0124,22.606244948758743
2103.5511,21.72109093012446
2105.089,22.985330415800135
2106.6261,27.348984571629842
2108.1626,26.062074333604414
2109.6983,17.87462036422481
2111.2332,22.886643065371388
2112.7675,24.198162660178212
2114.301,25.159199142913167
2115.8337,24.619772265862494
2117.3657,20.679901529720482
2118.897,20.389606188983876
2120.4276,24.39890529135036
2121.9575,25.007817680621713
2123.4866,22.01636195661061
2125.0149,26.42455646905168
2126.5426,24.982419347515986
2128.0695,21.98996845732907
2129.5956,27.697221413992338
2131.1211,21.80419561310761
2132.6458,21.360908173304495
2134.1698,25.167375995170744
2135.693,23.37361576568516
2137.2155,22.729643920152682
2138.7373,22.33547666014229
2140.2584,22.491129959926454
2141.7787,27.74661957042302
2143.2983,19.55196101763856
2144.8171,22.057169550113485
2146.3353,21.61226022086869
2147.8527,21.16724786235345
2149.3693,20.822147090894532
2150.8853,23.62697231114629
2152.4005,19.63173771954179
2153.9149,21.186457276244255
2155.4287,23.391144745099737
2156.9417,25.095813678089684
2158.454,19.95047739328413
2159.9655,27.655148957795106
2161.4764,21.20984123922983
2162.9865,24.16456682864424
2164.4958,22.069338104995822
2166.0045,18.92416720559646
2167.5124,22.17906604706475
2169.0195,19.584046356777506
2170.526,19.339119640321044
2172.0317,22.994297207441306
2173.5367,21.699590174493025
2175.0409,22.105009427888092
2176.5445,23.660565637042495
2178.0473,19.866269250322247
2179.5494,26.972130479487703
2181.0507,22.77815933763671
2182.5513,19.834365568145756
2184.0512,20.6407586866099
2185.5504,18.5473480102806
2187.0488,19.50414265000181
2188.5465,24.56115153114405
2190.0435,16.668383384036474
2191.5397,23.175846693396835
2193.0353,18.283549777259054
2194.5301,22.091500721898726
2196.0241,18.04970743075593
2197.5175,20.95817758635583
2199.0101,21.466918690726573
2200.502,16.125938036314437
2201.9931,22.785242700896717
2203.4835,18.294839600991224
2204.9733,17.754735425263434
2206.4622,18.714936679430437
2207.9505,15.725449691661993
2209.438,21.486280602978567
2210.9248,19.297435397146188
2212.4109,18.858919843068136
2213.8962,17.720739516673405
2215.3809,14.93289980530183
2216.8648,16.54540591908598
2218.3479,18.258262918829487
2219.8304,18.571475699881958
2221.3121,14.635048975010434
2222.7931,16.54898727126728
2224.2733,15.113294969354413
2225.7529,15.227976284483915
2227.2317,14.843035280735009
2228.7098,12.858475869907181
2230.1872,13.52430181536964
2231.6638,14.540516751906935
2233.1397,11.207124179060628
2234.6149,12.024127450967143
2236.0894,13.641529809691662
2237.5632,11.609334377058119
2239.0362,14.127544138475187
2240.5085,15.246161963258302
2241.9801,12.565190579447446
2243.4509,12.98463256262103
2244.921,9.00449036270561
2246.3904,14.174766299781467
2247.8591,14.245462603884079
2249.3271,12.716581363301316
2250.7943,10.538124523866557
2252.2608,16.160093904247418
2253.7266,11.582491217730293
2255.1917,12.105318016000737
2256.656,13.078575734919355
2258.1197,13.352265689293674
2259.5826,11.0263890631456
2261.0447,10.900946906974454
2262.5062,11.62594016101572
2263.9669,14.251369656495484
2265.4269,9.177236108380484
2266.8862,11.053540089123757
2268.3448,10.330282079406047
2269.8026,15.30746244937275
2271.2598,6.835081465866537
2272.7162,8.263139242655427
2274.1719,13.341635825156743
2275.6268,8.62057117615646
2277.0811,9.099945125024135
2278.5346,13.27975741492375
2279.9874,12.410007698019854
2281.4395,7.440695493679385
2282.8908,12.271820197169319
2284.3414,9.003381129349691
2285.7914,6.885377488362408
2287.2406,7.1678083823155845
2288.689,11.700672850463619
2290.1368,9.033969860382825
2291.5838,11.617698262642904
2293.0302,5.951856817473839
2294.4758,11.936444168928773
2295.9206,6.8214589015422575
2297.3648,11.356899480484586
2298.8082,12.442764302711439
2300.251,9.329051651609632
2301.693,10.265759686138367
2303.1343,10.202886471966366
2304.5748,12.290429972104775
2306.0147,13.028388047535913
2307.4538,8.966758436337855
2308.8922,11.155538746304828
2310.3299,13.794726495563495
2311.7669,9.784319090685159
2313.2031,7.374313800293834
2314.6387,8.164707795170358
2316.0735,10.155498172352551
2317.5076,13.096681947231147
2318.941,10.888256033641866
2320.3737,8.580217214453683
2321.8056,13.07256216365306
2323.2369,10.01528746942438
2324.6674,11.158389589226346
2326.0972,14.001864880364863
2327.5263,17.945709588561954
2328.9547,16.989919819521006
2330.3823,20.584491499488337
2331.8092,16.779420384811104
2333.2355,10.224702025991533
2334.661,6.970331805737686
2336.0858,3.666305004510633
2337.5098,9.562616833068219
2338.9332,7.959262465505205
2340.3558,8.356236980290248
2341.7778,5.803535376299436
2343.199,7.401152568846612
2344.6195,6.449083415210239
2346.0393,9.497322698657314
2347.4583,4.94586513796402
2348.8767,4.644705356933372
2350.2943,11.293837929909714
2351.7113,7.493257384790411
2353.1275,5.692958136534514
2354.543,6.492934525168536
2355.9578,11.79318083378945
2357.3718,6.34369128056494
2358.7852,7.544459965730923
2360.1978,6.045480926086427
2361.6098,9.046748122985946
2363.021,0.24825545732915089
2364.4315,3.8499967395484163
2365.8413,5.951965777593557
2367.2504,11.904156340914398
2368.6587,8.706562139441246
2370.0664,7.209176764062917
2371.4733,6.911993718602645
2372.8795,6.915006434791934
2374.285,8.31820827524237
2375.6899,3.0715925334156395
2377.0939,6.4251524195913134
2378.4973,8.678881113333233
2379.9,5.782771729953723
2381.3019,5.186817297976205
2382.7032,11.541010788096514
2384.1037,4.845345119142451
2385.5035,6.0498130945317286
2386.9027,7.0544074692286785
2388.3011,6.759120937699549
2389.6987,7.313946123866529
2391.0957,7.968875584060697
2392.492,8.073901801473681
2393.8876,3.3290171796083996
2395.2824,2.384214041228816
2396.6765,5.639484675808788
2398.07,4.694821348980014
2399.4627,0.35021626997946953
2400.8547,1.7556616010959374
2402.246,3.4111495011160713
2403.6366,6.066672111270023
2405.0265,2.9222215386764674
2406.4156,6.527789829787437
2407.8041,-0.6666309981671787
2409.1918,3.7389510067645944
2410.5789,6.9945344561784
2411.9652,4.150117924280423
2413.3508,5.355699915331499
2414.7358,4.711278892091343
2416.12,3.6168532637627493
2417.5035,2.0224213924356604
2418.8863,4.427981604031572
2420.2684,3.133532204247743
2421.6497,8.489071454501655
2423.0304,3.9945975848755637
2424.4104,6.650108740560995
2425.7896,6.805603026803553
2427.1682,4.911078482347762
2428.546,5.416533077882164
2429.9232,2.671964734984556
2431.2996,5.927371321067426
2432.6753,1.6327506768236617
2434.0503,0.9381005836724512
2435.4246,8.093418806705486
2436.7982,4.048703101633507
2438.1711,3.2539511432330954
2439.5433,2.5091605657939198
2440.9148,2.614328971066115
2442.2856,3.919453935708333
2443.6557,4.62453301023595
2445.025,4.2295637059698805
2446.3937,2.284543487985758
2447.7617,-0.16053022093642255
2449.1289,4.444339979137979
2450.4955,3.1491530918404322
2451.8613,2.8039080763590363
2453.2265,5.558603860390406
2454.5909,5.613239343592042
2455.9546,4.267813370035498
2457.3177,4.122324727659915
2458.68,7.5267721617263845
2460.0416,8.081154376272778
2461.4025,3.685470000069202
2462.7627,6.839717581074325
2464.1222,6.14389563039208
2465.4811,2.1980025907293452
2466.8392,5.452036843353994
2468.1966,4.955996747553968
2469.5533,5.00988060809685
2470.9093,7.3636866801903125
2472.2645,7.56741316894329
2473.6191,3.021058205827842
2474.973,8.324619846641951
2476.3262,8.87809611697297
2477.6787,4.231484959162202
2479.0305,6.634784226769995
2480.3816,1.9379917310419472
2481.7319,3.2411052168757806
2483.0816,3.5941224097894064
2484.4306,2.8970410028896794
2485.7789,1.5498586533423122
2487.1264,5.202572989342585
2488.4733,4.305181623587259
2489.8195,5.307682116747415
2491.165,4.460071986442259
2492.5097,0.8123486972142899
2493.8538,5.014509669005278
2495.1972,2.116552313633605
2496.5398,3.6184739927725076
2497.8818,4.670272046929782
2499.2231,3.5219437804284865
2500.5637,5.573486450888936
2501.9035,4.3748972807120765
2503.2427,7.176173436563971
2504.5812,4.077312041361822
2505.919,2.4783101462610944
2507.256,5.129164761644134
2508.5924,6.079872873110261
2509.9281,4.28043141496714
2511.2631,9.130837260723794
2512.5974,9.131087241084884
2513.9309,1.6811780954467537
2515.2638,4.781106471894859
2516.596,4.98086900170297
2517.9275,6.380462268333787
2519.2583,4.979882805441349
2520.5884,4.129127082875129
2521.9178,5.528191520685837
2523.2465,2.4770724976329035
2524.5745,4.675766337193899
2525.9018,4.024269338075676
2527.2284,5.072577752227446
2528.5543,4.420687791355796
2529.8796,5.5685956164415416
2531.2041,6.016297344258646
2532.5279,6.813789035895184
2533.851,1.111066692276303
2535.1735,3.1081262461893004
2536.4952,3.9049636193107915
2537.8163,5.451574702236172
2539.1366,2.997955346511233
2540.4562,6.794101349166006
2541.7752,3.3400084772510326
2543.0935,4.985672429875841
2544.411,4.381088872749963
2545.7279,3.2762534217261816
2547.0441,3.6711616488464216
2548.3596,7.265809093390089
2549.6744,6.510191257925044
2550.9885,3.8043035723610075
2552.3019,2.8481414015058917
2553.6146,7.791700072124534
2554.9266,2.3349748825004113
2556.2379,6.07796105299996
2557.5485,5.420653780639967
2558.8585,8.363048201657627
2560.1677,5.055139398083604
2561.4762,6.446922368318148
2562.7841,7.088392060210104
2564.0913,7.4295433571391385
2565.3977,5.270371071601041
2566.7035,4.160869941796243
2568.0086,6.551034653221507
2569.313,5.190859849764884
2570.6167,6.43034010980405
2571.9197,6.869469959808143
2573.222,7.50824386194288
2574.5236,5.446656209679304
2575.8246,7.034701321406018
2577.1248,5.322373461045103
2578.4244,3.209666822171606
2579.7232,8.346575545136908
2581.0214,5.58309373819575
2582.3189,6.769215426137123
2583.6157,7.854934577919138
2584.9118,9.790245094807794
2586.2072,8.82514079951978
2587.5019,7.40961541686935
2588.7959,8.893662583419385
2590.0893,10.927275861636616
2591.3819,8.710448725051165
2592.6739,5.293174537920457
2593.9652,4.825446577397379
2595.2557,9.057258067703124
2596.5456,8.938602184804395
2597.8348,6.819472014095403
2599.1234,11.949860551584337
2600.4112,11.029760725084707
2601.6983,10.209165342911447
2602.9848,11.788067103081886
2604.2705,14.21645860152173
2605.5556,11.09433231627608
2606.84,7.371680583225448
2608.1237,9.098495627307067
2609.4067,10.074769599741337
2610.689,5.200494560763772
2611.9707,10.875662469862185
2613.2516,8.150265234519459
2614.5319,9.774294653461844
2615.8115,9.197742443912972
2617.0903,10.720600225353557
2618.3685,7.342859525286954
2619.6461,8.114511764010516
2620.9229,6.135548288393039
2622.199,8.355960364158243
2623.4745,7.175739195674353
2624.7493,8.194875903750038
2626.0234,8.113361537436596
2627.2968,6.581187063836573
2628.5695,7.94834336891892
2629.8415,9.01482127284072
2631.1128,8.680611516275675
2632.3835,9.59570474974926
2633.6535,8.81009153698087
2634.9228,10.923762345732882
2636.1914,8.586707555666763
2637.4593,9.398917437206386
2638.7265,10.86038217490858
2639.9931,5.4710918593410085
2641.259,8.831036472467517
2642.5242,7.040205941541075
2643.7887,9.748590105504327
2645.0525,8.056178732897862
2646.3156,7.462961494776394
2647.5781,6.918927981632876
2648.8398,7.274067709330666
2650.1009,7.878370124543814
2651.3613,7.2318246012057585
2652.6211,12.384420434466229
2653.8801,7.736146847156718
2655.1385,1.8369929382645722
2656.3961,4.3369477294156695
2657.6531,7.386000223865999
2658.9094,8.834139381502084
2660.1651,8.631354088350491
2661.42,8.927633142096376
2662.6743,6.522965254111398
2663.9279,8.867339046490919
2665.1808,6.160743076100644
2666.433,7.403165811132922
2667.6846,8.594595658172658
2668.9354,5.8350209497731385
2670.1856,9.974429932541689
2671.4351,8.512810794735465
2672.6839,9.550151624867354
2673.9321,9.886440426322153
2675.1795,9.671665106983198
2676.4263,11.555813475869435
2677.6724,11.33887324528316
2678.9179,11.720832011968533
2680.1626,11.501677259281017
2681.4067,8.781396353367775
2682.6501,15.45997654535919
2683.8928,10.48740499857172
2685.1348,8.463668721722065
2686.3761,12.388754618652946
2687.6168,6.412649508570382
2688.8568,8.985340086792874
2690.0961,9.356812984512459
2691.3348,7.377054743067774
2692.5727,8.096051810229355
2693.81,6.963790559997193
2695.0466,6.380257285410785
2696.2826,5.645438209871742
2697.5178,4.109319492979111
2698.7524,5.271887237877571
2699.9863,3.4331275066186535
2701.2195,5.543026308535026
2702.452,8.201569618628099
2703.6839,8.108743356469077
2704.9151,11.264533359613452
2706.1456,8.61892538452934
2707.3755,13.421905075039533
2708.6046,13.423457988777571
2709.8331,9.42356954915796
2711.0609,12.97222504536066
2712.2881,8.819409672329904
2713.5145,8.315108495287731
2714.7403,10.509306491262087
2715.9654,11.751988554129845
2717.1899,14.743139472674848
2718.4136,15.88274391816109
2719.6367,17.02078641442119
2720.8591,14.50725132646032
2722.0809,16.39212284907584
2723.3019,15.725385031992623
2724.5223,18.257021761014343
2725.7421,17.78701676469084
2726.9611,18.315353589001752
2728.1795,14.592015602056605
2729.3972,14.516985988811378
2730.6142,21.290247788301933
2731.8306,15.761783894394284
2733.0462,12.431576988051994
2734.2612,8.749609592620814
2735.4756,14.565864107130729
2736.6892,9.730322843115658
2737.9022,7.44296796645088
2739.1145,9.303781545708482
2740.3262,9.312745575030853
2741.5372,9.219841955522632
2742.7475,9.22505249516103
2743.9571,8.628358909724824
2745.1661,7.229742822742338
2746.3744,7.429185771458265
2747.582,7.476669220819936
2748.7889,4.172174561482834
2749.9952,5.465683109335778
2751.2008,6.357176138545867
2752.4057,5.146634868623387
2753.61,1.78404045550689
2754.8136,5.269374003668595
2756.0165,5.252616599740371
2757.2188,4.783749277660334
2758.4204,3.5127530188404847
2759.6213,7.4896087568553185
2760.8215,4.964297390151877
2762.0211,3.8367997422810802
2763.22,7.9570965871509145
2764.4182,3.0751686603013866
2765.6158,6.290996617701538
2766.8127,5.504561084568749
2768.009,0.8158426232104645
2769.2045,1.8248217408885168
2770.3994,1.8314789367063398
2771.5936,-2.364205308480834
2772.7872,3.6377494678674864
2773.9801,2.7373473467027836
2775.1723,-1.0154076274009185
2776.3639,1.9294885627569442
2777.5548,2.722050078299098
2778.745,2.5122910610533964
2779.9346,2.1002256256272247
2781.1235,-0.014132138494936441
2782.3117,1.0192318371691584
2783.4992,1.7003317622817846
2784.6861,-0.02081816368705347
2785.8723,3.505796241729321
2787.0579,2.830189368971041
2788.2428,-0.5476244265797447
2789.427,0.8223691821572459
2790.6106,1.4401899930303017
2791.7935,-3.3941422043359992
2792.9757,-1.3806076347189347
2794.1573,-0.36915261541520294
2795.3382,1.6402903285487582
2796.5184,3.647792359981125
2797.698,3.2534246252871526
2798.8769,2.2572582343942216
2800.0551,1.2593642646954848
2801.2327,2.6098137710115026
2802.4096,2.1586777955692398
2803.5859,1.756027354497519
2804.7615,6.401933442338411
2805.9364,4.046467036073736
2807.1106,2.7396990486659973
2808.2842,4.0817003526130975
2809.4572,5.772541793015947
2810.6294,4.012294174158477
2811.801,4.201028242599172
2812.972,9.338814704773618
2814.1423,8.775724225107112
2815.3119,9.511827374636816
2816.4808,8.347194636642683
2817.6491,16.431896399286444
2818.8167,18.916002967257917
2819.9837,20.249584480928014
2821.15,24.982710891507644
2822.3157,28.065451947711885
2823.4807,31.547877148428775
2824.645,41.63005571189187
2825.8086,43.56205654085601
2826.9716,51.893948121775516
2828.134,56.62579850548411
2829.2957,64.7076752238761
2830.4567,70.18964524258783
2831.617,72.17177488017884
2832.7767,76.95412975331234
2833.9358,74.43677475693377
2835.0941,74.01977401644729
2836.2519,73.60319091288932
2837.4089,70.38708808709859
2838.5653,66.72152744388197
2839.7211,62.606570184175375
2840.8761,63.89227684169959
2842.0306,57.2787073241096
2843.1843,59.765920900137644
2844.3374,58.003976265728944
2845.4899,60.79293151916951
2846.6417,67.43284417870561
2847.7928,63.52377115465424
2848.9433,67.91576868300393
2850.0931,69.40889236450559
2851.2422,64.20319712075239
2852.3907,66.39873717924868
2853.5385,68.1955661254668
2854.6857,67.34373688089168
2855.8323,69.84330168505275
2856.9781,71.29431210404192
2858.1233,72.19681900551822
2859.2679,74.55087254419756
2860.4118,82.05652215282765
2861.555,80.56381651864753
2862.6976,81.722803508331
2863.8395,85.68353018291367
2864.9808,83.64604278620321
2866.1214,89.66038670517193
2867.2614,91.17660649033178
2868.4007,90.64474579559078
2869.5393,91.61484736309097
2870.6773,96.38695302852697
2871.8146,98.16110371144492
2872.9513,96.9873393675214
2874.0874,103.46569897082203
2875.2227,104.39622052553908
2876.3574,106.87894100120775
2877.4915,101.66389632340113
2878.6249,107.50112134890296
2879.7577,111.54064991785793
2880.8898,110.43251479539957
2882.0212,115.67674763125493
2883.152,112.27337897082589
2884.2821,119.67243820274697
2885.4116,114.77395359291884
2886.5405,123.97795221051786
2887.6686,123.68445997698088
2888.7962,122.84350157396518
2889.923,122.9051004462835
2891.0493,121.76927881031358
2892.1748,124.08605765338217
2893.2997,121.90545674512326
2894.424,122.47749461431025
2895.5476,123.05218857066203
2896.6706,123.57955469912253
2897.7929,119.60960785411385
2898.9145,117.14236165426252
2900.0355,117.87782852209901
2901.1559,120.61601970873028
2902.2756,117.15694528648488
2903.3946,119.65061412153129
2904.513,117.44703390846851
2905.6308,115.19621114538944
2906.7479,116.54815115591668
2907.8643,115.7028581117107
2908.9801,112.01033501895051
2910.0953,115.17058372678656
2911.2098,114.53360496426595
2912.3236,115.04939830872993
2913.4368,110.36796219218382
2914.5494,112.58929389613884
2915.6613,113.66338959842666
2916.7725,109.74024435098605
2917.8831,106.66985206912187
2918.9931,108.00220557073659
2920.1024,106.18729660703417
2921.211,103.42511584919644
2922.319,99.51565290653244
2923.4264,101.20889635409992
2924.5331,97.55483377180022
2925.6391,98.10345172744567
2926.7445,100.45473581330042
2927.8493,97.50867064059398
2928.9534,103.86523981600857
2930.0569,102.37442597113974
2931.1597,101.83621069893064
2932.2619,102.05057456858022
2933.3634,103.46749713092527
2934.4643,109.63695691629697
2935.5645,109.35893142035144
2936.6641,104.23339704237533
2937.763,109.46032908806592
2938.8613,106.18970182078661
2939.959,110.42148840929747
2941.056,101.50566096046155
2942.1523,100.79219047692713
2943.248,96.93104694628582
2944.3431,87.32219934820738
2945.4375,86.06561569305109
2946.5313,83.21126311795433
2947.6244,69.6591078993983
2948.7169,66.65911548175156
2949.8087,61.461250612791616
2950.8999,53.86547737370489
2951.9904,51.82175923106526
2953.0803,48.93005911279186
2954.1696,44.84033942858625
2955.2582,43.60256209884942
2956.3462,38.26668859557895
2957.4335,39.232679954746835
2958.5202,41.4504968296582
2959.6062,39.22009948129137
2960.6916,38.79144775611973
2961.7764,39.614501108415666
2962.8605,38.3892186045371
2963.9439,36.56555891469697
2965.0267,40.19348032521606
2966.1089,39.87294075675953
2967.1905,34.1038977280578
2968.2714,35.08630835911187
2969.3516,36.17012942888378
2970.4312,33.65531736547251
2971.5102,37.54182823527576
2972.5885,36.02961776813804
2973.6662,34.318641318485646
2974.7432,35.80885388044872
2975.8196,36.20021010497096
2976.8954,35.54266428490759
2977.9705,38.5861703511117
2979.045,42.43068187900979
2980.1188,34.776152058166645
2981.192,40.572533653840225
2982.2645,37.26977908352703
2983.3364,37.06784035899821
2984.4077,35.31666911932719
2985.4783,31.76621663290892
2986.5483,29.216433814971744
2987.6177,29.267271263081803
2988.6864,27.768679282640946
2989.7545,25.67060788637833
2990.8219,24.023006809336323
2991.8887,23.22582552985123
2992.9548,20.079013286029305
2994.0204,21.98251908371856
2995.0852,18.536291727976888
2996.1495,13.290279804036995
2997.2131,13.794431711768691
2998.276,13.348695718138973
2999.3383,9.553019952170573
3000.4,7.257352409399264
3001.4611,8.061640989830636
3002.5215,5.215833520896762
3003.5812,4.869877749413309
3004.6404,3.323721370037635
3005.6989,2.5273120287282893
3006.7567,2.330597338206644
3007.8139,2.4835248859209713
3008.8705,2.98604223601356
3009.9264,5.988096927791489
3010.9818,-1.1103635292986027
3012.0364,-0.15939168569101625
3013.0905,0.4909710007115855
3014.1439,-0.7093153356705457
3015.1966,-0.6102905653268422
3016.2487,-0.8619874726865753
3017.3002,1.4855672546237386
3018.3511,1.8323555402323919
3019.4013,1.8283592929120402
3020.4509,2.3735604031117923
3021.4998,-0.0820592570028289
3022.5481,2.161482160998112
3023.5958,-1.0458326746834885
3024.6428,-0.6540211174605624
3025.6892,0.5869099271223739
3026.735,2.8769600871917334
3027.7802,-0.4338710149951446
3028.8247,1.0044162140494848
3029.8685,2.0418257021848163
3030.9118,0.6283613672258852
3031.9544,4.264027106569486
3032.9963,3.0488268113288157
3034.0376,2.882764329976812
3035.0783,0.16584348049815745
3036.1184,5.098068052049896
3037.1578,1.0294418321306473
3038.1966,4.009968557258368
3039.2348,2.639651953656596
3040.2723,2.0684957074491948
3041.3092,4.596503478363527
3042.3455,1.8236789054420157
3043.3811,4.600025581762065
3044.4161,2.425547082164286
3045.4505,5.100246935489068
3046.4842,4.124128646321317
3047.5173,3.697195668243481
3048.5498,2.5694514135967452
3049.5816,4.290899257750322
3050.6128,5.5115425503789375
3051.6434,1.2313845982483258
3052.6734,4.150428653008795
3053.7027,2.9186779539968235
3054.7314,4.136135699044598
3055.7594,7.102805056797553
3056.7868,7.8186891545397685
3057.8136,6.833791048527274
3058.8398,4.848113716829207
3059.8653,7.161660069176829
3060.8902,6.4744329668202525
3061.9145,9.386435199393013
3062.9381,6.247669491784308
3063.9612,7.8581384750190075
3064.9835,10.417844717645298
3066.0053,9.22679070962997
3067.0264,9.784978836761386
3068.0469,8.742411392560008
3069.0668,8.349090572696522
3070.086,9.955018485417492
3071.1046,8.210197155478593
3072.1226,8.864628508085316
3073.1399,10.018314386341185
3074.1567,9.221256544703445
3075.1727,9.323456637446206
3076.1882,5.074916226631018
3077.203,7.425636781084862
3078.2173,9.875619718885575
3079.2308,6.924866383854626
3080.2438,6.973378021057298
3081.2561,5.621155806310211
3082.2678,5.918200845696212
3083.2789,7.514514189086599
3084.2893,8.560096827170668
3085.2991,7.854949675492579
3086.3083,2.7490735639955446
3087.3169,6.442469244073278
3088.3248,5.485137439628762
3089.3321,3.177078810140298
3090.3388,4.9182939602348235
3091.3449,5.108783462768487
3092.3503,5.948547841414506
3093.3551,6.187587568758268
3094.3593,5.525903057899702
3095.3629,5.113494660062852
3096.3658,5.9503626712127495
3097.3681,3.636507336179479
3098.3698,5.521928840289494
3099.3708,3.9066273325041827
3100.3713,7.390602906565645
3101.3711,4.073855617149718
3102.3702,-0.14361455497378905
3103.3688,2.53819233022638
3104.3667,3.419277647490885
3105.364,3.9496427461784656
3106.3607,3.8292889414550846
3107.3568,4.308217508990287
3108.3522,3.636429686160737
3109.347,3.0639266672609295
3110.3412,5.940709610221067
3111.3348,5.816779642332095
3112.3277,6.092137831477862
3113.32,4.916785187374421
3114.3117,3.940722658816453
3115.3028,5.713951145430785
3116.2932,2.5864715074370324
3117.2831,5.358284547915302
3118.2723,4.929391044080997
3119.2608,2.549791719566672
3120.2488,2.9194872487109773
3121.2361,3.688478280354646
3122.2229,5.7567654341435475
3123.209,3.274349292838769
3124.1944,1.0912303816337463
3125.1793,4.407409192978427
3126.1635,5.2228862084104595
3127.1471,4.937661865393407
3128.1301,5.001736549161977
3129.1125,7.66511059557426
3130.0942,2.6277842904709914
3131.0753,0.8897578430418012
3132.0558,5.451031436198483
3133.0357,1.0616052439552526
3134.015,4.421479385816018
3134.9936,2.5806539706686404
3135.9716,-0.26087093681380846
3136.949,3.346904702235201
3137.9258,6.653983532782854
3138.902,4.760368166327295
3139.8775,2.866061147826839
3140.8524,3.3710649746361216
3141.8267,3.1253821154491703
3142.8004,1.9290150052493678
3143.7735,1.7819660477662822
3144.7459,3.984237627439331
3145.7178,-0.6641678891117255
3146.689,3.9867518248904936
3147.6596,4.287005731260581
3148.6295,4.186602751945611
3149.5989,6.035551766022603
3150.5676,5.183861610702549
3151.5357,4.981541062840927
3152.5032,7.278598847454604
3153.4701,4.675043639745039
3154.4364,5.520884042127699
3155.402,4.666128610267624
3156.367,6.010785844621009
3157.3315,5.504864198982771
3158.2952,2.798372067039973
3159.2584,3.041317787431028
3160.221,5.433709670810633
3161.1829,5.725555997420308
3162.1442,4.416864993164475
3163.105,6.207644826691999
3164.065,2.6479036224830983
3165.0245,6.9376494429415425
3165.9834,4.0768903239920675
3166.9416,3.4156342321829234
3167.8993,4.603889093293454
3168.8563,2.2916627989466654
3169.8127,3.978963194726673
3170.7684,6.015798103300964
3171.7236,5.652175307547401
3172.6782,5.538102530185858
3173.6321,6.273587437414458
3174.5854,3.1586376400503062
3175.5381,3.9432606861746287
3176.4902,5.87746409228228
3177.4417,4.561255335435508
3178.3926,5.3446418339219175
3179.3428,6.2276309604165725
3180.2924,6.160230034148109
3181.2415,5.342446312068861
3182.1899,5.824286989528869
3183.1377,5.355759208453707
3184.0848,7.986870052526081
3185.0314,5.767626551871107
3185.9773,7.748035656745205
3186.9227,7.178104259728518
3187.8674,7.257839175920841
3188.8115,7.937247148640925
3189.755,8.066334848629129
3190.6979,5.645108867253347
3191.6402,6.323575715218134
3192.5818,4.701741846776945
3193.5229,6.629613652947472
3194.4633,6.707197477729995
3195.4031,4.5344995988286545
3196.3423,6.86152622687562
3197.2809,4.988283527158065
3198.2189,6.914777596347898
3199.1563,6.591014481234197
3200.0931,7.217000159458264
3201.0292,5.742740542751253
3201.9648,5.218241470674321
3202.8997,4.043508725361217
3203.834,7.718548036763277
3204.7677,4.893365094396749
3205.7008,8.317965510592401
3206.6333,6.542354848747352
3207.5652,5.166538589079064
3208.4964,7.440522146381454
3209.4271,6.01431088378305
3210.3571,9.13791009000716
3211.2865,7.011324993633987
3212.2154,8.034560731864627
3213.1436,5.80762237178693
3214.0712,6.980514900143138
3214.9982,4.953243245599269
3215.9246,6.675812267016193
3216.8503,6.848226773722346
3217.7755,7.0704915082880415
3218.7001,5.9426111448013295
3219.624,6.164590286645336
3220.5473,6.836433477777085
3221.4701,8.15814520050769
3222.3922,6.629729868783933
3223.3137,5.301191814971145
3224.2346,5.172535305137354
3225.1549,7.293764552338674
3226.0746,5.514883717905862
3226.9937,7.78589689023203
3227.9121,8.156808102561454
3228.83,7.927621310279439
3229.7473,8.44834038720321
3230.6639,7.168969127873776
3231.5799,5.539511242348744
3232.4954,5.85997036899603
3233.4102,8.780350090788435
3234.3244,5.200653932099055
3235.238,8.670885329497485
3236.151,4.391047667546784
3237.0634,7.41114424410115
3237.9752,9.781178313104306
3238.8864,8.101153054388535
3239.797,5.1710715499743305
3240.7069,9.140936800870659
3241.6163,8.660751756375767
3242.5251,7.030519274378532
3243.4332,7.550242126160315
3244.3408,10.219923012697283
3245.2477,9.439564559463179
3246.154,6.409169289732519
3247.0598,11.178739632384172
3247.9649,9.848277952205311
3248.8694,8.467786502195711
3249.7733,8.887267436872374
3250.6766,7.356722826074424
3251.5793,6.82615465076832
3252.4814,10.245564818353284
3253.3829,9.81495516796699
3254.2838,6.3343274362914705
3255.1841,6.9536832618591955
3256.0838,8.673024219859364
3256.9829,8.54235181594434
3257.8814,7.961667469036241
3258.7792,7.930972512633668
3259.6765,6.9002682006185445
3260.5731,7.919555707563065
3261.4692,8.538836139036743
3262.3647,5.658110521413533
3263.2595,8.12737979567903
3264.1538,7.44664484623771
3265.0474,8.365906476220266
3265.9404,8.585165414290925
3266.8329,7.354422305454857
3267.7247,10.47367770886557
3268.616,8.242932110132346
3269.5066,7.812185890127692
3270.3966,11.781439347294787
3271.286,10.250692701954957
