RamanShift,CorrectedData
30.1047,1630.2221707123467
32.3739,1515.7778490643163
34.6426,1402.333511114064
36.9109,1284.03912540159
39.1787,1169.7946464435577
41.4461,1058.1000159162395
43.7131,942.4051637979616
45.9796,829.610009486048
48.2456,714.0144629537722
50.5112,601.8184258783064
52.7764,484.42179279667806
55.0411,376.2244522277307
57.3054,259.52628784608936
59.5692,147.77717956413449
61.8326,38.17700469898381
64.0955,-67.82436091001685
66.3579,-176.9770418052916
68.6199,-275.8804849638991
70.8815,-364.5823693622508
73.1426,-403.47761793071334
75.4032,-317.15751142178374
77.6634,98.89070015344362
79.9231,1242.4829351874137
82.1824,3924.9851110836644
84.4412,8946.563132820904
86.6995,16094.032866127993
88.9574,23246.110087268156
91.2148,28200.5604115643
93.4717,30525.79922187822
95.7282,31003.541619066113
97.9842,30822.752398726174
100.2398,30127.346046421204
102.4949,29397.236739486463
104.7495,28444.238353983757
107.0036,27466.41447200253
109.2573,26569.078391189832
111.5105,25675.693134528585
113.7632,24848.721459310917
116.0154,24084.07586607203
118.2672,23559.468606859922
120.5185,22964.711692881814
122.7693,22505.266899750255
125.0197,22116.195773430678
127.2696,21683.809634835852
129.519,21424.46958371657
131.7679,21065.186502985554
134.0163,20719.27106131082
136.2642,20362.733716708517
138.5117,19973.83472000209
140.7587,19576.53411838766
143.0052,19186.491759322984
145.2512,18795.467294500497
147.4967,18426.72018374771
149.7417,18148.20969893747
151.9863,17854.444927675402
154.2304,17678.634776085077
156.4739,17407.087971745572
158.717,17183.81306544965
160.9596,16907.218433919184
163.2017,16552.712282037923
165.4433,16110.552645617428
167.6844,15650.147394942149
169.925,15214.654239190997
172.1651,14666.130731041421
174.4047,14281.534271024326
176.6439,13894.422113009306
178.8825,13527.701368050624
181.1206,13288.829008258315
183.3582,12973.96187046541
185.5954,12770.856658616643
187.832,12559.519946917146
190.0681,12412.008181863464
192.3037,12299.02768435697
194.5388,12141.184651178937
196.7734,12082.485156120367
199.0075,12065.185151560421
201.2411,12138.040469053409
203.4742,12022.906819501794
205.7068,12076.039792427633
207.9389,12082.24485712393
210.1704,12122.02736212328
212.4015,12123.142535135838
214.632,12210.995482651491
216.862,12277.741189928698
219.0915,12326.234520115973
221.3205,12448.280213584414
223.549,12530.582887442786
225.777,12669.247034317064
228.0044,12864.877021527394
230.2314,13192.377089701451
232.4578,13417.10135081815
234.6837,13620.553784932637
236.909,13745.988237929052
239.1339,13627.658419485999
241.3582,13360.667901822206
243.582,12950.37012087983
245.8053,12576.91837899434
248.0281,12261.76584899752
250.2503,11981.115577951969
252.472,11781.720490302636
254.6932,11676.833390683312
256.9139,11555.406965910595
259.134,11546.993786032745
261.3536,11497.396305543962
263.5727,11532.416863468508
265.7912,11499.007683856686
268.0092,11550.770875434644
270.2267,11454.65843193845
272.4436,11362.022231596467
274.6601,11232.814038090482
276.8759,11037.135501482071
279.0913,10869.088159504663
281.3061,10704.673439520353
283.5204,10632.842660200346
285.7341,10584.147033169118
287.9473,10583.287663722731
290.16,10747.815551315769
292.3721,10888.581589569963
294.5837,11252.936564628873
296.7947,11460.23115375027
299.0052,11581.765921662542
301.2152,11392.891318491778
303.4246,11019.157678546417
305.6334,10387.46522220599
307.8418,9812.21405965845
310.0495,9214.304197217107
312.2568,8797.53554307313
314.4635,8422.157913274661
316.6696,8201.921035894484
318.8752,8035.674554783804
321.0802,7999.568031774623
323.2847,8002.250948342207
325.4887,7992.772705966145
327.692,7854.332626103516
329.8949,7709.429950283695
332.0972,7383.713841492721
334.2989,7032.433385622351
336.5001,6656.087594727207
338.7007,6422.775410537586
340.9008,6214.645708222919
343.1003,6000.597298724895
345.2992,5873.728930838739
347.4976,5777.589293353718
349.6955,5651.177016321812
351.8927,5679.290672019111
354.0895,5514.678776209945
356.2856,5542.039787865744
358.4812,5425.772110811151
360.6763,5387.324093450421
362.8707,5299.694029930099
365.0646,5304.930160523489
367.258,5292.580672506971
369.4508,5223.493700107621
371.643,5258.217324626707
373.8346,5185.649575130563
376.0257,5140.788428103377
378.2162,5030.731808172834
380.4062,4933.5275885587525
382.5956,4664.673592173629
384.7844,4504.967592594685
386.9726,4332.457316752429
389.1603,4243.540446527695
391.3474,4101.114620476754
393.5339,4063.977434720475
395.7199,3934.5264443685937
397.9052,3935.959163891066
400.09,3880.873068412604
402.2743,3915.165593698328
404.4579,3985.1341367046352
406.641,4107.226055236268
408.8235,4278.988667246642
411.0054,4548.66924961692
413.1868,4860.91503643838
415.3675,5058.023216315629
417.5477,5184.240929244113
419.7273,5168.065264639068
421.9064,5025.243260073314
424.0848,4902.421901439024
426.2627,4627.3481243759525
428.4399,4267.568815499641
430.6166,3873.8308151521414
432.7928,3497.380920999851
434.9683,3108.465891970847
437.1432,2835.8824520194157
439.3176,2626.427294015175
441.4914,2445.997082468941
443.6645,2378.9884556272555
445.8371,2249.498027276697
448.0091,2143.022387413961
450.1806,2062.1081035407697
452.3514,1972.451721728632
454.5216,1992.949767427981
456.6913,1893.1487463647372
458.8603,1925.9451443353282
461.0288,1951.1354282047105
463.1967,1902.416045578384
465.3639,1997.6834245505142
467.5306,2028.4839741911
469.6967,2101.0640835933227
471.8622,2166.270121565525
474.0271,2242.1984359054095
476.1914,2278.895352747979
478.3551,2274.607175806259
480.5182,2270.4301860043215
482.6807,2264.7106415201742
484.8426,2378.894777827536
487.0039,2636.878807753017
489.1647,3042.15892033429
491.3248,3445.2312782402514
493.4843,3587.5920137182165
495.6432,3521.5872245632054
497.8015,3442.1129726943054
499.9592,3358.2152848147543
502.1163,3217.79015320667
504.2728,2916.23353657002
506.4287,2613.591361426874
508.5839,2207.0095251369876
510.7386,1860.78389892419
512.8927,1656.3603319422455
515.0461,1556.4346547370696
517.199,1494.0026812909819
519.3512,1525.21021002196
521.5029,1634.5030244079608
523.6539,1759.5768926748424
525.8043,1797.9275667034453
527.9541,1807.250780778848
530.1033,1699.842251206861
532.2519,1675.8476762207956
534.3999,1746.2127370555445
536.5472,1948.6830981875319
538.694,2339.90440663106
540.8401,2839.5722899136017
542.9856,3241.9823521635935
545.1305,3352.580169113762
547.2748,3208.0112840770107
549.4185,2925.0212068404417
551.5615,2594.3554151110566
553.704,2448.8593573456437
555.8458,2413.628456057444
557.987,2446.35810927111
560.1276,2510.4436908750195
562.2675,2631.7805502939755
564.4069,2765.514011848336
566.5456,2890.139373540662
568.6837,2920.701905718388
570.8212,2571.446849827553
572.958,2095.1694181071816
575.0942,1691.914797081834
577.2299,1396.7781523243793
579.3648,1337.0546324885436
581.4992,1319.7893722602785
583.6329,1506.6774929549974
585.766,1712.2141026902227
587.8985,1857.6442945167164
590.0304,1881.063144363101
592.1616,1798.3157095815623
594.2922,1695.4970287136548
596.4222,1518.5521223177911
598.5515,1286.6759939974163
600.6802,1139.563632170457
602.8083,922.7100123880864
604.9358,899.0600988058486
607.0626,853.4588463521941
609.1888,903.1512009649778
611.3144,866.5321000474687
613.4393,802.0964719714393
615.5636,771.8892364433414
617.6873,706.355305148667
619.8103,641.8895820540256
621.9327,551.5369640624849
624.0544,441.69234165822127
626.1756,373.95059981006125
628.2961,286.30661906989917
630.4159,215.45527625013528
632.5351,177.64144530011436
634.6537,145.6099980146264
636.7716,139.85580441206184
638.8889,143.4237330547203
641.0056,180.55865110636296
643.1216,162.9554242965096
645.237,194.7589165491081
647.3518,147.56399015854367
649.4659,132.01550547161787
651.5793,147.7583213594935
653.6922,100.28729537318395
655.8043,76.2472835861281
657.9159,101.38314106889993
660.0268,24.589722129605434
662.137,3.011880062525961
664.2466,-27.855777489392494
666.3556,-36.56867297189092
668.4639,-47.431950551505
670.5716,0.44961092627090693
672.6786,45.421706461120266
674.785,58.78002656110948
676.8907,79.17026128009093
678.9958,173.98810008412875
681.1002,182.97923164759231
683.204,160.88934290497855
685.3072,128.21411896100471
687.4097,42.1992433114865
689.5115,15.490398170111803
691.6127,16.233265328579364
693.7132,-40.77662817049895
695.8131,-55.943917454831535
697.9123,-79.77283029361388
700.0109,-50.817035576310445
702.1089,-88.07940526181119
704.2061,-74.16230364683179
706.3028,-36.56721511483374
708.3987,31.555116832119893
710.4941,101.2543139984482
712.5887,238.42999787301778
714.6827,466.981788932153
716.7761,774.9093052678872
718.8688,1118.5621603024338
720.9608,1330.3399597089247
723.0522,1406.7922979748728
725.1429,1298.9187562843963
727.233,1143.8689017536944
729.3224,984.3922885097891
731.4112,747.4884592410181
733.4993,546.4569467918082
735.5867,366.04727653170994
737.6735,244.4089683657112
739.7596,162.04153853833304
741.845,75.7945008500119
743.9298,28.767367480773828
746.014,19.909649852708753
748.0974,39.3205720019032
750.1802,53.29915906704446
752.2624,82.34443579361141
754.3439,115.45542639410087
756.4247,211.18115425757605
758.5048,367.6706416185443
760.5843,622.2229085997133
762.6631,1003.8369716470861
764.7413,1493.711840984448
766.8188,2155.2965167972125
768.8956,2682.0899843336756
770.9718,2997.4912072891802
773.0473,2927.8491225381676
775.1221,2646.662636980178
777.1962,2286.980628236266
779.2697,2112.901947460863
781.3426,2153.3754229386013
783.4147,2339.299861825093
785.4862,2604.8740497421986
787.557,2592.0467489187868
789.6271,2205.9166955349883
791.6966,1652.4825998504693
793.7654,1086.493150065733
795.8335,731.1970178564716
797.901,476.9428640334427
799.9678,360.6293420954553
802.0339,345.55510077188956
804.0993,361.66878518584053
806.1641,374.2190370048538
808.2282,324.8544942797944
810.2916,241.87379131934904
812.3544,170.57555918366234
814.4164,91.40842651415915
816.4778,115.42102024650922
818.5385,145.51196640231137
820.5986,213.62988984895492
822.658,406.82341399871984
824.7166,565.9411601275842
826.7747,924.881745443301
828.832,1257.343781494219
830.8886,1468.6258705798773
832.9446,1650.22660242637
834.9999,1625.8445520735459
837.0545,1552.5782780589961
839.1085,1455.77632266187
841.1618,1328.6372126355418
843.2143,1250.459460175629
845.2662,1088.6915641913874
847.3175,1037.9820110874844
849.368,943.1292763816728
851.4179,857.7818252119014
853.467,703.1881132848284
855.5155,625.496587729298
857.5633,533.9556886422797
859.6105,440.66384986578305
861.6569,379.21949990226676
863.7027,332.6710628475521
865.7478,327.3169590052621
867.7922,293.5056053523276
869.8359,346.13541559250916
871.8789,465.3048004945249
873.9212,581.91216736573
875.9629,786.5559188604584
878.0039,945.2344518139143
880.0441,1052.7961551957596
882.0837,1111.839408523314
884.1226,1060.612580785937
886.1609,995.8640298546015
888.1984,975.7921029941663
890.2352,992.8951375108481
892.2714,952.3714609529507
894.3069,936.9193909398382
896.3416,845.4372355671585
898.3757,788.7232935613683
900.4091,760.4258551945586
902.4418,774.3932028515937
904.4739,815.8736113130853
906.5052,846.4153476157207
908.5358,787.866670637457
910.5658,626.5258307921013
912.595,517.1410706147963
914.6236,314.06062637543073
916.6515,248.83272917248178
918.6786,202.6056069638289
920.7051,276.4274852190174
922.7309,380.89658738154685
924.756,442.41113413064704
926.7804,537.869342336593
928.8041,526.6694244455484
930.8272,563.4095875249968
932.8495,540.2880333757312
934.8711,511.90295816445723
936.892,396.352552655002
938.9123,323.2350024921725
940.9318,239.04848935724476
942.9506,171.89119169915284
944.9688,94.31128557634293
946.9862,36.706945328356596
949.003,-48.8236556483771
951.019,-72.83234432448262
953.0344,-71.82045992228268
955.0491,-31.03861406897704
957.063,40.21329909461747
959.0763,154.33569550343964
961.0888,207.77899069029445
963.1007,292.09359864463295
965.1119,365.3799312781248
967.1223,392.23839758150643
969.1321,402.5694028917151
971.1412,434.8733486233068
973.1495,447.85063216514754
975.1572,491.65164655737135
977.1641,513.3267803616181
979.1704,519.0764172230174
981.1759,517.4009356534261
983.1808,552.2507089739502
985.1849,678.9261053316877
987.1884,800.82748735124
989.1911,938.4052108679498
991.1932,1081.8596237088914
993.1945,1140.7410643170933
995.1951,1146.2498603169897
997.1951,1115.8863279256148
999.1943,1047.2007718974965
1001.1928,1038.9434858283166
1003.1906,1054.3647528417423
1005.1877,1145.1648456720104
1007.1841,1195.194026509711
1009.1798,1140.2025460937894
1011.1748,1022.5406432112613
1013.1691,839.558545247115
1015.1627,590.7564693609402
1017.1556,424.38462431673724
1019.1477,288.44321297095667
1021.1392,200.23243393621124
1023.1299,216.25248294068479
1025.12,247.75355371024853
1027.1093,305.03583780824556
1029.0979,404.74952432048667
1031.0859,516.5947992824258
1033.0731,552.7218446820261
1035.0596,503.4808373413034
1037.0454,342.47194855506496
1039.0304,275.79534458331
1041.0148,149.3011882613282
1042.9985,29.689639666461517
1044.9814,20.41085738304173
1046.9636,-21.335000301489345
1048.9452,-35.847775303804156
1050.926,-4.677096403922405
1052.9061,7.6777657374022965
1054.8855,41.81758718360834
1056.8642,65.99306729724776
1058.8421,107.25490502270804
1060.8194,174.1537986444473
1062.7959,237.34044537437876
1064.7717,283.86554068287114
1066.7469,328.7797776669049
1068.7213,357.6838465847977
1070.695,393.3284344070853
1072.6679,356.31422452746847
1074.6402,356.6918964063734
1076.6117,339.56212594108
1078.5826,299.27558546196815
1080.5527,287.8829439037945
1082.5221,372.3348672085649
1084.4908,488.7320184394648
1086.4587,616.9750569363387
1088.426,747.7146371517156
1090.3925,793.651407368372
1092.3584,777.2860083919513
1094.3235,671.7690730915801
1096.2879,655.5012265635305
1098.2515,714.4330871863858
1100.2145,791.0652667837294
1102.1767,935.6483700348181
1104.1382,1171.882993708261
1106.099,1370.1197252161874
1108.0591,1608.059140251904
1110.0185,1774.3018008075196
1111.9771,1821.898252794559
1113.9351,1698.5990243815268
1115.8923,1450.1046255179535
1117.8488,1204.2655491673831
1119.8045,946.0822737923172
1121.7596,826.2052658126031
1123.7139,770.1849821872729
1125.6675,755.0218716133149
1127.6204,825.0163750858683
1129.5726,799.8689260498595
1131.524,774.5799497000517
1133.4748,733.249863232526
1135.4248,651.1290760975662
1137.3741,607.0679904129684
1139.3226,569.6670017852375
1141.2705,535.6264997502076
1143.2176,432.0468681470502
1145.164,419.3784854586738
1147.1097,417.121725847519
1149.0546,376.22695928225585
1150.9989,311.2945515603278
1152.9424,172.32486471691846
1154.8852,60.668257674269626
1156.8272,-26.674912368620426
1158.7686,-36.0542888194359
1160.7092,-34.31924860348772
1162.6491,-24.418808463746245
1164.5883,81.19835770610189
1166.5267,174.03381995625932
1168.4644,358.63914752495293
1170.4014,545.3659079100707
1172.3377,824.3656650231242
1174.2732,1074.7399773219622
1176.2081,1408.1403950207805
1178.1421,1728.0184575863823
1180.0755,2066.475690404166
1182.0082,2290.713601579354
1183.9401,2353.8336785524125
1185.8713,2261.0873858566783
1187.8017,1994.9261644871576
1189.7315,1700.1014328279816
1191.6605,1423.714589314025
1193.5888,1193.6670153791547
1195.5163,1061.260078220097
1197.4432,979.4451330969068
1199.3693,953.8735246570486
1201.2947,928.1965877535395
1203.2193,952.7656477006576
1205.1432,939.4820205307278
1207.0664,939.597012748417
1208.9889,993.5119214635824
1210.9106,1027.4280343901055
1212.8316,1076.3966293067551
1214.7519,1129.8189737180228
1216.6715,1159.796324364429
1218.5903,1209.9299266883208
1220.5084,1261.5710145340836
1222.4257,1269.820809646806
1224.3424,1297.930521155873
1226.2583,1375.4013454924552
1228.1735,1493.9344661084306
1230.0879,1602.3310527016629
1232.0016,1735.1922600306798
1233.9146,1812.4192268307015
1235.8269,1764.3630744850261
1237.7384,1645.5749062527657
1239.6492,1461.2058077493984
1241.5592,1413.1068481346638
1243.4686,1397.3790819562373
1245.3772,1419.1235496307345
1247.285,1479.3912776009793
1249.1922,1494.7832781185662
1251.0986,1537.5005486411856
1253.0042,1566.6440716786992
1254.9092,1627.3148143659637
1256.8134,1737.113728171401
1258.7169,1881.0417482902894
1260.6196,2073.849792546772
1262.5216,2324.9887599545737
1264.4229,2494.6095287889293
1266.3234,2682.9629540751894
1268.2232,2800.7998658926144
1270.1223,2834.0710674908405
1272.0207,2843.227334111508
1273.9183,2830.869412655554
1275.8151,2761.7480215916466
1277.7113,2737.213851079763
1279.6067,2656.2675636624017
1281.5014,2694.8097945099335
1283.3953,2781.0411522300546
1285.2885,2927.162218482372
1287.181,3117.1735471160728
1289.0727,3337.325662708733
1290.9637,3488.119058666188
1292.854,3632.154195021023
1294.7435,3747.981496924641
1296.6323,3854.7513532069006
1298.5204,3949.564115217846
1300.4077,4078.520095760021
1302.2943,4110.219568140325
1304.1802,4048.312764880465
1306.0653,3850.249877399954
1307.9497,3605.3810566351776
1309.8333,3370.90641502003
1311.7162,3232.576028934591
1313.5984,3195.089941049885
1315.4798,3255.7981617111855
1317.3605,3304.7006693128624
1319.2405,3334.3474096913096
1321.1197,3288.938295635914
1322.9982,3136.0232065925957
1324.876,3015.1019891179003
1326.753,2896.974458408141
1328.6293,2843.1903995086095
1330.5048,2783.6995684948597
1332.3796,2729.601693010539
1334.2537,2724.596472862301
1336.127,2697.9835805607863
1337.9996,2677.162661370674
1339.8714,2685.033333576809
1341.7426,2696.2951886924093
1343.6129,2726.997791380366
1345.4826,2681.34067934061
1347.3515,2704.3233630031064
1349.2196,2689.695325984405
1351.087,2739.4560248578273
1352.9537,2812.204889299748
1354.8197,2947.9413215919785
1356.6849,3102.7646958942933
1358.5493,3261.0243568870583
1360.4131,3370.369618222994
1362.276,3451.849760944586
1364.1383,3357.614032390623
1365.9998,3155.561645381402
1367.8606,2842.7417791610796
1369.7206,2494.1535814181952
1371.5799,2273.1461714138786
1373.4384,2052.2186434677224
1375.2962,1869.4200691678643
1377.1533,1615.7494995802545
1379.0096,1317.35596707665
1380.8652,1020.6884878713099
1382.7201,746.8460650049401
1384.5742,532.8776913113661
1386.4275,361.4823521559556
1388.2802,235.00902757530366
1390.132,163.35669399118433
1391.9832,108.12432547528806
1393.8336,50.860894465738056
1395.6832,40.965372319423295
1397.5322,8.88672988462531
1399.3803,-3.176062400027149
1401.2278,-20.42403418476897
1403.0745,28.641816609028865
1404.9204,19.120696096089887
1406.7656,64.16181010472792
1408.6101,105.51436427205044
1410.4538,150.3775635935517
1412.2968,235.10061200957807
1414.139,311.0827119567057
1415.9805,428.5730635205091
1417.8213,525.1708636757385
1419.6613,668.825305111417
1421.5006,848.2355752648618
1423.3391,1113.3008548851421
1425.1769,1428.9703162389724
1427.0139,1944.7431204600643
1428.8502,2531.218414392425
1430.6858,3129.045325432631
1432.5206,3579.172955665079
1434.3547,3851.9003758837116
1436.188,3888.1266210907415
1438.0206,3847.200687769391
1439.8524,3697.6715335216086
1441.6835,3616.4880774773474
1443.5139,3477.199201789842
1445.3435,3413.403752447456
1447.1724,3417.550540666558
1449.0005,3379.388343529483
1450.8279,3304.2659039430637
1452.6545,3280.9319310202545
1454.4804,3343.135100831354
1456.3056,3363.5740566373443
1458.13,3317.997408267858
1459.9536,3117.1037319167917
1461.7766,2810.0415705980713
1463.5987,2448.5094361545825
1465.4202,2092.1058123288003
1467.2409,1753.5791583781092
1469.0608,1469.9279126388392
1470.88,1220.3004959115306
1472.6984,1005.8453142974467
1474.5161,805.0107616948544
1476.3331,674.895221943566
1478.1493,595.947070833291
1479.9648,511.1646774047913
1481.7795,415.8464047393554
1483.5935,366.84061080663287
1485.4067,326.94564941780664
1487.2192,287.25987071566396
1489.031,253.48162157353272
1490.842,242.5092459921416
1492.6522,217.29108543740858
1494.4618,189.92547895016014
1496.2705,176.91076339831307
1498.0785,154.99527375052912
1499.8858,167.87734320636537
1501.6924,151.30530341543
1503.4981,129.57748434855785
1505.3032,123.69221446353367
1507.1075,110.44782092237165
1508.911,84.44262965016605
1510.7138,90.07496546753828
1512.5159,63.943152350682794
1514.3172,53.69551337505072
1516.1178,9.03037097665947
1517.9176,33.39604705457532
1519.7166,-3.2591365824355307
1521.515,-3.186858459569521
1523.3126,-7.338764543250363
1525.1094,-11.116468963187799
1526.9055,-38.97151253483571
1528.7008,-41.50532502012538
1530.4954,-55.51894685558091
1532.2893,-5.413003839531484
1534.0824,-50.53756713603161
1535.8747,-22.842653833229633
1537.6663,-21.22777614897859
1539.4572,-8.742218103026062
1541.2473,17.964948350360828
1543.0367,8.694738591670102
1544.8253,27.498167821740026
1546.6132,83.72625115446044
1548.4003,74.68000342874166
1550.1867,119.61043864623389
1551.9723,189.41857006178634
1553.7572,269.055409734151
1555.5414,343.67196782789233
1557.3247,423.0192518170261
1559.1074,545.2482657388491
1560.8893,677.9600094004691
1562.6705,818.505477156511
1564.4509,935.0856565820059
1566.2305,998.9515270669281
1568.0094,1060.3040586503994
1569.7876,1115.8442113820292
1571.565,1155.9729347083867
1573.3417,1148.8411669176012
1575.1176,1164.4998347380779
1576.8928,1151.6498534098118
1578.6672,1113.2921265278
1580.4409,1051.2275461705449
1582.2138,1013.8569932836253
1583.986,964.4313383003528
1585.7575,959.3514415154696
1587.5282,942.1181535794058
1589.2981,978.8823155490791
1591.0673,1001.4447590602285
1592.8358,1048.906305959773
1594.6035,1104.3177680801846
1596.3704,1162.4799467648745
1598.1366,1232.6436323140797
1599.9021,1320.2596034032385
1601.6668,1391.328626381358
1603.4308,1490.3014543948511
1605.194,1637.7288266768437
1606.9564,1826.2614675574496
1608.7182,2004.3000849894952
1610.4791,2238.9453686631978
1612.2394,2459.697988225769
1613.9988,2705.758590934976
1615.7576,2975.2277994516026
1617.5156,3191.306209378851
1619.2728,3370.7943865676457
1621.0293,3455.0928649558505
1622.785,3448.55214477339
1624.54,3341.5726916992594
1626.2942,3137.4549369269366
1628.0477,2884.849278234174
1629.8005,2631.5060820241756
1631.5525,2411.7756858516545
1633.3037,2229.0084009562634
1635.0542,2082.4545144599015
1636.804,1996.8642911943862
1638.553,1910.6379751669938
1640.3013,1902.8257904163547
1642.0488,1918.2779418747255
1643.7955,1953.8446154461067
1645.5416,2024.0259778517193
1647.2868,2131.5221762743413
1649.0313,2264.7333376564948
1650.7751,2419.609567625481
1652.5181,2601.7509491612723
1654.2604,2800.35754104775
1656.0019,3103.129376051284
1657.7427,3395.4664589346708
1659.4828,3696.3187634294145
1661.222,3898.8362293123546
1662.9606,3904.768759397143
1664.6984,3696.4662175090757
1666.4354,3303.878428425759
1668.1717,2793.6051799601432
1669.9072,2258.6462268863943
1671.642,1819.8012960426286
1673.3761,1450.4200916805034
1675.1094,1158.5022998536647
1676.8419,949.2475921115574
1678.5737,788.1056284186079
1680.3048,659.9260592467672
1682.0351,568.7085271869346
1683.7646,481.1526682307481
1685.4934,420.85811268276257
1687.2215,382.3244860360069
1688.9488,343.1014095749297
1690.6754,306.78850076073786
1692.4012,262.7353736236241
1694.1263,250.59163912589884
1695.8506,238.45690560251933
1697.5742,208.380778882527
1699.297,205.86286241039534
1701.0191,185.70275754679142
1702.7404,159.9500635937552
1704.461,139.00437799629935
1706.1808,106.11529659993676
1707.8999,108.38241386013715
1709.6182,104.05532317122015
1711.3358,106.03361684368474
1713.0527,91.11688614747754
1714.7688,72.35472129221034
1716.4841,72.34671157632874
1718.1987,76.84244557473176
1719.9126,66.29151113885246
1721.6257,48.64349535170095
1723.338,70.19798463337293
1725.0496,56.30456491752966
1726.7605,66.11282143585595
1728.4706,48.22233885699188
1730.18,35.23270118844994
1731.8886,37.94349195552195
1733.5964,27.55429433117297
1735.3036,39.8646911089354
1737.0099,40.27426480680015
1738.7156,43.48259754411356
1740.4204,7.989271037478375
1742.1246,19.343866568673093
1743.8279,12.995965339584927
1745.5306,-12.904851641335426
1747.2325,-4.409003495593879
1748.9336,-6.1167804252313545
1750.634,-0.5784285863437617
1752.3336,6.205866971608884
1754.0325,-9.614073022334196
1755.7307,-5.28842790119279
1757.4281,0.9327190466046886
1759.1247,6.249337364021358
1760.8206,0.8113965846969222
1762.5158,11.01886617978198
1764.2102,-13.678284387686745
1765.9039,-18.23008576485927
1767.5968,0.8635680471743399
1769.289,7.252965165875594
1770.9804,-0.8116062999279166
1772.6711,3.170141686063289
1774.361,20.84850526809396
1776.0502,13.87378055870795
1777.7386,20.94626346196719
1779.4263,20.96624974319684
1781.1132,23.63403495826151
1782.7994,16.499914453363544
1784.4849,31.314183338366547
1786.1696,26.127136558138318
1787.8535,21.889068744406813
1789.5367,30.55027426762763
1791.2192,33.16104727937045
1792.9009,21.321681625701785
1794.5818,25.932470821079278
1796.2621,40.193708166750184
1797.9415,48.25568670463326
1799.6202,41.86869907471555
1801.2982,44.93303743442493
1802.9755,39.99899352250577
1804.6519,60.416858628373575
1806.3277,45.58692364145509
1808.0027,37.55947884700936
1809.6769,58.48481407442978
1811.3504,50.913218777514885
1813.0231,53.644981825216746
1814.6951,46.830391577355385
1816.3664,65.61973585730311
1818.0369,63.66330202012887
1819.7067,67.61137676470662
1821.3757,76.56424615327933
1823.044,83.87219557197614
1824.7115,89.58550964128654
1826.3783,76.00447214297947
1828.0443,80.02936596297104
1829.7096,93.4604732271323
1831.3741,95.59807526104214
1833.0379,80.99245245567772
1834.701,94.19388424603585
1836.3633,84.50264925718966
1838.0248,81.569025172274
1839.6856,96.3432888293969
1841.3457,101.5757162509808
1843.005,114.81658249601423
1844.6636,129.616161607732
1846.3214,112.37472648120365
1847.9785,119.09254871533858
1849.6349,123.01989878530094
1851.2904,125.10704597532867
1852.9453,125.35425833946329
1854.5994,136.51180268067674
1856.2528,128.87994454839873
1857.9054,132.80894812694214
1859.5572,123.8490763118225
1861.2083,132.90059067047014
1862.8587,141.0137515318247
1864.5084,136.93881789582156
1866.1572,138.9260473522595
1867.8054,129.42569612155148
1869.4528,141.83801903484982
1871.0994,128.81326962905177
1872.7453,149.70170002267605
1874.3905,150.25356104611
1876.0349,143.26910203272337
1877.6786,146.34857081335122
1879.3215,148.09221378614075
1880.9637,123.55027588575422
1882.6051,153.2230005659335
1884.2458,146.91063004491707
1885.8858,146.91340500871593
1887.525,155.98156467423314
1889.1634,137.51534678924054
1890.8011,138.66498754169425
1892.4381,151.4807217443995
1894.0743,151.11278282351077
1895.7098,157.9114026903776
1897.3446,159.67681174521977
1898.9786,155.10923880914606
1900.6118,171.9089111065009
1902.2443,150.17605431053425
1903.8761,174.510892375411
1905.5071,147.0636477535354
1907.1374,149.78454115220438
1908.7669,157.2737918080793
1910.3957,162.88161745997695
1912.0237,141.90823427397754
1913.651,153.8538567873452
1915.2776,154.568698118263
1916.9034,154.5029698463759
1918.5285,143.80688200564282
1920.1528,140.48064308499443
1921.7764,157.82446013529443
1923.3992,139.83853880260085
1925.0213,137.27308315472692
1926.6427,134.92829586110065
1928.2633,118.20437821842143
1929.8832,147.25153017410548
1931.5023,135.9699504935279
1933.1207,148.95983646954892
1934.7383,143.82138403532963
1936.3552,136.0547876344349
1937.9714,127.76024027221683
1939.5868,131.63793359347983
1941.2015,119.18805796542847
1942.8154,117.66080243888882
1944.4286,119.70635487280697
1946.041,121.82490194952106
1947.6528,126.56662915430843
1949.2637,119.53172075419798
1950.8739,126.62035975055323
1952.4834,123.88272794942031
1954.0921,115.36900589064362
1955.7001,125.17937287524046
1957.3074,131.66400705054048
1958.9139,116.67308531207982
1960.5197,116.1567832387559
1962.1247,110.56527524273406
1963.729,102.64873457461613
1965.3325,101.9073333793483
1966.9353,106.29124277539313
1968.5374,104.35063286213722
1970.1387,102.08567267605713
1971.7393,93.84653021012059
1973.3392,89.8333724364411
1974.9383,96.54636538866703
1976.5366,100.13567420211461
1978.1342,107.80146304663594
1979.7311,89.54389509072962
1981.3273,101.11313242487904
1982.9227,91.45933624412919
1984.5173,93.48266673239641
1986.1112,88.18328315900385
1987.7044,84.36134385844912
1989.2968,75.51700628339813
1990.8885,82.25042704290445
1992.4795,96.56176199085212
1994.0697,100.25116615862112
1995.6592,96.36879361197384
1997.2479,92.11479741416292
1998.8359,76.989329664754
2000.4232,84.64254154216428
2002.0097,80.92458345491946
2003.5955,61.835604965121775
2005.1805,87.22575482562775
2006.7648,99.49518117093953
2008.3484,76.9440312633028
2009.9312,91.5724513700136
2011.5133,85.68058698892855
2013.0946,104.16858270217972
2014.6752,88.88658223509469
2016.2551,89.78472827131554
2017.8342,88.0131626056193
2019.4126,79.17202613493691
2020.9902,82.5614588760684
2022.5672,80.53160005409404
2024.1433,86.88258806847853
2025.7188,83.16456051337332
2027.2935,91.57765411410332
2028.8674,71.77200476434882
2030.4406,81.04774744201359
2032.0131,82.55501640728335
2033.5849,84.19394510986604
2035.1559,85.61466617391989
2036.7261,84.76731138166542
2038.2957,81.7020116591757
2039.8645,83.41889708485246
2041.4325,83.9180969200786
2042.9998,84.89973959204872
2044.5664,89.66395268877636
2046.1323,84.7608629492795
2047.6974,77.84059621593747
2049.2617,83.00327748352288
2050.8254,75.14903096840362
2052.3883,103.97798005691538
2053.9504,92.04024738390467
2055.5118,87.13595454443885
2057.0725,94.11522221318296
2058.6325,89.02817019344366
2060.1917,89.67491734737587
2061.7502,87.20558164685326
2063.3079,76.27028016700092
2064.8649,93.11912911088962
2066.4212,91.55224391888714
2067.9767,80.91973910017123
2069.5315,76.8217282483979
2071.0856,84.75832414802676
2072.6389,78.02963881530104
2074.1915,69.03578341888146
2075.7433,74.22686834713318
2077.2945,75.0030032980651
2078.8448,68.41429722741827
2080.3945,62.91085834090359
2081.9434,62.59279416009099
2083.4916,70.41021157744149
2085.039,77.36321685949065
2086.5857,60.30191556867135
2088.1317,67.82641249378503
2089.677,71.83681182061378
2091.2215,73.73321705667672
2092.7652,71.56573099112529
2094.3083,61.034455675779554
2095.8506,54.48949244680307
2097.3921,76.08094203001588
2098.933,60.75890460634446
2100.4731,67.32347959590652
2102.0124,75.1247658112311
2103.5511,69.3128613916133
2105.089,82.88786372510049
2106.6261,71.29986950661123
2108.1626,77.19897460218704
2109.6983,75.68527416487109
2111.2332,80.75886257571733
2112.7675,72.26983345892768
2114.301,74.71827963111491
2115.8337,71.15429318619408
2117.3657,78.9279654708987
2118.897,77.13938712041931
2120.4276,64.48864798066734
2121.9575,72.42583712616215
2123.4866,72.051042986536
2125.0149,74.91435326716419
2126.5426,74.11585495291229
2128.0695,71.95563427950333
2129.5956,65.18377674150133
2131.1211,64.95036711391617
2132.6458,75.90548951991991
2134.1698,72.0992274331827
2135.693,66.18166356831989
2137.2155,80.25287991895561
2138.7373,76.2629578168976
2140.2584,84.21197779142653
2141.7787,80.9500196091933
2143.2983,73.57716219472991
2144.8171,59.69348366306917
2146.3353,77.3490613934714
2147.8527,64.39397216826364
2149.3693,84.62829199628163
2150.8853,80.30209624242207
2152.4005,64.61545942529938
2153.9149,66.01845526050693
2155.4287,69.91115681748443
2156.9417,74.64363650548671
2158.454,79.1159660346591
2159.9655,70.67821636871054
2161.4764,67.73045768019233
2162.9865,60.422759434874024
2164.4958,79.8051904212216
2166.0045,57.27781882347426
2167.5124,74.84071202782047
2169.0195,62.04393684767069
2170.526,82.98755934802784
2172.0317,82.32164497345752
2173.5367,73.54625833864998
2175.0409,69.96146323507946
2176.5445,72.16732271875935
2178.0473,72.01389914608785
2179.5494,74.55125415179077
2181.0507,71.1294486504562
2182.5513,66.7485428111595
2184.0512,74.25859609168265
2185.5504,71.3596672823221
2187.0488,64.90181443078882
2188.5465,61.235094871198044
2190.0435,68.05956528864772
2191.5397,78.22528175588468
2193.0353,70.68229966506169
2194.5301,70.48067362607935
2196.0241,74.02045754201686
2197.5175,65.70170461114708
2199.0101,64.27446729153871
2200.502,61.58879738424298
2201.9931,55.79474604756706
2203.4835,52.342363823931464
2204.9733,58.18170069781104
2206.4622,68.9628061302567
2207.9505,50.83572900050331
2209.438,52.35051749815784
2210.9248,50.907219304470345
2212.4109,61.45588157718612
2213.8962,48.64655096497836
2215.3809,48.37927350196355
2216.8648,54.95409473579184
2218.3479,44.721059730322395
2219.8304,52.780212999873584
2221.3121,49.78159861155359
2222.7931,54.72526010466913
2224.2733,44.21124052071127
2225.7529,35.83958235391765
2227.2317,53.160327656414665
2228.7098,50.57351812193292
2230.1872,44.77919491260059
2231.6638,58.22739868481153
2233.1397,45.11816964716809
2234.6149,45.151547426000434
2236.0894,39.027571196457075
2237.5632,55.79627968217187
2239.0362,43.8577112165035
2240.5085,44.36190357484793
2241.9801,43.55889409402471
2243.4509,38.99871966723504
2244.921,33.58141675209208
2246.3904,36.3070214162226
2247.8591,30.375569391439512
2249.3271,37.23709604648684
2250.7943,34.49163644635337
2252.2608,34.489225283657106
2253.7266,32.12989690610107
2255.1917,38.46368531649546
2256.656,31.94062419635202
2258.1197,29.860746842545495
2259.5826,34.17408623254505
2261.0447,27.030675045213684
2262.5062,28.58054561767358
2263.9669,29.473730016740546
2265.4269,34.01026002342587
2266.8862,32.14016712400394
2268.3448,26.313482464647223
2269.8026,36.330236870126555
2271.2598,30.140460902078985
2272.7162,30.694184758839583
2274.1719,43.14143833733942
2275.6268,35.032251227568395
2277.0811,46.466652588102306
2278.5346,37.84467122719457
2279.9874,35.01633548843324
2281.4395,44.9316733369601
2282.8908,32.390712387753865
2284.3414,43.04347980647867
2285.7914,40.59000243489095
2287.2406,33.680306684313564
2288.689,40.51441856016936
2290.1368,38.342363731079104
2291.5838,31.01416746052064
2293.0302,48.12985462854863
2294.4758,39.7894498050764
2295.9206,35.64297707871947
2297.3648,43.940460140199775
2298.8082,46.78192232380934
2300.251,42.8673865244366
2301.693,40.946875169150644
2303.1343,36.17041025634808
2304.5748,49.188013374956654
2306.0147,47.199705752201226
2307.4538,42.20550812342799
2308.8922,42.255440751985816
2310.3299,42.29952347916992
2311.7669,38.837775723720824
2313.2031,42.32021648138448
2314.6387,31.446864359529854
2316.0735,43.117737542323994
2317.5076,35.33285389946559
2318.941,37.84223086947577
2320.3737,46.39588553754788
2321.8056,34.84383461045354
2323.2369,44.98609433100614
2324.6674,40.02268059358016
2326.0972,43.40360884269103
2327.5263,30.328894122626252
2328.9547,37.04855104363787
2330.3823,39.71259391268825
2331.8092,35.721036666255145
2333.2355,36.82389284369026
2334.661,46.8711756271357
2336.0858,46.312897830494535
2337.5098,33.34907179895754
2338.9332,43.979709414587774
2340.3558,49.50482222595747
2341.7778,36.57442134184237
2343.199,41.088517375970696
2344.6195,39.69712057632705
2346.0393,40.60024078001038
2347.4583,50.24788742715009
2348.8767,39.440069551872625
2350.2943,52.626795685827005
2351.7113,45.80807396626244
2353.1275,51.38391200416015
2354.543,47.154316952421254
2355.9578,51.61929545010821
2357.3718,52.82885366474113
2358.7852,53.83299724764731
2360.1978,46.73173132186662
2361.6098,49.67506047210861
2363.021,49.01298881576599
2364.4315,48.19551997348128
2365.8413,50.222657075767984
2367.2504,59.19440277118463
2368.6587,49.1107592060647
2370.0664,49.471727934798196
2371.4733,48.82731002066794
2372.8795,53.07750603223997
2374.285,47.572316049807455
2375.6899,42.16173962288883
2377.0939,47.44577582527961
2378.4973,41.124423309157464
2379.9,51.39768025224339
2381.3019,50.215544421014215
2382.7032,50.928013067971165
2384.1037,42.88508294345968
2385.5035,43.78675028854616
2386.9027,48.58301091544615
2388.3011,42.52386019850837
2389.6987,51.00929302625116
2391.0957,49.239303861954795
2392.492,40.313886658805586
2393.8876,39.13303487759765
2395.2824,40.446741575986835
2396.6765,44.954999420298236
2398.07,36.057800672390954
2399.4627,42.90513714457427
2400.8547,36.89700028858067
2402.246,38.533381127090934
2403.6366,42.86427031381777
2405.0265,40.28965811713988
2406.4156,37.55953437679409
2407.8041,42.073888529620945
2409.1918,39.732709636866275
2410.5789,32.58598633903853
2411.9652,50.283706879319766
2413.3508,40.275859175032224
2414.7358,43.26243064066068
2416.12,44.343408287931766
2417.5035,39.0187786959483
2418.8863,26.638528000379097
2420.2684,50.5026419467066
2421.6497,37.2611060140282
2423.0304,35.61390517641462
2424.4104,36.561024035326454
2425.7896,41.15244683608557
2427.1682,31.03815745840393
2428.546,37.61813937046941
2429.9232,38.64237573008893
2431.2996,40.86084931888831
2432.6753,39.67354253206952
2434.0503,36.43043735622712
2435.4246,33.08151538122024
2436.7982,41.526757832604176
2438.1711,50.91614560511891
2439.5433,37.69965917823765
2440.9148,36.127278522272604
2442.2856,28.69898323054008
2443.6557,43.31475253508347
2445.025,42.324565380956756
2446.3937,44.3284002800666
2447.7617,39.67623532107416
2449.1289,53.46804814935729
2450.4955,47.75381601353172
2451.8613,39.48351562753385
2453.2265,37.25712322776167
2454.5909,51.624614655779396
2455.9546,43.58596538057964
2457.3177,46.09115035490947
2458.68,42.94014409565716
2460.0416,46.83292065879948
2461.4025,48.569453670912026
2462.7627,60.54971629024226
2464.1222,55.723681189342756
2465.4811,50.24132043526981
2466.8392,53.45260553784351
2468.1966,53.357507504470846
2469.5533,55.85599680803307
2470.9093,62.848043387836356
2472.2645,56.68361662462701
2473.6191,57.062685270671295
2474.973,54.13521751140013
2476.3262,58.701180961617524
2477.6787,56.81054269477647
2479.0305,61.4632691973178
2480.3816,59.15932638757806
2481.7319,64.49867956926107
2483.0816,47.53129345447792
2484.4306,53.25713211035327
2485.7789,58.426159128698714
2487.1264,54.888337568755105
2488.4733,66.79362990550158
2489.8195,57.54199806503425
2491.165,54.83340330551323
2492.5097,56.21780630967908
2493.8538,56.8451672119387
2495.1972,53.215445584521376
2496.5398,45.92860043120538
2497.8818,64.53459022361471
2499.2231,53.43337297408789
2500.5637,52.674906049618244
2501.9035,50.90914628286555
2503.2427,61.73604997974019
2504.5812,58.05557293706147
2505.919,57.96767033428864
2507.256,54.87229677032542
2508.5924,56.269406264399095
2509.9281,58.00895228701472
2511.2631,61.09088774598331
2512.5974,66.81516496902668
2513.9309,62.88173567295769
2515.2638,55.790550906438625
2516.596,65.891561089314
2517.9275,56.03471608352322
2519.2583,58.819965092090456
2520.5884,58.64725675769262
2521.9178,58.516539134808
2523.2465,63.077759691442
2524.5745,61.980865310435206
2525.9018,66.62580224385079
2527.2284,63.41251612394353
2528.5543,67.24095191671097
2529.8796,68.4110539540253
2531.2041,67.17276589534936
2532.5279,65.02603071603619
2533.851,75.12079071971152
2535.1735,67.75698755974122
2536.4952,69.33456213828356
2537.8163,66.4534546799274
2539.1366,65.86360471591627
2540.4562,76.11495111295926
2541.7752,72.80743207913008
2543.0935,72.14098506135292
2544.411,68.81554677847737
2545.7279,74.93105322794429
2547.0441,81.83743971903891
2548.3596,85.08464081173622
2549.6744,72.02259024763737
2550.9885,83.90122091749731
2552.3019,75.5704649918456
2553.6146,74.03025380219935
2554.9266,78.93051792437097
2556.2379,76.07118719387108
2557.5485,77.90219065690519
2558.8585,78.42345659896671
2560.1677,77.28491252652736
2561.4762,86.43648516182486
2562.7841,73.37810045424794
2564.0913,82.30968348882084
2565.3977,84.53115861678702
2566.7035,77.94244936629343
2568.0086,81.19347842017567
2569.313,85.33416768184509
2570.6167,85.81443824277858
2571.9197,86.18421034111157
2573.222,77.69340335683512
2574.5236,78.39193580809831
2575.8246,79.67972543611711
2577.1248,85.806689198188
2578.4244,88.42274325481071
2579.7232,90.07780290841788
2581.0214,89.47178257721487
2582.3189,91.45459577862982
2583.6157,101.3761551353731
2584.9118,91.5363723556095
2586.2072,95.8851581337426
2587.5019,101.27242224881252
2588.7959,104.1480735210082
2590.0893,108.96201975779434
2591.3819,110.11416772515577
2592.6739,105.25442309945686
2593.9652,111.58269045592056
2595.2557,111.79887331722648
2596.5456,118.5528740902273
2597.8348,116.79459406378703
2599.1234,119.67393334124131
2600.4112,115.94079085797989
2601.6983,116.4450643526535
2602.9848,119.48665040450578
2604.2705,120.71544442832942
2605.5556,129.43134064405137
2606.84,123.3842320644444
2608.1237,126.27401040796792
2609.4067,121.70056615923932
2610.689,117.76378854013615
2611.9707,123.76356555553048
2613.2516,117.14978403265695
2614.5319,106.52232956111493
2615.8115,113.53108655900621
2617.0903,123.12593837920917
2618.3685,116.05676723929201
2619.6461,113.17345412556347
2620.9229,116.77587886376506
2622.199,112.96392014790348
2623.4745,119.43745550422727
2624.7493,118.94636132934568
2626.0234,123.89051282549372
2627.2968,119.56978400544301
2628.5695,119.63404764306017
2629.8415,121.5331753165143
2631.1128,124.01703740763418
2632.3835,119.88550308291696
2633.6535,120.68844026868948
2634.9228,122.22571569242348
2636.1914,119.54719487470703
2637.4593,125.45274211387078
2638.7265,115.64222051277397
2639.9931,129.46549191974867
2641.259,122.47241702670465
2642.5242,123.01285523089774
2643.7887,122.58666470485906
2645.0525,123.64370239099213
2646.3156,122.78382400583354
2647.5781,115.15688402948348
2648.8398,111.96273571420392
2650.1009,111.5512311606883
2651.3613,119.72222135000305
2652.6211,113.87555614770247
2653.8801,121.16108422211875
2655.1385,112.87865310282888
2656.3961,120.87810910779905
2657.6531,114.9592974262095
2658.9094,119.82206203845931
2660.1651,124.96624577535476
2661.42,120.59169026948183
2662.6743,128.49823590376417
2663.9279,129.18572185520895
2665.1808,127.55398601584108
2666.433,130.10286498582872
2667.6846,132.3821940898004
2668.9354,131.09180735135635
2670.1856,136.33153747027512
2671.4351,144.20121583541714
2672.6839,136.25067247232795
2673.9321,140.3297359645407
2675.1795,139.68823353308215
2676.4263,145.77599099568192
2677.6724,156.54283277318746
2678.9179,154.83858182868642
2680.1626,154.36305955983863
2681.4067,158.2160858159179
2682.6501,153.99747890256782
2683.8928,151.35705554327114
2685.1348,150.04463092153617
2686.3761,146.26001870730062
2687.6168,142.1530310700564
2688.8568,143.62347871669567
2690.0961,135.57117093257972
2691.3348,138.94591556683565
2692.5727,126.29751911287877
2693.81,130.37578667466568
2695.0466,128.28052209317804
2696.2826,126.46152790563991
2697.5178,128.21860536647057
2698.7524,124.551554465474
2699.9863,124.26017391026863
2701.2195,131.3942611629576
2702.452,134.25361244304247
2703.6839,139.28802265608266
2704.9151,141.19728536510166
2706.1456,143.03119274024266
2707.3755,148.18953553967663
2708.6046,157.1221030912629
2709.8331,162.4786832409659
2711.0609,176.20906226352906
2712.2881,176.41302480890948
2713.5145,187.14035376497344
2714.7403,197.04083025545748
2715.9654,207.5142335326945
2717.1899,218.41034087860947
2718.4136,227.77892749998534
2719.6367,245.01976641950137
2720.8591,246.83262838204843
2722.0809,260.3172816823195
2723.3019,272.9734921466817
2724.5223,278.7510229983298
2725.7421,291.6496347307237
2726.9611,289.6190850498131
2728.1795,285.65912874505176
2729.3972,278.41951770970286
2730.6142,265.8500009804383
2731.8306,247.2503248097354
2733.0462,231.02023279157146
2734.2612,220.3594660474206
2735.4756,204.81776338855508
2736.6892,183.59486142265274
2737.9022,173.79049470921342
2739.1145,158.05439597178935
2740.3262,145.28629619602754
2741.5372,127.6859247870313
2742.7475,115.00300969704125
2743.9571,112.33727760143893
2745.1661,101.18845402557577
2746.3744,87.15626337143078
2747.582,79.89042902909841
2748.7889,63.89067351711094
2749.9952,57.85671855509611
2751.2008,60.388285223775256
2752.4057,56.68509402530299
2753.61,48.49686485795115
2754.8136,43.37331705314091
2756.0165,37.964169457325056
2757.2188,42.61914048322325
2758.4204,37.687948163913575
2759.6213,33.120310106283114
2760.8215,29.315943540339163
2762.0211,30.324565364886382
2763.22,26.845892185569994
2764.4182,25.829640304789734
2765.6158,26.07552575648657
2766.8127,20.533264316305235
2768.009,18.202571499135786
2769.2045,13.333162614535752
2770.3994,2.4247527900370187
2771.5936,-0.22294298015964387
2772.7872,-4.560209726100879
2773.9801,-9.337330250633215
2775.1723,-12.50454180010837
2776.3639,-9.811988340948744
2777.5548,-17.809688919204405
2778.745,-17.297564559162254
2779.9346,-19.37535836631713
2781.1235,-12.042640643494224
2782.3117,-17.64878813368881
2783.4992,-10.493057273916065
2784.6861,-10.074528189798116
2785.8723,-10.792176181315142
2787.0579,-7.094875903911088
2788.2428,-1.6813941991898673
2789.427,1.749572969054384
2790.6106,3.0493464341554954
2791.7935,9.569247011951461
2792.9757,28.860595487787236
2794.1573,30.52471255131536
2795.3382,33.8129186035834
2796.5184,46.67653374039173
2797.698,55.61687771941172
2798.8769,71.7852698315503
2800.0551,75.78302881154514
2801.2327,94.56147267628239
2802.4096,109.27191868481793
2803.5859,123.06568315059224
2804.7615,143.79408129432704
2805.9364,163.40842710608763
2807.1106,186.71003313799872
2808.2842,210.00021030810115
2809.4572,238.63026766733583
2810.6294,260.9515121666417
2811.801,309.3652483706552
2812.972,342.8727782344978
2814.1423,371.2754006196385
2815.3119,425.1244109588191
2816.4808,462.7711009720276
2817.6491,514.5167581280075
2818.8167,558.0126652677917
2819.9837,626.5601000872459
2821.15,660.160334702109
2822.3157,712.6646349625196
2823.4807,770.1742601170135
2824.645,814.6404622874803
2825.8086,856.5144858940675
2826.9716,895.847567210518
2828.134,945.340933945431
2829.2957,988.8458048489299
2830.4567,1011.7133892177287
2831.617,1050.6948864600845
2832.7767,1046.39148586712
2833.9358,1042.8543662230104
2835.0941,1039.7846958480154
2836.2519,1031.0336326338513
2837.4089,997.602324074388
2838.5653,983.441907353159
2839.7211,971.0035096776745
2840.8761,977.9882484210262
2842.0306,984.2472312462712
2843.1843,1026.9315560365835
2844.3374,1059.9423108326662
2845.4899,1098.2805734059061
2846.6417,1173.1974109282687
2847.7928,1231.6938795889128
2848.9433,1305.871023845024
2850.0931,1367.62987583685
2851.2422,1441.5714546459283
2852.3907,1498.146765677498
2853.5385,1569.506799921084
2854.6857,1606.602533384744
2855.8323,1666.6349263814686
2856.9781,1722.4549231582223
2858.1233,1772.1134512956219
2859.2679,1806.111421149735
2860.4118,1863.1497253554942
2861.555,1915.5792384867189
2862.6976,1953.550816485732
2863.8395,1977.3152961390622
2864.9808,2006.923494697733
2866.1214,2019.7762096396134
2867.2614,2033.9242183733395
2868.4007,2050.6682781097834
2869.5393,2066.4091257205773
2870.6773,2071.7974775706707
2871.8146,2082.9340293609216
2872.9513,2082.569456074214
2874.0874,2086.854411864093
2875.2227,2079.6895300584074
2876.3574,2061.5754231164638
2877.4915,2034.8126827006731
2878.6249,2006.7018798576933
2879.7577,1994.743565286054
2880.8898,1964.338269617269
2882.0212,1938.4865035354132
2883.152,1916.538758081183
2884.2821,1919.5955049104068
2885.4116,1892.7071965135274
2886.5405,1894.3742661850313
2887.6686,1910.297128292335
2888.7962,1912.7261782591117
2889.923,1914.7117924060644
2891.0493,1939.4043279266332
2892.1748,1944.654122867141
2893.2997,1944.1614958798675
2894.424,1969.7267461705515
2895.5476,1979.5501535033168
2896.6706,2015.23197794502
2897.7929,2031.222459767017
2898.9145,2054.0218190883443
2900.0355,2084.430255715812
2901.1559,2105.5479489160157
2902.2756,2137.075057111246
2903.3946,2171.711717668316
2904.513,2200.6580465832876
2905.6308,2231.1141381351063
2906.7479,2259.2300645961377
2907.8643,2295.555875927606
2908.9801,2305.5915994984352
2910.0953,2316.03723972199
2911.2098,2310.8927779557207
2912.3236,2316.308172396704
2913.4368,2298.2833581330897
2914.5494,2297.618247089946
2915.6613,2246.4127282095096
2916.7725,2220.5166674578327
2917.8831,2199.129908336842
2918.9931,2167.5022721432974
2920.1024,2130.5835581826614
2921.211,2114.623544085373
2922.319,2096.9219861760366
2923.4264,2085.528619633021
2924.5331,2069.893158665477
2925.6391,2063.515296627268
2926.7445,2077.5447061733275
2927.8493,2059.8310393234356
2928.9534,2073.0239273219245
2930.0569,2063.372980814818
2931.1597,2062.1777897179004
2932.2619,2061.037923313225
2933.3634,2072.3529302610677
2934.4643,2067.072338611326
2935.5645,2049.2956556903696
2936.6641,2016.2223681538435
2937.763,1980.8519421644373
2938.8613,1963.683823722618
2939.959,1899.5174390203324
2941.056,1836.1021946126893
2942.1523,1759.8874780596257
2943.248,1674.1226585600539
2944.3431,1589.1070877140141
2945.4375,1497.3401003803199
2946.5313,1396.671015526713
2947.6244,1297.299137147536
2948.7169,1181.5737552704206
2949.8087,1099.0441469500079
2950.8999,1005.4095774252013
2951.9904,931.5193009444633
2953.0803,857.8725617021615
2954.1696,792.0185945774704
2955.2582,735.8066258708391
2956.3462,695.4358739625319
2957.4335,659.3055498747464
2958.5202,620.6648576753222
2959.6062,604.9129948390436
2960.6916,581.0491526340468
2961.7764,563.9725162793382
2962.8605,554.9822651834334
2963.9439,541.1275731151226
2965.0267,518.707608293374
2966.1089,531.3215335258803
2967.1905,529.7185064332584
2968.2714,527.6476793229102
2969.3516,522.5581992050527
2970.4312,529.3492078134262
2971.5102,527.4698416561898
2972.5885,540.46923194801
2973.6662,550.546504628856
2974.7432,550.250780234005
2975.8196,545.8811737932688
2976.8954,542.7367948339524
2977.9705,541.1167474245495
2979.045,528.9701302061865
2980.1188,520.3960364088217
2981.192,503.24355397271336
2982.2645,479.61176563415995
2983.3364,462.1497490970238
2984.4077,443.5565772690509
2985.4783,411.8813184364891
2986.5483,390.92303645002096
2987.6177,360.9807910415159
2988.6864,331.25363803361313
2989.7545,300.6406296391442
2990.8219,272.94081475840426
2991.8887,230.00323928528246
2992.9548,218.1769463842603
2994.0204,183.160976919787
2995.0852,166.3543695745426
2996.1495,138.75616119959744
2997.2131,120.21538698247844
2998.276,98.73108072315114
2999.3383,82.60227501942745
3000.4,64.17800148180851
3001.4611,49.75729089477295
3002.5215,29.589173401019536
3003.5812,20.27267864567449
3004.6404,17.00683597797257
3005.6989,12.440674544422052
3006.7567,5.273223321463149
3007.8139,1.5535111611295633
3008.8705,-7.819433137276576
3009.9264,-10.346580789988423
3010.9818,-14.178824897102118
3012.0364,-12.066955196371737
3013.0905,-5.211619779090881
3014.1439,-8.863346187671311
3015.1966,-9.072609900443126
3016.2487,-8.839797850908326
3017.3002,-1.4152063371960821
3018.3511,0.15095665214488463
3019.4013,-2.891502733522998
3020.4509,-5.392778346346631
3021.4998,2.796964847639572
3022.5481,2.727615756256455
3023.5958,7.399063259355444
3024.6428,9.061196209512218
3025.6892,10.81390338531196
3026.735,22.907073474728065
3027.7802,30.140595057594908
3028.8247,30.014356484676398
3029.8685,34.37824580533078
3030.9118,46.98215076877284
3031.9544,48.82595878043509
3032.9963,57.159556775928536
3034.0376,66.18283120260497
3035.0783,78.19566793622101
3036.1184,80.99795219070506
3037.1578,90.13956839802904
3038.1966,90.87040018018553
3039.2348,94.89033025777161
3040.2723,96.44924044268089
3041.3092,105.79701159790346
3042.3455,105.38352362193723
3043.3811,107.20865535530993
3044.4161,106.82228458471434
3045.4505,102.37428802475671
3046.4842,105.96454132182049
3047.5173,103.29291909854658
3048.5498,102.45929491793044
3049.5816,98.46354131003869
3050.6128,106.40552978034526
3051.6434,98.08513084968871
3052.6734,99.4522139748525
3053.7027,96.85664763176902
3054.7314,92.44829930184858
3055.7594,93.32703549793507
3056.7868,90.09272180838974
3057.8136,96.79522288830361
3058.8398,86.83440249184025
3059.8653,88.16012340521144
3060.8902,92.87224754628494
3061.9145,87.5206359513275
3062.9381,87.25514872788375
3063.9612,83.32564510829195
3064.9835,84.73198345233914
3066.0053,76.67402128655596
3067.0264,83.65161529015342
3068.0469,78.6646213756024
3069.0668,78.36289461885764
3070.086,65.29628930922763
3071.1046,66.5646589523923
3072.1226,63.51785640106857
3073.1399,57.45573384232708
3074.1567,58.87814282806008
3075.1727,49.53493433560243
3076.1882,44.82595875350805
3077.203,38.05106597498141
3078.2173,37.81010544496766
3079.2308,28.2029262279012
3080.2438,25.379377010115547
3081.2561,24.28930619591489
3082.2678,17.682561935809872
3083.2789,17.15899213741818
3084.2893,13.118444531531907
3085.2991,9.360766677353269
3086.3083,6.285806002900074
3087.3169,7.543409842582719
3088.3248,2.5334254679536627
3089.3321,-1.094299924868693
3090.3388,-2.7399191651000194
3091.3449,2.2964258500999506
3092.3503,0.6146205953639878
3093.3551,-5.085449477639429
3094.3593,-1.9039050573016425
3095.3629,-1.890816028373706
3096.3658,-4.546233255595297
3097.3681,1.1798112855460374
3098.3698,1.2373310364328347
3099.3708,2.726339426649673
3100.3713,-7.053150126592186
3101.3711,-7.501124233344598
3102.3702,1.032500957310134
3103.3688,-1.3521157674791482
3104.3667,2.8451740647516885
3105.364,-0.8754675658966562
3106.3607,1.3361212922247603
3107.3568,3.2301113366858374
3108.3522,1.706659917204746
3109.347,0.7659243511984926
3110.3412,5.458061939017682
3111.3348,5.283222329428526
3112.3277,7.241555116616752
3113.32,6.383209841935866
3114.3117,2.908335974323876
3115.3028,6.667082918886678
3116.2932,6.10960005164705
3117.2831,5.386036681956881
3118.2723,10.646542058072185
3119.2608,12.791265374388686
3120.2488,10.220355718836686
3121.2361,13.233962051433934
3122.2229,12.132233229994554
3123.209,12.16531797999319
3124.1944,17.233364905582192
3125.1793,15.036522489260719
3126.1635,18.824939041194284
3127.1471,18.798762721183223
3128.1301,18.65814150077854
3129.1125,18.4032231635438
3130.0942,26.484155306461176
3131.0753,22.20108534248064
3132.0558,23.954160419710604
3133.0357,26.7435274642487
3134.015,27.669333162651014
3134.9936,24.33172393403835
3135.9716,28.53084592083823
3136.949,35.71684502216098
3137.9258,27.63986685180855
3138.902,29.750056666414423
3139.8775,28.84755944621348
3140.8524,35.832519873940086
3141.8267,32.45508234385299
3142.8004,33.56539089188588
3143.7735,35.763589229421584
3144.7459,38.19982073218911
3145.7178,39.57422841828155
3146.689,36.38695492379384
3147.6596,38.63814248907872
3148.6295,44.527932990619334
3149.5989,42.05646791851752
3150.5676,40.32388831759578
3151.5357,42.880334812111975
3152.5032,44.32594762308509
3153.4701,46.56086654273085
3154.4364,42.38523092000544
3155.402,45.099179638256466
3156.367,48.85285115697922
3157.3315,52.04638348467722
3158.2952,48.87991414132548
3159.2584,48.503580126435246
3160.221,50.56751795071862
3161.1829,56.37186363985196
3162.1442,54.516752713836446
3163.105,54.55232012895466
3164.065,58.678700296321715
3165.0245,57.6460270815295
3165.9834,59.15443376338297
3166.9416,56.80405304422678
3167.8993,65.9450170348613
3168.8563,61.02745727804636
3169.8127,63.101504657091674
3170.7684,64.56728944503234
3171.7236,64.7249412838885
3172.6782,67.7745891700073
3173.6321,66.36636145248661
3174.5854,63.80038580267835
3175.5381,70.82678922827084
3176.4902,68.14569809894856
3177.4417,68.9072380761281
3178.3926,70.0615341397691
3179.3428,73.55871058075877
3180.2924,70.19889098936903
3181.2415,77.48219822028469
3182.1899,76.25875442620162
3183.1377,81.32868098499374
3184.0848,77.19209851194745
3185.0314,79.7991268090623
3185.9773,82.84988490641689
3186.9227,80.39449103609853
3187.8674,79.58306260169572
3188.8115,83.565716202852
3189.755,85.14256764338032
3190.6979,83.01373189143641
3191.6402,87.72932306375037
3192.5818,88.28945444691499
3193.5229,87.84423845022974
3194.4633,87.79378660009961
3195.4031,87.28820954448719
3196.3423,92.02761705341716
3197.2809,90.76211802403216
3198.2189,93.34182043319859
3199.1563,93.26683135016171
3200.0931,97.13725691074858
3201.0292,94.45320231811786
3201.9648,97.31477180405568
3202.8997,96.22206865581614
3203.834,97.92519518750561
3204.7677,101.67425275100975
3205.7008,101.31934171896225
3206.6333,101.41056144725428
3207.5652,102.79801027858358
3208.4964,103.1817855415422
3209.4271,108.76198353674214
3210.3571,108.18869953297745
3211.2865,108.06202771142239
3212.2154,105.88206117136414
3213.1436,113.69889193146966
3214.0712,112.31261095158524
3214.9982,112.52330805456825
3215.9246,112.33107194014991
3216.8503,112.53599018282836
3217.7755,116.48814923379096
3218.7001,116.08763441886525
3219.624,117.83452989899718
3220.5473,118.3789186742563
3221.4701,117.77088256636691
3222.3922,115.8105022132641
3223.3137,122.6478570751741
3224.2346,119.63302545421809
3225.1549,120.6160844260387
3226.0746,121.94710986994825
3226.9937,122.87617645909825
3227.9121,125.20335764716901
3228.83,125.02872565907916
3229.7473,127.00235146771362
3230.6639,128.8243047956701
3231.5799,128.44465409552268
3232.4954,132.2634665316025
3233.4102,132.330807983794
3234.3244,134.04674300934698
3235.238,135.8113348422031
3236.151,135.17464537583663
3237.0634,138.08673514560826
3237.9752,138.64766333513245
3238.8864,136.45748774715605
3239.797,137.56626479794937
3240.7069,141.72404953920778
3241.6163,138.8308956469639
3242.5251,143.68685538000994
3243.4332,142.54197960882897
3244.3408,146.14631776703553
3245.2477,145.3999178628243
3246.154,146.75282644292673
3247.0598,142.1550886000751
3247.9649,145.30674795947334
3248.8694,145.15784672477457
3249.7733,148.05842564656433
3250.6766,149.25852402384962
3251.5793,148.75817967505319
3252.4814,149.20742892601248
3253.3829,152.40630661498307
3254.2838,151.35484608814625
3255.1841,153.60307916762025
3256.0838,154.7010361619748
3256.9829,153.54874584374875
3257.8814,155.89623543847063
3258.7792,154.14353063618142
3259.6765,158.44065556795968
3260.5731,157.33763282344864
3261.4692,157.38448340788494
3262.3647,161.68122675312878
3263.2595,162.57788071719557
3264.1538,160.02446154128825
3265.0474,165.170983840831
3265.9404,160.96746063100323
3266.8329,163.51390327527452
3267.7247,159.36032152743962
3268.616,162.65672350615435
3269.5066,166.55311573647109
3270.3966,161.59950311687493
3271.286,161.6958888803199
