RamanShift,CorrectedData
30.1047,187.02593536035198
32.3739,172.47046632485538
34.6426,159.7649954190994
36.9109,147.15951904812002
39.1787,135.60403201930322
41.4461,119.04852766843968
43.7131,104.49299797527979
45.9796,91.98743372908855
48.2456,79.88182467420096
50.5112,65.77615963507765
52.7764,52.92042663736096
55.0411,36.56461304893166
57.3054,26.20870570846622
59.5692,14.302691088994937
61.8326,-0.5534445985389027
64.0955,-12.309715286218946
66.3579,-26.916134900594376
68.6199,-37.87259439415868
70.8815,-44.62871582721772
73.1426,-43.7337429128594
75.4032,-32.08647352330051
77.6634,21.46473136933379
79.9231,166.87183133678883
82.1824,498.8867857361626
84.4412,1071.061552255835
86.6995,1828.4480835953182
88.9574,2570.3983217435084
91.2148,3090.864190404822
93.4717,3358.597587579691
95.7282,3419.0503803599067
97.9842,3416.524402251284
100.2398,3387.2714525691335
102.4949,3350.343296463523
104.7495,3310.7916652118056
107.0036,3259.8682565879017
109.2573,3200.5247352578144
111.5105,3111.9127332888647
113.7632,3011.6838507431276
116.0154,2926.8396565635494
118.2672,2860.781689576238
120.5185,2770.6614593389077
122.7693,2681.080446801452
125.0197,2618.2401052071527
127.2696,2557.3418609884857
129.519,2518.3371143955274
131.7679,2484.7272401049354
134.0163,2453.263587609995
136.2642,2419.6974815567205
138.5117,2396.8302220584906
140.7587,2359.5630850317093
143.0052,2308.4473224244784
145.2512,2276.6841625892707
147.4967,2223.1748107940834
149.7417,2166.770449540075
151.9863,2136.7722390966533
154.2304,2100.581318065524
156.4739,2081.3488036806707
158.717,2078.675792170262
160.9596,2067.2633589489806
163.2017,2066.9125586447503
165.4433,2049.0744252128634
167.6844,2020.899971939484
169.925,1978.340191620035
172.1651,1941.2460568409379
174.4047,1883.1685204052126
176.6439,1843.958515703419
178.8825,1806.0669572944319
181.1206,1783.7947412975418
183.3582,1751.0427457713686
185.5954,1735.7618309365862
187.832,1719.7528395034408
190.0681,1715.4665968245608
192.3037,1686.6039110550455
194.5388,1674.4655731953299
196.7734,1680.3023573798084
199.0075,1665.7650209982212
201.2411,1673.8543046372838
203.4742,1660.820932226064
205.7068,1673.2656109550849
207.9389,1680.2890314066626
210.1704,1671.8418674304557
212.4015,1654.9747760732334
214.632,1643.588397663347
216.862,1629.8833559793993
219.0915,1627.8602583641107
221.3205,1621.8696958613682
223.549,1616.6622432364568
225.777,1593.1384590359653
228.0044,1575.9488856398614
230.2314,1562.8440494967278
232.4578,1531.3244612956591
234.6837,1508.4406160973103
236.909,1486.7929936490918
239.1339,1453.1820586140088
241.3582,1464.458260787137
243.582,1430.722035431733
245.8053,1414.0238031664699
248.0281,1418.2139703028015
250.2503,1422.642929011945
252.472,1397.311057282978
254.6932,1380.768718878549
256.9139,1374.8662635881958
259.134,1378.2040273937698
261.3536,1384.8823325284616
263.5727,1399.3014874434202
265.7912,1413.3117867409724
268.0092,1430.2135110304318
270.2267,1457.2069267879926
272.4436,1471.8922861877159
274.6601,1484.919826831594
276.8759,1478.1897716026965
279.0913,1475.5523285348959
281.3061,1477.1076908801679
283.5204,1490.356037134965
285.7341,1486.6475310246628
287.9473,1492.082321371078
290.16,1455.7605421295511
292.3721,1440.032312334602
294.5837,1404.2977364631454
296.7947,1372.8569045917714
299.0052,1339.8098927540952
301.2152,1321.2067632551632
303.4246,1305.9475650019226
305.6334,1285.4323336892546
307.8418,1234.661091952565
310.0495,1203.633849572936
312.2568,1177.4506039848407
314.4635,1132.9613405864134
316.6696,1092.4660330012834
318.8752,1038.0146435234662
321.0802,1009.6571235223182
323.2847,994.74341398705
325.4887,988.4234458103008
327.692,976.9971399372778
329.8949,1004.0144074289531
332.0972,1017.8751495763295
334.2989,1013.7292576302659
336.5001,1000.4266126628706
338.7007,977.9670856089604
340.9008,930.4005373990867
343.1003,904.976819184131
345.2992,851.7957728109707
347.4976,818.6072310767149
349.6955,778.3610182605157
351.8927,756.7569504554535
354.0895,733.0448359709992
356.2856,707.6744755490549
358.4812,700.1956626010754
360.6763,700.4581834617707
362.8707,681.5118174638963
365.0646,672.206336935626
367.258,669.291507390016
369.4508,665.3170876180602
371.643,675.7328297178365
373.8346,690.7384791342531
376.0257,701.8837745548913
378.2162,698.6184477599495
380.4062,701.1422235107877
382.5956,670.1048195825822
384.7844,636.9059467390878
386.9726,601.4953090430126
389.1603,567.6726041880056
391.3474,559.3875238527644
393.5339,550.5897540392607
395.7199,550.2789751555918
397.9052,566.4548621039573
400.09,574.0670842837701
402.2743,581.6653054298929
404.4579,631.2491835365192
406.641,637.8683707811908
408.8235,670.9225130289574
411.0054,699.3612497661866
413.1868,753.7342137700218
415.3675,815.5910308239943
417.5477,798.4813191742953
419.7273,741.6546889112046
421.9064,643.3607421401907
424.0848,590.2990735501749
426.2627,532.7692713964732
428.4399,494.62091803141016
430.6166,436.7035904796187
432.7928,395.2668608195238
434.9683,371.26029676251596
437.1432,344.4334620673169
439.3176,320.78591678004636
441.4914,308.11721750248967
443.6645,296.5269176285749
445.8371,296.5145674710577
448.0091,286.2797143774251
450.1806,267.9219027300187
452.3514,251.24067404838502
454.5216,253.98556717285123
456.6913,244.40611843133934
458.8603,242.0518616119159
461.0288,245.4223280585868
463.1967,235.1670466948408
465.3639,236.2855439899438
467.5306,227.82734406149189
469.6967,204.54196866422672
471.8622,194.82893727461715
474.0271,195.18776732371225
476.1914,188.36797429427247
478.3551,173.21907171717976
480.5182,177.54057123963776
482.6807,176.93198277665965
484.8426,191.09281446785485
487.0039,215.32257268351236
489.1647,254.42076188299393
491.3248,265.63688437243763
493.4843,277.97043991377427
495.6432,279.12092561256713
497.8015,247.48783579467545
499.9592,220.32066199475025
502.1163,181.06889327256545
504.2728,149.7320164846892
506.4287,137.20951667700115
508.5839,105.70087739806172
510.7386,103.75558082433781
512.8927,113.52310807528738
515.0461,116.00293923281379
517.199,121.14455324358937
519.3512,152.54742789425745
521.5029,192.86103976001664
523.6539,227.0348638905923
525.8043,228.46837340709953
527.9541,189.71103916030665
530.1033,143.01232971629815
532.2519,123.92171174405007
534.3999,93.53865048241482
536.5472,82.86260993102928
538.694,91.39305315414344
540.8401,94.6794423873821
542.9856,104.87123895244076
545.1305,113.96790322422066
547.2748,125.46889452891173
549.4185,122.52367105302505
551.5615,133.0816897283828
553.704,147.14240626157198
555.8458,155.60527502836226
557.987,167.41974893310044
560.1276,187.23527932408138
562.2675,212.95131587540254
564.4069,251.76730638880895
566.5456,281.43269653653283
568.6837,275.8969294731346
570.8212,225.85944553884747
572.958,177.11968231493643
575.0942,148.72707512407192
577.2299,125.231057517728
579.3648,96.53106156010904
581.4992,79.42651806310892
583.6329,83.91685687331164
585.766,113.30150704303696
587.8985,130.82989678543777
590.0304,155.10145318065133
592.1616,173.4656020005168
594.2922,167.32176746585947
596.4222,134.6693720628491
598.5515,104.55783660443944
600.6802,67.48658055688952
602.8083,43.05502234088158
604.9358,20.712579702232688
607.0626,26.258669956209587
609.1888,28.642503499407894
611.3144,45.36302840430858
613.4393,71.4189066047818
615.5636,120.55879958106812
617.6873,131.53136809921943
619.8103,159.03527171969995
621.9327,166.41916868766066
624.0544,131.0317156578999
626.1756,115.02156762102572
628.2961,82.8873782573296
630.4159,64.47780009688745
632.5351,60.79148484090183
634.6537,50.82708354579836
636.7716,39.33324666008775
638.8889,45.30862412401234
641.0056,58.25186548448187
643.1216,65.8116198353207
645.237,56.03653568783557
647.3518,50.125260895216115
649.4659,42.02644275028888
651.5793,32.188728044627396
653.6922,21.960763149541663
655.8043,14.941194114455357
657.9159,13.078666769184792
660.0268,-8.328173205865369
662.137,-5.38068026107544
664.2466,12.819874351623184
666.3556,-6.777726866705052
668.4639,-13.274701543193032
670.5716,-8.17219959548379
672.6786,-15.121238326952607
674.785,-8.372753400701413
676.8907,-15.827529418662152
678.9958,-10.586267338961079
681.1002,-16.34951000270553
683.204,1.0823055058062891
685.3072,-2.991094566119955
687.4097,-5.319983982001531
689.5115,-14.304606624320286
691.6127,4.804846771079838
693.7132,-2.7416716286249994
695.8131,-15.09420970430665
697.9123,-3.2028153094195204
700.0109,4.132614493735673
702.1089,6.262182674887299
704.2061,23.23599216243747
706.3028,42.754145822167175
708.3987,53.416746287497745
710.4941,60.873895764309964
712.5887,69.7256959243175
714.6827,64.72224783049501
716.7761,64.26365184856058
718.8688,63.8500076970106
720.9608,73.53141445170581
723.0522,85.25797055000794
725.1429,108.37977369396526
727.233,133.24692073304664
729.3224,182.50950743292356
731.4112,206.0176282267987
733.4993,213.87137572278084
735.5867,182.07084046880254
737.6735,145.26611087408287
739.7596,115.25727352713352
741.845,94.39441356380485
743.9298,99.8276149673759
746.014,109.45696077718208
748.0974,119.98253303428282
750.1802,124.20441268516834
752.2624,127.27267947650353
754.3439,110.73741191291037
756.4247,95.34868722628357
758.5048,92.05658154114622
760.5843,101.61117002853462
762.6631,109.11252693892015
764.7413,159.0607255066625
766.8188,220.4058378749969
768.8956,258.6979345965517
770.9718,301.7870840198973
773.0473,303.2233519066251
775.1221,284.80680100045606
777.1962,277.4374910128779
779.2697,319.1654788073115
781.3426,368.8408184728032
783.4147,411.963560906745
785.4862,403.6837533181224
787.557,349.40143879628545
789.6271,265.96665639374737
791.6966,187.27944166900738
793.7654,131.93982752089983
795.8335,99.94784497546425
797.901,82.95352373934293
799.9678,73.45689251970089
802.0339,75.75797919416777
804.0993,75.75681090580588
806.1641,69.05341404009732
808.2282,58.19781422495748
810.2916,53.9900363977672
812.3544,45.58010491392997
814.4164,39.01804358894924
816.4778,39.1538757825283
818.5385,48.58762446418973
820.5986,73.91931221191794
822.658,120.69896111782259
824.7166,157.72659253482038
826.7747,214.80222660883942
828.832,283.9258819085421
830.8886,307.2475748545701
832.9446,332.96731902830516
834.9999,302.9851249386543
837.0545,258.8009997648519
839.1085,202.46494765628177
841.1618,155.47697017431778
843.2143,118.98706685568573
845.2662,112.94523568234104
847.3175,98.05147344636907
849.368,92.60577581040366
851.4179,85.70813745656278
853.467,84.7585521409087
855.5155,90.45701276242244
857.5633,78.95351137250009
859.6105,80.19803911796816
861.6569,83.54058635611909
863.7027,72.13114264226533
865.7478,75.06969669631462
867.7922,53.656236516864055
869.8359,56.99074935181375
871.8789,60.02322191250255
873.9212,56.85364034036161
875.9629,66.58199017659149
878.0039,66.55825639385557
880.0441,77.38242329899845
882.0837,95.50447453328275
884.1226,114.37439296414664
886.1609,144.29216050398463
888.1984,186.6577579214479
890.2352,203.07116454226662
892.2714,217.88235782559354
894.3069,200.6413131998711
896.3416,160.598003914718
898.3757,143.45240121334132
900.4091,126.90447473296763
902.4418,130.8541926763005
904.4739,139.45152197699872
906.5052,170.8964282601794
908.5358,151.83887575644553
910.5658,143.62882698743692
912.595,105.1662429564044
914.6236,85.60108323031068
916.6515,73.73330632445686
918.6786,60.46286989813393
920.7051,51.93973087330073
922.7309,58.71384556728731
924.756,62.3851697780276
926.7804,72.30365871631693
928.8041,68.56926696909863
930.8272,85.28194840028118
932.8495,88.49165618808047
934.8711,102.89834265789386
936.892,100.90195925020237
938.9123,117.00245637650391
940.9318,138.54978343927792
942.9506,147.99388867097878
944.9688,139.18471891856439
946.9862,126.1722195490538
949.003,92.90633453761927
951.019,68.48700659771123
953.0344,68.36417751371789
955.0491,51.08778838515741
957.063,68.35777962790701
959.0763,65.42409114696648
961.0888,62.13666216375884
963.1007,65.79543124546638
965.1119,64.55033633790526
967.1223,60.90131472893711
969.1321,60.99830306092008
971.1412,60.64123736719989
973.1495,48.28005307113915
975.1572,49.11468498968941
977.1641,63.79506745700098
979.1704,46.971134316078064
981.1759,52.19281877197466
983.1808,54.610053560033975
985.1849,50.572770893671986
987.1884,47.180902440204136
989.1911,57.68437936121927
991.1932,59.43313234649713
993.1945,58.277091508973854
995.1951,59.91618636725468
997.1951,64.30034585717522
999.1943,50.57949831540952
1001.1928,65.70357143562887
1003.1906,69.02249240571018
1005.1877,85.63618775649468
1007.1841,94.04458332859906
1009.1798,99.64760410627866
1011.1748,95.99517413334365
1013.1691,78.48721645712908
1015.1627,53.8736531650178
1017.1556,43.8544055595213
1019.1477,31.079394404414643
1021.1392,19.648540024929503
1023.1299,17.961762435503374
1025.12,23.818981454088885
1027.1093,28.170116719020825
1029.0979,37.06508763044428
1031.0859,51.45381330680391
1033.0731,60.08621249589396
1035.0596,62.96220343097161
1037.0454,48.03170374443209
1039.0304,42.994630439049274
1041.0148,29.400900037280508
1042.9985,13.700428631637692
1044.9814,6.29313202062383
1046.9636,6.678925865737938
1048.9452,15.407725765549003
1050.926,35.079447251836655
1052.9061,31.69400570230482
1054.8855,43.75131614386328
1056.8642,38.80129328648309
1058.8421,36.143851402621976
1060.8194,38.77890437672545
1062.7959,48.00636573180077
1064.7717,36.92614860306617
1066.7469,39.638165645677304
1068.7213,45.99232914552863
1070.695,52.88855099213288
1072.6679,63.27674261508048
1074.6402,82.7068149150765
1076.6117,84.27867816005948
1078.5826,77.44224179089963
1080.5527,42.29741440568091
1082.5221,28.494103828065136
1084.4908,15.982217458739797
1086.4587,15.56166241345204
1088.426,-4.817654351872989
1090.3925,6.844173963073672
1092.3584,7.047054206777943
1094.3235,6.790893159284906
1096.2879,31.475597530168898
1098.2515,42.751073961095585
1100.2145,63.16722877897553
1102.1767,83.42396788320877
1104.1382,112.4711965415238
1106.099,141.95881918740986
1108.0591,172.33673912964503
1110.0185,193.75485825741873
1111.9771,225.6630767365541
1113.9351,252.21129279532613
1115.8923,302.29940240537917
1117.8488,309.27729901624605
1119.8045,282.2448730544653
1121.7596,220.90201185380386
1123.7139,155.5485999255792
1125.6675,124.63451957208952
1127.6204,122.55965154014723
1129.5726,133.17387533021963
1131.524,132.72706921717838
1133.4748,108.81911014415675
1135.4248,78.14987372701762
1137.3741,34.869234493433396
1139.3226,26.32706618957843
1141.2705,30.223242212934906
1143.2176,31.55763569771443
1145.164,45.43011947589696
1147.1097,36.09056606388583
1149.0546,31.038847523783488
1150.9989,5.274835556787252
1152.9424,3.0484015537064124
1154.8852,-4.590583147397865
1156.8272,-10.24224723894838
1158.7686,-6.506673553442624
1160.7092,-11.433842603328571
1162.6491,-0.9236698993853452
1164.5883,11.574043271694336
1166.5267,11.659495632454764
1168.4644,32.632885789700254
1170.4014,46.84441223364024
1172.3377,83.64427312815587
1174.2732,113.03266616868405
1176.2081,168.70978821422
1178.1421,238.87583499343202
1180.0755,319.581000547891
1182.0082,345.0754765304101
1183.9401,331.9594513979931
1185.8713,267.1831101568889
1187.8017,189.89663449375246
1189.7315,125.35020342340715
1191.6605,83.74399406171074
1193.5888,64.47818227101959
1195.5163,38.452943076249994
1197.4432,32.768450857537346
1199.3693,12.574879610487983
1201.2947,9.77240300302401
1203.2193,7.511194577319429
1205.1432,4.341427777824265
1207.0664,-0.1367240261228062
1208.9889,-0.0730875085974958
1210.9106,-11.067487977802557
1212.8316,11.030249988202854
1214.7519,11.720412375564479
1216.6715,16.053285060125404
1218.5903,29.27915380052525
1220.5084,33.29830419487109
1222.4257,45.26102154847922
1224.3424,54.86759083368281
1226.2583,77.81829657020546
1228.1735,89.66342272909492
1230.0879,110.90325250321644
1232.0016,134.68806818880114
1233.9146,159.86815097304816
1235.8269,168.4437806962767
1237.7384,174.06523560012408
1239.6492,172.5827922417909
1241.5592,186.84672543782494
1243.4686,224.25730827894643
1245.3772,272.36481198740876
1247.285,322.56950554289233
1249.1922,367.1216552014298
1251.0986,412.7715239933591
1253.0042,453.31937127780077
1254.9092,505.2154522861616
1256.8134,556.6100177166543
1258.7169,602.953313215337
1260.6196,620.7455788621673
1262.5216,625.0870487075704
1264.4229,607.077950594516
1266.3234,583.1185061151032
1268.2232,562.5089307906521
1270.1223,531.7994343112979
1272.0207,516.4902207420855
1273.9183,494.7314888300665
1275.8151,514.1734321573898
1277.7113,538.6662393588902
1279.6067,590.5600939276683
1281.5014,687.3551739701624
1283.3953,802.05165168721
1285.2885,900.3496924060978
1287.181,959.8994534335957
1289.0727,991.3010830729779
1290.9637,959.1047200285237
1292.854,909.1104930915016
1294.7435,849.2685214621331
1296.6323,778.5789152495355
1298.5204,731.5917760701409
1300.4077,696.1071977545931
1302.2943,666.5252668176174
1304.1802,650.1460628128679
1306.0653,626.0696586287468
1307.9497,601.8961206521953
1309.8333,584.2755090094587
1311.7162,559.857877807821
1313.5984,541.6432753118123
1315.4798,530.1817441873836
1317.3605,538.1733216840539
1319.2405,527.8680397495247
1321.1197,509.5659249497644
1322.9982,465.5669985720616
1324.876,421.42127680804526
1326.753,374.8287711936756
1328.6293,316.0894890506994
1330.5048,269.8034339525765
1332.3796,237.12060631187182
1334.2537,213.24100384311623
1336.127,195.66462188963476
1337.9996,172.89145366234254
1339.8714,157.17149041550897
1341.7426,142.7047216744893
1343.6129,149.4411353929239
1345.4826,126.73071809740622
1347.3515,125.32345482011874
1349.2196,115.71932932593688
1351.087,123.46832412650178
1352.9537,123.87042057626138
1354.8197,117.97559879498078
1356.6849,122.4838376637208
1358.5493,137.24511488378653
1360.4131,148.4594069316447
1362.276,180.87668891131125
1364.1383,191.19693444220832
1365.9998,207.57011533499167
1367.8606,202.3462014883478
1369.7206,195.32516072526244
1371.5799,192.95695884525935
1373.4384,185.84155969461142
1375.2962,175.32892519002223
1377.1533,146.56901538977957
1379.0096,108.71178859888232
1380.8652,93.95720165663977
1382.7201,79.6052103152432
1384.5742,71.35576938731208
1386.4275,56.50883288941429
1388.2802,44.41435412456008
1390.132,43.17228583067185
1391.9832,36.88258030152849
1393.8336,21.945189399186575
1395.6832,27.260064616877003
1397.5322,24.877157228378678
1399.3803,8.246418234870475
1401.2278,8.717798388759775
1403.0745,4.091248359990118
1404.9204,4.516718731327501
1406.7656,6.694160044625505
1408.6101,-1.026477203429522
1410.4538,-5.0452425830923175
1412.2968,3.2878245898893965
1414.139,4.2727354017411585
1415.9805,15.359500905810364
1417.8213,20.398132112717406
1419.6613,21.28863987948813
1421.5006,38.131034859167016
1423.3391,67.32532749191279
1425.1769,95.17152783657377
1427.0139,145.1696452787454
1428.8502,199.7196882523079
1430.6858,244.07166373944557
1432.5206,255.92557672514585
1434.3547,254.88142975368027
1436.188,232.98922281006458
1438.0206,227.94895333050061
1439.8524,223.91061642129813
1441.6835,219.0742049092775
1443.5139,229.1397093821534
1445.3435,229.05711823689825
1447.1724,236.52641757908816
1449.0005,231.09759122372765
1450.8279,226.6706206205572
1452.6545,230.09548490834192
1454.4804,227.4221609591404
1456.3056,218.7506233440571
1458.13,220.2308443599747
1459.9536,197.91279411626988
1461.7766,179.9464405200111
1463.5987,158.1317494991393
1465.4202,133.61868518213083
1467.2409,111.55721011614543
1469.0608,103.9472855121557
1470.88,78.1388714655626
1472.6984,67.3819270322947
1474.5161,52.776410486891905
1476.3331,52.82227943007524
1478.1493,46.969490934802025
1479.9648,49.11800154580692
1481.7795,39.8177673381299
1483.5935,43.518743895631246
1485.4067,48.720886403993745
1487.2192,48.374149613712746
1489.031,50.82848778807494
1490.842,51.883854706625584
1492.6522,51.04020364062535
1494.4618,49.19748734249657
1496.2705,44.40565805425973
1498.0785,41.81466752596066
1499.8858,45.77446706358893
1501.6924,51.23500755498736
1503.4981,40.49623943025466
1505.3032,39.00811260713948
1507.1075,36.57057659842832
1508.911,31.183580526826802
1510.7138,28.04707314933495
1512.5159,27.461002911117077
1514.3172,18.575317976867098
1516.1178,17.139966236668897
1517.9176,16.95489539485351
1519.7166,21.32005298435257
1521.515,12.185386368549018
1523.3126,9.350842697625353
1525.1094,11.266368999910696
1526.9055,0.28191221022581203
1528.7008,11.64741915072807
1530.4954,12.762836640755665
1532.2893,9.578111383172825
1534.0824,14.443189953215551
1535.8747,11.258018830338983
1537.6663,8.072544349566101
1539.4572,15.886712733340062
1541.2473,13.75047012337825
1543.0367,8.71376250253121
1544.8253,5.92653571614477
1546.6132,18.838735522427555
1548.4003,19.00030762032293
1550.1867,24.561197520387168
1551.9723,31.671350543173673
1553.7572,39.73071176362447
1555.5414,54.58922593996823
1557.3247,71.4468374331264
1559.1074,95.15349005812857
1560.8893,111.65912691553575
1562.6705,134.2136901543745
1564.4509,144.21712080707982
1566.2305,155.1193585639502
1568.0094,158.17034167311294
1569.7876,158.7200068315018
1571.565,156.66828915434746
1573.3417,161.36512216968043
1575.1176,162.16043783884845
1576.8928,170.3041665095484
1578.6672,185.04623690787287
1580.4409,199.98657605687282
1582.2138,215.4751091291373
1583.986,237.26175929738946
1585.7575,260.0964475796019
1587.5282,276.1790926211293
1589.2981,283.65961046636255
1591.0673,295.68791439790124
1592.8358,308.1639148617492
1594.6035,302.8875193470316
1596.3704,302.3086322612343
1598.1366,291.92715498296855
1599.9021,284.8429858677593
1601.6668,263.0560203518597
1603.4308,259.7161510230934
1605.194,270.77326783872417
1606.9564,282.1772581588541
1608.7182,322.1280066358533
1610.4791,367.12539510031905
1612.2394,414.469302161569
1613.9988,466.0596027576666
1615.7576,502.59616768198254
1617.5156,508.7288630672916
1619.2728,499.1075500204072
1621.0293,445.2320845608541
1622.785,389.1023177170815
1624.54,320.71809606521845
1626.2942,263.6792622903703
1628.0477,209.43565587046214
1629.8005,174.33711364662656
1631.5525,149.3834703656397
1633.3037,118.22455903090645
1635.0542,98.01021115199728
1636.804,78.54025705623735
1638.553,70.41452609084979
1640.3013,67.1328468176552
1642.0488,54.39504709432907
1643.7955,49.25095410721866
1645.5416,46.900394498720686
1647.2868,43.293194418722635
1649.0313,34.47917954810822
1650.7751,36.508175134829116
1652.5181,32.43000608204562
1654.2604,36.544496927836036
1656.0019,42.35147188597904
1657.7427,49.80075480480815
1659.4828,62.29216910914252
1661.222,70.12553772579395
1662.9606,95.05068295865249
1664.6984,108.96742641035306
1666.4354,111.47558873302378
1668.1717,93.12498948911883
1669.9072,78.71544712633656
1671.642,58.646779161125465
1673.3761,42.51880232277995
1675.1094,25.981332754126527
1676.8419,19.584186172803925
1678.5737,14.977178036637667
1680.3048,11.910123607611467
1682.0351,2.0828379979372755
1683.7646,3.995136200725966
1685.4934,3.7468331882601547
1687.2215,6.287743892871163
1688.9488,-1.6823167905778291
1690.6754,-0.7135340301010729
1692.4012,0.5939238126318287
1694.1263,-3.110104495843842
1695.8506,-1.4257801949319457
1697.5742,3.8967665459073544
1699.297,-0.14258019924190535
1701.0191,0.3560636047366188
1702.7404,1.992583417335453
1704.461,-1.0331353055134116
1706.1808,1.1287928721963851
1707.8999,-3.471736292507188
1709.6182,-3.584827053884027
1711.3358,-2.260548983548489
1713.0527,-0.9989358406928375
1714.7688,-2.349998801625077
1716.4841,-0.013739063284162967
1718.1987,-1.340134346121232
1719.9126,4.070837766665875
1721.6257,-1.9307869201788321
1723.338,0.3550273573805782
1725.0496,1.3783356519411143
1726.7605,-1.8608069874502746
1728.4706,1.3876544744700539
1730.18,-0.676206337572637
1731.8886,4.54768418727059
1733.5964,6.609406415149806
1735.3036,4.459040666738332
1737.0099,9.29666719661563
1738.7156,7.722366214770773
1740.4204,3.336217838226389
1742.1246,8.238302106781362
1743.8279,8.82869902687267
1745.5306,12.90748852255436
1747.2325,8.124750429593632
1748.9336,11.78056445468286
1750.634,7.675010223267208
1752.3336,12.408167242986053
1754.0325,14.580114944728905
1755.7307,16.790932635303676
1757.4281,13.34069947571723
1759.1247,11.179494459067087
1760.8206,15.407396445044242
1762.5158,13.924484181544841
1764.2102,19.38083626239137
1765.9039,13.276531142161616
1767.5968,15.511647081625028
1769.289,23.736262208785888
1770.9804,20.300454496531984
1772.6711,16.65430168038864
1774.361,24.597881292876707
1776.0502,25.531270699974073
1777.7386,22.454547021680042
1779.4263,20.86778712268125
1781.1132,19.071067643118937
1782.7994,17.814465014456516
1784.4849,21.248055477446712
1786.1696,24.771915094697846
1787.8535,22.13611971633756
1789.5367,24.34074494477443
1791.2192,24.335866161055918
1792.9009,27.27155850282199
1794.5818,22.79789686435413
1796.2621,25.264955867218248
1797.9415,25.422809905001372
1799.6202,23.42153311864095
1801.2982,21.11119939484655
1802.9755,25.241882386112422
1804.6519,24.81365553382102
1806.3277,24.476592026935975
1808.0027,21.28076480628451
1809.6769,23.426246567927876
1811.3504,23.063109795119857
1813.0231,24.59142673685173
1814.6951,24.561269411483778
1816.3664,27.522709591462018
1818.0369,28.925818803619876
1819.7067,24.270668299563624
1821.3757,27.357329041641577
1823.044,23.935871749495277
1824.7115,23.356366869193096
1826.3783,26.768884607444647
1828.0443,27.723494937396026
1829.7096,27.320267564504462
1831.3741,28.15927191699228
1833.0379,29.140577149879306
1834.701,30.514252136592546
1836.3633,24.38036545915338
1838.0248,26.43898539444072
1839.6856,33.29017997552984
1841.3457,33.43401697110622
1843.005,29.77056381695357
1844.6636,28.949887614515504
1846.3214,27.07205516753004
1847.9785,29.637132990236466
1849.6349,33.04518732615354
1851.2904,31.296284122428688
1852.9453,32.140488995757636
1854.5994,29.827867249873265
1856.2528,33.008483867103806
1857.9054,31.13240353149874
1859.5572,31.49969059702285
1861.2083,33.01040910631684
1862.8587,35.36462278702467
1864.5084,33.612395036686266
1866.1572,32.60378889919535
1867.8054,33.338867082321784
1869.4528,27.8176919677976
1871.0994,31.29032560396618
1872.7453,30.806829760993978
1874.3905,34.26726589614434
1876.0349,34.82169515861237
1877.6786,32.47017835492049
1879.3215,34.91277594337437
1880.9637,33.29954805757784
1882.6051,30.930554482007096
1884.2458,30.75585466814286
1885.8858,36.025507758160416
1887.525,31.889572586676564
1889.1634,33.29810762805303
1890.8011,30.551171037755893
1892.4381,29.44882063827025
1894.0743,34.09111394656959
1895.7098,32.57810818513927
1897.3446,37.159860235553495
1898.9786,33.33642665360556
1900.6118,29.85786362349009
1902.2443,36.47422699603756
1903.8761,31.435572323499798
1905.5071,31.1919547933864
1907.1374,32.443429278851426
1908.7669,33.29005034112926
1910.3957,36.73187221702011
1912.0237,30.718948810423825
1913.651,32.75133365792156
1915.2776,29.42907998890503
1916.9034,31.80224070525267
1918.5285,33.37086841455222
1920.1528,31.435015406368976
1921.7764,33.59473363655964
1923.3992,30.750074746630716
1925.0213,31.551090042141496
1926.6427,31.59783052115054
1928.2633,27.99034686620557
1929.8832,31.178689443876067
1931.5023,33.66290834082807
1933.1207,26.443053331940817
1934.7383,29.669173855464507
1936.3552,30.641319085218825
1937.9714,32.359537898331865
1939.5868,33.073878865518566
1941.2015,31.83439023389846
1942.8154,26.891119919852414
1944.4286,27.9941155214175
1946.041,26.193424367719572
1947.6528,27.98909350794345
1949.2637,26.931169729339686
1950.8739,27.06969953926803
1952.4834,22.654729175776495
1954.0921,27.886304606216214
1955.7001,26.414471571391076
1957.3074,28.839275533241903
1958.9139,30.11076168956491
1960.5197,30.428974949763486
1962.1247,26.69395992213353
1963.729,31.805760910681144
1965.3325,25.96442195247296
1966.9353,31.819986766517985
1968.5374,32.422498812181104
1970.1387,28.422001230627316
1971.7393,27.918536838796626
1973.3392,29.81214816940914
1974.9383,27.852877475999563
1976.5366,27.290766713981213
1978.1342,26.075857560238575
1979.7311,30.708191418748555
1981.3273,27.937809432729452
1982.9227,24.564752438317853
1984.5173,30.83906099227221
1986.1112,22.410775405703532
1987.7044,30.67993568133234
1989.2968,26.89658159777136
1990.8885,28.31075262683413
1992.4795,25.622487971368372
1994.0697,25.28182655111435
1995.6592,30.888807029587454
1997.2479,25.44346781748483
1998.8359,24.54584701661568
2000.4232,25.495982474354534
2002.0097,21.89391179261753
2003.5955,22.439672318360977
2005.1805,25.933301179602154
2006.7648,28.824835279961547
2008.3484,26.914311263726702
2009.9312,25.65176548693681
2011.5133,25.43723403648802
2013.0946,27.520752742758873
2014.6752,26.65235718175566
2016.2551,24.032082654277175
2017.8342,19.909964194598686
2019.4126,21.936036596674683
2020.9902,23.110334455360075
2022.5672,25.932892146149484
2024.1433,24.103743813434207
2025.7188,30.072923342276667
2027.2935,24.290464376701905
2028.8674,22.906400260005768
2030.4406,24.620764092579535
2032.0131,22.233588745750538
2033.5849,21.494906844638564
2035.1559,19.30475079202752
2036.7261,20.86315277575227
2038.2957,24.770144790600213
2039.8645,22.27575862272728
2041.4325,23.730025810588018
2042.9998,26.782977669879443
2044.5664,23.234645278998386
2046.1323,25.78505944851196
2047.6974,25.584250756640884
2049.2617,24.182249523755345
2050.8254,25.029085814383023
2052.3883,25.124789451229177
2053.9504,28.26939000670822
2055.5118,25.8629168019868
2057.0725,28.905398875537657
2058.6325,27.74686500720435
2060.1917,24.58734368777658
2061.7502,24.126863130575373
2063.3079,24.465451303048383
2064.8649,18.853135931374695
2066.4212,22.43994449707884
2067.9767,23.975904293154045
2069.5315,22.561042388194096
2071.0856,25.845385611033777
2072.6389,24.728960564897463
2074.1915,25.211793594555786
2075.7433,23.343910797489755
2077.2945,21.275338019062644
2078.8448,23.556100871198623
2080.3945,24.686224753068615
2081.9434,21.665734828282467
2083.4916,25.4946560135879
2085.039,24.97301300907523
2086.5857,24.750830259888332
2088.1317,24.62813196144097
2089.677,22.904942061638707
2091.2215,30.03128426210587
2092.7652,21.657182035417364
2094.3083,24.03265855383536
2095.8506,24.05773677305025
2097.3921,22.432439408425836
2098.933,19.456788934748573
2100.4731,19.9308076024806
2102.0124,22.60451746751619
2103.5511,24.72794038644163
2105.089,23.701097989798043
2106.6261,23.124011660847117
2108.1626,21.64670254583963
2109.6983,25.569191559786304
2111.2332,25.941499401230942
2112.7675,23.26364651302538
2114.301,25.33565307860657
2115.8337,25.357539048775024
2117.3657,24.22932412097481
2118.897,26.951027739074576
2120.4276,26.572669104649876
2121.9575,23.69426714976599
2123.4866,26.665840540761508
2125.0149,27.337407707032412
2126.5426,25.008986811316262
2128.0695,24.18059574297662
2129.5956,24.15225214128718
2131.1211,24.723973403715632
2132.6458,25.745776686207265
2134.1698,24.21767889746762
2135.693,23.339696688744496
2137.2155,23.911846469108838
2138.7373,24.484144414234763
2140.2584,23.756606460677943
2141.7787,25.62924830015271
2143.2983,26.602085386807303
2144.8171,21.87513291849764
2146.3353,22.54840582705873
2147.8527,24.621918825574326
2149.3693,24.095686401644116
2150.8853,20.719722796648625
2152.4005,23.444042011011632
2153.9149,22.06865783795962
2155.4287,21.243583836278773
2156.9417,26.46883334406877
2158.454,23.74441948699352
2159.9655,21.320355126028687
2161.4764,16.196652884705742
2162.9865,23.423325173352737
2164.4958,23.85038424033121
2166.0045,21.727842099769504
2167.5124,23.40571052729217
2169.0195,19.98400108124534
2170.526,22.16272508591811
2172.0317,19.441893665759636
2173.5367,23.321517723591867
2175.0409,20.651607967817867
2176.5445,20.182174873625513
2178.0473,24.113228709686595
2179.5494,19.694779542851222
2181.0507,21.82683719883721
2182.5513,19.209411306414623
2184.0512,19.292511276085207
2185.5504,19.87614632625666
2187.0488,22.710325482411605
2188.5465,20.54505757127123
2190.0435,20.330351192453477
2191.5397,20.96621474012582
2193.0353,23.45265640515217
2194.5301,20.039684168734368
2196.0241,22.627305777547747
2197.5175,19.865528777870836
2199.0101,18.45436048970913
2200.502,19.39380803441287
2201.9931,20.333878348788716
2203.4835,22.324578175705227
2204.9733,20.665914054692323
2206.4622,19.657892302034142
2207.9505,18.700519027355753
2209.438,18.793800143703336
2210.9248,21.88774137711792
2212.4109,13.832348265702606
2213.8962,15.227626128683099
2215.3809,16.923580146961612
2216.8648,17.37021534916414
2218.3479,18.217536594680936
2219.8304,17.06554856920009
2221.3121,16.514255776234407
2222.7931,19.413662548641256
2224.2733,15.363773054135436
2225.7529,16.2145912662952
2227.2317,13.916121005061115
2228.7098,19.76836592822788
2230.1872,16.37132955442904
2231.6638,18.975015204614536
2233.1397,18.479426036021053
2234.6149,16.584565016135144
2236.0894,14.990434927649162
2237.5632,14.247038387409873
2239.0362,11.504377862359703
2240.5085,12.162455676970765
2241.9801,12.971274040671375
2243.4509,14.980835041265422
2244.921,14.941140636843997
2246.3904,13.952192635689897
2247.8591,13.013992696674606
2249.3271,13.776542339147724
2250.7943,13.339842952319088
2252.2608,10.753895787633084
2253.7266,11.118701963135777
2255.1917,13.434262489334316
2256.656,12.250578265548825
2258.1197,10.017650056756878
2259.5826,13.685478505430268
2261.0447,15.954064153864351
2262.5062,12.773407407499775
2263.9669,10.843508512236596
2265.4269,12.914367586240772
2266.8862,12.335984639243222
2268.3448,10.808359551831217
2269.8026,9.781492081232258
2271.2598,9.805381876590275
2272.7162,10.9800284892344
2274.1719,9.155431372439907
2275.6268,11.681589869681844
2277.0811,13.408503232880989
2278.5346,10.886170597142197
2279.9874,8.214590963485364
2281.4395,10.393763224068664
2282.8908,12.72368618890441
2284.3414,12.454358564067277
2285.7914,12.735778928395092
2287.2406,13.567945736182097
2288.689,10.400857314364785
2290.1368,11.834511854200272
2291.5838,13.668907442937169
2293.0302,10.904042049478889
2294.4758,11.33991350603982
2295.9206,13.276519535794009
2297.3648,12.713857748516432
2298.8082,13.50192562121687
2300.251,6.140720503766673
2301.693,10.73023961101785
2303.1343,9.12048009641525
2304.5748,9.11143900610135
2306.0147,12.653113295013895
2307.4538,13.345499826976209
2308.8922,8.688595339280567
2310.3299,15.232396435764286
2311.7669,10.326899633378773
2313.2031,9.822101296751555
2314.6387,9.117997687241171
2316.0735,9.814584967985184
2317.5076,6.411859210941145
2318.941,9.659816389920891
2320.3737,7.808452414617619
2321.8056,8.657763098126381
2323.2369,12.75774417545773
2324.6674,13.308391295044657
2326.0972,14.25969997774267
2327.5263,19.11166561132346
2328.9547,17.264283440961705
2330.3823,14.667548520715442
2331.8092,17.17145573199997
2333.2355,9.225999809555134
2334.661,9.931175316406183
2336.0858,7.986976723318378
2337.5098,8.443398401745227
2338.9332,9.80043464327045
2340.3558,8.158079655043835
2341.7778,9.366327546210783
2343.199,8.275172344336028
2344.6195,8.18460798332103
2346.0393,4.744628314315477
2347.4583,9.055227106623121
2348.8767,8.366398082101355
2350.2943,10.478134872055321
2351.7113,10.190431024126326
2353.1275,9.253279981174217
2354.543,7.066675084154625
2355.9578,7.430609581490415
2357.3718,4.145076650937739
2358.7852,4.910069395946735
2360.1978,9.325580878516789
2361.6098,4.941604111546624
2363.021,9.20813201467918
2364.4315,8.125157458141402
2365.8413,6.3426732200789075
2367.2504,5.410671997385705
2368.6587,10.479146423529173
2370.0664,9.998089077869949
2371.4733,8.117492434977265
2372.8795,5.937348869439475
2374.285,4.957650674670077
2375.6899,5.478390084709076
2377.0939,6.999559284020037
2378.4973,5.971150402282589
2379.9,7.39315549918085
2381.3019,9.165566574687418
2382.7032,4.6883755548434465
2384.1037,10.611574274034353
2385.5035,6.1351545197618975
2386.9027,8.20910797341213
2388.3011,6.283426255019535
2389.6987,7.9081009025276074
2391.0957,10.683123391045555
2392.492,4.608485116601628
2393.8876,4.784177368392875
2395.2824,4.0101913895315136
2396.6765,5.18651837528806
2398.07,9.36314948083107
2399.4627,6.290075809464014
2400.8547,6.667288370858941
2402.246,5.09477811178715
2403.6366,6.522535912347109
2405.0265,7.25055260168952
2406.4156,7.128818943739802
2407.8041,3.807325629917841
2409.1918,1.836063280355404
2410.5789,6.365022477111012
2411.9652,6.244193783882622
2413.3508,5.423567700717953
2414.7358,5.803134665222871
2416.12,1.4328850607675463
2417.5035,5.112809212690834
2418.8863,4.642897432002741
2420.2684,8.473139978585287
2421.6497,3.6035270658915266
2423.0304,5.8840488226431376
2424.4104,3.2146953415265997
2425.7896,5.495456656387873
2427.1682,4.376322768926016
2428.546,4.307283625885532
2429.9232,4.4383291302477375
2431.2996,4.2194491419211175
2432.6753,4.250633476430949
2434.0503,3.7318719071080793
2435.4246,4.313154164776975
2436.7982,9.044469942943472
2438.1711,7.675808891981873
2439.5433,2.9571605718218095
2440.9148,5.788514465634812
2442.2856,4.11986002702092
2443.6557,8.10118665169501
2445.025,-0.16751630582658095
2446.3937,3.213740427960637
2447.7617,4.844947800048985
2449.1289,7.176096725293377
2450.4955,4.0571780700993045
2451.8613,2.1381826291113057
2453.2265,6.169101156402142
2454.5909,6.049924384662823
2455.9546,4.730642984893343
2457.3177,3.1112475675945177
2458.68,-0.6082713040392846
2460.0416,6.522076902073906
2461.4025,4.802288794646309
2462.7627,4.782360917169434
2464.1222,3.61228976511196
2465.4811,5.342071786118964
2466.8392,5.221703391712651
2468.1966,3.701180939994572
2469.5533,6.580500736849267
2470.9093,5.059659051149531
2472.2645,3.438652085963156
2473.6191,6.717475993761383
2474.973,4.646126892628942
2476.3262,8.974600833475805
2477.6787,3.5028938207506926
2479.0305,4.631001769156342
2480.3816,2.4089205583665816
2481.7319,3.4866460217452584
2483.0816,4.764173968567057
2484.4306,6.8915001732402175
2485.7789,3.31862036253127
2487.1264,6.795530194291771
2488.4733,4.622225293187093
2489.8195,2.7987012159273092
2491.165,8.82495347300025
2492.5097,3.9509775469067634
2493.8538,5.076768831898235
2495.1972,4.202322682716272
2496.5398,0.8776344033348238
2497.8818,5.3026992557046455
2499.2231,3.877512493000154
2500.5637,5.702069315368796
2501.9035,4.676364884182917
2503.2427,8.4003943037942
2504.5812,6.97415263179068
2505.919,9.397634841756478
2507.256,5.22083583753421
2508.5924,1.8437504289901838
2509.9281,6.416373373782349
2511.2631,6.588699411131209
2512.5974,8.810723216093542
2513.9309,4.882439397839171
2515.2638,7.6538424774307074
2516.596,7.574926927106361
2517.9275,3.495687142565963
2519.2583,7.2661174437600735
2520.5884,4.486212115682413
2521.9178,-0.5940346293344518
2523.2465,4.575371376179952
2524.5745,4.644430234102025
2525.9018,6.763142000554495
2527.2284,4.681506685215858
2528.5543,5.149524230133174
2529.8796,0.9171945305384384
2531.2041,5.284517430168464
2532.5279,1.701492763588071
2533.851,4.368120312516929
2535.1735,6.584399841659838
2536.4952,5.250331072040403
2537.8163,6.865913658838245
2539.1366,3.631147204729672
2540.4562,5.346031243731879
2541.7752,7.6105652735506695
2543.0935,7.924748738431553
2544.411,5.438581006514454
2545.7279,6.952061366691801
2547.0441,5.715189053470262
2548.3596,3.1279632318359134
2549.6744,11.990383009622974
2550.9885,4.202447463386058
2552.3019,3.2141555497759526
2553.6146,6.87550618341902
2554.9266,8.186498246800092
2556.2379,4.747130553648923
2557.5485,7.657401835830342
2558.8585,5.467310777737865
2560.1677,3.7768559871909986
2561.4762,6.286036017336173
2562.7841,4.544849383551266
2564.0913,3.053294538353825
2565.3977,7.961369888812918
2566.7035,4.819073811464698
2568.0086,4.826404603231651
2569.313,7.033360512845533
2570.6167,2.789939740774109
2571.9197,5.096140417151524
2573.222,6.101960644212568
2574.5236,10.957398473230619
2575.8246,5.112451894459468
2577.1248,6.217118788578944
2578.4244,5.021396985144399
2579.7232,5.6252842515399735
2581.0214,8.478778304935894
2582.3189,7.081876806249525
2583.6157,6.034577331610507
2584.9118,6.6368773863296795
2586.2072,5.938774415372144
2587.5019,7.690265797334241
2588.7959,9.841348851424605
2590.0893,6.642020819949238
2591.3819,7.142278846800643
2592.6739,7.342120009451172
2593.9652,7.191541313950367
2595.2557,6.8905396929266445
2596.5456,8.439112007092987
2597.8348,4.937255048257043
2599.1234,7.834965523835308
2600.4112,4.932240091871755
2601.6983,10.229075332060766
2602.9848,7.825467774774296
2604.2705,9.821413848093592
2605.5556,6.7669099018452314
2606.84,6.211952187641707
2608.1237,7.4565368894263955
2609.4067,10.75066012902321
2610.689,5.894317953690695
2611.9707,8.28750630318082
2613.2516,6.380221058302361
2614.5319,6.772458016989063
2615.8115,8.464212913372485
2617.0903,6.055481413859589
2618.3685,6.896259100215275
2619.6461,4.286541493649636
2620.9229,7.52632404641021
2622.199,4.865602167879139
2623.4745,7.004371192175363
2624.7493,8.242626404761829
2626.0234,5.630363021057782
2627.2968,6.067576174056242
2628.5695,7.204260940446574
2629.8415,7.640412336242406
2631.1128,5.626025305414785
2632.3835,4.911094715530652
2633.6535,5.795615377896709
2634.9228,9.229582054708708
2636.1914,3.1629894502062825
2637.4593,4.895832176333251
2638.7265,3.128104813403553
2639.9931,4.359801892772836
2641.259,6.7909179145156955
2642.5242,4.1714473351087165
2643.7887,3.7013845431193317
2645.0525,9.63072388540052
2646.3156,7.959459671791443
2647.5781,4.337586115824031
2648.8398,5.415097351435641
2650.1009,7.891987469187789
2651.3613,6.868250505491048
2652.6211,4.4438804178361195
2653.8801,4.818871095031206
2655.1385,6.043216381445738
2656.3961,9.06691007326048
2657.6531,5.7399459062240155
2658.9094,6.562317525415871
2660.1651,3.8340185185161317
2661.42,3.1050424075817205
2662.6743,5.225382676329396
2663.9279,7.9950327774255
2665.1808,5.613986111282571
2666.433,8.632235998362859
2667.6846,1.3497757029887651
2668.9354,8.966598403160354
2670.1856,7.382697263379946
2671.4351,5.948065358483873
2672.6839,5.312695689481544
2673.9321,7.17658119790169
2675.1795,7.889714772146128
2676.4263,7.70208922885088
2677.6724,6.813697305754829
2678.9179,9.57453166357599
2680.1626,6.284584894895424
2681.4067,8.493849496548883
2682.6501,7.602317902526316
2683.8928,6.859982461879163
2685.1348,8.216835447635695
2686.3761,2.772869064224402
2687.6168,8.778075433905421
2688.8568,8.782446651210229
2690.0961,6.685974722889547
2691.3348,4.838651567869654
2692.5727,4.840469038217108
2693.81,3.9414189376119495
2695.0466,6.191493021329556
2696.2826,5.390683005231118
2697.5178,3.9389805432629004
2698.7524,4.436377235464356
2699.9863,3.0828646424851414
2701.2195,9.228434280611118
2702.452,6.173077635299549
2703.6839,8.71678609972335
2704.9151,9.209551005324666
2706.1456,7.901363596377816
2707.3755,7.342215025061584
2708.6046,7.882096364541173
2709.8331,9.170998614559622
2711.0609,11.808912696039023
2712.2881,8.495829438191514
2713.5145,7.681739552140105
2714.7403,9.566633664049526
2715.9654,9.700502323267127
2717.1899,9.883335983473923
2718.4136,9.815125001345905
2719.6367,11.745859634725736
2720.8591,12.775530043304826
2722.0809,12.704126269316024
2723.3019,10.63163822723688
2724.5223,13.708055704503707
2725.7421,8.433368382236434
2726.9611,14.357565804474469
2728.1795,9.630637430923532
2729.3972,12.002572577713714
2730.6142,9.973360464668755
2731.8306,9.59299019158668
2733.0462,11.16145075853192
2734.2612,10.278731069639026
2735.4756,9.99481991742806
2736.6892,5.309705991631777
2737.9022,6.22337788203475
2739.1145,3.8358241253245
2740.3262,7.197033195954788
2741.5372,6.156993530021126
2742.7475,7.415693491648728
2743.9571,6.6231213833928635
2745.1661,4.529265433651901
2746.3744,7.684113804592986
2747.582,8.337654613090667
2748.7889,6.039875899178323
2749.9952,4.690765619512838
2751.2008,4.590311670352342
2752.4057,2.8885019010473343
2753.61,3.3353241150451964
2754.8136,2.0807660869083193
2756.0165,2.3748155578458565
2757.2188,-0.7325397517406813
2758.4204,3.0086878548020835
2759.6213,2.898493392199626
2760.8215,4.436871845090561
2762.0211,3.6238181691285796
2763.22,1.7593272755986824
2764.4182,4.0933940395477
2765.6158,3.1260133184292194
2766.8127,1.1571799287628828
2768.009,3.936888655808204
2769.2045,6.615134273252906
2770.3994,5.59191151541582
2771.5936,2.3672150504644662
2772.7872,-0.7089605093527567
2773.9801,1.5633794245404111
2775.1723,3.1842365232357146
2776.3639,2.7536124421911126
2777.5548,1.821508805022205
2778.745,0.9379272078084746
2779.9346,2.2528692284143155
2781.1235,2.5163364353248667
2782.3117,-0.2716696255034208
2783.4992,1.4888525667225423
2784.6861,2.8479072467753994
2785.8723,1.2554986345392969
2787.0579,1.6116309214193016
2788.2428,-1.5836917137344741
2789.427,4.119534891811767
2790.6106,2.7213307218720253
2791.7935,3.471715719064978
2792.9757,1.5207097987960054
2794.1573,4.268332841753349
2795.3382,-2.3353952865818357
2796.5184,3.5095452365882984
2797.698,-0.19680243533952435
2798.8769,1.9956048159359945
2800.0551,4.03681207477246
2801.2327,2.5268644055714553
2802.4096,1.9158068323664459
2803.5859,1.8036843539222538
2804.7615,4.890541949845641
2805.9364,0.6264245817065444
2807.1106,2.3113771621694816
2808.2842,2.4954445976347444
2809.4572,1.1286717713888983
2810.6294,4.311103541764076
2811.801,5.092784755805717
2812.972,6.9737602174482305
2814.1423,9.554074679698193
2815.3119,8.43377282582458
2816.4808,9.212899243555633
2817.6491,7.5914984362818885
2818.8167,10.669614815264875
2819.9837,12.397292715851194
2821.15,16.424576366691277
2822.3157,24.401509872462643
2823.4807,21.028137173597074
2824.645,27.004501966511256
2825.8086,32.68064773734052
2826.9716,34.206617702175194
2828.134,36.53245475029914
2829.2957,40.60820142893008
2830.4567,44.73389991996116
2831.617,47.0595919992036
2832.7767,44.335318995129526
2833.9358,48.41112176561525
2835.0941,45.93704072518386
2836.2519,46.713115804247245
2837.4089,43.8893864738469
2838.5653,40.41589173789317
2839.7211,42.39267016140255
2840.8761,38.61975990523263
2842.0306,35.84719870631429
2843.1843,36.32502391538087
2844.3374,36.00327252469367
2845.4899,36.33198116326382
2846.6417,40.41118610006971
2847.7928,39.490923240769945
2848.9433,41.17122808691126
2850.0931,38.65213574513118
2851.2422,39.683680910354965
2852.3907,42.66589789098655
2853.5385,40.798820598593025
2854.6857,40.932482518082594
2855.8323,39.91691672637518
2856.9781,43.952155891065935
2858.1233,48.33823228058085
2859.2679,47.97517772382433
2860.4118,51.61302356631853
2861.555,51.40180067383379
2862.6976,46.29153939601029
2863.8395,56.48226956847019
2864.9808,52.42402056392023
2866.1214,57.76682119024457
2867.2614,56.26069973108709
2868.4007,55.005683892423484
2869.5393,62.051800817622464
2870.6773,58.79907709999591
2871.8146,58.897538712337735
2872.9513,60.947211039451076
2874.0874,63.84811887716366
2875.2227,59.50028641183118
2876.3574,62.753737191328106
2877.4915,62.35849416852608
2878.6249,64.8645796687594
2879.7577,63.22201539377746
2880.8898,68.63082239668381
2882.0212,63.49102109836197
2883.152,68.40263123338715
2884.2821,71.51567190142441
2885.4116,73.68016151811247
2886.5405,76.79611778393341
2887.6686,72.96355766256762
2888.7962,74.03249734973438
2889.923,74.35295231151743
2891.0493,74.92493727367545
2892.1748,72.59846621843774
2893.2997,72.97355237878418
2894.424,74.30020826170994
2895.5476,72.4284456444748
2896.6706,77.10827556133638
2897.7929,73.53970832226791
2898.9145,69.97275346615982
2900.0355,72.00741979650552
2901.1559,75.44371541707089
2902.2756,73.08164771154763
2903.3946,70.72122330919032
2904.513,67.31244810843708
2905.6308,69.75532730051377
2906.7479,70.79986540352182
2907.8643,66.64606623800938
2908.9801,76.24393291652595
2910.0953,67.14346788516038
2911.2098,70.79467282756221
2912.3236,74.44754875594629
2913.4368,68.9020959745808
2914.5494,71.80831404325843
2915.6613,70.16620183275096
2916.7725,68.07575749574697
2917.8831,67.88697848327308
2918.9931,64.39986156559834
2920.1024,64.76440283412205
2921.211,65.28059773624486
2922.319,59.848441071723414
2923.4264,64.26792698750843
2924.5331,59.73904903206619
2925.6391,58.96180011118373
2926.7445,61.286172533257584
2927.8493,62.51215801706634
2928.9534,60.989747668526824
2930.0569,64.31893196843433
2931.1597,64.04970078768667
2932.2619,62.68204335399234
2933.3634,60.86594825456288
2934.4643,62.451403449789396
2935.5645,65.23839629140355
2936.6641,65.92691350662295
2937.763,67.31694117028128
2938.8613,64.0584646979431
2939.959,68.65146883200356
2941.056,67.19593767427324
2942.1523,58.49185464004793
2943.248,62.039202472664144
2944.3431,54.48796333053977
2945.4375,49.63811875170077
2946.5313,47.289649729293444
2947.6244,42.6925367600829
2948.7169,42.39675986793778
2949.8087,30.50229864980139
2950.8999,32.009132278649446
2951.9904,31.867239622434667
2953.0803,31.276599229018505
2954.1696,25.93718932759
2955.2582,26.998987834572233
2956.3462,23.061972407016388
2957.4335,25.826120431983792
2958.5202,22.09140906591608
2959.6062,24.15781520699367
2960.6916,19.875315532482908
2961.7764,25.943886478072
2962.8605,24.263504280695994
2963.9439,23.484144917851097
2965.0267,22.905784124398497
2966.1089,20.978397400357913
2967.1905,19.501960016691275
2968.2714,24.526447034576513
2969.3516,18.601833320171988
2970.4312,23.478093494371606
2971.5102,20.505201992050957
2972.5885,19.48313301330469
2973.6662,22.311860553175496
2974.7432,21.5413584118747
2975.8196,24.52160016649506
2976.8954,24.70255917871574
2977.9705,21.584208564999944
2979.045,24.91652119478526
2980.1188,25.099469721667187
2981.192,26.98302655007605
2982.2645,22.31716383344747
2983.3364,22.201853455386807
2984.4077,21.087067076327806
2985.4783,19.37277613468567
2986.5483,21.70895185800495
2987.6177,18.945565280102468
2988.6864,15.43258721770551
2989.7545,15.019988298085742
2990.8219,15.25773899418894
2991.8887,16.895809628761043
2992.9548,10.08417037197059
2994.0204,10.722791225028015
2995.0852,13.261642088302086
2996.1495,7.400692754933658
2997.2131,8.239912885447172
2998.276,7.629272066360155
2999.3383,8.51873980179101
3000.4,11.75828551956544
3001.4611,3.747878562321741
3002.5215,5.937488155115382
3003.5812,4.627083485523041
3004.6404,5.066633681746531
3005.6989,3.2561078257168283
3006.7567,0.4454749486985783
3007.8139,1.6847040493953607
3008.8705,2.5237641220560043
3009.9264,3.1626241440823186
3010.9818,3.7512530676384728
3012.0364,1.0896198132624022
3013.0905,-0.17230673602049507
3014.1439,2.915442291919007
3015.1966,0.20283749055440836
3016.2487,0.539849424204796
3017.3002,0.6264486551608961
3018.3511,0.06260574031495025
3019.4013,1.198291230294707
3020.4509,0.38347567510188263
3021.4998,0.768129612755283
3022.5481,3.4022235774389706
3023.5958,1.2357280956557073
3024.6428,1.5186136598860323
3025.6892,2.350850750253217
3026.735,3.33240983169439
3027.7802,4.363261345638202
3028.8247,-1.556624299810803
3029.8685,-1.377276740180676
3030.9118,2.5512899396772717
3031.9544,0.729075413906358
3032.9963,-0.19392066886299908
3034.0376,2.6823013327088727
3035.0783,-0.3922570027708705
3036.1184,0.032405876481920615
3037.1578,2.8062954408988396
3038.1966,6.379417160587446
3039.2348,0.5017764775923403
3040.2723,4.873378770163972
3041.3092,1.0942294115350144
3042.3455,2.564333726204369
3043.3811,4.033697027728644
3044.4161,2.552324604021125
3045.4505,2.7702217026581284
3046.4842,2.187393545692732
3047.5173,6.85384532747581
3048.5498,4.669582220484305
3049.5816,4.634609328656719
3050.6128,3.298931709235733
3051.6434,4.362554373117947
3052.6734,2.925482298210646
3053.7027,4.087720418795573
3054.7314,3.9492736398996477
3055.7594,6.060146825672604
3056.7868,4.220344800771409
3057.8136,6.379872329251574
3058.8398,6.9387341329651555
3059.8653,4.496934869965486
3060.8902,4.654479128918567
3061.9145,7.311371453521055
3062.9381,4.7176163409248275
3063.9612,5.373218215168043
3064.9835,8.928181453112707
3066.0053,8.632510377888654
3067.0264,5.7362092233438915
3068.0469,7.039282137001338
3069.0668,9.141733209021824
3070.086,9.293566459173359
3071.1046,5.694785815806618
3072.1226,7.245395114336626
3073.1399,7.345398133230541
3074.1567,6.74479857850158
3075.1727,8.293600082708986
3076.1882,4.641806210964019
3077.203,4.6394204454419405
3078.2173,6.086446221899964
3079.2308,7.08288692970109
3080.2438,3.428745897343875
3081.2561,5.0240263824980005
3082.2678,4.318731608545699
3083.2789,6.712864748628935
3084.2893,6.35642893270237
3085.2991,5.049427223592014
3086.3083,8.241862620559598
3087.3169,6.033738072372586
3088.3248,5.825056445379811
3089.3321,4.715820545592738
3090.3388,3.6060331207722616
3091.3449,1.6456968715210838
3092.3503,3.9348144623815653
3093.3551,6.57338854143911
3094.3593,5.461421717430977
3095.3629,3.3489165333605495
3096.3658,1.9858754776169905
3097.3681,2.7223010051002987
3098.3698,4.058195550851733
3099.3708,5.343561522689541
3100.3713,1.8284012878500233
3101.3711,5.012717160133869
3102.3702,0.3465114350577574
3103.3688,5.729786358011197
3104.3667,4.412544170918592
3105.364,5.644787058406472
3106.3607,2.526517160975944
3107.3568,5.057736562680239
3108.3522,2.0884473223074274
3109.347,5.16865144806821
3110.3412,4.098350927288814
3111.3348,4.677547695608957
3112.3277,1.55624364768485
3113.32,2.2844406313972296
3114.3117,0.01214047906440463
3115.3028,2.4893450001602773
3116.2932,2.8160560040373506
3117.2831,5.89227527515468
3118.2723,3.2180045698107653
3119.2608,3.1932455853813524
3120.2488,2.717999987062142
3121.2361,4.4922694081163845
3122.2229,4.466055454627327
3123.209,3.0893596877555325
3124.1944,2.862183624001003
3125.1793,1.3845287489701548
3126.1635,3.5563965196475635
3127.1471,2.9277883791725268
3128.1301,2.948705735120371
3129.1125,2.1691499657885505
3130.0942,2.2891224199874607
3131.0753,0.8586244248360018
3132.0558,2.6276572845618507
3133.0357,1.6962222948064412
3134.015,3.4643207249346375
3134.9936,5.581953827349086
3135.9716,2.5991228198092227
3136.949,3.765828864254954
3137.9258,2.632073096634957
3138.902,4.497856615239621
3139.8775,2.713180492038605
3140.8524,3.1780457540230094
3141.8267,4.792453401052128
3142.8004,3.7064044012047948
3143.7735,-0.5301003253646837
3144.7459,4.982940104433955
3145.7178,2.7455318693932185
3146.689,6.107681098476222
3147.6596,3.3193938931907585
3148.6295,3.330676293967817
3149.5989,6.341534308044446
3150.5676,2.1019739093509333
3151.5357,2.8120010084022224
3152.5032,3.171621494693523
3153.4701,0.6308412296000356
3154.4364,1.8396660427807472
3155.402,4.8981017575862325
3156.367,5.906154178970407
3157.3315,5.613829062906175
3158.2952,3.971132106304893
3159.2584,4.178068949939632
3160.221,4.234645194872141
3161.1829,0.6908664003834799
3162.1442,2.446738083408259
3163.105,4.6522657539724275
3164.065,4.357454897634554
3165.0245,5.912310953430554
3165.9834,4.166839316821793
3166.9416,3.5710453241465294
3167.8993,4.074934270074629
3168.8563,8.428511413565511
3169.8127,2.3317819728292464
3170.7684,2.2847510817908003
3171.7236,4.037423851057314
3172.6782,4.289805368388423
3173.6321,6.591900681169527
3174.5854,3.3437147938879646
3175.5381,5.59525264511208
3176.4902,4.796519139973061
3177.4417,3.3975191276495766
3178.3926,5.148257409355098
3179.3428,4.598738752327913
3180.2924,2.548967872323729
3181.2415,3.148949439110872
3182.1899,3.198688096967989
3183.1377,5.248188458684234
3184.0848,5.197455105061879
3185.0314,4.946492564421317
3185.9773,1.9453053131083866
3186.9227,3.3438977780040022
3187.8674,6.142274366536027
3188.8115,2.090439452693347
3189.755,3.2883973490421043
3190.6979,2.7361523472440457
3191.6402,4.083708706076948
3192.5818,4.331070656957065
3193.5229,4.478242390463564
3194.4633,6.475228053864906
3195.4031,4.97203174964713
3196.3423,4.818657515543994
3197.2809,3.365109339568943
3198.2189,1.911391161548844
3199.1563,5.907506887659471
3200.0931,4.553460404962689
3201.0292,4.299255541445292
3201.9648,2.394896079559472
3202.8997,6.590385758764865
3203.834,2.735728294572148
3204.7677,7.7809273365881415
3205.7008,3.875986507062382
3206.6333,2.8709093504351353
3207.5652,4.665699372386801
3208.4964,2.910360049888687
3209.4271,4.904894813255104
3210.3571,2.6993070636967675
3211.2865,4.643600153375442
3212.2154,3.8877774074598226
3213.1436,1.3318421046826003
3214.0712,4.225797484898696
3214.9982,4.8696467746446075
3215.9246,3.463393158198859
3216.8503,5.107039771143508
3217.7755,1.5005897144266782
3218.7001,6.5440460379260985
3219.624,6.8374117765135995
3220.5473,3.2806898996205525
3221.4701,5.37388330830421
3222.3922,2.816994870814928
3223.3137,4.1600274016642285
3224.2346,6.152983687193682
3225.1549,3.3958664721445917
3226.0746,7.038678439728416
3226.9937,5.0314222391979495
3227.9121,4.974100449419205
3228.83,4.0667155989439685
3229.7473,6.109270166583023
3230.6639,4.201766590479998
3231.5799,2.7942072476858177
3232.4954,6.236594473233741
3233.4102,5.028930574214954
3234.3244,3.521217795354698
3235.238,5.263458331088908
3236.151,2.3056543406413432
3237.0634,5.247807930601177
3237.9752,6.039921184501042
3238.8864,3.3819961333954884
3239.797,5.774034747939856
3240.7069,7.216038964969525
3241.6163,5.058010663579527
3242.5251,5.899951650704502
3243.4332,2.891863682698986
3244.3408,2.6337484569179948
3245.2477,4.6256076417979095
3246.154,6.267442879437625
3247.0598,9.909255765679964
3247.9649,2.1510478336933136
3248.8694,4.792820517553512
3249.7733,6.534575229825907
3250.6766,2.9763133351476485
3251.5793,8.968036132810129
3252.4814,2.209744892341607
3253.3829,5.351440793589983
3254.2838,6.093124994305704
3255.1841,4.534798598724807
3256.0838,5.526462650152082
3256.9829,3.21811814654433
3257.8814,6.359766030593727
3258.7792,4.801407212811272
3259.6765,7.643042540110294
3260.5731,7.084672811390054
3261.4692,6.47629874911939
3262.3647,2.4679210049204054
3263.2595,5.95954016565222
3264.1538,2.7011567934947385
3265.0474,6.942771391032467
3265.9404,5.384384433838342
3266.8329,7.025996328057584
3267.7247,6.567607425991568
3268.616,6.1092180096817055
3269.5066,6.350828295493333
3270.3966,4.092438438699604
3271.286,5.08404853106539
