RamanShift,CorrectedData
30.1047,156.4031439412312
32.3739,145.4309251027715
34.6426,135.80870470028037
36.9109,123.83647971541707
39.1787,109.06424577175382
41.4461,97.941997254498
43.7131,89.21972745821446
45.9796,76.34742869804809
48.2456,67.42509239694638
50.5112,51.752709214382584
52.7764,42.880269135578985
55.0411,30.80776162823076
57.3054,24.185175731230395
59.5692,8.66250017539273
61.8326,-3.8102765503191343
64.0955,-11.133166043567098
66.3579,-20.556141837350342
68.6199,-26.729066244339275
70.8815,-36.20159622134737
73.1426,-37.57312170181636
75.4032,-25.39267096524174
77.6634,19.691103064366743
79.9231,142.27980113578224
82.1824,408.47502380086684
84.4412,885.3783701886848
86.6995,1509.1914353435502
88.9574,2114.165805455993
91.2148,2554.45305162463
93.4717,2751.354723806419
95.7282,2791.5723464137873
97.9842,2780.6074163456155
100.2398,2750.211402585061
102.4949,2721.785746309207
104.7495,2684.281861193022
107.0036,2645.101133693618
109.2573,2598.644923425289
111.5105,2548.2145635513166
113.7632,2465.1113612485333
116.0154,2388.386598211627
118.2672,2334.3415314841714
120.5185,2264.7273942258753
122.7693,2186.3453962530307
125.0197,2127.546724734657
127.2696,2071.53254497632
129.519,2042.0040010081175
131.7679,1994.412216144823
134.0163,1993.0082932811692
136.2642,1972.6433153677676
138.5117,1957.0683454251453
140.7587,1926.284426747398
143.0052,1875.2925830579381
145.2512,1844.9938188173328
147.4967,1800.4391197332247
149.7417,1743.2794530633173
151.9863,1706.215768060925
154.2304,1696.4489965465655
156.4739,1673.430053278601
158.717,1669.1098360509031
160.9596,1666.639225923043
163.2017,1663.1190872634938
165.4433,1655.9502677743367
167.6844,1640.4335985264624
169.925,1621.2198940312587
172.1651,1570.9599523957781
174.4047,1536.1045555148733
176.6439,1487.2544695738
178.8825,1456.110445396766
181.1206,1439.1232189354355
183.3582,1403.2935115803696
185.5954,1387.9720303308966
187.832,1383.7594681534092
190.0681,1366.9065041345807
192.3037,1363.1138035234899
194.5388,1340.6820179001502
196.7734,1338.2617852134376
199.0075,1336.1037300054081
201.2411,1341.0584634355005
203.4742,1331.6765833021154
205.7068,1350.4586739930717
207.9389,1343.8553065794208
210.1704,1330.7670386276288
212.4015,1317.094414265609
214.632,1312.387964313604
216.862,1309.7482064209134
219.0915,1299.2256451129565
221.3205,1277.4207718176717
223.549,1286.1840649707406
225.777,1269.1659902336378
228.0044,1258.1170004059973
230.2314,1248.037535595795
232.4578,1225.5780233298349
234.6837,1197.0888786545484
236.909,1200.1705043605857
239.1339,1162.2232912677096
241.3582,1151.7976181939769
243.582,1134.793852335213
245.8053,1125.1623493692664
248.0281,1124.7034536260485
250.2503,1103.4174981838464
252.472,1108.6048048739144
254.6932,1102.7656844933308
256.9139,1084.1504367531265
259.134,1076.459350336676
261.3536,1078.8427030858495
263.5727,1077.8507620779249
265.7912,1089.8837836017526
268.0092,1133.742013167677
270.2267,1154.9256853872034
272.4436,1156.8850235344198
274.6601,1155.9702393341568
276.8759,1173.681532942394
279.0913,1183.5190929554112
281.3061,1174.3830962326733
283.5204,1176.4737077984555
285.7341,1176.791080933201
287.9473,1176.0353571526175
290.16,1168.056666204501
292.3721,1133.8051260762952
294.5837,1104.1808430748772
296.7947,1071.2339121690725
299.0052,1051.6644172858994
301.2152,1033.5724316400372
303.4246,1013.308017929523
305.6334,986.7712285166688
307.8418,974.8621056307086
310.0495,950.6306816331637
312.2568,928.326979136935
314.4635,882.6510112486162
316.6696,851.0027817915329
318.8752,796.3822857624996
321.0802,775.0895096483043
323.2847,769.374431971913
325.4887,751.2370235053961
327.692,766.427247327081
329.8949,780.345059002924
332.0972,795.3904064346107
334.2989,812.463229720375
336.5001,790.663461004548
338.7007,765.1910243068289
340.9008,736.9958357402829
343.1003,686.5278037660648
345.2992,645.6868294753722
347.4976,614.8728070941243
349.6955,599.1356243913735
351.8927,583.3751629874439
354.0895,564.7912985113039
356.2856,544.7339007581709
358.4812,519.05283387535
360.6763,507.2479565628071
362.8707,514.9191223299817
365.0646,501.46617961383345
367.258,490.2889717021326
369.4508,493.0873368679879
371.643,511.3111084816187
373.8346,516.9101149823719
376.0257,531.2841796964831
378.2162,535.3831207810881
380.4062,537.4567510804814
382.5956,526.0548780851266
384.7844,483.7273039109207
386.9726,462.7238254132119
389.1603,440.8942346100753
391.3474,401.5883188923492
393.5339,402.4058612419292
395.7199,393.1466406248287
397.9052,400.71043198300254
400.09,417.3470063269399
402.2743,445.256130660026
404.4579,466.8375678121763
406.641,496.791076160747
408.8235,509.3164094147178
411.0054,537.6633163151591
413.1868,605.5815405099779
415.3675,658.5708202704482
417.5477,685.0308878120297
419.7273,603.3114687644747
421.9064,506.71228190722695
424.0848,457.88303998661604
426.2627,402.0734506818494
428.4399,372.93321709330485
430.6166,317.7620383006263
432.7928,293.2096096541254
434.9683,252.92562332649482
437.1432,230.6597685583315
439.3176,214.16173206097642
441.4914,197.98119823917295
443.6645,203.96784935604887
445.8371,194.17136569492004
448.0091,200.84142549942385
450.1806,197.6777050714852
452.3514,178.47987870461566
454.5216,158.59761871554952
456.6913,163.48059563622292
458.8603,156.628478412596
461.0288,157.9409343558243
463.1967,161.3676292107789
465.3639,147.35822714292158
467.5306,142.16239070403913
469.6967,131.92978097233708
471.8622,117.81005760439689
474.0271,124.10287893750274
476.1914,122.40790213083937
478.3551,111.77478310256402
480.5182,104.30317654675514
482.6807,108.0927360397452
484.8426,128.69311411483454
487.0039,139.20396222439695
489.1647,165.0249305338764
491.3248,197.70566781667708
493.4843,211.09582119595484
495.6432,187.19503581780918
497.8015,174.55295471738168
499.9592,147.36921905786403
502.1163,125.19346825691878
504.2728,81.92534025851705
506.4287,64.91447175469557
508.5839,54.16049861823808
510.7386,53.21305607278464
512.8927,53.72177880037043
515.0461,62.036300950901705
517.199,57.25625613706757
519.3512,88.73127735119465
521.5029,122.01099701304724
523.6539,155.74504665507834
525.8043,155.83305658963127
527.9541,139.57465557160003
530.1033,83.71947079754773
532.2519,54.41712806829264
534.3999,48.81725234745795
536.5472,36.06946805449593
538.694,46.32339912068824
540.8401,45.97830914332917
542.9856,59.13346125648104
545.1305,66.1381181344234
547.2748,89.14154186010114
549.4185,85.1429938550798
551.5615,89.99173464950786
553.704,91.3370239221058
555.8458,107.97812045167666
557.987,112.61428210365489
560.1276,121.84476566369358
562.2675,161.66882679130345
564.4069,202.18571992754846
566.5456,231.09469789680406
568.6837,211.1450115015914
570.8212,166.78590923348406
572.958,138.76663747260682
575.0942,111.5864409312253
577.2299,91.44456293394023
579.3648,60.24024568948812
581.4992,41.5727304921611
583.6329,49.94125803384918
585.766,59.84506859071507
587.8985,93.08340193950994
590.0304,104.00549725853534
592.1616,128.51059279525748
594.2922,130.69792575708948
596.4222,127.81673206633855
598.5515,86.36624633833321
600.6802,46.0457019102364
602.8083,31.254331255549005
604.9358,12.341366387315475
607.0626,5.306039006037963
609.1888,9.247457521967817
611.3144,28.914677338025967
613.4393,48.156661475032934
615.5636,93.62237266466286
617.6873,114.31077315702373
619.8103,152.52082426600055
621.9327,142.75148616237198
624.0544,121.75171749170863
626.1756,97.47047547206694
628.2961,53.70671610398654
630.4159,47.60939441330402
632.5351,37.877464888788836
634.6537,43.1098815431169
636.7716,27.90559801019117
638.8889,32.96356749281608
641.0056,36.83274291474049
643.1216,48.71207687007927
645.237,63.1005215846194
647.3518,43.4970287970275
649.4659,29.000549614965166
651.5793,19.210034711124308
653.6922,23.674434468192203
655.8043,-5.557300923243929
657.9159,5.213778490659706
660.0268,-5.213321818818258
662.137,-5.139596432536791
664.2466,-0.5159878502706761
666.3556,-7.093387227225776
668.4639,4.077319436108837
670.5716,-2.904682997817872
672.6786,-11.64020970732895
674.785,-5.580046852965779
676.8907,-12.374864309574832
678.9958,-11.425276207335173
681.1002,-16.731773051531718
683.204,1.9052687910586883
685.3072,-14.514359895929147
687.4097,-7.240868347911828
689.5115,5.125679198148873
691.6127,-6.014709158434471
693.7132,-3.7620253696068175
695.8131,0.8337986996318705
697.9123,4.722868766914644
700.0109,4.5552905415365785
702.1089,7.431169685564555
704.2061,28.550611815512184
706.3028,30.41372247358254
708.3987,55.77060691647239
710.4941,57.871370096740975
712.5887,71.06611640924211
714.6827,65.15494967011637
716.7761,57.487972984843736
718.8688,61.61528880735477
720.9608,58.686999016701066
723.0522,71.50320487578256
725.1429,89.31400706062823
727.233,116.71950553223564
729.3224,151.06979935846266
731.4112,177.01498643997274
733.4993,192.25516316673065
735.5867,172.74042415855297
737.6735,136.7208621127038
739.7596,103.04656799904478
741.845,99.41763142022933
743.9298,99.83414094844579
746.014,121.7461841617071
748.0974,133.25384763968623
750.1802,131.40721674459428
752.2624,119.55637550610413
754.3439,104.60140663981815
756.4247,83.89239166577454
758.5048,96.82941105799819
760.5843,108.46254445158979
762.6631,112.14187051335693
764.7413,136.11746682548142
766.8188,195.38940984872738
768.8956,229.3077746826841
770.9718,266.07263447304786
773.0473,274.3340600724382
775.1221,255.2921196727491
777.1962,240.4968787225339
779.2697,275.4484001174254
781.3426,328.24674434808924
783.4147,375.3919691507058
785.4862,384.8841289789897
787.557,328.0232745327362
789.6271,260.5594526628993
791.6966,167.34270694020108
793.7654,130.37307832977012
795.8335,99.65060612330831
797.901,60.67532830878713
799.9678,69.74728187767334
802.0339,60.716503214680415
804.0993,69.48302800704892
806.1641,67.79689133485522
808.2282,57.508127583345185
810.2916,43.81677045979677
812.3544,49.7728530964074
814.4164,35.226408187207085
816.4778,45.92746792849812
818.5385,49.52606416431877
820.5986,80.22222827943256
822.658,108.96599116334289
824.7166,144.3073829033308
826.7747,194.59643249701696
828.832,244.83316749894925
830.8886,279.61761351771156
832.9446,302.69979371355544
834.9999,283.92972845055783
837.0545,243.45743506579822
839.1085,192.43292805705892
841.1618,142.35621948754942
843.2143,112.57731949614981
845.2662,93.24623679817898
847.3175,89.66297898318271
849.368,84.07755270824498
851.4179,79.68996373382026
853.467,70.9502169795876
855.5155,86.7583165683269
857.5633,85.81426591331615
859.6105,88.26806756025053
861.6569,75.81972319668228
863.7027,72.36923362748382
865.7478,70.96659889933062
867.7922,68.51181833520616
869.8359,60.004890548428534
871.8789,61.69581346719781
873.9212,55.78458441966632
875.9629,63.97120011702839
878.0039,69.70565671263296
880.0441,73.33794972011765
882.0837,98.91807395606361
884.1226,107.94602350367302
886.1609,131.6717914569673
888.1984,161.9453698305083
890.2352,197.36674932213953
892.2714,193.0359190102514
894.3069,186.9028659995679
896.3416,149.41757546445365
898.3757,142.18003071024475
900.4091,117.94021354810195
902.4418,113.49810436738608
904.4739,134.05368237805635
906.5052,145.0569256550914
908.5358,140.40781093293322
910.5658,130.75631349545495
912.595,118.90240722245198
914.6236,92.54606468615702
916.6515,72.38725726977964
918.6786,61.07595543106868
920.7051,60.812128903900884
922.7309,61.64574681139368
924.756,63.47677766854349
926.7804,66.8051893738899
928.8041,72.03094919120497
930.8272,86.35402371620921
932.8495,87.6243788243147
934.8711,99.44197952739273
936.892,100.45678996107176
938.9123,114.71877326656033
940.9318,134.82789158050036
942.9506,143.1341058923457
944.9688,139.13737584327134
946.9862,115.53765964311174
949.003,91.98491411032785
951.019,93.07909490800432
953.0344,82.32015677937682
955.0491,76.70805353689082
957.063,66.54273816979037
959.0763,73.02416290023939
961.0888,72.50227928497475
963.1007,74.1770381504922
965.1119,71.29838959826509
967.1223,65.81628298799671
969.1321,64.2306669664066
971.1412,58.491489522051666
973.1495,57.54869800118263
975.1572,47.60223916513564
977.1641,71.90205919976017
979.1704,64.84810381488421
981.1759,61.54031800131497
983.1808,56.728646101379695
985.1849,54.8630318420021
987.1884,40.193418382820255
989.1911,54.819748334842075
991.1932,64.49196390714155
993.1945,55.16000676059525
995.1951,63.323817911160745
997.1951,62.68333782319564
999.1943,56.23850632781978
1001.1928,60.13926262931966
1003.1906,71.03554536959768
1005.1877,75.17729258916313
1007.1841,94.31444161817058
1009.1798,109.24692903500159
1011.1748,99.82469047489326
1013.1691,83.5476604806139
1015.1627,69.31577259668427
1017.1556,47.32895953214904
1019.1477,41.6371533028954
1021.1392,19.190285451520595
1023.1299,27.338287104251094
1025.12,27.081089195410414
1027.1093,30.318622385939875
1029.0979,39.30081706597025
1031.0859,51.427603322445975
1033.0731,71.99891084930425
1035.0596,66.81466882620612
1037.0454,59.12480571282401
1039.0304,44.079249300683955
1041.0148,39.977926790064544
1042.9985,29.420764940452273
1044.9814,20.757690111554666
1046.9636,16.13862836887199
1048.9452,19.863505570327902
1050.926,30.882247412459947
1052.9061,37.894779393171575
1054.8855,50.901026701543174
1056.8642,49.05091414770834
1058.8421,40.944366032789844
1060.8194,44.73130616740161
1062.7959,47.461657952713836
1064.7717,46.685344342584244
1066.7469,31.802287816253966
1068.7213,45.21241038611129
1070.695,48.165633746521735
1072.6679,69.56187913972678
1074.6402,93.201067326312
1076.6117,90.38311837124456
1078.5826,73.707951407481
1080.5527,58.12548466414728
1082.5221,29.435635633290758
1084.4908,24.63832122570375
1086.4587,14.233458057823213
1088.426,12.320962499703114
1090.3925,2.700750779063128
1092.3584,11.472739000413412
1094.3235,6.336843241256929
1096.2879,22.742979464369455
1098.2515,44.84106356915879
1100.2145,62.8810112276027
1102.1767,77.91273766326879
1104.1382,98.88615747091524
1106.099,125.25118446617307
1108.0591,147.25773147581253
1110.0185,174.4057100740922
1111.9771,199.79503036269352
1113.9351,230.1256006992419
1115.8923,261.5973274434119
1117.8488,278.41011465362317
1119.8045,251.11386377232202
1121.7596,202.45847345785376
1123.7139,145.1938398574257
1125.6675,115.56985709366018
1127.6204,104.98641783724258
1129.5726,113.7434136031593
1131.524,127.64073485653307
1133.4748,103.22827092505304
1135.4248,69.60590986000102
1137.3741,48.523538680376305
1139.3226,25.431043709119763
1141.2705,30.228310783936763
1143.2176,33.91522548822263
1145.164,40.1916731030899
1147.1097,44.307538570498764
1149.0546,29.462706430493427
1150.9989,20.457060780042866
1152.9424,7.19048542148937
1154.8852,-5.187136047394915
1156.8272,-12.625920100742292
1158.7686,-8.975931393195651
1160.7092,-3.9871084464572277
1162.6491,0.3906998873255816
1164.5883,2.5576845872187732
1166.5267,15.064036628381132
1168.4644,30.809946960394882
1170.4014,42.095606382202504
1172.3377,64.57120538464687
1174.2732,95.4869340376149
1176.2081,144.49298176528202
1178.1421,198.08953703695488
1180.0755,276.1267868770103
1182.0082,318.8049163289303
1183.9401,305.42410767492913
1185.8713,248.88454000917272
1187.8017,181.386389371586
1189.7315,122.27982931324846
1191.6605,72.06503157137627
1193.5888,48.79216666038735
1195.5163,39.561404374049744
1197.4432,20.17291401820978
1199.3693,12.476864503100046
1201.2947,5.573424537224582
1203.2193,3.4627627043183793
1205.1432,-1.8049524676173405
1207.0664,-1.6795524852087738
1208.9889,7.689149176392675
1210.9106,-0.7986441792351116
1212.8316,-3.7427293254060032
1214.7519,5.4571049430217045
1216.6715,10.751107221054895
1218.5903,27.589526049129972
1220.5084,28.57260986017309
1222.4257,36.15060681121531
1224.3424,44.47376477356181
1226.2583,51.59233125701223
1228.1735,78.70655332662875
1230.0879,82.21667753155032
1232.0016,108.72294963385059
1233.9146,125.42561457343606
1235.8269,137.22491620298388
1237.7384,135.52109712091521
1239.6492,136.51439855340197
1241.5592,152.0550603714055
1243.4686,174.8433210807433
1245.3772,215.22941766668248
1247.285,259.26358536605755
1249.1922,303.6460572634087
1251.0986,344.3770638506404
1253.0042,374.1068325831968
1254.9092,428.38558747275204
1256.8134,473.5635487899117
1258.7169,517.2409325214255
1260.6196,550.4179499184087
1262.5216,557.2448070595661
1264.4229,556.9717045194245
1266.3234,535.5488373000619
1268.2232,515.0263948338401
1270.1223,479.10456119763194
1272.0207,452.3335153180475
1273.9183,444.7134313306507
1275.8151,454.6444788476706
1277.7113,468.52682303420204
1279.6067,521.3606245088951
1281.5014,585.5460392051315
1283.3953,687.7332178426878
1285.2885,801.1723052858798
1287.181,875.263439521692
1289.0727,901.5567505253854
1290.9637,881.7523595195871
1292.854,822.6503787113579
1294.7435,751.0509114902342
1296.6323,691.7040530192493
1298.5204,642.059890950928
1300.4077,590.3685060207541
1302.2943,564.1299725436136
1304.1802,559.2943589307079
1306.0653,534.661727951938
1307.9497,521.582136784262
1309.8333,506.80563725802125
1311.7162,488.5822759877354
1313.5984,477.7120945198683
1315.4798,456.59512951506144
1317.3605,461.8814128568354
1319.2405,459.1709718627597
1321.1197,462.66382923158983
1322.9982,440.9100030703721
1324.876,399.3595068595147
1326.753,356.71234967032575
1328.6293,308.26853658051874
1330.5048,257.87806910068383
1332.3796,221.94094565872592
1334.2537,194.15716210376956
1336.127,156.67671206553035
1337.9996,144.54958723215248
1339.8714,140.77577772501309
1341.7426,126.60527221999365
1343.6129,131.63805798521838
1345.4826,122.47412102275865
1347.3515,104.61344601830581
1349.2196,106.60601643280978
1351.087,98.20181468108655
1352.9537,102.50082211189192
1354.8197,103.85301909196403
1356.6849,110.45838496303315
1358.5493,119.41689802829939
1360.4131,131.32853548637956
1362.276,150.04327334172154
1364.1383,172.11108628548806
1365.9998,181.7319475084097
1367.8606,177.85582848010597
1369.7206,176.1326988528778
1371.5799,168.51252650046786
1373.4384,172.59527753529204
1375.2962,158.8809163846414
1377.1533,126.86940574985431
1379.0096,101.01070674346033
1380.8652,80.60477920929497
1382.7201,71.15158198108725
1384.5742,58.00107308651832
1386.4275,48.20320984175413
1388.2802,44.4579489829498
1390.132,32.16524676422864
1391.9832,27.375058995134737
1393.8336,29.23734116355979
1395.6832,22.552048483645024
1397.5322,20.969135877158408
1399.3803,11.888558040347391
1401.2278,15.560269459768335
1403.0745,8.934224503092082
1404.9204,4.260377382386935
1406.7656,0.9886822203792462
1408.6101,-3.280906902808283
1410.4538,0.15156408306046387
1412.2968,-2.1639179755187
1414.139,1.5226322538247814
1415.9805,-0.3387782789985181
1417.8213,7.051857360695919
1419.6613,21.744549491987584
1421.5006,42.98930836343743
1423.3391,51.83614400616142
1425.1769,86.03506602138259
1427.0139,121.23608349196286
1428.8502,173.8392046404134
1430.6858,211.69443647688485
1432.5206,229.10178427313633
1434.3547,231.46125118398226
1436.188,212.77283807321982
1438.0206,212.83654349003336
1439.8524,201.95236385587958
1441.6835,197.7202934638495
1443.5139,209.4903245875106
1445.3435,208.31244752322783
1447.1724,211.63665047246326
1449.0005,206.81291955355414
1450.8279,206.5412387684716
1452.6545,202.02159005105761
1454.4804,203.15395326974232
1456.3056,199.38830627273978
1458.13,183.12462487672502
1459.9536,173.5128829044903
1461.7766,161.50305234758156
1463.5987,137.94510346241572
1465.4202,127.53900489037966
1467.2409,98.3847238934091
1469.0608,90.38222645804984
1470.88,69.88147758700069
1472.6984,62.98244137913838
1474.5161,47.38508123452522
1476.3331,42.18935992339925
1478.1493,40.74523974214782
1479.9648,38.652682565265025
1481.7795,34.81164985979257
1483.5935,45.12210270624553
1485.4067,35.33400183702247
1487.2192,40.197307533301
1489.031,42.911979722919
1490.842,44.37797793174093
1492.6522,39.39526125651139
1494.4618,40.71378835019527
1496.2705,38.63351747180485
1498.0785,42.95440647321476
1499.8858,34.1264128199648
1501.6924,39.1494935480506
1503.4981,32.32360535220391
1505.3032,34.448704535662046
1507.1075,33.724747078426105
1508.911,27.60168861601062
1510.7138,25.929484446682636
1512.5159,22.70808959269266
1514.3172,22.1374588169964
1516.1178,20.267546655468664
1517.9176,9.798307422609867
1519.7166,17.129695230245318
1521.515,13.46166409221729
1523.3126,13.094167851071461
1525.1094,8.077160214736637
1526.9055,13.710594760200479
1528.7008,10.744424983678982
1530.4954,10.42860424428261
1532.2893,10.963085793677465
1534.0824,5.097822779243927
1535.8747,6.182768238731455
1537.6663,6.3678751589113745
1539.4572,8.053096464727673
1541.2473,2.9883850174454665
1543.0367,7.923693597799058
1544.8253,10.858974956639372
1546.6132,12.494181765580265
1548.4003,15.77926658764585
1550.1867,22.9641818609187
1551.9723,26.398879865688855
1553.7572,31.4333126526044
1555.5414,42.61743200832507
1557.3247,54.70118940517739
1559.1074,76.93453588931385
1560.8893,92.1674219598753
1562.6705,112.14979734665718
1564.4509,131.18161085778104
1566.2305,133.3128101798705
1568.0094,137.59334168773302
1569.7876,144.1231504230483
1571.565,137.50218005156273
1573.3417,136.3803727977911
1575.1176,146.65766951122646
1576.8928,150.4340096775582
1578.6672,154.30933131589927
1580.4409,169.38357094102253
1582.2138,191.0066635246078
1583.986,218.12854234449924
1585.7575,223.99913876847455
1587.5282,252.36838198302598
1589.2981,259.1361989346547
1591.0673,266.0525140461779
1592.8358,269.1672491490509
1594.6035,271.23032341420424
1596.3704,269.2416533208959
1598.1366,254.4511526360808
1599.9021,247.8087324342975
1601.6668,232.61430124557324
1603.4308,225.76776512184807
1605.194,228.21902778891916
1606.9564,236.86799071490623
1608.7182,269.3145530857387
1610.4791,308.8086117186664
1612.2394,356.3500607377934
1613.9988,407.6887911791381
1615.7576,450.7246905152185
1617.5156,465.0576421416647
1619.2728,456.03752494685983
1621.0293,408.9642131686111
1622.785,351.78757648435044
1624.54,292.0574804818675
1626.2942,247.07378723107678
1628.0477,196.88635588131768
1629.8005,161.84504311119218
1631.5525,132.34970363043857
1633.3037,104.450190530345
1635.0542,85.64635557870272
1636.804,72.98804949880122
1638.553,60.82512215746644
1640.3013,57.30742269164398
1642.0488,49.93479963002835
1643.7955,37.557100928239834
1645.5416,40.22417404255094
1647.2868,28.485866053663017
1649.0313,30.192023640035984
1650.7751,25.292493195271106
1652.5181,26.93712081104951
1654.2604,26.075752326127514
1656.0019,33.80823330989037
1657.7427,35.73440907096591
1659.4828,46.55412457989971
1661.222,59.367224449893314
1662.9606,82.02355282860702
1664.6984,89.62295327002894
1666.4354,100.31526850791198
1668.1717,97.05034037977927
1669.9072,75.6780097200016
1671.642,59.29811639244633
1673.3761,37.660499504201084
1675.1094,27.864997569372207
1676.8419,19.961448725461253
1678.5737,13.949690831319998
1680.3048,9.22956154618575
1682.0351,6.050898389799073
1683.7646,5.063538789605019
1685.4934,3.7173201125396247
1687.2215,5.212079674903805
1688.9488,1.8976547558253856
1690.6754,0.6238825823114382
1692.4012,1.1406003623926892
1694.1263,3.797645297860953
1695.8506,-2.9551454208979067
1697.5742,-0.2679346414742554
1699.297,2.4091443104441055
1701.0191,-1.2240392141635823
1702.7404,4.78238411159046
1704.461,-7.571704157254288
1706.1808,-1.1864225134822846
1707.8999,0.18818619144653326
1709.6182,-3.947909041567101
1711.3358,0.7052607864958134
1713.0527,0.19770411426557644
1714.7688,-2.9205706266800746
1716.4841,-1.3995550067403428
1718.1987,1.610788580186039
1719.9126,-1.1894882782452214
1721.6257,-0.35033401048616497
1723.338,4.778314837998948
1725.0496,1.8965252215825217
1726.7605,0.6543640468540843
1728.4706,2.9518982014377855
1730.18,1.8891945664142042
1731.8886,1.816319993345246
1733.5964,6.983341314900798
1735.3036,10.040325345587632
1737.0099,9.237338830079267
1738.7156,5.9244484126461145
1740.4204,4.351720645185253
1742.1246,5.869222020349241
1743.8279,9.427018987273613
1745.5306,6.625177936401627
1747.2325,9.563765163906538
1748.9336,13.34284689970994
1750.634,9.812489278095825
1752.3336,8.922758299919792
1754.0325,11.923719867912467
1755.7307,10.765439795576953
1757.4281,14.19798377717916
1759.1247,16.971417399330534
1760.8206,12.135806106662585
1762.5158,16.041215174092855
1764.2102,10.487709755180902
1765.9039,9.925354843074217
1767.5968,11.70421532604334
1769.289,18.22435599310529
1770.9804,14.685841516235143
1772.6711,17.838736385164395
1774.361,14.183104942766278
1776.0502,23.219011353526696
1777.7386,14.746519640100615
1779.4263,17.765693592953056
1781.1132,17.57659685508378
1782.7994,17.82929289183585
1784.4849,18.973844992786383
1786.1696,14.710316269219618
1787.8535,19.288769642681387
1789.5367,22.609267887614465
1791.2192,14.22187358557386
1792.9009,22.776649092022097
1794.5818,20.623656620202922
1796.2621,19.06295815559386
1797.9415,14.594615477435767
1799.6202,23.768690174340037
1801.2982,20.28524368897199
1802.9755,22.994337226310023
1804.6519,18.446031788480298
1806.3277,21.94038814766556
1808.0027,24.27746689158839
1809.6769,26.60732838856751
1811.3504,21.380032764147103
1813.0231,19.49563987779807
1814.6951,25.704209375191013
1816.3664,22.105800707040203
1818.0369,20.700473067017867
1819.7067,23.088285427738313
1821.3757,22.569296554811217
1823.044,26.29356498296346
1824.7115,21.561149021229
1826.3783,23.5221067157062
1828.0443,25.226495896881985
1829.7096,22.1243741600222
1831.3741,26.915798848127835
1833.0379,25.350827082956144
1834.701,23.379515717106457
1836.3633,30.001921349669914
1838.0248,24.168100345942577
1839.6856,26.228108771201263
1841.3457,24.38200244904189
1843.005,24.72983694077932
1844.6636,23.6716675639085
1846.3214,27.107549388625998
1847.9785,26.037537248411866
1849.6349,25.811685705670627
1851.2904,23.98004906243162
1852.9453,24.692681362607217
1854.5994,25.499636410309492
1856.2528,30.50096776272369
1857.9054,24.346728722038733
1859.5572,23.08697228543383
1861.2083,26.721751206620965
1862.8587,27.501118008442532
1864.5084,31.275124946523377
1866.1572,27.79382400147712
1867.8054,27.7072668411663
1869.4528,29.01550485551519
1871.0994,30.5685891573754
1872.7453,22.71657056944362
1874.3905,27.45949960873061
1876.0349,20.947426565081514
1877.6786,25.780401453746506
1879.3215,24.208474080501645
1880.9637,29.431693993318973
1882.6051,27.300110498085928
1884.2458,25.86377260637296
1885.8858,30.122729056749463
1887.525,25.077028329147254
1889.1634,22.92671860227084
1890.8011,26.521847804054573
1892.4381,29.912463633165643
1894.0743,26.598613523052805
1895.7098,27.930344608040244
1897.3446,26.557703756466026
1898.9786,27.2807375573648
1900.6118,21.949492334194304
1902.2443,29.864014137604855
1903.8761,24.974348798751933
1905.5071,24.780541850150883
1907.1374,31.13263857457352
1908.7669,26.380684006986343
1910.3957,27.97472287102947
1912.0237,25.46479962653622
1913.651,27.400958453592736
1915.2776,28.83324327763718
1916.9034,27.11169775009823
1918.5285,24.886365234072173
1920.1528,27.857288821538376
1921.7764,24.574511355612614
1923.3992,32.68807540083779
1925.0213,24.648023276011855
1926.6427,22.154396973051988
1928.2633,28.807238237395197
1929.8832,21.15658859293451
1931.5023,23.40248927549068
1933.1207,22.94498130931855
1934.7383,23.984105484648097
1936.3552,27.91990236225945
1937.9714,23.2024122630918
1939.5868,26.581675228885246
1941.2015,25.957731069355845
1942.8154,28.180619328402926
1944.4286,24.900379290348596
1946.041,20.91704995770877
1947.6528,23.830670083995628
1949.2637,24.24127821355087
1950.8739,25.048912652409513
1952.4834,27.103611464193918
1954.0921,25.90541246203729
1955.7001,22.654353188036765
1957.3074,23.300470925235416
1958.9139,22.9938027301328
1960.5197,25.384385426223787
1962.1247,25.172255607065253
1963.729,21.657449612370257
1965.3325,19.840003530129337
1966.9353,25.16995323175857
1968.5374,19.997334390273977
1970.1387,21.222182426992134
1971.7393,16.84453256325625
1973.3392,19.51441980818781
1974.9383,22.081879002462983
1976.5366,22.046944791613825
1978.1342,22.609651600353615
1979.7311,23.770033632926214
1981.3273,21.728124867478968
1982.9227,25.28395904445894
1984.5173,20.63756968703194
1986.1112,23.088990065524314
1987.7044,19.2882532438866
1989.2968,20.435392055179534
1990.8885,23.930439139581296
1992.4795,24.723426932916198
1994.0697,24.9643876317042
1995.6592,22.50335318523109
1997.2479,23.490355293138762
1998.8359,19.7254254300357
2000.4232,21.70859483562677
2002.0097,18.73989455236277
2003.5955,19.31935540560849
2005.1805,22.34700803332987
2006.7648,20.272882880299235
2008.3484,21.897010167818863
2009.9312,19.469419914462236
2011.5133,17.69014191983277
2013.0946,20.35920578883973
2014.6752,23.026640949490954
2016.2551,20.24247662620229
2017.8342,23.90674181312326
2019.4126,24.619465301978664
2020.9902,18.830675645425885
2022.5672,20.99040114992775
2024.1433,16.548669933640326
2025.7188,21.755509904815767
2027.2935,22.5609488062195
2028.8674,25.96501416306195
2030.4406,20.567733274944032
2032.0131,20.619133181816608
2033.5849,18.819240717953278
2035.1559,20.818082511436273
2036.7261,23.665685002155513
2038.2957,20.212074421820063
2039.8645,19.85727676548217
2041.4325,20.501317826073432
2042.9998,22.294223197952604
2044.5664,21.286018270465405
2046.1323,19.376728210015244
2047.6974,20.76637797014544
2049.2617,18.354992310632056
2050.8254,20.992595783587362
2052.3883,20.279212757573816
2053.9504,20.514867391227938
2055.5118,22.29958364039416
2057.0725,17.08338525576832
2058.6325,18.866295765050467
2060.1917,20.048338525106814
2061.7502,18.379536704140676
2063.3079,20.009913269871973
2064.8649,18.939491006225268
2066.4212,17.71829249702604
2067.9767,21.896340136704865
2069.5315,24.023656142509466
2071.0856,22.15026251272414
2072.6389,22.22618100539674
2074.1915,18.401433157072518
2075.7433,20.476040282034973
2077.2945,21.65002351055331
2078.8448,20.07340376813633
2080.3945,20.346201763792763
2081.9434,21.818438005797248
2083.4916,20.89013279896251
2085.039,18.36130622991692
2086.5857,19.23197817638753
2088.1317,22.052168332488364
2089.677,20.521896200013757
2091.2215,20.941181060236346
2092.7652,15.310041989209907
2094.3083,15.628497853576363
2095.8506,21.946567366877247
2097.3921,19.514269086369197
2098.933,14.98162134984321
2100.4731,20.048642299947602
2102.0124,20.715349929514545
2103.5511,15.981762030889868
2105.089,18.49789618926596
2106.6261,21.01376983001768
2108.1626,20.629400193540988
2109.6983,19.69480431009417
2111.2332,19.60999900364149
2112.7675,20.72500090119921
2114.301,19.639826433683567
2115.8337,21.004491824760905
2117.3657,18.969013101699304
2118.897,19.883406081721944
2120.4276,17.497686392361928
2121.9575,18.66186946231835
2123.4866,22.62597054531342
2125.0149,18.39000470845079
2126.5426,19.35398679257439
2128.0695,17.967931454628143
2129.5956,20.131853158016185
2131.1211,17.995766186463385
2132.6458,21.109684622376065
2134.1698,15.723622368202925
2135.693,18.13759311529587
2137.2155,19.451610397770636
2138.7373,16.915687568367034
2140.2584,17.37983778530881
2141.7787,19.944074037662844
2143.2983,18.458409140697682
2144.8171,18.02285571024119
2146.3353,15.437426177537148
2147.8527,15.152132793600813
2149.3693,18.816987655073248
2150.8853,18.932002707074147
2152.4005,15.14718970655342
2153.9149,15.712560221140961
2155.4287,14.42812566699483
2156.9417,16.84389730314747
2158.454,19.95988624435006
2159.9655,16.676103436914843
2161.4764,16.492559627555295
2162.9865,10.859265396223861
2164.4958,19.576231157947433
2166.0045,21.093467219160374
2167.5124,18.310983690534727
2169.0195,15.928790471807858
2170.526,12.796897279607379
2172.0317,17.065313671273046
2173.5367,16.584049076175674
2175.0409,18.653112753032985
2176.5445,18.922513794722263
2178.0473,14.59226110758975
2179.5494,18.412363408756548
2181.0507,14.882829269421208
2182.5513,13.45366707665869
2184.0512,15.374885068715699
2185.5504,14.84649134930227
2187.0488,17.31849386837969
2188.5465,18.040900427444328
2190.0435,16.36371865480764
2191.5397,16.436955998372127
2193.0353,15.4106197424031
2194.5301,12.284717006796356
2196.0241,15.359254757341475
2197.5175,19.13423983698094
2199.0101,12.65967893506469
2200.502,12.785578549600302
2201.9931,15.51194505199858
2203.4835,16.23878468581455
2204.9733,16.666103539483828
2206.4622,11.193907539054166
2207.9505,14.922202443912369
2209.438,16.6009939015063
2210.9248,14.53028741006176
2212.4109,11.610088301794718
2213.8962,13.340401763618274
2215.3809,13.121232866344599
2216.8648,10.552586547382006
2218.3479,13.084467612926431
2219.8304,11.716880763648064
2221.3121,9.29983056937246
2222.7931,17.933321482756398
2224.2733,13.717357863458375
2225.7529,13.601943891803685
2227.2317,12.837083610944063
2228.7098,11.472780928011801
2230.1872,14.009039621768409
2231.6638,14.295863356247594
2233.1397,11.983255655392696
2234.6149,16.171219900188404
2236.0894,11.809759351786937
2237.5632,11.948877109628313
2239.0362,13.238576155054943
2240.5085,13.778859349920566
2241.9801,8.86972942369313
2243.4509,9.811188968052065
2244.921,9.303240485979472
2246.3904,14.595886382345654
2247.8591,9.189128968988513
2249.3271,8.532970411787119
2250.7943,11.327412784729262
2252.2608,13.572458076473055
2253.7266,10.068108162402496
2255.1917,8.764364782176997
2256.656,6.411229574774978
2258.1197,9.958704091531189
2259.5826,11.456789819668188
2261.0447,8.605488146821429
2262.5062,9.954800346058576
2263.9669,9.304727604392397
2265.4269,11.555271009287694
2266.8862,9.456431555161956
2268.3448,9.308210120880034
2269.8026,8.860607490742481
2271.2598,11.51362435596782
2272.7162,8.067261319168523
2274.1719,8.92151886782085
2275.6268,9.976397408728474
2277.0811,9.8818972594799
2278.5346,11.438018637899773
2279.9874,7.59476166299379
2281.4395,10.252126339387488
2282.8908,9.010112595758855
2284.3414,7.768720258264622
2285.7914,7.477949062960477
2287.2406,7.487798668214921
2288.689,10.348268657617055
2290.1368,9.159358539877985
2291.5838,9.17106772022619
2293.0302,8.43339551229657
2294.4758,11.896341138013398
2295.9206,10.509903734966997
2297.3648,9.224082321784337
2298.8082,10.638875811993373
2300.251,6.754283026881254
2301.693,6.970302681346411
2303.1343,8.386933422744477
2304.5748,8.554173828728096
2306.0147,10.97202239308065
2307.4538,10.890477524043774
2308.8922,6.909537520138869
2310.3299,10.679200570982601
2311.7669,8.999464797096223
2313.2031,8.520328212209108
2314.6387,8.091788740055932
2316.0735,5.513844219168149
2317.5076,7.486492407159332
2318.941,8.509731006504651
2320.3737,6.783557644814351
2321.8056,6.957969864601438
2323.2369,9.232965140543328
2324.6674,13.60854087773781
2326.0972,12.184694388953005
2327.5263,13.96142285087167
2328.9547,17.838723318329656
2330.3823,14.01659270654865
2331.8092,10.895027752363106
2333.2355,5.874025052441567
2334.661,5.303581094502363
2336.0858,9.733692307523498
2337.5098,4.764355067447283
2338.9332,7.945565652879104
2340.3558,6.977320294780753
2341.7778,10.409615144658474
2343.199,5.442446284245328
2344.6195,6.7258096911782275
2346.0393,8.259701288669632
2347.4583,3.294116932673944
2348.8767,4.029052396548529
2350.2943,1.6645034207096643
2351.7113,7.050465705283102
2353.1275,2.986934933749616
2354.543,7.27390671908536
2355.9578,10.761376644397167
2357.3718,4.299340220052898
2358.7852,3.8377928488067
2360.1978,6.276729890419325
2361.6098,5.166146666273654
2363.021,8.906038434985334
2364.4315,9.046400403508677
2365.8413,3.687227689737661
2367.2504,6.078515321102259
2368.6587,6.870258288160166
2370.0664,5.362451520683962
2371.4733,1.3550898797436872
2372.8795,5.848168172784867
2374.285,5.791681193702189
2375.6899,4.085623677908728
2377.0939,5.329990302900761
2378.4973,8.17477570531836
2379.9,5.319974468501712
2381.3019,7.6155810940433
2382.7032,3.5615900303358288
2384.1037,2.5579956496163305
2385.5035,4.204792288505935
2386.9027,7.201974258045816
2388.3011,6.799535827229235
2389.6987,4.847471193029797
2391.0957,6.2457744844257235
2392.492,3.5944397819205705
2393.8876,3.243461103560172
2395.2824,5.142832431446003
2396.6765,7.292547715245
2398.07,6.642600853195802
2399.4627,5.742985670611581
2400.8547,0.9936959263795515
2402.246,1.3947253219570896
2403.6366,2.24606754886468
2405.0265,5.1477162846755675
2406.4156,2.249665184502348
2407.8041,3.851907851980471
2409.1918,6.454437868248775
2410.5789,4.107248775927005
2411.9652,2.3103340530905427
2413.3508,2.813687136742317
2414.7358,4.417301440781934
2416.12,3.4211703509721616
2417.5035,3.8752872089027903
2418.8863,0.9296453219519378
2420.2684,4.884237958744869
2421.6497,5.689058378610419
2423.0304,3.794099792035084
2424.4104,3.1493553526147977
2425.7896,3.7548181760044983
2427.1682,3.1604813463655717
2428.546,2.8663379103113016
2429.9232,1.672380882850149
2431.2996,1.6286032503272168
2432.6753,2.834997982363774
2434.0503,1.6915580322951271
2435.4246,1.648276325106572
2436.7982,2.905145768867868
2438.1711,1.2121592551659859
2439.5433,3.119309646536479
2440.9148,2.826589793393339
2442.2856,0.033992514957468245
2443.6557,0.49151060218389375
2445.025,4.999136845687744
2446.3937,4.60686403116906
2447.7617,1.9146848943365242
2449.1289,0.4225921248301887
2450.4955,2.8305783931432416
2451.8613,0.5886363655429747
2453.2265,1.8967586799909384
2454.5909,4.254937968562274
2455.9546,2.463166844364615
2457.3177,4.171437877956208
2458.68,1.879743615263692
2460.0416,3.1880765604993684
2461.4025,4.496429199078136
2462.7627,3.0047939845341674
2464.1222,5.363163325437348
2465.4811,4.97152960030968
2466.8392,-0.07011486595847316
2468.1966,4.488222201807993
2469.5533,5.846533779231635
2470.9093,5.90481279705282
2472.2645,-0.3869478724533906
2473.6191,5.371244583939941
2474.973,4.879386845068993
2476.3262,7.8374755360574895
2477.6787,3.69550723323529
2479.0305,0.503478434557536
2480.3816,0.6613856010242927
2481.7319,2.119225188600822
2483.0816,3.2269936466385474
2484.4306,3.2346874032967037
2485.7789,5.092302854464563
2487.1264,3.199836363684554
2488.4733,5.957284243576105
2489.8195,3.91464277476031
2491.165,3.7719081782854076
2492.5097,6.329076636053273
2493.8538,5.386144292246698
2495.1972,7.693107227757665
2496.5398,4.049961469616754
2497.8818,3.556702967923499
2499.2231,1.66332763227782
2500.5637,-0.1301686632873782
2501.9035,4.076209938627585
2503.2427,4.632460595807274
2504.5812,3.8385804252741735
2505.919,3.1445664977262098
2507.256,5.350415845475503
2508.5924,5.056125469388533
2509.9281,3.8116923168276458
2511.2631,2.167113284593931
2512.5974,4.472385231371582
2513.9309,2.727504994173678
2515.2638,4.1324693652894595
2516.596,4.2872751097331445
2517.9275,6.291918951194269
2519.2583,5.1963975704896725
2520.5884,2.6507075855170044
2521.9178,1.254845562209951
2523.2465,7.908808039995158
2524.5745,3.6125915457508526
2525.9018,6.766192527267194
2527.2284,3.4196073962084554
2528.5543,4.772832496576996
2529.8796,6.325864138179156
2531.2041,2.9786985830929495
2532.5279,4.7313320301377715
2533.851,0.08376064834605756
2535.1735,3.9359805594369277
2536.4952,2.2379878842919183
2537.8163,1.6897787044327828
2539.1366,4.841349079001432
2540.4562,4.4926950502419984
2541.7752,4.893812611985155
2543.0935,6.594697713134622
2544.411,2.495346253655981
2545.7279,2.5957540675678743
2547.0441,5.245916963935493
2548.3596,2.5958307258664846
2549.6744,3.6454910840093433
2550.9885,1.3948937430542614
2552.3019,6.644034371236572
2553.6146,5.342908622842671
2554.9266,7.491512085718647
2556.2379,3.4898402942815068
2557.5485,3.937888708033171
2558.8585,4.985652751577213
2560.1677,3.933127810138302
2561.4762,4.880309219084559
2562.7841,6.177192274452892
2564.0913,2.523772223477131
2565.3977,4.020044251619211
2566.7035,3.2660035191033856
2568.0086,6.411645145953486
2569.313,7.0569642195333415
2570.6167,4.801955763090355
2571.9197,3.84661472930231
2573.222,3.390936022827418
2574.5236,4.234914509857781
2575.8246,4.878545022676143
2577.1248,5.1718223512161146
2578.4244,5.714741236625841
2579.7232,4.407296368335281
2581.0214,5.649482378626978
2582.3189,5.541293855710528
2583.6157,7.782725331300725
2584.9118,4.373771281699419
2586.2072,5.314426105381244
2587.5019,2.104684157083085
2588.7959,3.6445397383976257
2590.0893,4.633987129870711
2591.3819,8.7730205756028
2592.6739,7.461634273354505
2593.9652,4.649822333156237
2595.2557,8.637578790422062
2596.5456,7.024897634067862
2597.8348,6.311772766633759
2599.1234,5.298198020410915
2600.4112,4.6841671645727985
2601.6983,5.019673915310889
2602.9848,6.40471194197503
2604.2705,7.789274863718347
2605.5556,8.073356235646841
2606.84,7.506949534973785
2608.1237,7.090048158178881
2609.4067,7.472645426672358
2610.689,4.754734590963984
2611.9707,8.236308826837082
2613.2516,5.867361262527659
2614.5319,5.497884943908623
2615.8115,7.577872858179298
2617.0903,5.707317937560163
2618.3685,8.03621303849301
2619.6461,8.06455096034643
2620.9229,7.892324422126919
2622.199,7.36952606219549
2623.4745,6.246148439989909
2624.7493,6.322184041252733
2626.0234,2.2476252892650237
2627.2968,7.772464544086041
2628.5695,6.696694143298814
2629.8415,7.320306346761704
2631.1128,7.3932933473661855
2632.3835,6.615647264800682
2633.6535,8.087360144820682
2634.9228,4.70842396702524
2636.1914,4.978830630139811
2637.4593,8.59857198580563
2638.7265,1.367639835875643
2639.9931,5.686025896217085
2641.259,1.9037218690207922
2642.5242,7.1707193996173615
2643.7887,6.287010114300184
2645.0525,7.7025855676554755
2646.3156,4.217437251399378
2647.5781,6.381556580222167
2648.8398,7.144934926639788
2650.1009,2.3575635993526305
2651.3613,4.969433835611742
2652.6211,3.730536849092548
2653.8801,6.840863803776138
2655.1385,4.150405826338236
2656.3961,-0.5908460249540539
2657.6531,7.317099266662339
2658.9094,4.0242386205022775
2660.1651,6.630568882709621
2661.42,2.9360868591858846
2662.6743,7.24078928952688
2663.9279,3.0946728839675828
2665.1808,2.2477342803350737
2666.433,4.549970085509699
2667.6846,3.2013768838945147
2668.9354,7.601951214392852
2670.1856,5.451689583894318
2671.4351,7.100588423269016
2672.6839,8.798644108870139
2673.9321,6.145852946045039
2675.1795,6.19221115215462
2676.4263,6.48771488310128
2677.6724,8.232360232865329
2678.9179,2.4261432305499433
2680.1626,7.119059822934705
2681.4067,5.761105932537795
2682.6501,8.05227741068678
2683.8928,5.892570051098215
2685.1348,5.081979566965867
2686.3761,5.370501612557817
2687.6168,6.658131791322358
2688.8568,7.394865653002803
2690.0961,5.83069868076112
2691.3348,5.065626283810676
2692.5727,5.649643813057846
2693.81,8.032746568752742
2695.0466,6.914929794649076
2696.2826,9.946188654173103
2697.5178,8.326518241601782
2698.7524,4.855913551750206
2699.9863,2.7343694961682665
2701.2195,7.011880937846744
2702.452,5.188442712432721
2703.6839,4.464049585454468
2704.9151,10.838696270555864
2706.1456,5.2123774367402795
2707.3755,7.58508764462416
2708.6046,6.456821402700154
2709.8331,6.97757314361008
2711.0609,6.097337235427517
2712.2881,11.166107976450341
2713.5145,8.08387960400307
2714.7403,8.950646243749144
2715.9654,6.766401940513234
2717.1899,8.931140649613543
2718.4136,12.244856258704257
2719.6367,7.657542566128171
2720.8591,11.06919324777953
2722.0809,11.729801902977162
2723.3019,11.239362020348
2724.5223,14.597866971220935
2725.7421,13.30531001453128
2726.9611,11.761684263235665
2728.1795,9.96698269723765
2729.3972,10.321198178823956
2730.6142,7.5743234706115
2731.8306,7.226351232005214
2733.0462,5.7772740466668004
2734.2612,9.82708442599446
2735.4756,8.025774823613649
2736.6892,8.123337594878993
2737.9022,9.319765014887384
2739.1145,4.465049277502317
2740.3262,3.7091824833896645
2741.5372,8.302156688564825
2742.7475,8.143963911951392
2743.9571,3.834596089451381
2745.1661,8.174045075527204
2746.3744,3.862302686295319
2747.582,6.849360656131733
2748.7889,3.385210680789438
2749.9952,4.0698443875278265
2751.2008,3.653253369754193
2752.4057,5.235429180177405
2753.61,4.7163633349738205
2754.8136,0.9960472979654895
2756.0165,5.1244724858108555
2757.2188,4.8516303052078875
2758.4204,2.6775121116098504
2759.6213,2.2021092119537045
2760.8215,2.525412886401316
2762.0211,2.2974143930934687
2763.22,5.26810496491683
2764.4182,2.8874758117839505
2765.6158,2.405518090926332
2766.8127,5.072222930700743
2768.009,4.637581435408798
2769.2045,3.351584658629875
2770.3994,1.964223607567579
2771.5936,6.325489255909655
2772.7872,1.6853725577016405
2773.9801,-0.1561355962658233
2775.1723,-1.2990443320557894
2776.3639,-0.043361215936734254
2777.5548,0.41091916327574296
2778.745,3.7638026499445836
2779.9346,-0.1347049156764797
2781.1235,2.665402269028281
2782.3117,-0.285868647623321
2783.4992,-1.6885105439674852
2784.6861,0.9574865574873677
2785.8723,2.4521495024531426
2787.0579,3.1455051270668726
2788.2428,-0.11241975705588203
2789.427,0.8784016302453743
2790.6106,1.7679971922045148
2791.7935,0.7063948232713884
2792.9757,0.8436224002158497
2794.1573,4.079707792743815
2795.3382,1.214678862124991
2796.5184,0.4485634288320064
2797.698,-0.8686106988092845
2798.8769,1.413184283041364
2800.0551,1.9439848556450592
2801.2327,0.9238274861310778
2802.4096,2.202748622188853
2803.5859,0.43078470226954124
2804.7615,3.257972142796838
2805.9364,-0.5156526441133913
2807.1106,4.209946721075003
2808.2842,3.2348117692680667
2809.4572,4.458983989272383
2810.6294,4.982504837546426
2811.801,4.655415725958854
2812.972,2.527758016553257
2814.1423,6.3495730248191045
2815.3119,10.52090204096828
2816.4808,6.79178629171696
2817.6491,11.262266898572285
2818.8167,13.432384915123553
2819.9837,16.10218128233742
2821.15,14.771696806856685
2822.3157,19.19097213430235
2823.4807,18.010047762578456
2824.645,21.928963997679315
2825.8086,27.19776096549878
2826.9716,33.26647857264108
2828.134,31.785156453732817
2829.2957,36.80383391073586
2830.4567,39.122549927760474
2831.617,37.39134312087866
2832.7767,43.31025171493688
2833.9358,42.329313560868215
2835.0941,43.54856607650323
2836.2519,41.96804625637937
2837.4089,41.037790659548406
2838.5653,35.35783542538168
2839.7211,30.42821628287266
2840.8761,34.298968607436464
2842.0306,34.72012747020605
2843.1843,35.391727599324724
2844.3374,33.213803375734514
2845.4899,34.13638882646019
2846.6417,36.259517646388495
2847.7928,36.68322318904231
2848.9433,38.15753844534933
2850.0931,36.782496039405075
2851.2422,36.608128213729636
2852.3907,39.7344668430182
2853.5385,41.91154343588466
2854.6857,39.63938910359826
2855.8323,41.36803453831284
2856.9781,41.79751003578832
2858.1233,37.627845478104334
2859.2679,42.05907032936538
2860.4118,42.34121367739756
2861.555,47.82430418943626
2862.6976,47.90837010930475
2863.8395,49.693439202583264
2864.9808,50.77953875576836
2866.1214,51.966695558422224
2867.2614,47.65493589231164
2868.4007,49.3442855195365
2869.5393,51.13476972564728
2870.6773,52.57641330275165
2871.8146,51.46924053160957
2872.9513,50.96327516721688
2874.0874,53.15854044987702
2875.2227,57.0550591102607
2876.3574,55.75285334745324
2877.4915,54.7019447899894
2878.6249,55.95235450887536
2879.7577,62.35410302809791
2880.8898,66.3072103121203
2882.0212,62.76169570186473
2883.152,60.31757787518133
2884.2821,61.9748748823033
2885.4116,63.48360417028802
2886.5405,66.64378256644419
2887.6686,65.40542626324446
2888.7962,66.61855078672366
2889.923,61.73317100886238
2891.0493,68.69930113545568
2892.1748,67.066954754967
2893.2997,69.0361447688667
2894.424,66.70688340795564
2895.5476,63.529182212673234
2896.6706,66.15305205639012
2897.7929,65.67850317718506
2898.9145,66.40554515160639
2900.0355,67.63418689941736
2901.1559,63.56443667632581
2902.2756,62.34630206169774
2903.3946,62.67978999925474
2904.513,62.81490680925546
2905.6308,63.30165818516059
2906.7479,68.29004919228183
2907.8643,60.280084262914286
2908.9801,62.02176714645259
2910.0953,61.065100989490546
2911.2098,66.1600883184043
2912.3236,62.356731048919045
2913.4368,63.655030435159
2914.5494,62.854987107681126
2915.6613,65.20660106049212
2916.7725,58.00987165904876
2917.8831,58.76479761674189
2918.9931,58.4713770668636
2920.1024,60.22960755505804
2921.211,56.78948604225556
2922.319,54.60100888709049
2923.4264,56.46417188030226
2924.5331,55.128970266620236
2925.6391,56.94539872613209
2926.7445,55.26345138763578
2927.8493,53.683121810475285
2928.9534,53.20440300136006
2930.0569,51.87728743016841
2931.1597,58.70176703473453
2932.2619,56.277833234119825
2933.3634,54.505476860368
2934.4643,61.784688182744475
2935.5645,62.415456925459885
2936.6641,61.79777219487799
2937.763,59.53162247320799
2938.8613,62.01699562468138
2939.959,60.35387891821344
2941.056,57.69225900254952
2942.1523,54.732121922896155
2943.248,50.72345314753731
2944.3431,51.31623759743576
2945.4375,43.260459686319734
2946.5313,41.606103314755075
2947.6244,39.35315195070306
2948.7169,35.65158864606394
2949.8087,32.351396059206465
2950.8999,32.3525564919835
2951.9904,23.855051922733985
2953.0803,23.708864006271284
2954.1696,25.01397415885825
2955.2582,22.620363559669094
2956.3462,25.378013137738296
2957.4335,21.836903595896704
2958.5202,23.097015383195036
2959.6062,22.90832873031499
2960.6916,20.520823636968125
2961.7764,20.684479873782713
2962.8605,21.349277006178834
2963.9439,21.265194392731782
2965.0267,22.232211178524086
2966.1089,21.25030629598633
2967.1905,20.819458455227007
2968.2714,21.33964615385158
2969.3516,21.810847681270893
2970.4312,21.183041113499396
2971.5102,22.806204308443043
2972.5885,21.5803149121774
2973.6662,23.15535034271598
2974.7432,20.13128780226919
2975.8196,23.408104261493907
2976.8954,20.035776489734165
2977.9705,20.764281022252952
2979.045,22.643594193955497
2980.1188,19.173692132104247
2981.192,19.154550737525714
2982.2645,21.086145719309496
2983.3364,23.768452594999708
2984.4077,17.40144667127901
2985.4783,17.685103017145547
2986.5483,19.419396527583004
2987.6177,16.05430192072405
2988.6864,16.589793720507394
2989.7545,16.325846290328737
2990.8219,12.212433827685828
2991.8887,14.599530366817973
2992.9548,13.08710981984012
2994.0204,13.125145952871947
2995.0852,12.763612401162032
2996.1495,7.402482668707503
2997.2131,6.341730131869372
2998.276,6.081328092983842
2999.3383,3.471249790969811
3000.4,6.2114684039329084
3001.4611,4.751957075266267
3002.5215,0.692688886248348
3003.5812,4.683636870638027
3004.6404,2.6247740552673147
3005.6989,4.316073420131845
3006.7567,3.5575079189795247
3007.8139,4.19905046239753
3008.8705,1.440673925397963
3009.9264,0.8323511410024409
3010.9818,0.1740549278258392
3012.0364,0.7657580961595265
3013.0905,4.957433454554337
3014.1439,2.899053803903529
3015.1966,-0.7094081044739742
3016.2487,-0.4179795482497788
3017.3002,-0.42668071810853014
3018.3511,2.4144723708808087
3019.4013,2.0554679661896404
3020.4509,0.796294291144644
3021.4998,0.13693954851783197
3022.5481,0.9773919331182768
3023.5958,1.4176396383856513
3024.6428,3.95767084798573
3025.6892,1.2974737314078872
3026.735,4.637036418564815
3027.7802,3.626347026394475
3028.8247,2.4653936254644595
3029.8685,3.354164250078906
3030.9118,1.892646909888013
3031.9544,2.0308295810003454
3032.9963,-1.1812997794020035
3034.0376,2.8062467655547625
3035.0783,4.343468953929246
3036.1184,3.030366495717585
3037.1578,5.866939057481233
3038.1966,2.7031862754779716
3039.2348,3.4891077272962026
3040.2723,1.4247029634924662
3041.3092,3.2599714997322273
3042.3455,3.0449128374339303
3043.3811,3.579526445416308
3044.4161,1.3638117620489663
3045.4505,7.147768189906252
3046.4842,2.881395117924397
3047.5173,4.764691863561959
3048.5498,2.997657715463541
3049.5816,6.330291914626841
3050.6128,7.412593672072983
3051.6434,5.944562135520183
3052.6734,6.576196378560718
3053.7027,8.507495415341259
3054.7314,3.5884581942465132
3055.7594,6.76908357858624
3056.7868,3.3993703957856223
3057.8136,6.42931740557901
3058.8398,6.558923333707057
3059.8653,5.188186841617242
3060.8902,6.317106525167819
3061.9145,5.495680928335176
3062.9381,9.473908531924636
3063.9612,8.05178776178473
3064.9835,7.379316949024899
3066.0053,8.456494344236713
3067.0264,8.283318124218574
3068.0469,7.709786381203949
3069.0668,7.535897124593121
3070.086,6.611648286688521
3071.1046,10.637037724433606
3072.1226,6.162063228655359
3073.1399,9.586722483810394
3074.1567,7.5610131127346865
3075.1727,5.584932642396997
3076.1882,7.508478524155953
3077.203,7.581648153520857
3078.2173,7.854438850916233
3079.2308,6.476847860950119
3080.2438,5.298872349686173
3081.2561,7.270509418419572
3082.2678,8.841756115456779
3083.2789,5.912609416399156
3084.2893,6.083066208430516
3085.2991,4.253123319608572
3086.3083,5.372777517160379
3087.3169,7.442025525781758
3088.3248,9.760864016440753
3089.3321,6.829289585685162
3090.3388,7.647298732454135
3091.3449,6.214887887393935
3092.3503,7.782053404677839
3093.3551,8.648791576330243
3094.3593,9.365098616555017
3095.3629,7.230970653068111
3096.3658,5.996403719934493
3097.3681,8.311393778909428
3098.3698,7.875936731784147
3099.3708,5.940028397235938
3100.3713,3.8536645151827313
3101.3711,6.416840766142171
3102.3702,5.32955279209526
3103.3688,6.591796170854592
3104.3667,6.203566426937242
3105.364,5.764859018942319
3106.3607,7.575669343433268
3107.3568,6.135992739324948
3108.3522,6.295824469775523
3109.347,6.255159736583233
3110.3412,5.563993678588077
3111.3348,7.922321372078452
3112.3277,6.730137837702822
3113.32,5.73743801688644
3114.3117,7.094216783753183
3115.3028,7.4504689550525445
3116.2932,6.8561892765918575
3117.2831,7.01137241967376
3118.2723,9.016012987039005
3119.2608,7.920105511314615
3120.2488,6.423644434967487
3121.2361,7.526624121263462
3122.2229,8.529038869231941
3123.209,6.280882902636079
3124.1944,7.182150359948643
3125.1793,8.582835316833574
3126.1635,6.5329317771333075
3127.1471,9.182433658861926
3128.1301,5.2813348147041985
3129.1125,9.179629005520551
3130.0942,5.827309939358065
3131.0753,8.774371232467534
3132.0558,9.220806442826648
3133.0357,5.466609040669387
3134.015,7.811772404021668
3134.9936,6.906289856243315
3135.9716,8.25015464257643
3136.949,5.593359939200213
3137.9258,6.335898839792322
3138.902,5.027764382096815
3139.8775,9.868949540498756
3140.8524,5.809447239105572
3141.8267,6.999250303335192
3142.8004,5.488351500511068
3143.7735,6.126743527964154
3144.7459,6.664419028141886
3145.7178,5.801370582224266
3146.689,9.087590704747102
3147.6596,9.523071852232498
3148.6295,6.50780639032665
3149.5989,8.091786589445032
3150.5676,9.07500465492506
3151.5357,9.207452711186276
3152.5032,8.189122791898177
3153.4701,7.420006838655734
3154.4364,6.250096711162688
3155.402,5.97938419492271
3156.367,8.3078610129385
3157.3315,-2.1144811715810787
3158.2952,8.91234922149422
3159.2584,10.588364895961549
3160.221,7.9135784664945685
3161.1829,7.5880024418832885
3162.1442,8.961649251781932
3163.105,8.984531249964697
3164.065,7.906660700589291
3165.0245,9.728049777968105
3165.9834,10.748710577346923
3166.9416,7.218655096691031
3167.8993,6.937895226478609
3168.8563,7.356442785001283
3169.8127,9.024309521171727
3170.7684,9.991507110338183
3171.7236,10.758047137605804
3172.6782,8.923941088164664
3173.6321,10.939200339624364
3174.5854,11.303836180355098
3175.5381,6.317859789335051
3176.4902,10.281282232504044
3177.4417,11.744114512623295
3178.3926,9.156367529641207
3179.3428,9.018052066065032
3180.2924,9.729178812838342
3181.2415,9.789758370724192
3182.1899,8.049801243193842
3183.1377,9.559317835820965
3184.0848,10.368318473681216
3185.0314,9.67681338625707
3185.9773,9.734812699347813
3186.9227,9.7923264419846
3187.8674,12.499364545850444
3188.8115,8.705936844705107
3189.755,8.962053047314694
3190.6979,10.067722775385938
3191.6402,7.822955561005046
3192.5818,9.577760835580992
3193.5229,9.182147952293189
3194.4633,7.136126168543446
3195.4031,10.839704649912084
3196.3423,8.342892490618164
3197.2809,8.695698676483694
3198.2189,8.448132109901755
3199.1563,7.900201606308439
3200.0931,11.301915896658514
3201.0292,9.553283632904728
3201.9648,11.854313353980675
3202.8997,9.955013503287104
3203.834,9.505392405681633
3204.7677,11.705458286471739
3205.7008,8.605219275910974
3206.6333,9.654683387198308
3207.5652,9.753858547480508
3208.4964,10.10275258735751
3209.4271,11.901373239890658
3210.3571,10.999728137113763
3211.2865,8.697824792046909
3212.2154,8.595670607712897
3213.1436,8.843272900156274
3214.0712,10.04063889946488
3214.9982,8.937775747293825
3215.9246,9.734690484891821
3216.8503,10.931390064129818
3217.7755,12.427881339531865
3218.7001,12.574171056308101
3219.624,9.570265835389849
3220.5473,12.26617217196672
3221.4701,9.411896465525658
3222.3922,8.557444992891892
3223.3137,10.302823936771684
3224.2346,8.698039394296835
3225.1549,10.393097359570907
3226.0746,9.238003739717067
3226.9937,11.632764337927494
3227.9121,12.227384865014335
3228.83,11.871870915462086
3229.7473,9.316227961481394
3230.6639,11.310461356564193
3231.5799,9.554576361040134
3232.4954,13.098578122134253
3233.4102,9.642471691525818
3234.3244,12.536261989908311
3235.238,13.329953841550498
3236.151,10.07355194535852
3237.0634,12.617060866938985
3237.9752,11.66048507116297
3238.8864,13.103828896730949
3239.797,11.647096565738526
3240.7069,12.790292169243024
3241.6163,14.233419681830792
3242.5251,10.876482950185256
3243.4332,10.369485678655641
3244.3408,12.012431462826338
3245.2477,12.055323794586887
3246.154,12.298166045702501
3247.0598,10.790961467385152
3247.9649,11.133713187865151
3248.8694,9.976424227463184
3249.7733,10.469097495162814
3250.6766,12.511735800183347
3251.5793,10.604341847053112
3252.4814,11.396918215183078
3253.3829,7.4394673779407885
3254.2838,9.5319916947246
3255.1841,9.27449345053819
3256.0838,11.11697483506532
3256.9829,10.75943794524481
3257.8814,10.701884766845724
3258.7792,11.944317178042745
3259.6765,14.686736949991701
3260.5731,10.479145734405241
3261.4692,10.321545036128644
3262.3647,8.063936255215719
3263.2595,11.156320688504827
3264.1538,12.098699552194972
3265.0474,11.44107395092193
3265.9404,11.933444868334494
3266.8329,15.225813173670694
3267.7247,10.368179616834123
3268.616,12.260544795470226
3269.5066,11.052909203542653
3270.3966,12.245273212409604
3271.286,13.83763708290018
