RamanShift,CorrectedData
30.1047,1521.592244173344
32.3739,1409.0253275908276
34.6426,1302.2083957923887
36.9109,1195.691419471851
39.1787,1091.5743563009553
41.4461,978.4071519945259
43.7131,876.2397413516442
45.9796,770.0220493873195
48.2456,661.3539923541633
50.5112,554.0354788045663
52.7764,450.3664106773791
55.0411,343.54668437109734
57.3054,236.62619178055246
59.5692,131.00482136510897
61.8326,32.78245921786949
64.0955,-70.94100987811157
66.3579,-176.0157014676044
68.6199,-266.4910223946905
70.8815,-344.764621106594
73.1426,-375.3814838052254
75.4032,-281.28315249393074
77.6634,130.64258088496706
79.9231,1287.7107344078377
82.1824,3955.4863248446263
84.4412,8895.48435608817
86.6995,15843.069792476446
88.9574,22730.007509392584
91.2148,27476.112223789023
93.4717,29624.04842531812
95.7282,29970.480328871115
97.9842,29687.571853098758
100.2398,28888.536616947003
102.4949,28024.437942486085
104.7495,27012.188862900875
107.0036,26023.802131131866
109.2573,25103.34022999765
111.5105,24317.16538207882
113.7632,23546.98955892256
116.0154,22900.67448890439
118.2672,22411.881664929962
120.5185,21945.62235089816
122.7693,21570.40758658906
125.0197,21203.948192326512
127.2696,20850.504772730303
129.519,20575.737720380734
131.7679,20204.657219353045
134.0163,19847.323247965123
136.2642,19412.14558248827
138.5117,18958.88380072056
140.7587,18504.747286338617
143.0052,18099.99523343023
145.2512,17669.88665103571
147.4967,17240.780367195435
149.7417,16879.235033250894
151.9863,16599.609128135795
154.2304,16383.860961991484
156.4739,16092.298678963223
158.717,15905.630259357667
160.9596,15618.813522558485
163.2017,15265.306128893035
165.4433,14921.115582500566
167.6844,14497.499234867242
169.925,14069.514288268087
172.1651,13573.267800003134
174.4047,13266.666686677258
176.6439,12885.76772916268
178.8825,12595.777575664943
181.1206,12383.60274553192
183.3582,12100.1996321537
185.5954,11923.37450508436
187.832,11750.983512875977
190.0681,11600.93268484688
192.3037,11504.177932805578
194.5388,11389.025052551235
196.7734,11338.02972484125
199.0075,11278.447516542772
201.2411,11295.53388114265
203.4742,11309.49415934327
205.7068,11343.483578891675
207.9389,11355.857254439972
210.1704,11385.670187205436
212.4015,11403.827264846765
214.632,11458.133261165967
216.862,11474.592835926771
219.0915,11480.610534311589
221.3205,11469.8407867569
223.549,11507.637908893084
225.777,11489.006101652121
228.0044,11508.449450889622
230.2314,11566.171927571133
232.4578,11578.12738757771
234.6837,11616.619571128698
236.909,11566.652102662172
239.1339,11486.228490450012
241.3582,11369.50212709759
243.582,11121.326290347994
245.8053,11028.654144249293
248.0281,10862.088741636297
250.2503,10702.483025057283
252.472,10704.78982843965
254.6932,10752.311878685954
256.9139,10736.801795650872
259.134,10852.062091665955
261.3536,10931.99517169475
263.5727,11180.953332180172
265.7912,11312.488760245205
268.0092,11515.9535312033
270.2267,11619.699607243016
272.4436,11659.228835393387
274.6601,11597.89294648646
276.8759,11465.743554761992
279.0913,11340.48215848082
281.3061,11141.760141246355
283.5204,11005.978773257182
285.7341,10896.189213294298
287.9473,10865.042510078898
290.16,10815.239603370306
292.3721,10782.231324277427
294.5837,10939.16839575677
296.7947,11039.60143294253
299.0052,11143.630941577232
301.2152,11086.907317007383
303.4246,10868.530843143188
305.6334,10445.451693025781
307.8418,9999.569931010998
310.0495,9514.08551700016
312.2568,9060.848310898891
314.4635,8602.158077471966
316.6696,8210.66449087568
318.8752,7886.317139244757
321.0802,7739.8155286072615
323.2847,7674.109086128117
325.4887,7657.197161574077
327.692,7586.179027970824
329.8949,7484.103881772062
332.0972,7262.620843569726
334.2989,7017.178959114708
336.5001,6712.477201531705
338.7007,6470.464473773627
340.9008,6262.139611668621
343.1003,6006.701386340206
345.2992,5820.548506290492
347.4976,5653.3296199545985
349.6955,5519.543317562153
351.8927,5442.038132809492
354.0895,5275.262544197532
356.2856,5230.114975806804
358.4812,5100.043798965229
360.6763,5058.847332699575
362.8707,4987.1238450361925
365.0646,4959.471553412952
367.258,4927.338625396502
369.4508,4919.423178958772
371.643,4981.82328279831
373.8346,4974.586956419431
376.0257,5027.912169508236
378.2162,5008.946842004962
380.4062,4962.738843570731
382.5956,4797.435993777199
384.7844,4645.586062568631
386.9726,4444.186771914958
389.1603,4293.885797330247
391.3474,4172.830769886707
393.5339,4130.619277717693
395.7199,4021.9988672282634
397.9052,4039.217043517283
400.09,4042.8712714636404
402.2743,4125.358975554054
404.4579,4241.677539846543
406.641,4384.0743071455345
408.8235,4516.946577838691
411.0054,4593.241608472947
413.1868,4794.906610425765
415.3675,4773.488749142209
417.5477,4739.53514211828
419.7273,4657.892859115102
421.9064,4554.558922498436
424.0848,4437.480308055137
426.2627,4272.503946026476
428.4399,4008.126722278912
430.6166,3679.24547995389
432.7928,3287.357022111577
434.9683,2965.408115019707
437.1432,2670.9454920724475
439.3176,2499.3658570098814
441.4914,2320.815886862647
443.6645,2239.6422336677388
445.8371,2129.1415262539867
448.0091,2066.160371053804
450.1806,2013.8953532081941
452.3514,1959.243037196571
454.5216,1947.8999673593935
456.6913,1909.8126684447016
458.8603,1902.3776457215372
461.0288,1972.0913853608217
463.1967,1888.7003545097123
465.3639,1900.1010005944536
467.5306,1859.7897521542964
469.6967,1811.2630187274863
471.8622,1799.667191254377
474.0271,1826.5986425626925
476.1914,1815.8537274834853
478.3551,1825.128782581829
480.5182,1849.1201262642553
482.6807,1872.324058686023
484.8426,2054.336861511194
487.0039,2317.5047976805927
489.1647,2655.124109591683
491.3248,2993.4910164668945
493.4843,3062.051710977421
495.6432,3019.502355859553
497.8015,2855.139083229071
499.9592,2740.6579950067444
502.1163,2503.7551645619533
504.2728,2240.026637857505
506.4287,1986.4684358186678
508.5839,1651.5265569704497
510.7386,1391.746979973177
512.8927,1318.1756669719234
515.0461,1253.4585661942929
517.199,1284.4416126861397
519.3512,1458.670728958732
521.5029,1685.7418246789275
523.6539,1904.900794926887
525.8043,2024.9435179253596
527.9541,1939.465852848094
530.1033,1747.7136386194088
532.2519,1560.5326947689719
534.3999,1467.368823349323
536.5472,1542.8178108076827
538.694,1722.7254289175817
540.8401,1978.987434024375
542.9856,2160.8495652461806
545.1305,2172.757541911242
547.2748,2125.2070617393147
549.4185,1943.3938007225752
551.5615,1768.7134136011427
553.704,1745.3115356811977
555.8458,1793.7837845817976
557.987,1963.7757604688777
560.1276,2140.1330455705556
562.2675,2499.7012024771866
564.4069,2978.2757723777977
566.5456,3408.9522714644118
568.6837,3621.7761861462986
570.8212,3253.0929687432053
572.958,2606.4480353571344
575.0942,1991.8367695591405
577.2299,1542.9545288558202
579.3648,1310.4466508353999
581.4992,1216.408457656562
583.6329,1282.2352583735355
585.766,1439.4723498764706
587.8985,1568.5150162331702
590.0304,1573.8085271167238
592.1616,1560.8981365150685
594.2922,1479.3290826780667
596.4222,1278.6465882465982
598.5515,1072.5458610682654
600.6802,901.2220962042102
602.8083,771.2204779901149
604.9358,725.0861817494497
607.0626,721.9643750934829
609.1888,796.0502183826302
611.3144,959.288864757671
613.4393,1092.0754593988859
615.5636,1180.2551378936714
617.6873,1206.3230249086791
619.8103,1160.1242333080154
621.9327,1033.7538638925598
624.0544,820.1070058619662
626.1756,621.9787380783564
628.2961,481.6141312027812
630.4159,394.90824967651497
632.5351,397.9061531246971
634.6537,364.6028972233853
636.7716,387.29353366959003
638.8889,361.0731105143059
641.0056,428.13667193559377
643.1216,390.4792585007981
645.237,401.445906495901
647.3518,316.4316483020866
649.4659,273.8815122860851
651.5793,198.79052365031202
653.6922,150.3537048583712
655.8043,160.96607638596834
657.9159,155.0226572052834
660.0268,128.91846467883988
662.137,155.49851461893377
664.2466,148.1578215486843
666.3556,169.99139843623016
668.4639,144.04425676813662
670.5716,101.41140633106443
672.6786,82.08785547123989
674.785,-6.081388479226007
676.8907,-48.40131900908818
678.9958,-8.626868854040367
681.1002,-27.162487220602998
683.204,-26.262537132884972
685.3072,-87.43111026174483
687.4097,-79.8720359153067
689.5115,-53.13826996489843
691.6127,-45.481970360224295
693.7132,-42.95476419967417
695.8131,-40.10782421676595
697.9123,-11.991894026921727
700.0109,12.44268343159456
702.1089,77.34568501951799
704.2061,99.81676329517722
706.3028,154.6555700434492
708.3987,213.01175605104436
710.4941,252.03497055812113
712.5887,319.62486067471946
714.6827,386.8310709905345
716.7761,522.6032428990129
718.8688,675.2410139253025
720.9608,825.3940163685311
723.0522,991.5618757754091
725.1429,1064.1442094387166
727.233,1141.4406247356146
729.3224,1234.100718401829
731.4112,1178.4740757586824
733.4993,1020.3102697864942
735.5867,812.258861680848
737.6735,598.8694024342312
739.7596,410.24143491655013
741.845,265.8244960090251
743.9298,178.8181184904679
746.014,146.32183248144975
748.0974,170.43516631436978
750.1802,136.85764685840695
752.2624,163.53879927840717
754.3439,246.128147370644
756.4247,335.37521329601987
758.5048,492.62951675416116
760.5843,755.7905740909446
762.6631,1115.3578967259618
764.7413,1656.0809885208946
766.8188,2339.5593421838603
768.8956,2950.042433862174
770.9718,3390.9797163075655
773.0473,3383.620612771343
775.1221,3161.5645125950305
777.1962,2880.910771283947
779.2697,2804.058712727776
781.3426,2891.657632007091
783.4147,3032.5567961618835
785.4862,3123.0554433155685
787.557,2971.6527812660024
789.6271,2528.9979865804926
791.6966,1942.6902061098208
793.7654,1329.1785614147975
795.8335,944.362154629338
797.901,619.0400745955758
799.9678,451.5114007120392
802.0339,355.3752061868563
804.0993,319.7805597130555
806.1641,264.27652642992507
808.2282,209.3121682789424
810.2916,161.9865445588348
812.3544,68.99871247521878
814.4164,36.54772761384447
816.4778,87.48264487048618
818.5385,125.35251877544033
820.5986,275.2564029841924
822.658,496.69334989870185
824.7166,811.6124091683741
826.7747,1299.4626254756913
828.832,1867.7930353870142
830.8886,2253.602662474086
832.9446,2487.890511630718
834.9999,2414.305565214703
837.0545,2139.946780704937
839.1085,1795.2130914372647
841.1618,1509.5034093480663
843.2143,1288.1166284215979
845.2662,1062.1016275470884
847.3175,921.757272732606
849.368,806.9324193652064
851.4179,752.675913614381
853.467,640.6865935803016
855.5155,592.5632898363892
857.5633,547.9048265492038
859.6105,467.2100219596814
861.6569,386.02768882971213
863.7027,336.6566352490918
865.7478,318.4956654473481
867.7922,273.1935802874377
869.8359,233.14917744736886
871.8789,276.1112518732152
873.9212,328.52859617956165
875.9629,455.8000002198951
878.0039,548.3242505624166
880.0441,684.7001292173372
882.0837,740.3264127116272
884.1226,791.351870725266
886.1609,854.9252655349683
888.1984,974.5453515039408
890.2352,1129.7108744461475
892.2714,1171.420570430102
894.3069,1141.7731642272065
896.3416,993.3173688946608
898.3757,853.6518860719425
900.4091,750.8754074653516
902.4418,743.4866162446815
904.4739,769.7841880709748
906.5052,856.5167911704193
908.5358,819.383086071366
910.5658,755.1317247370062
912.595,572.2613509367002
914.6236,400.57060088850267
916.6515,252.60810508785653
918.6786,174.27249002450117
920.7051,161.36237966210683
922.7309,191.82639622161332
924.756,230.66316031034694
926.7804,300.37129061737687
928.8041,316.8994035251344
930.8272,361.64611241235434
932.8495,364.0600274887747
934.8711,386.68975534767196
936.892,341.68389894172833
938.9123,348.2410573567322
940.9318,401.2598262616357
942.9506,403.13879784299024
944.9688,366.92656027474004
946.9862,295.47169769944776
949.003,145.9227905904154
951.019,51.02841646623165
953.0344,18.987151386263577
955.0491,-8.052429100398513
957.063,32.70825036546739
959.0763,138.36784558684667
961.0888,154.4250120396464
963.1007,245.57840381610185
965.1119,260.7766734641973
967.1223,269.7684710761423
969.1321,285.7524441363821
971.1412,297.57723743168754
973.1495,248.34149289130437
975.1572,288.54384946871323
977.1641,327.7329436339751
979.1704,271.857408971724
981.1759,258.46587578925937
983.1808,315.1069716753136
985.1849,317.6293216339618
987.1884,383.4815475182204
989.1911,483.41226800481127
991.1932,567.7200979356585
993.1945,605.5536473185603
995.1951,578.3615204841262
997.1951,577.2923157074274
999.1943,531.2946254799281
1001.1928,539.9670365201746
1003.1906,604.6581302337636
1005.1877,727.066482626622
1007.1841,819.7406636581072
1009.1798,854.87923601691
1011.1748,770.1807541943199
1013.1691,678.6937641328441
1015.1627,508.66680407317835
1017.1556,312.89840546909727
1019.1477,209.73709468769812
1021.1392,102.88139496710392
1023.1299,49.07982744807123
1025.12,95.08091224254531
1027.1093,138.98316897167388
1029.0979,262.2851163058076
1031.0859,355.38527152545976
1033.0731,401.1821492882973
1035.0596,354.42426069814246
1037.0454,296.1101128469945
1039.0304,189.08820928261957
1041.0148,91.70705059168722
1042.9985,-4.384864530013147
1044.9814,-15.089038303754933
1046.9636,-105.45692914602478
1048.9452,-105.78984473381752
1050.926,-37.638039229406786
1052.9061,-2.2507099545200617
1054.8855,27.223321773126372
1056.8642,77.93525712040173
1058.8421,106.28629698194891
1060.8194,161.97764147305315
1062.7959,188.51048964615075
1064.7717,275.93603893389627
1066.7469,365.555484883851
1068.7213,440.6700202842185
1070.695,524.6808342676431
1072.6679,580.5891115600789
1074.6402,606.4960316406687
1076.6117,599.0527681826698
1078.5826,494.3604887943802
1080.5527,371.57035509357775
1082.5221,283.1835237544401
1084.4908,253.50114773544738
1086.4587,260.3243771632424
1088.426,314.4043596294632
1090.3925,342.94224012250925
1092.3584,392.8891604867367
1094.3235,386.89625913708915
1096.2879,452.0146705596271
1098.2515,592.7455253714452
1100.2145,790.1899496695041
1102.1767,937.0990636233164
1104.1382,1164.7739795004927
1106.099,1419.6658001976557
1108.0591,1652.775616963696
1110.0185,1823.4545068508505
1111.9771,1914.853530383596
1113.9351,1845.1737298518728
1115.8923,1780.7661283970938
1117.8488,1639.7817307089445
1119.8045,1479.571523669445
1121.7596,1330.636477762806
1123.7139,1225.9775486775288
1125.6675,1167.2456787957562
1127.6204,1190.4417982398536
1129.5726,1135.2668254597374
1131.524,1088.771667000905
1133.4748,965.3072180561976
1135.4248,781.3743629307392
1137.3741,633.1739762765883
1139.3226,539.8069249320652
1141.2705,496.02406940375295
1143.2176,401.02626480017534
1145.164,370.1643612696189
1147.1097,323.6892049501075
1149.0546,251.90163827803553
1150.9989,140.7025004529023
1152.9424,48.592628155185594
1154.8852,-19.477143341648116
1156.8272,-64.60597925006368
1158.7686,-56.89285020585612
1160.7092,-34.18608143109759
1162.6491,15.566570211709404
1164.5883,111.26768937901306
1166.5267,217.36986057160266
1168.4644,371.17566717758655
1170.4014,580.4876904113889
1172.3377,842.9585077756765
1174.2732,1101.8406909682435
1176.2081,1543.7368032573058
1178.1421,2014.4493968926736
1180.0755,2574.8810086867934
1182.0082,2967.684155307623
1183.9401,3175.361327674307
1185.8713,3074.0149870291643
1187.8017,2758.947562860896
1189.7315,2360.461453918062
1191.6605,1956.7090313597437
1193.5888,1692.2426427404207
1195.5163,1532.2646160474715
1197.4432,1412.5772623458588
1199.3693,1360.0328773779038
1201.2947,1319.7337427601542
1203.2193,1291.5821265088334
1205.1432,1277.5302834428348
1207.0664,1268.3804554652324
1208.9889,1263.8848717038018
1210.9106,1244.9457486025194
1212.8316,1247.2152899665152
1214.7519,1273.6456871514692
1216.6715,1326.389119040915
1218.5903,1435.4477517819232
1220.5084,1495.3237382576845
1222.4257,1615.8192169969088
1224.3424,1652.2363115750795
1226.2583,1807.9271294094851
1228.1735,1947.4937613950633
1230.0879,2119.088280347478
1232.0016,2329.112739607468
1233.9146,2476.819171324886
1235.8269,2505.6095843584617
1237.7384,2504.3859627987367
1239.6492,2388.7002656801596
1241.5592,2337.0544269933316
1243.4686,2429.000356841847
1245.3772,2596.539941958764
1247.285,2822.9250447871336
1249.1922,3043.3075018046165
1251.0986,3225.889121259621
1253.0042,3313.771680967491
1254.9092,3466.356926484681
1256.8134,3549.2465702299332
1258.7169,3733.642289958423
1260.6196,3864.095727932863
1262.5216,4102.25848907955
1264.4229,4303.582139683821
1266.3234,4500.118205008436
1268.2232,4668.668167280333
1270.1223,4732.733463725274
1272.0207,4769.965484882339
1273.9183,4772.715573963277
1275.8151,4702.285026480188
1277.7113,4712.325090218013
1279.6067,4813.336965938857
1281.5014,5039.421807281573
1283.3953,5481.9307197516455
1285.2885,6027.61475846035
1287.181,6574.374923699648
1289.0727,7157.212155485368
1290.9637,7561.677328089581
1292.854,7791.471244212247
1294.7435,7804.894630936548
1296.6323,7722.048137430963
1298.5204,7525.082334815022
1300.4077,7322.497716987776
1302.2943,7040.694702597459
1304.1802,6693.823637067321
1306.0653,6219.384795413682
1307.9497,5753.62838571462
1309.8333,5303.604553854378
1311.7162,4993.163388180919
1313.5984,4780.454924006158
1315.4798,4646.079146710383
1317.3605,4552.885993869329
1319.2405,4441.425356597949
1321.1197,4221.3970804823375
1322.9982,3924.3009666943426
1324.876,3673.9867741918415
1326.753,3370.2042226897047
1328.6293,3129.2529951629303
1330.5048,2960.0827408844843
1332.3796,2787.943077834805
1334.2537,2694.2835943935042
1336.127,2609.6538510607734
1337.9996,2590.4533813939606
1339.8714,2580.5816928538834
1341.7426,2574.7882669968294
1343.6129,2600.122559573274
1345.4826,2610.7840005858125
1347.3515,2628.2219940358173
1349.2196,2593.5359178168274
1351.087,2659.0251235401693
1352.9537,2725.2889368818105
1354.8197,2844.776656927479
1356.6849,2976.7375555100134
1358.5493,3185.2208760144913
1360.4131,3394.0258320586117
1362.276,3557.451605407866
1364.1383,3616.5973438874826
1365.9998,3497.162159748189
1367.8606,3224.2951290747296
1369.7206,2905.2952929802414
1371.5799,2595.8616603349146
1373.4384,2337.7432109559886
1375.2962,2102.6888987020884
1377.1533,1820.3476540544134
1379.0096,1483.9683864672725
1380.8652,1178.7499871915024
1382.7201,876.591332638257
1384.5742,649.0412874311951
1386.4275,499.1987074280614
1388.2802,353.1124419961898
1390.132,264.2813355109247
1391.9832,194.80422881649793
1393.8336,143.2299601143268
1395.6832,112.95736565779498
1397.5322,77.68528026798776
1399.3803,63.86253763641889
1401.2278,51.38797067775704
1403.0745,37.51041166804407
1404.9204,28.978692369446435
1406.7656,54.14164416903168
1408.6101,82.69809816408451
1410.4538,124.24688491047164
1412.2968,180.98683413708204
1414.139,239.066774330342
1415.9805,338.9355321668045
1417.8213,400.39193193236133
1419.6613,524.7347945235506
1421.5006,671.9629368329934
1423.3391,873.6251705059685
1425.1769,1170.4703004681242
1427.0139,1574.7971229088653
1428.8502,2082.654422312894
1430.6858,2600.6909674169465
1432.5206,2998.3555061312118
1434.3547,3231.546760358977
1436.188,3298.1134220199783
1438.0206,3267.1541507184893
1439.8524,3119.5175730776446
1441.6835,3031.702283049043
1443.5139,2953.50684338911
1445.3435,2898.2297865372457
1447.1724,2916.5196153977904
1449.0005,2881.7248038927855
1450.8279,2810.0437967790804
1452.6545,2845.3750099962754
1454.4804,2893.6168313835415
1456.3056,2904.817620326299
1458.13,2856.1757072738037
1459.9536,2734.289393627142
1461.7766,2533.0069522256426
1463.5987,2243.6766285657504
1465.4202,1979.046642813838
1467.2409,1648.0651926995151
1469.0608,1401.830456161928
1470.88,1161.590594659573
1472.6984,979.2437556326431
1474.5161,791.388074905427
1476.3331,652.7216785097789
1478.1493,550.042684563673
1479.9648,498.7492046578718
1481.7795,460.5893448827119
1483.5935,413.8112063410417
1485.4067,396.2128855298197
1487.2192,359.3424748078978
1489.031,331.1480625719987
1490.842,300.0277336254276
1492.6522,309.32956946001104
1494.4618,246.55164856730153
1496.2705,264.7420463455619
1498.0785,242.19883572754316
1499.8858,218.47008699857815
1501.6924,204.85386802201356
1503.4981,186.29824447649844
1505.3032,157.8012799921462
1507.1075,138.11103633609127
1508.911,120.075573697457
1510.7138,106.54295088425988
1512.5159,83.41122550376258
1514.3172,52.32845409780202
1516.1178,31.092692374101716
1517.9176,3.0019955171010224
1519.7166,-8.045581599682919
1521.515,-13.601984132752477
1523.3126,-12.719076863249938
1525.1094,-30.64858868850206
1526.9055,-37.69212144225821
1528.7008,-36.20097077887294
1530.4954,-47.326055808409365
1532.2893,-31.017933993231964
1534.0824,-44.62669000841379
1535.8747,-22.802098659868534
1537.6663,-6.1934889328786085
1539.4572,-19.399962019761006
1541.2473,15.779442760114762
1543.0367,28.495879893001074
1544.8253,35.7505037073588
1546.6132,95.99446824669303
1548.4003,110.67892719700467
1550.1867,189.00503328435298
1551.9723,265.5239381280089
1553.7572,377.4867914571978
1555.5414,491.64474034590603
1557.3247,644.0989280932581
1559.1074,818.2504930819323
1560.8893,1001.5005672536199
1562.6705,1191.4002743675092
1564.4509,1339.9507281677897
1566.2305,1451.3530304846454
1568.0094,1498.85826974876
1569.7876,1541.7675198772886
1571.565,1531.581839798806
1573.3417,1544.2522730242126
1575.1176,1537.3298477485905
1576.8928,1580.7655767245042
1578.6672,1579.6604573312216
1580.4409,1613.065471140354
1582.2138,1684.2815839269124
1583.986,1776.0097453352564
1585.7575,1876.2508881669273
1587.5282,1998.9059274633764
1589.2981,2106.825759503544
1591.0673,2212.9112605773116
1592.8358,2360.7632859063115
1594.6035,2461.182668583062
1596.3704,2553.6202180924547
1598.1366,2674.676719307554
1599.9021,2769.8029315652257
1601.6668,2859.5995874555692
1603.4308,2986.267391870656
1605.194,3165.307021106565
1606.9564,3342.0191215967025
1608.7182,3618.954308121405
1610.4791,3921.763162040821
1612.2394,4265.996228525553
1613.9988,4617.90401352858
1615.7576,4928.336980342919
1617.5156,5154.995546082544
1619.2728,5280.580078578068
1621.0293,5242.390894110148
1622.785,5049.078256153641
1624.54,4746.2423757595
1626.2942,4385.8334134878905
1628.0477,3971.6014824365693
1629.8005,3605.7966518449502
1631.5525,3290.6689512364364
1633.3037,2997.118374076468
1635.0542,2767.1448809237972
1636.804,2584.3484023659976
1638.553,2418.0788413191935
1640.3013,2358.936074856032
1642.0488,2321.9699558683697
1643.7955,2342.230313658705
1645.5416,2393.9669543098403
1647.2868,2492.779660482273
1649.0313,2617.2181908968346
1650.7751,2719.4322793465617
1652.5181,2888.4216334523103
1654.2604,3048.1359336406144
1656.0019,3258.9248314537967
1657.7427,3491.037947952816
1659.4828,3751.874871609392
1661.222,3937.0851559848634
1662.9606,3953.3183171218234
1664.6984,3785.623831692018
1666.4354,3405.901136834011
1668.1717,2955.799631830132
1669.9072,2423.068681903701
1671.642,1993.0076227200434
1673.3761,1626.9657657137982
1675.1094,1350.19240238953
1676.8419,1108.1368079821464
1678.5737,944.048244224633
1680.3048,781.525961768607
1682.0351,669.3192018252116
1683.7646,591.4771977903288
1685.4934,505.5991763666507
1687.2215,443.3343583421033
1688.9488,387.831959448617
1690.6754,342.5911909847882
1692.4012,325.66126037089043
1694.1263,280.6913716012873
1695.8506,256.38072541373367
1697.5742,235.82851973906827
1699.297,207.2839499443253
1701.0191,175.34620903825362
1702.7404,163.7644879567638
1704.461,124.437975882307
1706.1808,107.71586035969176
1707.8999,112.24732768934791
1709.6182,94.68156309454798
1711.3358,77.06775067609351
1713.0527,68.80507358797149
1714.7688,64.29271421349404
1716.4841,40.22985424792387
1718.1987,50.565674743598265
1719.9126,56.549356350556536
1721.6257,35.48007921318367
1723.338,48.807022910370506
1725.0496,28.679366666208807
1726.7605,42.346289216719924
1728.4706,39.956969011131605
1730.18,23.360584075212955
1731.8886,34.65631203516523
1733.5964,33.99333028358615
1735.3036,28.520815866512294
1737.0099,24.887945490047514
1738.7156,44.093895575089846
1740.4204,13.587842293659378
1742.1246,17.868961376837888
1743.8279,2.1364284198316454
1745.5306,5.739418839157679
1747.2325,-1.8228919700277402
1748.9336,-9.551328669964278
1750.634,-16.646697712199057
1752.3336,-11.159710130509211
1754.0325,-23.740910658162193
1755.7307,-14.040732542921432
1757.4281,-17.50937186085548
1759.1247,-9.396884421114919
1760.8206,3.9968488857698503
1762.5158,4.72204104414368
1764.2102,4.678904998384041
1765.9039,-17.332346354350648
1767.5968,3.938499836310257
1769.289,6.941829570875598
1770.9804,2.228028810469823
1772.6711,9.39748344679856
1774.361,16.250579349289183
1776.0502,27.73770229339425
1777.7386,28.80923789206281
1779.4263,35.565571480869494
1781.1132,38.2570881072952
1782.7994,27.534172463170307
1784.4849,38.24720885775287
1786.1696,40.346581324963154
1787.8535,38.33267351624636
1789.5367,47.25586867958509
1791.2192,35.9665496796365
1792.9009,52.01509890849911
1794.5818,56.9018983986075
1796.2621,60.07732966224694
1797.9415,38.94177364268671
1799.6202,64.99561068242429
1801.2982,55.18922073454041
1802.9755,44.522983102162925
1804.6519,54.997276536528716
1806.3277,56.36247934364246
1808.0027,60.31896927953812
1809.6769,87.21712353662133
1811.3504,70.45731870411146
1813.0231,70.33993049905894
1814.6951,65.66533393394002
1816.3664,67.33390331783448
1818.0369,79.84601230317094
1819.7067,81.05203386903668
1821.3757,87.25234019606296
1823.044,91.54730265436001
1824.7115,101.23729174151686
1826.3783,96.72267703965144
1828.0443,93.65382711851043
1829.7096,106.5811095806148
1831.3741,113.50489109194768
1833.0379,124.32553725268554
1834.701,101.99341252795466
1836.3633,123.75888013962685
1838.0248,115.57230228964136
1839.6856,126.98403994234968
1841.3457,134.2444529063814
1843.005,126.4538997205268
1844.6636,147.11273758113384
1846.3214,132.3713224200119
1847.9785,154.9300086978442
1849.6349,134.2391495516017
1851.2904,168.69909656895834
1852.9453,159.61019999519658
1854.5994,149.97280838860843
1856.2528,164.8872687113867
1857.9054,164.40392642599681
1859.5572,164.3731253460337
1861.2083,165.6952076410539
1862.8587,177.42051383688295
1864.5084,172.7993828023973
1866.1572,173.03215163226787
1867.8054,165.21915569317525
1869.4528,161.5107286214784
1871.0994,159.3572024013447
1872.7453,175.20890740183904
1874.3905,184.0161723984511
1876.0349,181.12932441458543
1877.6786,191.59868863348356
1879.3215,200.22458842709602
1880.9637,188.9573452513864
1882.6051,189.1972785600733
1884.2458,193.2947059173025
1885.8858,189.49994299524906
1887.525,193.56330353314115
1889.1634,190.13509937520894
1890.8011,174.1656404300502
1892.4381,196.05523470491244
1894.0743,186.65418846539023
1895.7098,197.31280601652588
1897.3446,203.7313897968238
1898.9786,194.26024027165977
1900.6118,212.89965586909875
1902.2443,192.0999330746031
1903.8761,194.51136624464107
1905.5071,187.03424781467993
1907.1374,197.96886827507478
1908.7669,189.76551624583908
1910.3957,204.12447836729734
1912.0237,190.9460393821214
1913.651,180.1304819917391
1915.2776,185.72808698811878
1916.9034,197.43913336192554
1918.5285,175.91389824654425
1920.1528,170.75265680097073
1921.7764,169.6056824250627
1923.3992,184.67324681115315
1925.0213,178.35561995551916
1926.6427,181.2530700077068
1928.2633,164.01586333370642
1929.8832,184.0942644869806
1931.5023,171.28853638083274
1933.1207,167.6989400876264
1934.7383,183.625734966839
1936.3552,181.7691787009603
1937.9714,195.22952713622317
1939.5868,168.25703430116937
1941.2015,170.4019522720464
1942.8154,178.06453144253192
1944.4286,164.54502050228666
1946.041,157.69366636032646
1947.6528,159.91071428021678
1949.2637,163.24640794858897
1950.8739,166.1509894529654
1952.4834,164.07469924840825
1954.0921,154.66777612846772
1955.7001,152.83045724595058
1957.3074,157.462978206986
1958.9139,149.2155730893992
1960.5197,152.83847439638703
1962.1247,146.1319131389905
1963.729,139.5461187998676
1965.3325,143.88131940035828
1966.9353,147.9377415663405
1968.5374,143.2656104848811
1970.1387,138.5651498636696
1971.7393,138.0365819777419
1973.3392,135.98012771648177
1974.9383,120.04600658890809
1976.5366,130.03443674423852
1978.1342,129.79563513123298
1979.7311,136.77981739830602
1981.3273,147.887197895918
1982.9227,128.76798960673113
1984.5173,129.52240403453698
1986.1112,130.3006513954474
1987.7044,136.4529406103527
1989.2968,126.52947929713469
1990.8885,126.78047370914805
1992.4795,126.5061288344532
1994.0697,139.20664839330743
1995.6592,134.5822348409081
1997.2479,126.78308924038629
1998.8359,118.95941130905203
2000.4232,119.11139949638641
2002.0097,133.3392510622764
2003.5955,115.19316207549605
2005.1805,127.8733272714278
2006.7648,135.12994023352417
2008.3484,113.16319326650591
2009.9312,135.2232773237945
2011.5133,140.56038222718007
2013.0946,136.0246964462208
2014.6752,138.21640704487254
2016.2551,126.68569972684327
2017.8342,124.73275881367886
2019.4126,129.8077673600685
2020.9902,132.7109071733753
2022.5672,129.89235876288535
2024.1433,124.80230131077747
2025.7188,122.64091270030804
2027.2935,123.20836956670973
2028.8674,113.50484731880692
2030.4406,112.43052013334068
2032.0131,124.1855610520056
2033.5849,120.5201419921923
2035.1559,128.7344336294368
2036.7261,125.22860543407319
2038.2957,123.00282558909385
2039.8645,122.10726102520539
2041.4325,125.24207744308592
2042.9998,124.45743932234313
2044.5664,117.40350989016315
2046.1323,114.93045112915979
2047.6974,119.38842384791292
2049.2617,122.42758770569776
2050.8254,113.2481011679065
2052.3883,124.50012147565599
2053.9504,112.73380473758334
2055.5118,119.74930581732497
2057.0725,114.04677845117976
2058.6325,121.87637517795474
2060.1917,115.18824739599017
2061.7502,111.68254528486455
2063.3079,106.95941787227525
2064.8649,112.26901306909599
2066.4212,133.46147771660708
2067.9767,117.8869575333988
2069.5315,120.84559690344918
2071.0856,108.33753903186698
2072.6389,106.21292591530573
2074.1915,113.2718984670446
2075.7433,89.01459653823372
2077.2945,111.79115884730436
2078.8448,96.00172322254389
2080.3945,105.49642637432862
2081.9434,112.4254040530177
2083.4916,102.83879095400744
2085.039,103.53672064844045
2086.5857,96.56932567907302
2088.1317,104.13673755329341
2089.677,103.53908681279836
2091.2215,89.57650295791791
2092.7652,90.34911445359148
2094.3083,105.00704886899575
2095.8506,98.25043286981486
2097.3921,107.07939207166419
2098.933,102.49405110765542
2100.4731,98.0945335401068
2102.0124,97.13096190639794
2103.5511,108.25345776296308
2105.089,113.26214169492755
2106.6261,108.75713320488171
2108.1626,111.48855066279543
2109.6983,115.35651135106878
2111.2332,111.86113143721627
2112.7675,109.35252593518862
2114.301,102.13080874032562
2115.8337,102.99609265444224
2117.3657,110.79848945804633
2118.897,102.48810990168545
2120.4276,97.7650636279227
2121.9575,106.12945925444046
2123.4866,104.08140442127115
2125.0149,119.2210057071527
2126.5426,97.34836865001057
2128.0695,100.51359759556021
2129.5956,107.66679591603452
2131.1211,104.2080659785322
2132.6458,108.43750907348385
2134.1698,103.85522544924106
2135.693,100.9113142697804
2137.2155,92.10587366052778
2138.7373,102.98900073779532
2140.2584,95.06079169683767
2141.7787,98.52134170301929
2143.2983,94.17074497109888
2144.8171,91.75909473062097
2146.3353,91.48648326942407
2147.8527,99.30300195775567
2149.3693,97.30874125099945
2150.8853,89.75379061151034
2152.4005,87.83823852855517
2153.9149,94.76217259386476
2155.4287,79.87567952078712
2156.9417,85.97884507505069
2158.454,90.8717542236277
2159.9655,82.70449107370223
2161.4764,86.17713882374119
2162.9865,97.83977984516764
2164.4958,91.69249564763209
2166.0045,90.28536676238946
2167.5124,96.46847280377051
2169.0195,88.44189248325301
2170.526,88.90570354763054
2172.0317,88.80998285927876
2173.5367,96.40480639151565
2175.0409,95.74024922956164
2176.5445,93.86638549458849
2178.0473,98.93328835036687
2179.5494,89.09103002200368
2181.0507,94.78968174527358
2182.5513,89.12931386504147
2184.0512,95.80999577827629
2185.5504,102.58179599065443
2187.0488,86.9447820497519
2188.5465,82.94902047732944
2190.0435,82.79457692569986
2191.5397,80.98151621768693
2193.0353,82.159902348169
2194.5301,75.27979850221027
2196.0241,81.04126704327678
2197.5175,82.14436958203646
2199.0101,74.7391669187457
2200.502,73.62571903221738
2201.9931,71.15408515387321
2203.4835,73.77432377887772
2204.9733,76.53649269085622
2206.4622,68.29064893569034
2207.9505,71.88684879389803
2209.438,69.07514786309093
2210.9248,75.75560102201416
2212.4109,67.02826245866027
2213.8962,74.19318560346755
2215.3809,69.10042321659284
2216.8648,68.00002731626182
2218.3479,66.94204922969607
2219.8304,59.27653960411908
2221.3121,51.60354841733306
2222.7931,60.62312505437649
2224.2733,52.68531838425247
2225.7529,52.39017666973314
2227.2317,60.23774764673817
2228.7098,53.32807852728729
2230.1872,60.21121592102236
2231.6638,61.437205904305074
2233.1397,61.95609395138558
2234.6149,50.1679249221429
2236.0894,50.0227430568948
2237.5632,56.4205920942818
2239.0362,61.56151527271777
2240.5085,57.44555526641034
2241.9801,48.5227541339525
2243.4509,53.0431533594824
2244.921,51.20679394191052
2246.3904,34.21371634971706
2247.8591,49.76396053931353
2249.3271,40.35756612497653
2250.7943,39.594572223342766
2252.2608,33.975017547473726
2253.7266,41.34894041448615
2255.1917,27.26637880174735
2256.656,28.927370273135466
2258.1197,45.23195211986604
2259.5826,42.980161343881036
2261.0447,48.92203449480394
2262.5062,36.70760769245635
2263.9669,47.436916567440676
2265.4269,41.15999638328367
2266.8862,37.82688192914293
2268.3448,43.13760758257649
2269.8026,44.29220734287469
2271.2598,38.29071477795219
2272.7162,45.88316301280224
2274.1719,31.31958478951219
2275.6268,35.750012391337805
2277.0811,39.524477788339254
2278.5346,50.29301259307749
2279.9874,49.85564802286876
2281.4395,48.0124147921008
2282.8908,44.213343116605074
2284.3414,54.35846273208972
2285.7914,50.54780293213025
2287.2406,38.081392466718626
2288.689,56.25925958036942
2290.1368,49.431432136783314
2291.5838,40.697937437069186
2293.0302,52.05880228802198
2294.4758,43.06405308945773
2295.9206,44.21371572060525
2297.3648,45.15781563005294
2298.8082,49.59637782425284
2300.251,42.42942685807907
2301.693,44.20698679044244
2303.1343,46.429081255959545
2304.5748,37.94573344717833
2306.0147,41.9569660923562
2307.4538,49.41280154029505
2308.8922,46.06326172022682
2310.3299,41.608368067256606
2311.7669,43.848141555856955
2313.2031,46.982602744418045
2314.6387,40.06177175284802
2316.0735,35.53566823122992
2317.5076,44.10431142902917
2318.941,47.41772024035504
2320.3737,41.925913118274366
2321.8056,37.77890804167714
2323.2369,39.1767225701949
2324.6674,44.269373885669665
2326.0972,50.80687877817718
2327.5263,43.88925359510017
2328.9547,38.86651417575308
2330.3823,43.38867592055817
2331.8092,50.90575384127351
2333.2355,30.667762515770846
2334.661,33.2747160128647
2336.0858,34.87662809469248
2337.5098,41.27351219064417
2338.9332,37.715381381344514
2340.3558,37.3022483346831
2341.7778,49.68412534139702
2343.199,41.661024319200806
2344.6195,42.632956688969216
2346.0393,40.54993345496655
2347.4583,50.31196519512764
2348.8767,45.61906208188884
2350.2943,45.72123378456786
2351.7113,45.968489516291356
2353.1275,50.6108380329747
2354.543,48.648287630849154
2355.9578,51.38084610003909
2357.3718,46.5085207441856
2358.7852,52.881318353123106
2360.1978,47.94924525160013
2361.6098,50.4123072355527
2363.021,56.92050962142446
2364.4315,42.02385722153656
2365.8413,46.97235427900523
2367.2504,53.16600461670885
2368.6587,49.05481158780162
2370.0664,39.98877801377898
2371.4733,44.3179062255889
2372.8795,44.242198154291145
2374.285,49.36165528776678
2375.6899,46.776278671475325
2377.0939,46.5860688572601
2378.4973,58.79102592920151
2379.9,46.44114950551955
2381.3019,49.38643861652395
2382.7032,39.426891828113526
2384.1037,41.4625072123232
2385.5035,40.99328244691867
2386.9027,46.3192147950424
2388.3011,47.39030110990382
2389.6987,43.85653778152073
2391.0957,42.16792072600765
2392.492,39.624445420914526
2393.8876,32.02610692211283
2395.2824,31.67289988922971
2396.6765,41.06481866163335
2398.07,24.551857261963278
2399.4627,37.934009302210825
2400.8547,35.211268148849626
2402.246,31.633626789013988
2403.6366,41.55107785772532
2405.0265,36.163613673669715
2406.4156,38.421226140023236
2407.8041,32.973906798326084
2409.1918,25.421646805907585
2410.5789,31.51443699035883
2411.9652,37.20226792505514
2413.3508,39.335129868227796
2414.7358,33.963012706086374
2416.12,44.78590593148897
2417.5035,27.45379869766407
2418.8863,35.916679709980826
2420.2684,34.274537399271594
2421.6497,33.82735983720352
2423.0304,32.92513475269914
2424.4104,34.46784953640736
2425.7896,35.60549124972613
2427.1682,43.78804660937408
2428.546,35.06550197601655
2429.9232,41.38784327243809
2431.2996,39.90505607076807
2432.6753,34.31712552925865
2434.0503,35.62403640711125
2435.4246,34.72577312035639
2436.7982,29.272319728784964
2438.1711,24.663659944930373
2439.5433,39.04977718860357
2440.9148,30.180654632978985
2442.2856,23.456275060733674
2443.6557,24.676620952738176
2445.025,42.09167455530121
2446.3937,38.20141786796535
2447.7617,36.505832469357415
2449.1289,39.45489955609071
2450.4955,34.84859995972022
2451.8613,27.73691411725224
2453.2265,42.26982211720815
2454.5909,38.397303770739654
2455.9546,47.669338466301724
2457.3177,39.93590520837586
2458.68,34.39698252475125
2460.0416,42.40254854385785
2461.4025,36.002581050155754
2462.7627,29.747057404080465
2464.1222,36.235954606041446
2465.4811,46.06924935897803
2466.8392,55.046918003470296
2468.1966,40.86893641940583
2469.5533,49.1852799362033
2470.9093,49.44592347459297
2472.2645,41.900841463452025
2473.6191,43.10000783719886
2474.973,46.1433961112441
2476.3262,53.68097936999891
2477.6787,40.71273023644085
2479.0305,45.538620796737746
2480.3816,47.058622729930335
2481.7319,44.72270725967405
2483.0816,47.18084513903818
2484.4306,48.48300667386536
2485.7789,47.82916169819032
2487.1264,47.01927956121824
2488.4733,43.953329133862894
2489.8195,48.83127881684527
2491.165,39.703096571353626
2492.5097,38.81874987026333
2493.8538,40.87820578941978
2495.1972,42.03143101648118
2496.5398,43.82839183032422
2497.8818,40.01905408951177
2499.2231,39.75338321432332
2500.5637,42.23134422484816
2501.9035,39.95290174364243
2503.2427,44.318019970949194
2504.5812,44.82666270748257
2505.919,47.17879331077711
2507.256,47.024374690100785
2508.5924,51.41336928293401
2509.9281,39.54573905651387
2511.2631,45.62144546394359
2512.5974,49.54044956286941
2513.9309,44.602711954723986
2515.2638,48.40819274553576
2516.596,47.10685159530658
2517.9275,46.0486476799565
2519.2583,42.73353970433766
2520.5884,45.91148591281592
2521.9178,50.98244412242241
2523.2465,41.5963716910735
2524.5745,47.35322546686166
2525.9018,53.152961881915985
2527.2284,49.54553689483373
2528.5543,52.68090593268312
2529.8796,52.20902392707774
2531.2041,56.82984528282225
2532.5279,52.243323882631785
2533.851,57.04941304092324
2535.1735,57.39806554968038
2536.4952,55.239233630392846
2537.8163,53.022868930570326
2539.1366,59.298922545330356
2540.4562,41.21734503956213
2541.7752,52.52808638516592
2543.0935,58.98109614186956
2544.411,64.67632334411996
2545.7279,65.6637164365535
2547.0441,62.59322321704349
2548.3596,57.51479082682715
2549.6744,65.47836578120916
2550.9885,63.73389402034684
2552.3019,63.18132082961415
2553.6146,62.22059085704632
2554.9266,68.25164811886589
2556.2379,65.62443600908932
2557.5485,59.138897239217044
2558.8585,63.59497386450494
2560.1677,62.992607348820684
2561.4762,68.43173852008238
2562.7841,71.9123075762825
2564.0913,65.23425403109616
2565.3977,77.39751667907592
2566.7035,60.05203366243222
2568.0086,72.24774234940116
2569.313,74.6345795076985
2570.6167,71.41248118256317
2571.9197,75.78138267288796
2573.222,85.04121856344125
2574.5236,73.99192268117804
2575.8246,79.433428002641
2577.1248,76.56566676445357
2578.4244,81.28857040890534
2579.7232,85.15206961262925
2581.0214,79.4560942393731
2582.3189,88.45057330136444
2583.6157,85.08543501627003
2584.9118,83.26060671725111
2586.2072,89.4760148866153
2587.5019,88.68158517406391
2588.7959,89.72724233453846
2590.0893,101.91291023616509
2591.3819,92.48851184979742
2592.6739,94.35396912716078
2593.9652,104.25920309509524
2595.2557,111.50413383690204
2596.5456,98.63868039329066
2597.8348,99.11276068992925
2599.1234,103.62629166609963
2600.4112,105.5291892699563
2601.6983,104.5213684133912
2602.9848,111.95274295300487
2604.2705,102.52322570018453
2605.5556,121.83272834679008
2606.84,109.18116155944983
2608.1237,107.06843478646476
2609.4067,118.29445638432469
2610.689,112.00913363883524
2611.9707,102.11237265285797
2613.2516,103.35407840916298
2614.5319,104.83415486939737
2615.8115,101.8525049616677
2617.0903,95.70903056573934
2618.3685,106.00363254285298
2619.6461,99.43621079715899
2620.9229,105.85666417277184
2622.199,108.86489051944432
2623.4745,102.86078662836258
2624.7493,102.04424820206452
2626.0234,99.21516991448016
2627.2968,101.52344541909667
2628.5695,109.01896737725042
2629.8415,106.25162743504336
2631.1128,96.771316148388
2632.3835,97.12792301068077
2633.6535,104.22133654760512
2634.9228,93.10144431356593
2636.1914,99.91813282075509
2637.4593,98.57128765034986
2638.7265,96.01079338434658
2639.9931,93.83653361902941
2641.259,106.29839099057472
2642.5242,99.59624719679402
2643.7887,93.12998287251492
2645.0525,108.6494776566027
2646.3156,94.85461025662369
2647.5781,91.44525829364966
2648.8398,100.12129844020626
2650.1009,92.03260645436717
2651.3613,96.47905709299346
2652.6211,90.21052419262003
2653.8801,97.37688062499126
2655.1385,99.17799835974688
2656.3961,89.51374839275769
2657.6531,98.13400072811504
2658.9094,97.83862447477287
2660.1651,99.07748776034589
2661.42,96.05045773406249
2662.6743,102.45740055437665
2663.9279,105.49818141923822
2665.1808,106.22266450202306
2666.433,108.03071292112548
2667.6846,103.67218873271332
2668.9354,114.29695291264761
2670.1856,119.10486540006741
2671.4351,123.24578499114273
2672.6839,126.81956929099545
2673.9321,124.17607467228976
2675.1795,121.46515623949477
2676.4263,124.48666785531907
2677.6724,128.6404621678198
2678.9179,133.07639058018776
2680.1626,127.49430320920959
2681.4067,125.94404884090767
2682.6501,133.125474986362
2683.8928,131.58842789721263
2685.1348,123.4327524938443
2686.3761,123.4582923807584
2687.6168,120.364889928129
2688.8568,107.35238627154752
2690.0961,110.07062134295666
2691.3348,115.81943400077552
2692.5727,109.14866200271695
2693.81,117.55814194830009
2695.0466,108.09770934555752
2696.2826,113.46719852694048
2697.5178,109.11644274392324
2698.7524,107.34527411330868
2699.9863,112.35352366073488
2701.2195,117.09102133838775
2702.452,121.55759597491766
2703.6839,113.65307522806523
2704.9151,126.27728553999486
2706.1456,130.2800522163406
2707.3755,138.9611992999637
2708.6046,140.02054953092528
2709.8331,146.6079242596747
2711.0609,154.7231434364558
2712.2881,154.51602554543376
2713.5145,161.88638752354262
2714.7403,171.8840447625559
2715.9654,173.9088110353842
2717.1899,186.71049839609753
2718.4136,200.58891715967792
2719.6367,215.24387577400296
2720.8591,223.52518068106144
2722.0809,218.08263617040353
2723.3019,242.71604429632822
2724.5223,246.77520493230827
2725.7421,250.80991552465616
2726.9611,253.16997105193258
2728.1795,255.25516398459928
2729.3972,241.56528426141864
2730.6142,238.95011926860133
2731.8306,221.10945397670582
2733.0462,203.3930709667896
2734.2612,188.45075060881618
2735.4756,171.332271238818
2736.6892,170.53740930832055
2737.9022,157.7659395555271
2739.1145,135.7676350132665
2740.3262,129.14226713670905
2741.5372,124.98960602334853
2742.7475,117.9594204792565
2743.9571,97.50147806060869
2745.1661,95.46554514398662
2746.3744,81.7513871309572
2747.582,77.05876846843205
2748.7889,66.08745278580898
2749.9952,64.63720294189886
2751.2008,50.30778113463788
2752.4057,47.198948915590165
2753.61,45.46046733324306
2754.8136,48.34209696409448
2756.0165,40.1935979300377
2757.2188,39.164729869545454
2758.4204,36.65525201915449
2759.6213,39.71492322375485
2760.8215,30.093501961684183
2762.0211,31.390746314131093
2763.22,30.50641406134929
2764.4182,31.3402626696855
2765.6158,23.692049300422582
2766.8127,16.411530801441018
2768.009,20.19846378370096
2769.2045,9.102604694047272
2770.3994,5.023709777340173
2771.5936,2.7615351874138696
2772.7872,0.8158370278658253
2773.9801,-7.513628625321928
2775.1723,-6.327105704325504
2776.3639,-3.774763080171226
2777.5548,-13.60670641610011
2778.745,-15.323003665469969
2779.9346,-10.023586850642175
2781.1235,-16.758234917171706
2782.3117,-8.926626674981208
2783.4992,-9.978273519226548
2784.6861,-11.762597668063393
2785.8723,-8.428921656695309
2787.0579,-10.276450511975042
2788.2428,-5.454305055828286
2789.427,-1.7615034484404646
2790.6106,-3.3970093614896086
2791.7935,4.690231130765028
2792.9757,-3.198694109811811
2794.1573,14.837302731742284
2795.3382,16.799341425343528
2796.5184,24.088541592535535
2797.698,25.90602268686905
2798.8769,32.25290392100965
2800.0551,45.330304248562925
2801.2327,55.53934230060577
2802.4096,52.681136254911735
2803.5859,75.20680373386108
2804.7615,91.61746183302307
2805.9364,101.51422689589924
2807.1106,119.59821434981666
2808.2842,134.07053860695942
2809.4572,157.73231288353008
2810.6294,180.9346490550256
2811.801,215.22865741962062
2812.972,241.0154464661432
2814.1423,276.24612253113526
2815.3119,314.6217895409841
2816.4808,355.0935486596162
2817.6491,389.6124979047404
2818.8167,436.5297317431297
2819.9837,489.146340745433
2821.15,541.4634111170021
2822.3157,578.6820241717255
2823.4807,643.8032558088578
2824.645,695.4781761408333
2825.8086,744.8578488420545
2826.9716,790.8933306321419
2828.134,852.1356707821377
2829.2957,881.485910654152
2830.4567,904.3950830889378
2831.617,949.0142121123898
2832.7767,959.394312706452
2833.9358,943.8363903629264
2835.0941,944.7914409796729
2836.2519,927.410451016187
2837.4089,899.444397484051
2838.5653,902.0942481207419
2839.7211,879.1609616692938
2840.8761,865.9454878517987
2842.0306,870.3487675987392
2843.1843,878.9717331811426
2844.3374,909.3653081665495
2845.4899,928.1304073327839
2846.6417,984.4179363640156
2847.7928,1032.928791663112
2848.9433,1086.8138597887607
2850.0931,1134.6740169703621
2851.2422,1181.510128569178
2852.3907,1240.2730485997308
2853.5385,1286.9136192614415
2854.6857,1329.082670351001
2855.8323,1379.5810187959648
2856.9781,1427.6094682330615
2858.1233,1458.9188085032094
2859.2679,1496.0098151712323
2860.4118,1559.1332492127679
2861.555,1599.1898566433542
2862.6976,1640.6303678871973
2863.8395,1668.1054973766052
2864.9808,1692.5159431375835
2866.1214,1732.2623865150815
2867.2614,1745.4954919288907
2868.4007,1755.865906476178
2869.5393,1754.074259799156
2870.6773,1770.671163981379
2871.8146,1796.2572135656585
2872.9513,1783.532985388094
2874.0874,1778.2490383222153
2875.2227,1768.7059134062206
2876.3574,1753.5541338958183
2877.4915,1733.2442053596592
2878.6249,1699.8766158308522
2879.7577,1672.8518360100643
2880.8898,1663.7203195991965
2882.0212,1649.8325035716325
2883.152,1635.0388082635525
2884.2821,1615.3396375128127
2885.4116,1618.9853788068817
2886.5405,1610.1764034798316
2887.6686,1622.8630666758813
2888.7962,1633.495707437486
2889.923,1624.0246485784714
2891.0493,1651.5001965777058
2892.1748,1659.622641673811
2893.2997,1649.4922575904077
2894.424,1669.4093014548894
2895.5476,1688.474013899729
2896.6706,1701.0366188633056
2897.7929,1706.3973233992597
2898.9145,1749.7563175508649
2900.0355,1755.7637742974225
2901.1559,1785.8198491206708
2902.2756,1806.5746799447115
2903.3946,1837.5283868354466
2904.513,1874.8810717930328
2905.6308,1897.1828184423434
2906.7479,1910.4336916594407
2907.8643,1941.4337373485596
2908.9801,1944.082982309597
2910.0953,1955.781433928115
2911.2098,1960.4790801488448
2912.3236,1944.8758893587042
2913.4368,1949.5218103398201
2914.5494,1913.7167724255605
2915.6613,1888.1106854540762
2916.7725,1874.0034401263513
2917.8831,1843.6449082622614
2918.9931,1831.6849429416507
2920.1024,1790.173378807913
2921.211,1771.2600321875934
2922.319,1766.4947015055031
2923.4264,1754.5271674738544
2924.5331,1760.4571931399116
2925.6391,1761.3845240056678
2926.7445,1746.0588879685447
2927.8493,1747.7799953121194
2928.9534,1746.3475388593797
2930.0569,1751.4611939555148
2931.1597,1767.2706184822378
2932.2619,1764.9254528066513
2933.3634,1777.3753196231514
2934.4643,1780.969823976879
2935.5645,1781.4585531392245
2936.6641,1775.3910765718788
2937.763,1748.916945921948
2938.8613,1707.9856950826265
2939.959,1690.6468404579418
2941.056,1636.1498813720627
2942.1523,1564.4943002426908
2943.248,1515.4795631260286
2944.3431,1438.555120433337
2945.4375,1357.9204074210807
2946.5313,1258.2248449601736
2947.6244,1170.5678403423258
2948.7169,1097.8987882769993
2949.8087,1010.6170717679776
2950.8999,921.0220628400568
2951.9904,853.7131234118629
2953.0803,791.9896061918001
2954.1696,740.9508553511434
2955.2582,686.2962071412715
2956.3462,651.2249904040541
2957.4335,611.8365271183998
2958.5202,579.6801327509675
2959.6062,559.355116650051
2960.6916,543.9607823671427
2961.7764,517.4964278601841
2962.8605,513.1113456475096
2963.9439,506.10482307248867
2965.0267,500.4261423473786
2966.1089,488.1245806233876
2967.1905,486.3994100474638
2968.2714,489.74989788530945
2969.3516,480.92530653863287
2970.4312,495.8748935116439
2971.5102,502.347911499299
2972.5885,508.1436082378059
2973.6662,507.71122643989304
2974.7432,513.4500037368534
2975.8196,524.2091726828679
2976.8954,514.2879606976176
2977.9705,508.88558995869266
2979.045,497.7512775008039
2980.1188,500.7342352698062
2981.192,489.3836702340425
2982.2645,468.798784354513
2983.3364,455.0287746983814
2984.4077,423.0228336448242
2985.4783,420.73014902272985
2986.5483,395.74990443075905
2987.6177,367.6312792602714
2988.6864,341.7234489451278
2989.7545,324.7755852428762
2990.8219,278.73685649383043
2991.8887,261.30642779054875
2992.9548,244.53346143822063
2994.0204,221.26711712897196
2995.0852,185.30655210959395
2996.1495,164.35092141420665
2997.2131,146.99937822386482
2998.276,120.80107407611393
2999.3383,111.65515903850644
3000.4,89.0107819705836
3001.4611,71.36709061533577
3002.5215,61.723231825645655
3003.5812,57.42835174072525
3004.6404,40.831595882554325
3005.6989,32.38210919882931
3006.7567,28.879036228931
3007.8139,19.221521188418933
3008.8705,17.008708004062555
3009.9264,5.439740410415936
3010.9818,6.063761971946292
3012.0364,0.5799161987237085
3013.0905,-2.462653459819478
3014.1439,-6.164803560050018
3015.1966,-6.127366056426695
3016.2487,-10.001111317020957
3017.3002,-8.33674849751742
3018.3511,-7.68488684249877
3019.4013,-14.346052312430345
3020.4509,-8.37069409575787
3021.4998,-5.759118063864605
3022.5481,-8.66154646489997
3023.5958,-10.778144013423912
3024.6428,-0.5589888951474222
3025.6892,-0.9540516221229609
3026.735,5.836702877896073
3027.7802,1.6133192081317134
3028.8247,3.7258419134390692
3029.8685,4.824315522540246
3030.9118,15.158784526898728
3031.9544,14.529293369735285
3032.9963,17.185886342682807
3034.0376,23.72860759208129
3035.0783,33.457501092411974
3036.1184,37.4226105808703
3037.1578,42.67397946007702
3038.1966,46.91165075842696
3039.2348,53.635667077575135
3040.2723,56.646070550060244
3041.3092,53.79290277206434
3042.3455,59.8262047733088
3043.3811,61.59601704558628
3044.4161,60.70237948242749
3045.4505,69.09533136140305
3046.4842,63.92491135305994
3047.5173,61.541157436991796
3048.5498,61.394106953543314
3049.5816,66.38379662764771
3050.6128,63.21026257029746
3051.6434,68.62354022864702
3052.6734,66.22366441774858
3053.7027,69.66066926641912
3054.7314,63.934588241239
3055.7594,67.69545411218218
3056.7868,65.74329900987709
3057.8136,67.37815438799754
3058.8398,62.60005104278491
3059.8653,65.10901909669889
3060.8902,66.40508804619884
3061.9145,68.83828673665403
3062.9381,70.45864334938312
3063.9612,73.51618537732185
3064.9835,73.01093960881963
3066.0053,65.14293209706423
3067.0264,69.81218816513413
3068.0469,65.9687324846787
3069.0668,66.61258902922526
3070.086,70.54378111261397
3071.1046,62.76233138255921
3072.1226,62.268261781337515
3073.1399,51.26159362360255
3074.1567,57.94234760132517
3075.1727,51.2605438938603
3076.1882,52.86620210113966
3077.203,47.3593413104895
3078.2173,38.089980080574236
3079.2308,40.15813649646478
3080.2438,33.663828262332515
3081.2561,31.507072680767664
3082.2678,22.287886717722273
3083.2789,28.656287024077784
3084.2893,21.16229002783689
3085.2991,19.505911870439604
3086.3083,16.487168481703122
3087.3169,15.506075596385614
3088.3248,14.81264878437375
3089.3321,9.856903460493697
3090.3388,14.088854891445038
3091.3449,9.108518245358539
3092.3503,1.8159085494764327
3093.3551,-0.03895926004412331
3094.3593,2.7939297347950287
3095.3629,7.11459084119511
3096.3658,7.473039338418005
3097.3681,5.569290434579841
3098.3698,6.003359263066358
3099.3708,1.2752609015705616
3100.3713,3.835010367751863
3101.3711,-0.8173773334829377
3102.3702,-0.5318872355769884
3103.3688,0.9415037936260262
3104.3667,1.9028241998358908
3105.364,-0.5478975806526876
3106.3607,-3.360633130573092
3107.3568,-2.0853485591620142
3108.3522,-0.7719764029312444
3109.347,2.8795716342393973
3110.3412,-0.030608439485689587
3111.3348,-0.6024206447377765
3112.3277,0.8642313036300777
3113.32,0.3694497089470019
3114.3117,-0.03666313410019484
3115.3028,4.14599137837277
3116.2932,1.4675122165147059
3117.2831,0.2779983090147482
3118.2723,2.5775485698869716
3119.2608,3.0162591359421356
3120.2488,3.5442261182157324
3121.2361,3.2115455975806526
3122.2229,1.3683136194674717
3123.209,7.464626197191478
3124.1944,-0.24942066961509113
3125.1793,4.576268944033728
3126.1635,2.6917934548364144
3127.1471,7.247251233728804
3128.1301,6.092740624728819
3129.1125,6.878359899381948
3130.0942,6.454207268306206
3131.0753,10.470380873336069
3132.0558,7.676978791764
3133.0357,9.024098996178665
3134.015,10.361839382399125
3134.9936,12.390297756003392
3135.9716,4.759571818951258
3136.949,12.819759149299543
3137.9258,16.820957277509393
3138.902,16.163263605844435
3139.8775,15.646775368358604
3140.8524,11.121589637473093
3141.8267,14.387803329141434
3142.8004,12.595513248101327
3143.7735,15.59481605521242
3144.7459,19.085808285379343
3145.7178,20.01858631755853
3146.689,17.243246339848454
3147.6596,17.609884340161727
3148.6295,21.318596133978588
3149.5989,19.969477360680415
3150.5676,23.662623446462703
3151.5357,20.398129617826186
3152.5032,25.226090864645414
3153.4701,26.54660197281369
3154.4364,21.759757475963468
3155.402,25.365651642261156
3156.367,24.814378522275717
3157.3315,24.00603191291961
3158.2952,29.090705362961515
3159.2584,29.268492181109835
3160.221,28.689485385165938
3161.1829,33.85377770024634
3162.1442,32.26146156457274
3163.105,31.662629077829138
3164.065,30.707372017084893
3165.0245,32.19578184278305
3165.9834,34.477949708293
3166.9416,32.6539664450264
3167.8993,38.62392253961538
3168.8563,39.0379081521525
3169.8127,40.196013056491054
3170.7684,37.09832663610532
3171.7236,38.99493787250943
3172.6782,38.285935376234306
3173.6321,43.02140736786148
3174.5854,41.8014416851132
3175.5381,43.07612573549762
3176.4902,43.2955465085085
3177.4417,38.55979056287839
3178.3926,45.36894402438437
3179.3428,43.023092633205685
3180.2924,46.42232167583211
3181.2415,44.916716008522535
3182.1899,48.75636002331268
3183.1377,53.14133766307109
3184.0848,52.2717323831027
3185.0314,48.79762710729916
3185.9773,49.21910423683475
3186.9227,53.78624568490755
3187.8674,53.49913287252456
3188.8115,52.65784668283033
3189.755,53.21246746397813
3190.6979,57.163075037542754
3191.6402,54.5097486929743
3192.5818,57.352567148092156
3193.5229,53.24160857561822
3194.4633,59.226950574748756
3195.4031,63.60867021226391
3196.3423,57.786843962674354
3197.2809,59.311547664404074
3198.2189,60.23285657800862
3199.1563,60.600845370928056
3200.0931,66.26558810827393
3201.0292,62.67715824914927
3201.9648,65.58562859000133
3202.8997,67.4910713005057
3203.834,64.4935578944817
3204.7677,68.59315921083798
3205.7008,65.23994544354763
3206.6333,67.78398610065207
3207.5652,68.62535003779335
3208.4964,68.26410543277363
3209.4271,72.7003197771416
3210.3571,70.08405987980484
3211.2865,72.1153918226678
3212.2154,74.9443809867943
3213.1436,73.57109203209424
3214.0712,72.24558886903372
3214.9982,74.51793467236791
3215.9246,75.73819189439611
3216.8503,74.95642224223823
3217.7755,77.02268666563232
3218.7001,81.73704536475215
3219.624,76.19955776954461
3220.5473,79.2602824925862
3221.4701,82.16927738445777
3222.3922,81.87659950313738
3223.3137,82.18230508491028
3224.2346,81.58644954729576
3225.1549,87.63908748599002
3226.0746,83.49027268082476
3226.9937,81.89005803524083
3227.9121,89.0384956177763
3228.83,83.6356366780687
3229.7473,88.8315315753706
3230.6639,87.62622983257815
3231.5799,90.06978008427217
3232.4954,92.4622300887712
3233.4102,89.90362670369592
3234.3244,87.84401586204474
3235.238,92.0834425977798
3236.151,94.67195106642299
3237.0634,99.40958450266184
3237.9752,94.74638519446431
3238.8864,93.88239443570251
3239.797,100.31765257278467
3240.7069,97.50219901329503
3241.6163,98.9360721616413
3242.5251,101.86930944720923
3243.4332,98.30194731002378
3244.3408,102.03402117141681
3245.2477,102.01556546970073
3246.154,106.59661362284766
3247.0598,99.47719802867414
3247.9649,105.20735001903043
3248.8694,105.38709993099485
3249.7733,108.66647704957222
3250.6766,105.84550960589624
3251.5793,108.2242247444359
3252.4814,108.70264855120506
3253.3829,107.73080602997527
3254.2838,110.95872109749158
3255.1841,108.28641659319094
3256.0838,111.81391424692305
3256.9829,111.4912347056734
3257.8814,112.6183974982884
3258.7792,113.04542103870202
3259.6765,110.47232261466428
3260.5731,112.39911838347093
3261.4692,114.92582339769447
3262.3647,115.70245158591615
3263.2595,114.37901572745898
3264.1538,114.30552744462139
3265.0474,118.0319972159117
3265.9404,116.20843437678279
3266.8329,117.1848470823676
3267.7247,117.51124232571468
3268.616,115.83762592802411
3269.5066,116.1640025353835
3270.3966,114.49037563550417
3271.286,118.11674755445732
