RamanShift,CorrectedData
30.1047,1600.5302768024515
32.3739,1486.1725116379644
34.6426,1372.3647304681745
36.9109,1260.8569024260537
39.1787,1145.8489829209263
41.4461,1031.5909147535472
43.7131,921.6326292661805
45.9796,808.9240474851813
48.2456,697.6650812205778
50.5112,584.0056341931578
52.7764,470.6456031470574
55.0411,359.83487898635667
57.3054,253.47334790867944
59.5692,142.61089251330066
61.8326,35.49739286476175
64.0955,-71.11727239850475
66.3579,-176.68322499304014
68.6199,-277.09987617383456
70.8815,-357.31487213046086
73.1426,-398.72309082472884
75.4032,-300.86584064287604
77.6634,132.06955327253684
79.9231,1300.548771428697
82.1824,4027.6874930120957
84.4412,9094.15138420374
86.6995,16288.456070907758
88.9574,23435.81708808677
91.2148,28359.84980781883
93.4717,30630.16936782383
95.7282,31012.290622223154
97.9842,30802.878118836503
100.2398,30016.296095360653
102.4949,29192.708481463633
104.7495,28211.228906650478
107.0036,27220.820708499163
109.2573,26260.79694247537
111.5105,25399.72039183656
113.7632,24555.653577232253
116.0154,23847.45876531474
118.2672,23347.997977179795
120.5185,22784.7329954486
122.7693,22368.07536926236
125.0197,22016.636419914947
127.2696,21564.177245019484
129.519,21336.458722022726
131.7679,20963.54151272967
134.0163,20601.08606558071
136.2642,20175.302619380836
138.5117,19727.601206924173
140.7587,19272.891659251844
143.0052,18910.68361012893
145.2512,18454.13650059163
147.4967,18049.759582569277
149.7417,17717.461923449875
151.9863,17451.0524101238
154.2304,17229.039752306835
156.4739,16975.682485204234
158.717,16786.738971730847
160.9596,16469.117405044708
163.2017,16059.775810436473
165.4433,15670.122048505607
167.6844,15219.013819253832
169.925,14763.058665981647
172.1651,14244.213979799406
174.4047,13857.487004186893
176.6439,13484.78484018174
178.8825,13144.814450246722
181.1206,12887.182661996758
183.3582,12641.896171598633
185.5954,12419.0615463473
187.832,12220.285227118757
190.0681,12087.323530598387
192.3037,11967.032651268724
194.5388,11839.56866273906
196.7734,11789.087518948381
199.0075,11740.795055439956
201.2411,11794.596989866215
203.4742,11757.548922471622
205.7068,11810.156335554679
207.9389,11843.124593838405
210.1704,11894.65894394425
212.4015,11845.364514062432
214.632,11933.046313436575
216.862,12030.55923285666
219.0915,12045.958043782208
221.3205,12071.847397367159
223.549,12137.931824305875
225.777,12222.265734574248
228.0044,12346.303416768862
230.2314,12498.399037263647
232.4578,12660.0566389695
234.6837,12774.630139813326
236.909,12814.673331121483
239.1339,12723.689876474025
241.3582,12493.683311304278
243.582,12188.507043808675
245.8053,11928.81435724682
248.0281,11691.858412993251
250.2503,11477.842253134377
252.472,11378.218802838008
254.6932,11306.740872493549
256.9139,11282.51115870822
259.134,11298.482245021827
261.3536,11386.756602149082
263.5727,11544.03658781986
265.7912,11559.024445896499
268.0092,11692.072304800955
270.2267,11739.632177364956
272.4436,11672.405959499503
274.6601,11568.89542971929
276.8759,11383.752249814945
279.0913,11218.577965888164
281.3061,11020.774010203115
283.5204,10894.89170283819
285.7341,10801.532253664045
287.9473,10791.096763602429
290.16,10842.536225559768
292.3721,10962.051524531531
294.5837,11195.843437087828
296.7947,11420.362630178251
299.0052,11496.409658793973
301.2152,11327.884963722534
303.4246,11023.538870787394
305.6334,10479.12159253316
307.8418,9963.133231269057
310.0495,9410.023784513103
312.2568,8947.893150151978
314.4635,8503.341131972142
316.6696,8216.467444281117
318.8752,7938.521716353029
321.0802,7884.5034952973165
323.2847,7845.312248838221
325.4887,7806.647365854946
327.692,7714.908156773588
329.8949,7581.69385395377
332.0972,7280.403612606038
334.2989,7013.686512124017
336.5001,6664.5915590972945
338.7007,6380.7676899786
340.9008,6190.163774574761
343.1003,5987.978618884932
345.2992,5820.310967006642
347.4976,5675.009503157629
349.6955,5556.222853352536
351.8927,5544.249586855907
354.0895,5399.988217370068
356.2856,5345.237203154853
358.4812,5209.044948470228
360.6763,5187.409804123781
362.8707,5117.730068832667
365.0646,5113.2039894399495
367.258,5061.529761611395
369.4508,5058.7555298807365
371.643,5119.279388166407
373.8346,5105.64937979929
376.0257,5085.013496917487
378.2162,4999.319680602623
380.4062,4915.715821086178
382.5956,4689.8497586064495
384.7844,4560.8692842445835
386.9726,4324.872142183229
389.1603,4222.006030996361
391.3474,4101.968606009237
393.5339,4042.557480327054
395.7199,3940.9202260353413
397.9052,3902.3543747940457
400.09,3917.7074188539336
402.2743,3981.5768114422244
404.4579,4047.809966609064
406.641,4182.10425858885
408.8235,4385.607021137885
411.0054,4561.5155461914255
413.1868,4807.027081828679
415.3675,4905.888830513701
417.5477,4946.397946640285
419.7273,4926.751535543339
421.9064,4780.946653093793
424.0848,4645.680305895072
426.2627,4438.09945274114
428.4399,4107.701005969167
430.6166,3717.131833535328
432.7928,3317.588762318801
434.9683,2935.5185820274564
437.1432,2683.868049193279
439.3176,2458.33389099307
441.4914,2333.362807764963
443.6645,2255.3514752637566
445.8371,2170.8965459106294
448.0091,2051.39464957324
450.1806,1989.3923944102953
452.3514,1893.9863680665658
454.5216,1900.1231382929
456.6913,1815.9492539002877
458.8603,1856.8112446984996
461.0288,1864.455622337813
463.1967,1859.0788799004058
465.3639,1892.8274918239076
467.5306,1860.7479139551579
469.6967,1909.136583212734
471.8622,1940.939917907741
474.0271,2002.104317259913
476.1914,2031.7261610795958
478.3551,1988.5518091560862
480.5182,2002.9776009614252
482.6807,2015.6998560821485
484.8426,2196.814874075015
487.0039,2481.1689343397957
489.1647,2866.208294308117
491.3248,3210.079186599938
493.4843,3345.377815173124
495.6432,3312.450351884774
497.8015,3127.142935138205
499.9592,3056.9516702122455
502.1163,2864.7726311142997
504.2728,2543.6518612822565
506.4287,2235.7853755063024
508.5839,1833.7691631400994
510.7386,1549.8991911794637
512.8927,1389.7714082825369
515.0461,1353.5317476084638
517.199,1332.426128418685
519.3512,1432.750456439324
521.5029,1648.6006240722472
523.6539,1801.2225093918278
525.8043,1899.4619739864374
527.9541,1820.5148614322334
530.1033,1670.826996310756
532.2519,1583.9441849984123
534.3999,1576.8122171633404
536.5472,1726.9768666342443
538.694,2008.2838914717067
540.8401,2418.8290324665522
542.9856,2753.058010326764
545.1305,2804.1165215720575
547.2748,2693.2002351915617
549.4185,2419.754792133246
551.5615,2177.8258064130823
553.704,2073.158867849501
555.8458,2095.1995444826753
557.987,2181.043383621198
560.1276,2344.0359116216787
562.2675,2572.0226330302867
564.4069,2936.399028952843
566.5456,3199.5605547749365
568.6837,3264.802636518183
570.8212,2903.6706682085933
572.958,2315.5100112241544
575.0942,1804.5159979061555
577.2299,1436.333937440777
579.3648,1279.5091209690581
581.4992,1259.9868252686956
583.6329,1397.9623143223016
585.766,1588.780839512634
587.8985,1723.4876382428338
590.0304,1746.6779320282367
592.1616,1658.146925149309
594.2922,1526.1398044197358
596.4222,1364.4517400717505
598.5515,1140.2278870761838
600.6802,957.3633867593635
602.8083,783.5033690453402
604.9358,761.1429542845326
607.0626,739.5772549923349
609.1888,795.4013760727212
611.3144,869.2604150338939
613.4393,912.9994614300522
615.5636,974.3635961227956
617.6873,891.5478908437326
619.8103,867.297407580847
621.9327,711.4071994066508
624.0544,548.0223107206948
626.1756,426.88777880846465
628.2961,349.598635475224
630.4159,246.04990825736968
632.5351,236.5366211953151
634.6537,202.2537958689809
636.7716,173.54645149293538
638.8889,188.60960525921473
641.0056,268.93827262440755
643.1216,233.9774671590112
645.237,229.77219974414402
647.3518,146.96747892114945
649.4659,143.15831093364977
651.5793,86.58970055559621
653.6922,60.15665112936222
655.8043,42.554165131432455
657.9159,67.3266440733405
660.0268,9.018064350504574
662.137,-0.6275983149189415
664.2466,4.183541708758639
666.3556,4.445376322928496
668.4639,-33.84824436460258
670.5716,16.54648534466105
672.6786,5.3237092931685766
674.785,-15.472593976026474
676.8907,4.701500896271682
678.9958,49.740073840459445
681.1002,24.13715781893916
683.204,0.2367852967181534
685.3072,-8.16725239140942
687.4097,-23.08116627614254
689.5115,-67.11108579733445
691.6127,-77.41290981399834
693.7132,-87.09186674540797
695.8131,-86.30241165587358
697.9123,-79.1981295619571
700.0109,-80.23174331914925
702.1089,-52.105184593619924
704.2061,-19.719583536436403
706.3028,21.474450232117306
708.3987,86.4765040903876
710.4941,142.83616520198302
712.5887,236.55301986576342
714.6827,408.42665295222287
716.7761,637.8066469663318
718.8688,910.8925803287948
720.9608,1079.6840250822515
723.0522,1217.280544160425
725.1429,1174.8816897002052
727.233,1137.9370016656903
729.3224,1063.5960082721576
731.4112,927.1082263555254
733.4993,768.6231621157513
735.5867,577.8903124817152
737.6735,378.05916669606813
739.7596,247.029208222566
741.845,136.7999167443777
743.9298,71.02076947438218
746.014,78.54124225747
748.0974,55.460810228316404
750.1802,89.62894773619519
752.2624,127.49512857577793
754.3439,161.15882564544881
756.4247,231.5695105686591
758.5048,421.6266533572689
760.5843,721.0297217074585
762.6631,1099.8281790991477
764.7413,1692.6214818019598
766.8188,2428.809075087249
768.8956,2946.790387300156
770.9718,3311.8148224977413
773.0473,3183.9317552691664
775.1221,2931.940527085446
777.1962,2613.1404475782856
779.2697,2518.5807970599835
781.3426,2549.060829711447
783.4147,2710.8297745277796
785.4862,2877.4368350134864
787.557,2800.2811875647785
789.6271,2372.2619798035084
791.6966,1759.2783313487216
793.7654,1159.6793380968484
795.8335,770.2140783515424
797.901,526.1816188196754
799.9678,398.2310185059723
802.0339,329.2613311533496
804.0993,318.4716065224202
806.1641,282.8108910811952
808.2282,207.22822811296828
810.2916,192.8726580729308
812.3544,124.49321934398904
814.4164,43.88894838033775
816.4778,94.15888039123638
818.5385,117.30205014706553
820.5986,249.6674914766245
822.658,466.80423703569795
824.7166,739.4613169834065
826.7747,1196.4877568108168
828.832,1617.532574614399
830.8886,1918.9947765257384
832.9446,2108.5233525011135
834.9999,2059.2172733068546
837.0545,1850.425488624065
839.1085,1628.4969275416752
841.1618,1424.630500644369
843.2143,1257.5251022318607
845.2662,1098.4796123575725
847.3175,1015.0428984996743
849.368,862.2638171515464
851.4179,772.1412146561452
853.467,667.4239287337969
855.5155,598.4607893834218
857.5633,510.45061992970477
859.6105,438.64223771272555
861.6569,390.38445496807617
863.7027,305.2760795449158
865.7478,277.91591538857574
867.7922,298.1027633916274
869.8359,290.93542166749285
871.8789,320.0626853485701
873.9212,474.13334665790353
875.9629,606.2461946179155
878.0039,751.7000135096969
880.0441,890.2435815518875
882.0837,913.2256694461212
884.1226,940.4450389916019
886.1609,961.6004428552769
888.1984,976.0406242996414
890.2352,1072.8643169711995
892.2714,1074.1202447560445
894.3069,1051.657120811642
896.3416,939.9236475542621
898.3757,811.3685168836037
900.4091,763.2404113001357
902.4418,772.9880051906493
904.4739,838.3099653095378
906.5052,877.8549506813215
908.5358,811.6716119474295
910.5658,692.6085909707399
912.595,501.9645214974298
914.6236,316.7880303475886
916.6515,227.17773932167074
918.6786,173.88226705225497
920.7051,198.90022990015314
922.7309,279.980242487356
924.756,325.5209174468564
926.7804,425.0208646118499
928.8041,409.8786905603283
930.8272,485.6429976200852
932.8495,468.0623840201297
934.8711,465.63544313304556
936.892,373.560763650803
938.9123,336.6869296090226
940.9318,302.112521307723
942.9506,274.83611568005654
944.9688,205.35628663805255
946.9862,139.72160534539398
949.003,42.08064091219603
951.019,-28.01803894863042
953.0344,-32.92586694497186
955.0491,-25.043995884512697
957.063,20.826750354472097
959.0763,141.4857980832203
961.0888,181.78257340470554
963.1007,279.26650100704865
965.1119,311.2870037605426
967.1223,342.4435017428277
969.1321,331.7354119186766
971.1412,363.0121478284291
973.1495,342.1231196950812
975.1572,379.9177341115137
977.1641,411.0453942493823
979.1704,433.4554994811715
981.1759,380.0474450689144
983.1808,411.7706219401025
985.1849,488.57441722175645
987.1884,586.4082139231941
989.1911,749.7213901679988
991.1932,856.5133182156715
993.1945,891.533362828508
995.1951,883.3308802036718
997.1951,874.3052176229976
999.1943,816.9057135350195
1001.1928,803.481697645233
1003.1906,852.6824914900699
1005.1877,942.3574085711571
1007.1841,1042.155753863295
1009.1798,1025.4768229177116
1011.1748,921.3199008640877
1013.1691,761.1342625773468
1015.1627,538.6191737192166
1017.1556,349.4738923400819
1019.1477,232.3476711041476
1021.1392,161.63975918088
1023.1299,140.34940341627953
1025.12,149.67584903995157
1027.1093,209.7183398780162
1029.0979,346.2761182598424
1031.0859,446.5484244176223
1033.0731,482.1844951207968
1035.0596,451.98356267332565
1037.0454,306.8948545573239
1039.0304,206.96759373508212
1041.0148,85.10100009994858
1042.9985,26.24429147560295
1044.9814,-25.003315165275126
1046.9636,-70.64260311244652
1048.9452,-59.37410587254999
1050.926,-20.1976512326346
1052.9061,-3.262473832421165
1054.8855,13.632393462896289
1056.8642,84.73795038022945
1058.8421,130.05519651016948
1060.8194,187.23513059592915
1062.7959,240.62875008017363
1064.7717,283.1870505332208
1066.7469,335.4610251191025
1068.7213,392.55166416998145
1070.695,482.6099546634141
1072.6679,496.1368796514471
1074.6402,483.38341736002985
1076.6117,467.20054105375493
1078.5826,409.5392191633746
1080.5527,315.0504154476512
1082.5221,297.93508956995174
1084.4908,394.2441980431486
1086.4587,471.828694400765
1088.426,567.4895282338894
1090.3925,585.5776444153289
1092.3584,605.4939821429962
1094.3235,542.8394747590373
1096.2879,577.365049550659
1098.2515,672.4716283766775
1100.2145,835.2601273222626
1102.1767,991.3314557478734
1104.1382,1218.7365146613665
1106.099,1463.6761951572898
1108.0591,1704.2013761428316
1110.0185,1866.662921888419
1111.9771,1960.1616796224753
1113.9351,1835.2984779067938
1115.8923,1634.374125701559
1117.8488,1436.5894136139686
1119.8045,1228.0951159074866
1121.7596,1106.241992479685
1123.7139,990.0307909471903
1125.6675,990.7622478642152
1127.6204,1036.387089884669
1129.5726,998.5560337548359
1131.524,971.76978585713
1133.4748,839.329042588417
1135.4248,698.8344906278599
1137.3741,612.4368082613419
1139.3226,546.5866667864029
1141.2705,529.034731376214
1143.2176,422.9816617380948
1145.164,397.42811228901337
1147.1097,353.7247332161314
1149.0546,335.4721707323333
1150.9989,243.72106751325555
1152.9424,121.32206287981535
1154.8852,-0.5242062842789892
1156.8272,-47.667104308527996
1158.7686,-52.155990285624284
1160.7092,-48.089747113886915
1162.6491,-1.1167366532954475
1164.5883,121.86515965273793
1166.5267,233.3080715169981
1168.4644,388.8641274336205
1170.4014,612.385453563671
1172.3377,868.7241721795726
1174.2732,1168.6823994299011
1176.2081,1545.8622427759965
1178.1421,1983.4657979923704
1180.0755,2434.1451453949176
1182.0082,2718.2523454648763
1183.9401,2836.5894343420387
1185.8713,2757.5084209836805
1187.8017,2468.261285981179
1189.7315,2113.049982350836
1191.6605,1748.226438426348
1193.5888,1497.8925614109066
1195.5163,1360.2002410254454
1197.4432,1265.951352011968
1199.3693,1242.897755510482
1201.2947,1218.6413000014845
1203.2193,1201.3838215364976
1205.1432,1203.677143980637
1207.0664,1209.2230791851835
1208.9889,1244.673426964654
1210.9106,1205.1799750413375
1212.8316,1225.9444986907956
1214.7519,1313.968761136788
1216.6715,1348.1545133436412
1218.5903,1402.053493135988
1220.5084,1487.3174248569248
1222.4257,1550.7980188290157
1224.3424,1589.596970501655
1226.2583,1694.76595981626
1228.1735,1817.7566508182808
1230.0879,1954.570690605513
1232.0016,2132.459708098181
1233.9146,2216.325312670814
1235.8269,2195.26909237334
1237.7384,2158.342613092438
1239.6492,1998.1474187621016
1241.5592,1936.2350317328946
1243.4686,1919.0569543739166
1245.3772,2038.4646696919199
1247.285,2194.4596415030883
1249.1922,2318.0433132389717
1251.0986,2378.1671063865124
1253.0042,2440.2324192522265
1254.9092,2559.3406263609622
1256.8134,2640.993077835251
1258.7169,2805.291098204223
1260.6196,2974.885985587078
1262.5216,3232.6790100501075
1264.4229,3448.3714119107444
1266.3234,3647.41439915964
1268.2232,3777.609145303726
1270.1223,3827.8567873757975
1272.0207,3867.908424632561
1273.9183,3819.3651180521556
1275.8151,3793.5278899336427
1277.7113,3768.14772438244
1279.6067,3766.2255675686893
1281.5014,3895.4123279810565
1283.3953,4125.158876445955
1285.2885,4499.916044835677
1287.181,4856.334623770931
1289.0727,5254.86535887327
1290.9637,5499.008947200905
1292.854,5667.466033263394
1294.7435,5682.787206580212
1296.6323,5700.522999996175
1298.5204,5681.523889528228
1300.4077,5652.140294188099
1302.2943,5537.52257617227
1304.1802,5373.871041155828
1306.0653,5035.635939438634
1307.9497,4671.717467581841
1309.8333,4356.465771790246
1311.7162,4110.780951551475
1313.5984,4020.3630627884922
1315.4798,3938.712120316467
1317.3605,3957.6780987469338
1319.2405,3923.4109333043098
1321.1197,3782.760519636242
1322.9982,3552.1267141562657
1324.876,3379.459335450316
1326.753,3163.1581665830654
1328.6293,3024.6229568245926
1330.5048,2937.803423813394
1332.3796,2843.799254941745
1334.2537,2791.3101082238827
1336.127,2747.5856132360605
1337.9996,2728.575371641432
1339.8714,2736.2289576273015
1341.7426,2746.995918095219
1343.6129,2769.5257725844494
1345.4826,2795.218013164297
1347.3515,2802.522104208816
1349.2196,2801.3374821398793
1351.087,2836.3635553541435
1352.9537,2900.5497042348925
1354.8197,3047.3452808017837
1356.6849,3239.999608068978
1358.5493,3394.4119785771827
1360.4131,3568.831652467118
1362.276,3657.257855935387
1364.1383,3655.2397794902745
1365.9998,3447.276577067487
1367.8606,3111.3673660503437
1369.7206,2766.411229349399
1371.5799,2492.1072187615364
1373.4384,2244.154358419525
1375.2962,2029.5516475350742
1377.1533,1748.7480628783478
1379.0096,1423.442560923996
1380.8652,1084.2840806591903
1382.7201,801.4215468366829
1384.5742,582.703873366383
1386.4275,433.27996614398944
1388.2802,314.6487252381612
1390.132,206.30904638476022
1391.9832,144.90982217316378
1393.8336,100.94994312966446
1395.6832,75.32829833146116
1397.5322,76.14377584625254
1399.3803,38.89526298846158
1401.2278,31.58164631107411
1403.0745,52.75181197812617
1404.9204,62.15464583783978
1406.7656,91.98903321092621
1408.6101,119.00385879655187
1410.4538,196.14800637399549
1412.2968,267.9203585325031
1414.139,317.7697958998451
1415.9805,451.2951964245867
1417.8213,505.2954348775984
1419.6613,643.2693815168032
1421.5006,837.5159015471663
1423.3391,1076.283853740968
1425.1769,1403.12208849533
1427.0139,1865.3794454445397
1428.8502,2466.8547501916673
1430.6858,3040.546809685985
1432.5206,3465.8044062082245
1434.3547,3743.526291633646
1436.188,3773.3111831794704
1438.0206,3704.357760627663
1439.8524,3551.764666027073
1441.6835,3440.3805043829725
1443.5139,3358.653845182993
1445.3435,3305.8332235109638
1447.1724,3268.26714086417
1449.0005,3248.204065681569
1450.8279,3178.8424337194547
1452.6545,3194.530648252079
1454.4804,3265.0670807652696
1456.3056,3260.400070799553
1458.13,3195.227925244787
1459.9536,3002.8489183868332
1461.7766,2747.0112925592784
1463.5987,2401.163260067222
1465.4202,2076.953005745655
1467.2409,1741.2786904179375
1469.0608,1498.9384541378959
1470.88,1227.7304195465758
1472.6984,1009.3526942956441
1474.5161,827.6033737594616
1476.3331,685.8305432188663
1478.1493,574.9822796786675
1479.9648,523.8066532853718
1481.7795,461.05172843567107
1483.5935,402.41556428818876
1485.4067,361.1462153910361
1487.2192,326.8917322681709
1489.031,291.7001618320937
1490.842,292.269547726386
1492.6522,276.14793067763003
1494.4618,243.43334848971335
1496.2705,247.87383620504716
1498.0785,208.71742643171092
1499.8858,192.71214929904636
1501.6924,188.05603284922563
1503.4981,161.94710319730257
1505.3032,154.58338457777063
1507.1075,137.7128996056581
1508.911,135.08366935015965
1510.7138,95.09371350334459
1512.5159,56.8410504064459
1514.3172,40.32369744976222
1516.1178,21.93967145518127
1517.9176,14.18698884135938
1519.7166,-16.88633419244161
1521.515,-15.23228158882739
1523.3126,-16.952668595927207
1525.1094,-28.549158291377353
1526.9055,-36.62324439565691
1528.7008,-45.97613542315685
1530.4954,-36.6086740220544
1532.2893,-34.37124353894251
1534.0824,-40.86386159975609
1535.8747,-23.386202461711036
1537.6663,-8.587532152051608
1539.4572,-11.01688306986216
1541.2473,11.326798175218755
1543.0367,18.844675032213672
1544.8253,34.63791083687465
1546.6132,94.85766873651119
1548.4003,110.65511153205534
1550.1867,177.4314010758617
1551.9723,255.93769811374113
1553.7572,313.02516161718995
1555.5414,433.04494799833265
1557.3247,559.1482105390442
1559.1074,733.8360981907526
1560.8893,886.1097543134083
1562.6705,1057.120314928603
1564.4509,1173.5189071968298
1566.2305,1255.5566477073817
1568.0094,1346.1846413143658
1569.7876,1362.8539803163221
1571.565,1374.865743549949
1573.3417,1369.9209962234054
1575.1176,1365.5207897961982
1576.8928,1381.6661620286195
1578.6672,1359.958137025751
1580.4409,1350.6977250760174
1582.2138,1354.8359228682602
1583.986,1337.6237135843503
1585.7575,1406.4620668577982
1587.5282,1444.0019389458766
1589.2981,1538.9942720412446
1591.0673,1601.6899938965416
1592.8358,1686.590016874463
1594.6035,1768.5452373208063
1596.3704,1845.2065347154712
1598.1366,1935.274770852905
1599.9021,2027.1507890754929
1601.6668,2152.7354133728722
1603.4308,2252.8294474631757
1605.194,2407.9836735371828
1606.9564,2629.6988512573835
1608.7182,2884.575716206433
1610.4791,3164.1649776699996
1612.2394,3443.067316087994
1613.9988,3757.1833802586834
1615.7576,4037.5137845496574
1617.5156,4266.459105756677
1619.2728,4411.969880300364
1621.0293,4381.296601936753
1622.785,4297.739720302181
1624.54,4067.8496412200257
1626.2942,3787.276727536262
1628.0477,3480.2713014183782
1629.8005,3191.633647161094
1631.5525,2895.014014256418
1633.3037,2682.31262028002
1635.0542,2524.929653857436
1636.804,2397.515276791077
1638.553,2297.2196256340617
1640.3013,2248.7928129643574
1642.0488,2222.534928387735
1643.7955,2294.4960390220413
1645.5416,2374.2761897597766
1647.2868,2486.0754025484816
1649.0313,2606.1936755929382
1650.7751,2778.8309822371757
1652.5181,2962.83726976329
1654.2604,3161.3124576650694
1656.0019,3414.406435807934
1657.7427,3675.2190624441787
1659.4828,3993.0001616820364
1661.222,4151.849520877555
1662.9606,4154.11688745678
1664.6984,3942.9019673272596
1666.4354,3541.1044248553776
1668.1717,2980.6738849784992
1669.9072,2422.6599372229457
1671.642,1972.612141308301
1673.3761,1574.8800327275508
1675.1094,1283.7131272475604
1676.8419,1070.9609248863976
1678.5737,878.2229128250033
1680.3048,770.148567534708
1682.0351,653.9373567046191
1683.7646,549.0387403223563
1685.4934,497.0021718361718
1687.2215,442.077099203927
1688.9488,378.212965413466
1690.6754,338.70920903186334
1692.4012,319.16526484406904
1694.1263,287.2805642479393
1695.8506,274.50453544968013
1697.5742,262.83660378269497
1699.297,230.1761918353418
1701.0191,205.57271956761724
1702.7404,174.02560463775762
1704.461,148.18426264827667
1706.1808,134.59810746143194
1707.8999,134.81655145764125
1709.6182,128.2890056713436
1711.3358,103.46487978881214
1713.0527,101.99358221343437
1714.7688,81.57452031394905
1716.4841,67.80710043916179
1718.1987,72.6407281221359
1719.9126,59.0748082178643
1721.6257,51.45874485493414
1723.338,68.49194157118609
1725.0496,59.7738013898761
1726.7605,54.90372664934057
1728.4706,54.63111909018198
1730.18,52.7053799039636
1731.8886,53.92590973594088
1733.5964,48.14210870431771
1735.3036,51.25337638803876
1737.0099,43.70911188463333
1738.7156,42.258713779096524
1740.4204,30.65158021933712
1742.1246,18.187108930678733
1743.8279,2.2146973319331664
1745.5306,7.3837426600425715
1747.2325,-2.45635787019728
1748.9336,-4.706207117823851
1750.634,-27.26638340286081
1752.3336,-4.237418030324534
1754.0325,-12.71956991406023
1755.7307,-0.41305563610922036
1757.4281,11.332035289991836
1759.1247,-23.88438252287142
1760.8206,-3.0623945751303836
1762.5158,-1.4018477622371392
1764.2102,-3.052558386322744
1765.9039,-5.364328745061357
1767.5968,8.31306935892917
1769.289,-5.220082287326022
1770.9804,19.38649802006921
1772.6711,5.883144133630594
1774.361,14.770189712009142
1776.0502,3.997968355028661
1777.7386,20.716813514809473
1779.4263,15.177058603494515
1781.1132,25.529036826060747
1782.7994,21.6230812357162
1784.4849,9.709524630379747
1786.1696,12.638699591742807
1787.8535,41.760938604405055
1789.5367,30.126574026578965
1791.2192,41.985937798866416
1792.9009,28.489361560606085
1794.5818,47.58717653127769
1796.2621,33.2797136454692
1797.9415,42.467303361895574
1799.6202,43.40027580647529
1801.2982,42.078960680458295
1802.9755,52.75368725108319
1804.6519,61.77478436480442
1806.3277,53.24258034053946
1808.0027,51.35740287945964
1809.6769,58.61957915031235
1811.3504,66.07943580827123
1813.0231,67.83729892231531
1814.6951,75.0434939006318
1816.3664,74.64834547303462
1818.0369,71.30217761890799
1819.7067,70.65531357115151
1821.3757,94.20807584964541
1823.044,85.26078626771823
1824.7115,84.21376569661834
1826.3783,95.46733415498647
1828.0443,78.17181081932858
1829.7096,87.67751391147704
1831.3741,88.23476087154859
1833.0379,102.14386826288683
1834.701,92.00515176648787
1836.3633,109.16892604191162
1838.0248,109.63550482866867
1839.6856,114.3052007745805
1841.3457,125.72832543111781
1843.005,109.20518920669747
1844.6636,117.98610125245477
1846.3214,117.47136962747254
1847.9785,132.9613012109744
1849.6349,129.30620170747125
1851.2904,124.60637549186231
1852.9453,127.91212564598572
1854.5994,122.67375400561741
1856.2528,137.0415611274134
1857.9054,150.91584634129413
1859.5572,143.49690760676594
1861.2083,146.33504137417776
1862.8587,157.8805426589097
1864.5084,165.13370501299414
1866.1572,155.29482040965786
1867.8054,146.61417917079234
1869.4528,137.3420700653419
1871.0994,158.72878039611078
1872.7453,155.02459609248353
1874.3905,168.1798014965575
1876.0349,158.74467940018621
1877.6786,164.11951091342553
1879.3215,162.5045755588876
1880.9637,172.5001512179888
1882.6051,169.40651414710192
1884.2458,159.52393887759763
1885.8858,162.6026982467838
1887.525,168.94306349673207
1889.1634,159.64530424348504
1890.8011,161.3596884136582
1892.4381,175.13648233741242
1894.0743,171.22595073131288
1895.7098,178.22835656056122
1897.3446,180.24396107810026
1898.9786,183.17302375459076
1900.6118,170.8158022582561
1902.2443,162.72255242558822
1903.8761,163.84352838492396
1905.5071,157.22898263737534
1907.1374,159.42916604561924
1908.7669,158.44432790004475
1910.3957,175.77471589674906
1912.0237,169.12057614738887
1913.651,169.38215300587308
1915.2776,180.30968913490688
1916.9034,177.15342550337527
1918.5285,169.1636012770682
1920.1528,155.6404538502411
1921.7764,158.03421892551614
1923.3992,166.34513064911016
1925.0213,166.32342158689926
1926.6427,151.31932264131
1928.2633,150.8330630515361
1929.8832,169.6148705435785
1931.5023,145.3649713351083
1933.1207,157.38358994764985
1934.7383,168.47094944907894
1936.3552,161.7272713334355
1937.9714,153.45277541005225
1939.5868,143.09767987099212
1941.2015,146.91220137378787
1942.8154,136.99655514499682
1944.4286,147.60095494205507
1946.041,141.97561315243502
1947.6528,128.42074068760076
1949.2637,146.4365470392613
1950.8739,123.92324041491838
1952.4834,134.73102755770924
1954.0921,139.7601139715398
1955.7001,123.6107038130067
1957.3074,134.83299984110636
1958.9139,132.27720357873068
1960.5197,133.39351520044193
1962.1247,131.382133558031
1963.729,126.39325616935412
1965.3325,117.37707923844982
1966.9353,123.58379770542251
1968.5374,118.16360533660782
1970.1387,108.96669466250387
1971.7393,111.24325703197519
1973.3392,109.6934827042187
1974.9383,104.21756082600018
1976.5366,116.06567944715198
1978.1342,121.63802557533268
1979.7311,101.38478505754415
1981.3273,125.3061425244091
1982.9227,106.60228159270287
1984.5173,102.47338462614061
1986.1112,104.81963292241653
1987.7044,98.7412067544924
1989.2968,108.13828534713298
1990.8885,108.56104693769385
1992.4795,117.40966868214764
1994.0697,110.03432665085893
1995.6592,108.93519574009679
1997.2479,113.96244974578667
1998.8359,100.1162613745048
2000.4232,99.2468021932018
2002.0097,104.9542427676688
2003.5955,105.6887526712303
2005.1805,100.2005004276682
2006.7648,101.38965350387753
2008.3484,112.15637836475094
2009.9312,99.0008404612845
2011.5133,102.12320412291137
2013.0946,108.8236326890567
2014.6752,116.1022884779145
2016.2551,117.15933271944277
2017.8342,105.84492548257685
2019.4126,93.20922566465924
2020.9902,97.10239110458497
2022.5672,92.42457870915769
2024.1433,101.97594441415845
2025.7188,91.85664323112337
2027.2935,102.51682915183096
2028.8674,111.4066552494944
2030.4406,93.32627357215983
2032.0131,100.67583505380821
2033.5849,89.35548969515867
2035.1559,90.86538649017348
2036.7261,93.70567353926049
2038.2957,107.72649803417562
2039.8645,103.57800622961918
2041.4325,99.26034330302764
2042.9998,102.57365339605781
2044.5664,113.41807965776479
2046.1323,106.84376421146749
2047.6974,102.70084804630528
2049.2617,109.03947108298007
2050.8254,89.25977221518497
2052.3883,110.0118892462192
2053.9504,90.89595908678484
2055.5118,106.11211754746523
2057.0725,100.01049952988456
2058.6325,99.59123887454552
2060.1917,93.0044684218476
2061.7502,101.4503200162776
2063.3079,108.97892457228
2064.8649,99.09041198979571
2066.4212,103.88491107897903
2067.9767,100.8125496590801
2069.5315,89.47345451050069
2071.0856,91.26775140551672
2072.6389,86.1455652216714
2074.1915,86.9570199238301
2075.7433,75.65223861540358
2077.2945,77.93134353023333
2078.8448,68.39445614563897
2080.3945,85.74169715962807
2081.9434,82.82318658626423
2083.4916,85.63904358219543
2085.039,76.78938647583846
2086.5857,65.82433273922061
2088.1317,77.99399907647694
2089.677,79.79850153349935
2091.2215,84.28795537624228
2092.7652,72.01247507267522
2094.3083,74.72217424788914
2095.8506,76.51716580685047
2097.3921,87.64756190730486
2098.933,76.4634739418268
2100.4731,84.8150124265162
2102.0124,89.70228711283949
2103.5511,83.27540690411365
2105.089,80.68447980663473
2106.6261,88.17961299394574
2108.1626,88.71091283274518
2109.6983,73.57848480793677
2111.2332,87.48243351731662
2112.7675,84.12286282289574
2114.301,78.59987571186275
2115.8337,83.46357433017852
2117.3657,83.71406003780544
2118.897,87.9514333600705
2120.4276,82.77579398516082
2121.9575,75.03724072175032
2123.4866,80.23587155075666
2125.0149,78.62178370272522
2126.5426,73.69507360584362
2128.0695,72.45583690208309
2129.5956,74.30416849646349
2131.1211,89.24016256944742
2132.6458,79.9139125584561
2134.1698,73.12551100850874
2135.693,79.72504966548763
2137.2155,85.66261954401989
2138.7373,73.6883108614843
2140.2584,77.25221297863322
2141.7787,78.00441451933693
2143.2983,72.99500333494393
2144.8171,63.974066496759406
2146.3353,70.69169034613833
2147.8527,81.24796058469656
2149.3693,67.59296220713304
2150.8853,65.27677939566888
2152.4005,67.3994956565964
2153.9149,61.01119384344088
2155.4287,71.61195613573364
2156.9417,62.60186410289407
2158.454,68.53099859822305
2159.9655,65.0994398490036
2161.4764,71.4072673972089
2162.9865,77.2045601338184
2164.4958,66.69139623573938
2166.0045,69.51785310783407
2167.5124,68.13400748805157
2169.0195,74.28993541916248
2170.526,80.33571226259801
2172.0317,77.27141263689055
2173.5367,68.1971103572157
2175.0409,57.562878466035954
2176.5445,73.66878932384202
2178.0473,79.76491471549775
2179.5494,58.90132568917943
2181.0507,67.12809249541465
2182.5513,66.74528479571859
2184.0512,78.05297158032567
2185.5504,70.9512211720189
2187.0488,61.49010111305165
2188.5465,77.31967823616674
2190.0435,71.64001875920576
2191.5397,53.15118812681567
2193.0353,69.80325106724285
2194.5301,58.446271777223274
2196.0241,60.28031375546175
2197.5175,65.85543991620057
2199.0101,55.67171257088012
2200.502,61.22919337238682
2201.9931,46.277943416890366
2203.4835,51.31802318826908
2204.9733,52.24949270762272
2206.4622,51.32241148287244
2207.9505,52.38683849944414
2209.438,51.4428322295405
2210.9248,59.790450621496575
2212.4109,51.42975110921998
2213.8962,38.21079052871369
2215.3809,53.83362520168339
2216.8648,49.098311067727764
2218.3479,41.954903528108844
2219.8304,53.203457493105816
2221.3121,42.2440274534506
2222.7931,45.87666736784058
2224.2733,46.401430772533786
2225.7529,41.61837074502159
2227.2317,47.72753989878083
2228.7098,37.87899043110565
2230.1872,28.372774062015424
2231.6638,30.458942132740276
2233.1397,39.83754570078236
2234.6149,29.55863551905577
2236.0894,38.6222619420987
2237.5632,41.97847502886452
2239.0362,32.27732445208403
2240.5085,40.66885946470393
2241.9801,34.603128996898704
2243.4509,37.68018157215465
2244.921,37.85006536792616
2246.3904,29.16282818486593
2247.8591,27.018517445126918
2249.3271,30.11718027923348
2250.7943,25.008863547525834
2252.2608,19.743613809172757
2253.7266,22.671477373255357
2255.1917,24.892500351418448
2256.656,31.00672862859369
2258.1197,28.164207840787412
2259.5826,25.414983313940184
2261.0447,18.75910009235099
2262.5062,25.296602966169303
2263.9669,24.32753653795362
2265.4269,26.601945157297678
2266.8862,23.869872930519477
2268.3448,18.581363697918277
2269.8026,20.53646106109545
2271.2598,22.685208435839513
2272.7162,19.727649032574845
2274.1719,21.36382583487375
2275.6268,26.193781629032856
2277.0811,29.2675589877108
2278.5346,24.235200221628475
2279.9874,19.346747348832196
2281.4395,23.70224214501718
2282.8908,27.701726192411343
2284.3414,28.44524083622059
2285.7914,23.132827144634575
2287.2406,18.614525901391062
2288.689,19.89037765890066
2290.1368,31.610422783429385
2291.5838,23.874701442340665
2293.0302,26.483253486893318
2294.4758,13.236118529601299
2295.9206,28.783335918145212
2297.3648,13.174944867846307
2298.8082,36.260984306192086
2300.251,27.341493028921604
2301.693,18.16650946916411
2303.1343,38.88607178663506
2304.5748,29.100217959385873
2306.0147,21.208985576606892
2307.4538,13.062411936487251
2308.8922,21.610534125125014
2310.3299,18.05338909799525
2311.7669,26.09101359446663
2313.2031,26.323444173375265
2314.6387,21.000717132648788
2316.0735,15.17286850697974
2317.5076,18.689934121053966
2318.941,18.501949647828724
2320.3737,27.608950573362563
2321.8056,27.160972198695163
2323.2369,14.10804954877699
2324.6674,23.650217376949513
2326.0972,18.93751029547434
2327.5263,18.869962680112167
2328.9547,24.247608717249932
2330.3823,21.87048240457375
2331.8092,13.338617497293853
2333.2355,27.25204753191565
2334.661,24.010805911559373
2336.0858,29.464925766825672
2337.5098,16.81443998820805
2338.9332,31.05938117155074
2340.3558,23.299781744554593
2341.7778,18.735673824326796
2343.199,20.917089294977586
2344.6195,22.99405985326075
2346.0393,19.566616986759072
2347.4583,32.684791953116246
2348.8767,19.448615814309278
2350.2943,27.408119305468063
2351.7113,34.163332967236784
2353.1275,22.164287066179668
2354.543,27.711011527228038
2355.9578,35.65353605367068
2357.3718,31.99189007168752
2358.7852,19.826102650924327
2360.1978,33.306202541107155
2361.6098,34.48221829370266
2363.021,29.10417812711546
2364.4315,30.222109914928296
2365.8413,36.5360412396833
2367.2504,30.345999381702768
2368.6587,37.30201125594772
2370.0664,31.25410347391994
2371.4733,28.10230227410193
2372.8795,29.79663358243522
2374.285,15.537123043839642
2375.6899,22.52379600526831
2377.0939,29.006677658304625
2378.4973,22.58579296929372
2379.9,21.56116661451472
2381.3019,19.03282304438858
2382.7032,23.00078649372506
2384.1037,24.315081007005688
2385.5035,23.275730398704127
2386.9027,21.182758240142448
2388.3011,21.336187869885293
2389.6987,24.636042414670897
2391.0957,15.382344787875809
2392.492,20.675117656516363
2393.8876,10.914383533785099
2395.2824,17.100164726123808
2396.6765,19.882483430831826
2398.07,17.111361674206364
2399.4627,18.13682128372136
2400.8547,18.258883915737556
2402.246,14.477571045247828
2403.6366,9.492903964656762
2405.0265,8.454903821593234
2406.4156,20.013591668758067
2407.8041,21.418988474303887
2409.1918,15.821115006247851
2410.5789,19.01999181841802
2411.9652,9.015639306431467
2413.3508,18.90807767570493
2414.7358,10.297327041500466
2416.12,6.433407329999341
2417.5035,18.516338364411126
2418.8863,16.54607569820496
2420.2684,22.37257469968654
2421.6497,16.545790571701332
2423.0304,7.765678293369206
2424.4104,19.282192678351635
2425.7896,22.095288462653457
2427.1682,25.50492018945863
2428.546,17.111042180998425
2429.9232,16.263608504454965
2431.2996,16.012573055900475
2432.6753,25.10788956877127
2434.0503,20.59951161637798
2435.4246,14.687392520952585
2436.7982,24.471485398732398
2438.1711,11.1017432190813
2439.5433,14.378118706649161
2440.9148,12.450564475068632
2442.2856,9.819032994191843
2443.6557,14.983476609365312
2445.025,23.79384756774607
2446.3937,17.550097966656494
2447.7617,22.7021796654808
2449.1289,16.95004434810346
2450.4955,12.443643471386622
2451.8613,13.232928322692942
2453.2265,22.517850064948902
2454.5909,15.648359728752212
2455.9546,15.474408119522764
2457.3177,21.19594588619691
2458.68,24.21292352296723
2460.0416,24.47529131206761
2461.4025,32.68299929360353
2462.7627,24.2359972629273
2464.1222,26.434234688562015
2465.4811,24.627660796671194
2466.8392,29.216224549075605
2468.1966,34.94987466132034
2469.5533,31.978559556788355
2470.9093,37.152227309364775
2472.2645,28.57082567314933
2473.6191,36.834302030720096
2474.973,36.342603478946785
2476.3262,27.84567674635673
2477.6787,37.293468198051414
2479.0305,36.28592392067594
2480.3816,26.27298962794123
2481.7319,43.254610670699094
2483.0816,35.28073213707182
2484.4306,36.30129868263532
2485.7789,42.91625461015883
2487.1264,26.725543859398385
2488.4733,36.22910994094775
2489.8195,36.17689609814556
2491.165,29.36884521203899
2492.5097,39.40489980190705
2493.8538,33.48500209334054
2495.1972,32.25909391788184
2496.5398,32.127116772223644
2497.8818,27.73901183046769
2499.2231,34.894719945445445
2500.5637,31.5441816925985
2501.9035,42.537337298421676
2503.2427,36.524126673968226
2504.5812,33.55448930491889
2505.919,24.22836431171322
2507.256,28.04569047924724
2508.5924,38.90640635013267
2509.9281,37.66045018652528
2511.2631,33.50775986151643
2512.5974,43.49827287159383
2513.9309,40.38192637816758
2515.2638,38.808657107665226
2516.596,44.02840138269585
2517.9275,42.44109513778221
2519.2583,40.59667386716319
2520.5884,36.14507264066697
2521.9178,51.08622612215561
2523.2465,39.4700686140402
2524.5745,34.496533907870344
2525.9018,40.16555540049512
2527.2284,38.02706614379895
2528.5543,40.63099878801074
2529.8796,47.477285603088944
2531.2041,42.665858452682414
2532.5279,47.19664872566727
2533.851,44.01958738426083
2535.1735,46.83460491871449
2536.4952,48.99163137908397
2537.8163,52.590596347079554
2539.1366,55.48142891449538
2540.4562,59.86405764722031
2541.7752,56.73841055632897
2543.0935,48.104415054255924
2544.411,56.11199798605139
2545.7279,58.46108571572199
2547.0441,57.55160404615435
2548.3596,52.433478195624616
2549.6744,61.40663280689307
2550.9885,52.72099199838533
2552.3019,58.52647927446105
2553.6146,63.07301761227029
2554.9266,56.86052940369848
2556.2379,58.33893640990118
2557.5485,59.55815982342892
2558.8585,54.868120253443635
2560.1677,68.26873771352575
2561.4762,74.60993166857463
2562.7841,65.49162090080279
2564.0913,55.96372344632334
2565.3977,62.876156686333616
2566.7035,58.028837442393865
2568.0086,71.87168190730279
2569.313,73.4046056935714
2570.6167,61.627523694994125
2571.9197,70.39035007131974
2573.222,72.39299836602186
2574.5236,70.78538141867102
2575.8246,76.06741134490733
2577.1248,72.23899955251795
2578.4244,68.20005668861609
2579.7232,73.80049267792538
2581.0214,77.14021676316929
2582.3189,88.86913744906678
2583.6157,86.48716246893468
2584.9118,87.04419866739897
2586.2072,87.24015202421424
2587.5019,90.57492764869323
2588.7959,88.1484297777472
2590.0893,90.76056174253858
2591.3819,99.46122599274543
2592.6739,96.8503240704407
2593.9652,101.42775652308524
2595.2557,105.29342292963656
2596.5456,109.54722185477556
2597.8348,110.28905081024845
2599.1234,114.76880621232988
2600.4112,113.88638337440443
2601.6983,112.94167646216886
2602.9848,110.73457850245609
2604.2705,109.61498139268258
2605.5556,119.03277592291977
2606.84,102.6378517870885
2608.1237,105.68009748878342
2609.4067,113.10940050522015
2610.689,100.27564725681418
2611.9707,110.77872303288643
2613.2516,100.71851212000195
2614.5319,112.79489769693873
2615.8115,104.45776193528968
2617.0903,98.50698587869931
2618.3685,111.6424495262346
2619.6461,102.01403189189284
2620.9229,103.67161087324723
2622.199,106.165063347731
2623.4745,107.09426515606162
2624.7493,112.60909107730595
2626.0234,102.80941481958871
2627.2968,110.39510896494414
2628.5695,107.51604506731235
2629.8415,110.17209357668264
2631.1128,109.31312386788466
2632.3835,108.73900421402675
2633.6535,104.34960179508687
2634.9228,111.0447827036528
2636.1914,102.8244119888169
2637.4593,112.73835358922395
2638.7265,109.13647041527497
2639.9931,105.4186242499876
2641.259,111.63467578501559
2642.5242,105.23448465782644
2643.7887,109.56790938954157
2645.0525,107.43480744893759
2646.3156,97.085035209112
2647.5781,106.06844796881501
2648.8398,103.78490005594631
2650.1009,102.78424473772111
2651.3613,99.66633424350573
2652.6211,108.13101977482444
2653.8801,103.82815153653809
2655.1385,94.30757865219766
2656.3961,96.21914920707309
2657.6531,103.71271034335837
2658.9094,109.38810824105639
2660.1651,111.14518804304339
2661.42,107.48379379831425
2662.6743,115.00376844441263
2663.9279,110.45495384404478
2665.1808,107.337190709879
2666.433,114.20031865003449
2667.6846,115.54417619925903
2668.9354,127.01860075029771
2670.1856,125.07342854045419
2671.4351,132.4084945368461
2672.6839,133.7736324558569
2673.9321,135.5686746897855
2675.1795,141.69345229319447
2676.4263,141.09779496496003
2677.6724,142.78153098702444
2678.9179,143.3944872303519
2680.1626,141.13648913809192
2681.4067,140.4573607194489
2682.6501,141.10692457226293
2683.8928,140.13500188980032
2685.1348,136.3414124542582
2686.3761,132.77597464648397
2687.6168,134.73850548391096
2688.8568,128.52882065621316
2690.0961,127.49673450567957
2691.3348,126.59206008931142
2692.5727,118.16460918914288
2693.81,115.06419232128786
2695.0466,123.3906188202144
2696.2826,125.14369686974874
2697.5178,124.07323341981117
2698.7524,116.27903416888512
2699.9863,120.8609035747217
2701.2195,126.46864493228213
2702.452,126.30206032791864
2703.6839,128.06095058329765
2704.9151,142.79511525706488
2706.1456,138.25435262725705
2707.3755,150.98845954396012
2708.6046,151.59723147471647
2709.8331,155.38046237718504
2711.0609,163.9379446930521
2712.2881,174.06946931019945
2713.5145,183.9248254771303
2714.7403,184.95380070165288
2715.9654,194.50618065232754
2717.1899,209.9317491481766
2718.4136,218.93028806316153
2719.6367,226.00157717192604
2720.8591,242.1953940598117
2722.0809,247.26151405214392
2723.3019,265.19971005229456
2724.5223,275.40975249102036
2725.7421,280.5414091470812
2726.9611,276.3444450451396
2728.1795,280.4186224044441
2729.3972,268.0637006807992
2730.6142,251.52943652582292
2731.8306,242.06558391049708
2733.0462,225.7718942905089
2734.2612,214.09811670089033
2735.4756,198.74399791895462
2736.6892,177.909282581034
2737.9022,163.0437133360212
2739.1145,152.1970310537156
2740.3262,136.5189749734805
2741.5372,127.85928281270861
2742.7475,116.2676909236032
2743.9571,109.54393437977518
2745.1661,97.03774709215838
2746.3744,82.79886187624771
2747.582,76.87701057716077
2748.7889,67.12192421202673
2749.9952,64.9833330292044
2751.2008,53.66096660583429
2752.4057,54.90455386922332
2753.61,44.663823210069324
2754.8136,48.68850247002456
2756.0165,33.37831904410314
2757.2188,30.282999840434286
2758.4204,44.30227143336407
2759.6213,35.88586009440888
2760.8215,34.38349165206262
2762.0211,30.944891575960867
2763.22,30.869784991904453
2764.4182,32.157896716245034
2765.6158,21.658951256636954
2766.8127,16.7726727991556
2768.009,18.548785313287112
2769.2045,13.63701260079165
2770.3994,5.237078277941748
2771.5936,3.7987058246397396
2772.7872,0.27161866841782967
2773.9801,-12.294459801178903
2775.1723,-9.499806197321334
2776.3639,-15.34457431152714
2777.5548,-14.878823032250352
2778.745,-11.20245795564756
2779.9346,-16.01523603843367
2781.1235,-12.3168023247689
2782.3117,-10.206641866605935
2783.4992,-14.584116671042239
2784.6861,-16.448486780823657
2785.8723,-6.348866543370605
2787.0579,-11.934205985721064
2788.2428,-0.20339170973647924
2789.427,-3.905191094560905
2790.6106,2.311630512544866
2791.7935,10.948346777179154
2792.9757,9.156231341823627
2794.1573,23.436557739477166
2795.3382,31.2905994115755
2796.5184,36.7696295651898
2797.698,47.57492109448515
2798.8769,58.30774652593084
2800.0551,66.66937791024725
2801.2327,80.6610867150772
2802.4096,93.78414374137049
2803.5859,104.83981898346599
2804.7615,125.6793814978613
2805.9364,148.10409929265654
2807.1106,165.7152391191578
2808.2842,188.86406624763072
2809.4572,207.7018442911882
2810.6294,244.4298349743034
2811.801,277.0992979444311
2812.972,311.2114904047281
2814.1423,351.1676667873587
2815.3119,398.1190784123728
2816.4808,439.91697308814355
2817.6491,485.86259464185366
2818.8167,524.8571825015163
2819.9837,576.4019712365183
2821.15,615.5981901676756
2822.3157,680.9970628517843
2823.4807,739.3498066896589
2824.645,786.7576322721436
2825.8086,838.7717427965855
2826.9716,877.943333592755
2828.134,931.023591602706
2829.2957,968.6636949890591
2830.4567,1001.914812604199
2831.617,1033.278103613874
2832.7767,1031.5047171646845
2833.9358,1036.34579207045
2835.0941,1024.0524568299434
2836.2519,1015.2258295784798
2837.4089,987.2670182108498
2838.5653,984.0271204695862
2839.7211,958.2072242245526
2840.8761,954.7584075053409
2842.0306,960.1317387594707
2843.1843,993.978276886878
2844.3374,1026.0990711861823
2845.4899,1055.1951610162196
2846.6417,1104.0675754748358
2847.7928,1181.8673331079267
2848.9433,1237.545441420711
2850.0931,1300.102896099736
2851.2422,1370.1406804560934
2852.3907,1433.8597647998465
2853.5385,1484.9611057396532
2854.6857,1532.9956455455717
2855.8323,1576.764311638051
2856.9781,1625.1180161075845
2858.1233,1677.4576552770206
2859.2679,1731.5341092180306
2860.4118,1788.7982412277079
2861.555,1832.2508972878056
2862.6976,1879.4929054920938
2863.8395,1910.3750756118354
2864.9808,1923.3481986233637
2866.1214,1961.2130463992626
2867.2614,1962.0703715786335
2868.4007,1984.4709071884477
2869.5393,1986.1153666349733
2870.6773,1992.6044434797695
2871.8146,2008.2888114232421
2872.9513,2002.419124239752
2874.0874,1996.7460156207721
2875.2227,1989.6700992335855
2876.3574,1968.941968778015
2877.4915,1949.3121980571818
2878.6249,1923.6313411847887
2879.7577,1881.1499327814176
2880.8898,1874.118488231336
2882.0212,1839.2875041073144
2883.152,1841.5074582409368
2884.2821,1840.678810070915
2885.4116,1825.8020006208853
2886.5405,1834.5774525076963
2887.6686,1828.2555700901748
2888.7962,1849.2867393813767
2889.923,1841.4213281118004
2891.0493,1861.3096855190774
2892.1748,1864.7021424266266
2893.2997,1877.5990110447701
2894.424,1882.850584936809
2895.5476,1895.0071388900546
2896.6706,1924.568928863312
2897.7929,1951.786191865317
2898.9145,1972.4591456591147
2900.0355,1998.337988489891
2901.1559,2026.9728988782385
2902.2756,2068.0140353613715
2903.3946,2087.3615362067744
2904.513,2113.4155190017937
2905.6308,2153.076080460159
2906.7479,2159.243296161446
2907.8643,2199.2672201544697
2908.9801,2199.2978848956122
2910.0953,2215.635300848584
2911.2098,2215.529456484117
2912.3236,2229.7303181165917
2913.4368,2208.3878299050925
2914.5494,2195.9019137114037
2915.6613,2149.7224693134285
2916.7725,2119.749374530055
2917.8831,2104.782485682944
2918.9931,2084.071637896264
2920.1024,2037.6666452463594
2921.211,2043.917300968858
2922.319,2017.2233779227224
2923.4264,1989.7346285277422
2924.5331,1978.7007850314733
2925.6391,1975.7715597841257
2926.7445,1980.146645348901
2927.8493,1985.6257145312877
2928.9534,1983.558420335307
2930.0569,1981.544395908723
2931.1597,1985.9832545637169
2932.2619,1996.3745897970266
2933.3634,1998.167975245557
2934.4643,2002.0129645824693
2935.5645,1984.759091499243
2936.6641,1971.1058696672294
2937.763,1944.8527929101895
2938.8613,1894.199335340825
2939.959,1859.5949516233109
2941.056,1793.7890774798288
2942.1523,1726.9311300366116
2943.248,1641.7705084820013
2944.3431,1548.7565947350288
2945.4375,1456.1387542970206
2946.5313,1380.416337181738
2947.6244,1263.988678841554
2948.7169,1169.9551009246793
2949.8087,1074.9149124394385
2950.8999,986.7674106946052
2951.9904,912.4118822498037
2953.0803,845.847603796985
2954.1696,792.7238429039813
2955.2582,735.0398586801491
2956.3462,689.5949023076063
2957.4335,667.688217618073
2958.5202,627.16904154732
2959.6062,594.2866043542363
2960.6916,581.590130026021
2961.7764,566.8288366070076
2962.8605,539.7519363256284
2963.9439,532.2086357420276
2965.0267,528.54813601883
2966.1089,524.2196329965748
2967.1905,525.2723172303198
2968.2714,518.9553740329271
2969.3516,524.9679834645362
2970.4312,526.0093203957327
2971.5102,537.978554447423
2972.5885,543.7748499804205
2973.6662,547.5973659757537
2974.7432,548.7452559767021
2975.8196,552.5176680505725
2976.8954,535.813744777219
2977.9705,531.3326232113191
2979.045,524.1234350494129
2980.1188,522.585306674715
2981.192,508.0173592292057
2982.2645,488.0687086290128
2983.3364,478.03846571009046
2984.4077,440.7257364277068
2985.4783,431.0296219567449
2986.5483,404.8492190648311
2987.6177,370.93362020929555
2988.6864,346.28191379897635
2989.7545,309.1431845333756
2990.8219,283.3165136491766
2991.8887,256.05097929163065
2992.9548,221.24565677282453
2994.0204,196.09961884433528
2995.0852,174.31193604528335
2996.1495,152.23167695379368
2997.2131,123.95790840487183
2998.276,111.03969571120683
2999.3383,89.37610294590877
3000.4,77.916193071691
3001.4611,56.30902815750585
3002.5215,53.45366949314422
3003.5812,39.099177805306965
3004.6404,26.644613286158176
3005.6989,19.239035736870846
3006.7567,16.381504692172314
3007.8139,14.821079494399498
3008.8705,3.6568193220745684
3009.9264,-2.0622167944910643
3010.9818,-9.936969861553905
3012.0364,-5.268360283824677
3013.0905,-15.357209195685357
3014.1439,-1.7542851005988496
3015.1966,-13.210203083508418
3016.2487,-9.075560704049224
3017.3002,-6.750823551928022
3018.3511,-7.486366552000163
3019.4013,-4.432497188393995
3020.4509,-8.389448156436174
3021.4998,-0.4074078708067077
3022.5481,-4.88648093559857
3023.5958,1.023232115099745
3024.6428,7.371679563144255
3025.6892,4.308809680158561
3026.735,13.18457066404983
3027.7802,18.748910669637382
3028.8247,17.20177771989495
3029.8685,16.643119650307256
3030.9118,33.272884124341545
3031.9544,35.641018639034144
3032.9963,42.29747035869275
3034.0376,44.042186091214944
3035.0783,53.27511222152356
3036.1184,61.19619469411987
3037.1578,60.205378920754185
3038.1966,68.902609701215
3039.2348,75.93783123323715
3040.2723,83.56098702552936
3041.3092,77.22201982742251
3042.3455,81.52087155263763
3043.3811,81.50748334267598
3044.4161,86.08179552383007
3045.4505,90.74374760731786
3046.4842,91.49327824353941
3047.5173,86.08032517545752
3048.5498,86.05482523110248
3049.5816,86.31671437770143
3050.6128,85.11592772193313
3051.6434,80.55239950730964
3052.6734,83.47606312618376
3053.7027,80.63685116538431
3054.7314,87.33469537697971
3055.7594,84.41952670666984
3056.7868,80.99127522680789
3057.8136,84.6498701655517
3058.8398,82.89523994114654
3059.8653,80.97731212533915
3060.8902,77.14601346092394
3061.9145,80.65126988092271
3062.9381,77.19300654689704
3063.9612,74.37114781389607
3064.9835,80.93561726503901
3066.0053,75.28633773973348
3067.0264,75.92323126803109
3068.0469,75.34621912712004
3069.0668,69.50522183495639
3070.086,64.35015915603424
3071.1046,62.730950159795384
3072.1226,60.34751327218032
3073.1399,56.599766291819975
3074.1567,50.93762641387045
3075.1727,53.96101026749017
3076.1882,48.069833972461396
3077.203,36.014013108956135
3078.2173,38.64346277644839
3079.2308,33.75809771427194
3080.2438,28.65783227532603
3081.2561,25.192580474929088
3082.2678,19.112256041821126
3083.2789,20.9667724528166
3084.2893,15.256042993607423
3085.2991,12.629980740217917
3086.3083,11.588498616112105
3087.3169,13.731509418454266
3088.3248,9.35892582852398
3089.3321,7.970660390285786
3090.3388,2.616625554115217
3091.3449,1.1467336906812875
3092.3503,3.3108971444869724
3093.3551,4.959028248567989
3094.3593,1.8910393028511123
3095.3629,-0.3431574423270831
3096.3658,-3.143649755540366
3097.3681,0.78947802278023
3098.3698,-5.04382704273533
3099.3708,-3.943617895351821
3100.3713,-4.009897090502022
3101.3711,2.607372213124023
3102.3702,1.5082669157081625
3103.3688,-4.807136108641458
3104.3667,2.3612399991009454
3105.364,-0.7864798787493896
3106.3607,0.14982911651057407
3107.3568,1.9702997005176712
3108.3522,-0.3749369078842051
3109.347,0.2142504904458633
3110.3412,6.6879968402682834
3111.3348,0.5964349459810592
3112.3277,5.439697545102291
3113.32,-0.08208263081428413
3114.3117,6.181227095388181
3115.3028,4.479760220871924
3116.2932,8.213650180987088
3117.2831,5.783030366286113
3118.2723,6.78803408518516
3119.2608,10.578794588270057
3120.2488,10.905445058246443
3121.2361,6.418118572031943
3122.2229,9.366948097489797
3123.209,14.152066538302108
3124.1944,13.073606704481563
3125.1793,11.181701264520228
3126.1635,13.276482756174147
3127.1471,12.50808360538241
3128.1301,16.976636105319315
3129.1125,15.632272424078351
3130.0942,17.77512455998668
3131.0753,20.30532435504874
3132.0558,21.173003473517753
3133.0357,19.028293376593837
3134.015,18.47132531374706
3134.9936,18.20223034416466
3135.9716,22.021139342320666
3136.949,23.028183000666914
3137.9258,20.123491791443726
3138.902,23.207195956609553
3139.8775,26.97942553688796
3140.8524,27.940310340930637
3141.8267,25.939979907595074
3142.8004,29.228563496335624
3143.7735,28.056190107206902
3144.7459,30.97298844797794
3145.7178,31.77908694585595
3146.689,33.42461371831821
3147.6596,35.25969656505124
3148.6295,32.48446295149539
3149.5989,35.54903999049418
3150.5676,33.203554470046456
3151.5357,36.39813282266074
3152.5032,34.83290114881001
3153.4701,42.207985184985915
3154.4364,39.923510319351195
3155.402,36.72960151798875
3156.367,43.076383347746344
3157.3315,44.71398000817584
3158.2952,43.29251526806525
3159.2584,42.01211244906282
3160.221,40.67289443989166
3161.1829,47.12498370915375
3162.1442,45.06850231872217
3163.105,47.053571859220156
3164.065,48.73031347058594
3165.0245,51.9988478222221
3165.9834,49.95929509622808
3166.9416,54.56177495471489
3167.8993,52.55640656020059
3168.8563,54.99330852958547
3169.8127,54.3225989542058
3170.7684,54.94439537546475
3171.7236,55.308814791539504
3172.6782,58.11597365116332
3173.6321,60.16598784998133
3174.5854,60.158972702478934
3175.5381,61.69504292148167
3176.4902,63.2743126182254
3177.4417,61.64689528699556
3178.3926,61.762903789334445
3179.3428,63.17245037031543
3180.2924,65.52564665738285
3181.2415,70.4726036462566
3182.1899,67.01343167740005
3183.1377,65.5982403865506
3184.0848,71.07713873931132
3185.0314,69.80023504530288
3185.9773,69.66763690337457
3186.9227,70.52945121437335
3187.8674,73.0857841824698
3188.8115,69.68674130653997
3189.755,74.88242735460213
3190.6979,77.8729463978071
3191.6402,76.70840175848146
3192.5818,79.03889598022229
3193.5229,79.51453083954269
3194.4633,79.3354073225668
3195.4031,80.5016256202734
3196.3423,77.36328513028728
3197.2809,83.47048444521688
3198.2189,85.22332138403785
3199.1563,88.22189293102099
3200.0931,83.96629521820387
3201.0292,85.65662349540513
3201.9648,89.14297217278043
3202.8997,89.12543480391928
3203.834,88.00410405098135
3204.7677,88.42907168487204
3205.7008,93.20042859645567
3206.6333,90.81826479230581
3207.5652,92.83266934699178
3208.4964,93.89373042690022
3209.4271,92.30153527009105
3210.3571,92.60617017568694
3211.2865,98.45772051979512
3212.2154,97.50627075246115
3213.1436,98.55190433915337
3214.0712,98.94470377027737
3214.9982,97.3347505507197
3215.9246,99.57212519591988
3216.8503,100.00690724796989
3217.7755,103.73917525324048
3218.7001,106.51900675803327
3219.624,106.24647827125816
3220.5473,106.42166523663485
3221.4701,109.29464203541838
3222.3922,107.76548198464694
3223.3137,110.08425730841243
3224.2346,111.45103915315185
3225.1549,112.1158975644596
3226.0746,107.92890147341967
3226.9937,108.59011868995701
3227.9121,110.89961594470759
3228.83,116.50745888240615
3229.7473,114.06371203879124
3230.6639,117.26843878452674
3231.5799,114.32170134963945
3232.4954,114.57356079147175
3233.4102,118.4240770241489
3234.3244,120.52330881606059
3235.238,119.97131375135572
3236.151,121.61814820895003
3237.0634,123.96386736804618
3237.9752,121.90852519166526
3238.8864,125.60217440318965
3239.797,122.69486650691651
3240.7069,128.0366517511211
3241.6163,128.47757915713004
3242.5251,130.91769646590342
3243.4332,130.55705013362552
3244.3408,131.44568530730356
3245.2477,132.28364582837432
3246.154,132.57097422381764
3247.0598,133.657711697777
3247.9649,130.69389812868587
3248.8694,134.92957205840077
3249.7733,132.2147707218391
3250.6766,136.54953000462257
3251.5793,139.133884470225
3252.4814,133.51786731662503
3253.3829,138.90151035046225
3254.2838,139.68484404319764
3255.1841,139.56789747727706
3256.0838,138.5006983382978
3256.9829,140.3832729161782
3257.8814,142.01564611582955
3258.7792,143.64784143833032
3259.6765,142.0298809646024
3260.5731,148.36178533908924
3261.4692,142.24357378593555
3262.3647,147.22526404566798
3263.2595,149.50687243637745
3264.1538,146.23841380390218
3265.0474,146.5699014990116
3265.9404,145.70134741009093
3266.8329,150.08276195982629
3267.7247,149.4641541138903
3268.616,149.34553133712782
3269.5066,148.02689959974217
3270.3966,150.9082633784813
3271.286,148.7396256698242
