RamanShift,CorrectedData
30.1047,1532.2028552341894
32.3739,1422.1993837376715
34.6426,1309.845896919125
36.9109,1203.4423652345272
39.1787,1093.2887460413963
41.4461,989.4349846628264
43.7131,884.1310154890236
45.9796,771.3267630158439
48.2456,670.5221428978323
50.5112,559.0670630762664
52.7764,457.16142478720224
55.0411,354.1551236760246
57.3054,247.2980508165043
59.5692,136.6900937408606
61.8326,33.83113750833236
64.0955,-67.57893418874244
66.3579,-168.54023799633728
68.6199,-263.50221544687304
70.8815,-343.1126243557933
73.1426,-376.8165901514096
75.4032,-303.0058105669162
77.6634,81.33178106222795
79.9231,1146.461278428611
82.1824,3630.847774411503
84.4412,8296.606350425564
86.6995,14958.502051576976
88.9574,21699.999840005854
91.2148,26481.964528267297
93.4717,28752.260711916413
95.7282,29284.902721688653
97.9842,29231.60460079686
100.2398,28656.880099604863
102.4949,28012.142676160438
104.7495,27190.005501942556
107.0036,26228.08146830878
109.2573,25322.583194716597
111.5105,24429.823038342704
113.7632,23615.263103137942
116.0154,22805.965248754947
118.2672,22216.34109869371
120.5185,21579.552048394573
122.7693,21099.559271134473
125.0197,20677.773724394825
127.2696,20280.75615466145
129.519,20027.367101642434
131.7679,19734.46690223831
134.0163,19479.215693075927
136.2642,19182.97341343748
138.5117,18894.349807813003
140.7587,18588.9044288628
143.0052,18263.846640303676
145.2512,17958.2856199634
147.4967,17624.280363031274
149.7417,17389.839685113748
151.9863,17162.572225574462
154.2304,17016.436449878667
156.4739,16715.290651865893
158.717,16560.34295521131
160.9596,16273.151316437174
163.2017,15920.923526462324
165.4433,15508.617213474081
167.6844,15033.189846450536
169.925,14588.89873928361
172.1651,14089.151055533323
174.4047,13669.603812870706
176.6439,13290.013888075284
178.8825,12940.838021230555
181.1206,12714.132819519866
183.3582,12387.104760718194
185.5954,12169.860195459183
187.832,11927.355350505439
190.0681,11781.84633092097
192.3037,11664.789122496219
194.5388,11538.139593203174
196.7734,11472.753494365934
199.0075,11435.636461927206
201.2411,11487.294017102158
203.4742,11436.431566749601
205.7068,11495.25440285541
207.9389,11466.667703041147
210.1704,11544.17652997583
212.4015,11548.2858316618
214.632,11616.40044065964
216.862,11741.22507404708
219.0915,11799.76433273784
221.3205,11952.122700233404
223.549,12157.304542037613
225.777,12443.714104133087
228.0044,12734.40551092941
230.2314,13177.032762399023
232.4578,13570.899731170317
234.6837,13876.260158101362
236.909,14035.067648341235
239.1339,13885.825668276415
241.3582,13544.087543942713
243.582,13058.406462517682
245.8053,12542.735475738009
248.0281,12055.677504756317
250.2503,11673.835345297888
252.472,11389.21167253122
254.6932,11206.659044886477
256.9139,11014.92990690169
259.134,10851.676591048317
261.3536,10725.751319648518
263.5727,10621.006206507689
265.7912,10418.543258173719
268.0092,10328.314374984437
270.2267,10139.471353092247
272.4436,9989.365885366416
274.6601,9851.649563281491
276.8759,9693.07387841838
279.0913,9615.04022384149
281.3061,9527.699895684505
283.5204,9520.904093930701
285.7341,9556.903923286362
287.9473,9668.400393248734
290.16,9841.294417746032
292.3721,10157.286814022475
294.5837,10529.178300909332
296.7947,10807.219495665016
299.0052,10941.16091025616
301.2152,10719.852948577205
303.4246,10265.09590511099
305.6334,9570.98996714182
307.8418,8923.935219303059
310.0495,8393.231650518172
312.2568,8032.329160471267
314.4635,7748.927564914151
316.6696,7600.926599275339
318.8752,7511.975921494071
321.0802,7511.2251135003335
323.2847,7583.723682104344
325.4887,7599.2710590040915
327.692,7471.616600060324
329.8949,7291.559585141085
332.0972,6921.349219398264
334.2989,6595.534635068163
336.5001,6204.5648951735875
338.7007,5919.438996782012
340.9008,5734.205874915277
343.1003,5553.864405400827
345.2992,5456.21340672406
347.4976,5374.0016418317355
349.6955,5304.827819108481
351.8927,5314.1905931989095
354.0895,5231.13856569937
356.2856,5217.020285064298
358.4812,5173.03424743677
360.6763,5164.478896789642
362.8707,5074.502625365452
365.0646,5048.853773761954
367.258,4973.080631831872
369.4508,4903.981438939403
371.643,4950.654384717942
373.8346,4855.447609761068
376.0257,4779.609205155823
378.2162,4623.0372134347945
380.4062,4475.429629334476
382.5956,4258.834401360991
384.7844,4098.449433266176
386.9726,3904.5725862135278
389.1603,3820.7516803820617
391.3474,3719.9344969050744
393.5339,3698.4687787083494
395.7199,3551.852231518329
397.9052,3533.9325240767757
400.09,3517.9072896069392
402.2743,3515.474125992747
404.4579,3541.4305959390585
406.641,3645.8742269960003
408.8235,3837.452511299398
411.0054,4149.712904526345
413.1868,4604.552823979415
415.3675,4927.719645464065
417.5477,5128.660698740223
419.7273,5148.623264290631
421.9064,4973.354571311425
424.0848,4818.651797512515
426.2627,4513.562070870279
428.4399,4149.482471174566
430.6166,3726.8600330796235
432.7928,3299.091749744881
434.9683,2944.674577061174
437.1432,2666.655437928426
439.3176,2479.6812257998154
441.4914,2352.2988074619752
443.6645,2264.4050249047395
445.8371,2180.4966965949516
448.0091,2057.2706183554055
450.1806,1982.7235642039395
452.3514,1878.4522875856965
454.5216,1834.7535221185808
456.6913,1745.2739826359848
458.8603,1737.360365623772
461.0288,1794.459350115074
463.1967,1807.0675977694173
465.3639,1899.2817523017548
467.5306,1972.2984393563584
469.6967,2127.3642655846925
471.8622,2286.675817915242
474.0271,2435.729662002852
476.1914,2465.822340635612
478.3551,2434.050372244312
480.5182,2376.9602506015235
482.6807,2287.64844513933
484.8426,2371.3614015202074
487.0039,2640.395542530159
489.1647,3011.0472672415763
491.3248,3475.312948322915
493.4843,3688.7389283321627
495.6432,3647.571515074178
497.8015,3547.8069794664407
499.9592,3578.241555950721
502.1163,3501.421443490741
504.2728,3253.2428052677988
506.4287,2929.1017694489856
508.5839,2461.944431668988
510.7386,2058.7168582714585
512.8927,1870.3650909806329
515.0461,1668.8351509335735
517.199,1591.2230405636965
519.3512,1499.574745616068
521.5029,1511.63623592353
523.6539,1546.3034663231865
525.8043,1556.722376535783
527.9541,1571.0388908190416
530.1033,1578.8489178634663
532.2519,1651.198350649176
534.3999,1812.8330663678134
536.5472,2107.0489256990404
538.694,2615.191771194188
540.8401,3255.257424334104
542.9856,3837.8916804477303
545.1305,4032.89030231144
547.2748,3810.4990143226933
549.4185,3381.0635005500426
551.5615,2964.029406957068
553.704,2791.1423456967113
555.8458,2705.8478992816254
557.987,2641.09162231305
560.1276,2541.9690423337415
562.2675,2478.4256604755556
564.4069,2398.106952450653
566.5456,2294.508369186942
568.6837,2181.575337631273
570.8212,1920.1532617854118
572.958,1648.7875238353718
575.0942,1430.9734867656462
577.2299,1280.5064970728454
579.3648,1254.9318869438575
581.4992,1379.8449757605085
583.6329,1605.2410703553087
585.766,1872.115463762333
587.8985,1984.5634329632485
590.0304,1966.580236218575
592.1616,1877.361111943199
594.2922,1802.951278886212
596.4222,1641.8459370230976
598.5515,1462.4902682998381
600.6802,1335.7794382439552
602.8083,1092.5085977580766
604.9358,1029.222884387038
607.0626,949.3174247505976
609.1888,888.6873351762915
611.3144,821.6777224984853
613.4393,655.7836846646769
615.5636,525.850311405593
617.6873,406.92268589413106
619.8103,347.49588604469136
621.9327,255.7649857024553
624.0544,234.42505523765612
626.1756,268.4711624628835
628.2961,226.64837284648274
630.4159,170.05174917208933
632.5351,153.87635195686926
634.6537,102.66724001746479
636.7716,58.569470631771765
638.8889,62.928100051027286
641.0056,103.83818394077753
643.1216,96.94477733729946
645.237,110.84293423848794
647.3518,132.47770767279326
649.4659,169.7441495602343
651.5793,188.48731049605885
653.6922,177.70223937807714
655.8043,166.73398321923014
657.9159,127.52758725544663
660.0268,49.32809505532532
662.137,5.48054891218635
664.2466,-33.97000937392659
666.3556,-31.628592753660996
668.4639,-75.84987481726967
670.5716,28.961786814625157
672.6786,131.8027922616493
674.785,199.06925231517562
676.8907,278.65727644854996
678.9958,347.36297214443766
681.1002,363.43244409893305
683.204,335.1617935345039
685.3072,302.79711803930513
687.4097,219.83451184986734
689.5115,168.2200661747538
691.6127,113.74987002418857
693.7132,44.070010726196415
695.8131,-14.923425528690132
697.9123,-2.1843529906309413
700.0109,-58.866536824767536
702.1089,-62.52372037456189
704.2061,-115.95905890677386
706.3028,-47.17508307620665
708.3987,-5.023165106675151
710.4941,136.79579405708319
712.5887,329.6809436517324
714.6827,698.181431545996
716.7761,1061.2464023117882
718.8688,1456.9749935392174
720.9608,1680.6163322059347
723.0522,1730.4695307198344
725.1429,1487.9336846826736
727.233,1137.6078723915125
729.3224,832.3411572640798
731.4112,538.73259134203
733.4993,318.3812183436221
735.5867,161.63607659978697
737.6735,65.89620125764668
739.7596,10.260625847968186
741.845,-8.521616757427182
743.9298,-7.20149378932183
746.014,38.67011265244582
748.0974,35.49239241095529
750.1802,68.46453494259185
752.2624,78.13572934882541
754.3439,91.7551640464917
756.4247,181.17202667106903
758.5048,270.235503940492
760.5843,487.3947807609784
762.6631,795.5990393363954
764.7413,1267.9474569966624
766.8188,1813.4892031157233
768.8956,2340.4234343880507
770.9718,2652.349289373218
773.0473,2575.3658832265846
775.1221,2205.572304580013
777.1962,1829.3176163117187
779.2697,1642.5508592441947
781.3426,1688.9710559067644
783.4147,2007.4272124032414
785.4862,2372.9683179477324
787.557,2396.443341680084
789.6271,2010.1012290104554
791.6966,1482.6409013845841
793.7654,937.6612601472007
795.8335,628.9611918166356
797.901,436.1395735346068
799.9678,389.7452761532277
802.0339,430.17716616322286
804.0993,486.2341061578627
806.1641,501.21495442864943
808.2282,424.4685644047513
810.2916,365.9937845031891
812.3544,273.7394588963016
814.4164,196.20442809649467
816.4778,209.2375298787847
818.5385,209.63760005615222
820.5986,260.5034723492099
822.658,341.633978382195
824.7166,458.7279471743095
826.7747,620.2842043284254
828.832,783.5015708601368
830.8886,925.5288615822028
832.9446,1039.4148834723674
834.9999,1138.0084342531045
837.0545,1214.658301252739
839.1085,1242.4132604195129
841.1618,1285.0220755550927
843.2143,1257.6334980370157
845.2662,1193.146266392605
847.3175,1139.3591065728524
849.368,1023.2207325972886
851.4179,926.5798470918526
853.467,784.1351424502882
855.5155,708.4853018005433
857.5633,601.5790004292212
859.6105,466.2649065380756
861.6569,409.8916823130785
863.7027,357.40798527754305
865.7478,354.612468855883
867.7922,378.0537828984252
869.8359,442.43057370939096
871.8789,597.3914838124601
873.9212,748.6351513070167
875.9629,967.2602083185284
878.0039,1182.6152794861173
880.0441,1279.098979776296
882.0837,1273.7599123294294
884.1226,1195.74666749489
886.1609,1049.8078228844552
888.1984,944.8419441524456
890.2352,901.4475864551005
892.2714,871.1732955002499
894.3069,855.7176079812507
896.3416,788.7290518797345
898.3757,788.7061466201612
900.4091,762.747403739706
902.4418,814.6513268884883
904.4739,828.5164120891513
906.5052,834.6911472178344
908.5358,733.5240118655092
910.5658,588.5634772762423
912.595,447.60800735886187
914.6236,333.0060601365676
916.6515,315.55608915647827
918.6786,305.35654463566243
920.7051,382.6558736356328
922.7309,498.95252016434097
924.756,581.9949244031886
926.7804,674.1315215440518
928.8041,670.6107409588676
930.8272,707.3810052782592
932.8495,677.9907304267435
934.8711,587.4883252550335
936.892,424.1221918339397
938.9123,306.3407263593872
940.9318,180.89232078608984
942.9506,42.82536400534809
944.9688,-8.061756900455293
946.9862,-66.57065527718441
949.003,-77.35286393376009
951.019,-60.30925063825816
953.0344,-31.439910403652902
955.0491,21.5056642465006
957.063,114.5282948733402
959.0763,240.12880282295555
961.0888,294.60800829615437
963.1007,371.7667290924637
965.1119,427.60578006533433
967.1223,471.0259723505551
969.1321,510.7781128078677
971.1412,554.463003586754
973.1495,602.5814417289257
975.1572,644.8342187314702
977.1641,695.4721200656695
979.1704,668.4459247544655
981.1759,675.1564048660894
983.1808,740.0543257843201
985.1849,854.590446141372
987.1884,1053.215517168921
989.1911,1248.1302815527415
991.1932,1407.635471446465
993.1945,1483.3818065224223
995.1951,1477.819992376595
997.1951,1429.0507197711522
999.1943,1363.724664690064
1001.1928,1300.0924888268019
1003.1906,1324.554840237599
1005.1877,1373.412353977761
1007.1841,1365.9656518570628
1009.1798,1294.565341951151
1011.1748,1095.0620186760243
1013.1691,925.6062635020335
1015.1627,707.6986469489111
1017.1556,521.0397302803322
1019.1477,427.0800676829949
1021.1392,350.2702081332063
1023.1299,375.16069633647567
1025.12,397.35207349560915
1027.1093,488.74487706181753
1029.0979,560.839640512786
1031.0859,638.9368924387545
1033.0731,646.187155821568
1035.0596,593.8909472537125
1037.0454,454.7987768658004
1039.0304,338.9111488495455
1041.0148,200.92856284867412
1042.9985,134.9515151178075
1044.9814,128.13049990228683
1046.9636,74.41601009794249
1048.9452,80.10853731930001
1050.926,105.25857243672726
1052.9061,108.36660551950627
1054.8855,107.73312558433645
1056.8642,129.25862056425103
1058.8421,186.94357731496166
1060.8194,231.28848139959882
1062.7959,272.4438165118572
1064.7717,305.8100640325574
1066.7469,345.03770261808313
1068.7213,318.4272078667218
1070.695,321.77905192638536
1072.6679,262.99370376072056
1074.6402,204.1716291155817
1076.6117,202.91329110689276
1078.5826,217.36915080886138
1080.5527,293.3896672665669
1082.5221,451.37529735139924
1084.4908,679.876495000859
1086.4587,901.9937096386966
1088.426,1082.9773838899036
1090.3925,1070.6779513595338
1092.3584,1041.1958348228763
1094.3235,884.0814463484476
1096.2879,795.0851875928083
1098.2515,754.1574513717205
1100.2145,803.4486225500941
1102.1767,900.9090784512737
1104.1382,1055.6391883641181
1106.099,1276.639312568399
1108.0591,1540.4598007875056
1110.0185,1671.6009899784276
1111.9771,1693.2632016935677
1113.9351,1499.9467407693155
1115.8923,1199.5018951094326
1117.8488,851.9789376182143
1119.8045,596.5281292049494
1121.7596,459.64972225913425
1123.7139,405.19396320499527
1125.6675,433.8110938702566
1127.6204,476.95135203071277
1129.5726,499.5649711240476
1131.524,526.5521798184418
1133.4748,571.3632017864193
1135.4248,598.4982554349917
1137.3741,629.5575534575373
1139.3226,620.1913025624535
1141.2705,579.9997031625635
1143.2176,498.8829494687898
1145.164,537.791229892061
1147.1097,577.0747278544814
1149.0546,549.8836214002476
1150.9989,488.46808280281584
1152.9424,328.02827883680766
1154.8852,155.81437139216996
1156.8272,43.42651907856998
1158.7686,8.214878947535908
1160.7092,-28.420392383664876
1162.6491,-33.27913837991582
1164.5883,53.28908141361899
1166.5267,149.33503991036378
1168.4644,317.5595094908558
1170.4014,491.7632610422852
1172.3377,763.1470622762445
1174.2732,965.2116759867022
1176.2081,1208.7578573361507
1178.1421,1416.9363518349774
1180.0755,1597.3978929059895
1182.0082,1663.4431998026403
1183.9401,1633.5229758044115
1185.8713,1483.1379075563518
1187.8017,1250.3886653682912
1189.7315,1014.8259047186793
1191.6605,747.8502685820868
1193.5888,588.4623897848287
1195.5163,476.51289367471963
1197.4432,379.4523997149563
1199.3693,329.23152260360894
1201.2947,311.05087324422766
1203.2193,330.66105924805197
1205.1432,358.81268511581766
1207.0664,401.606352041651
1208.9889,463.5426576315549
1210.9106,540.9721954754714
1212.8316,648.6955545279206
1214.7519,716.1133183336979
1216.6715,750.326063950648
1218.5903,751.9343612754847
1220.5084,721.738772701663
1222.4257,708.0898531032954
1224.3424,679.588150137115
1226.2583,737.834204378958
1228.1735,855.7785496087818
1230.0879,982.2217122282073
1232.0016,1108.3142100810692
1233.9146,1162.7065511889941
1235.8269,1076.8492324904682
1237.7384,986.3927392969172
1239.6492,784.9375461512755
1241.5592,709.2341177325588
1243.4686,612.9329108704133
1245.3772,578.6343753021392
1247.285,545.0389546357183
1249.1922,521.5970866927855
1251.0986,536.9592038445908
1253.0042,535.6757332464158
1254.9092,607.3970966839506
1256.8134,694.3237105861326
1258.7169,865.4059853079325
1260.6196,1037.594324261092
1262.5216,1263.43912220329
1264.4229,1430.9407635162725
1266.3234,1543.2996199473873
1268.2232,1605.916048934585
1270.1223,1632.9903924828195
1272.0207,1617.8229765378892
1273.9183,1590.1141107156918
1275.8151,1536.814088453897
1277.7113,1442.6731872890332
1279.6067,1335.1416693894935
1281.5014,1205.3197824969384
1283.3953,1105.9077610016175
1285.2885,1056.3558272405808
1287.181,1053.3141924918064
1289.0727,1098.9830574697153
1290.9637,1151.412612355588
1292.854,1258.303036340878
1294.7435,1422.8044971029167
1296.6323,1642.6171497360092
1298.5204,1903.4911351064193
1300.4077,2142.3765776542423
1302.2943,2335.6235827846613
1304.1802,2411.632234479098
1306.0653,2347.6025933627416
1307.9497,2244.334695944466
1309.8333,2110.2285552571175
1311.7162,2120.5341618901994
1313.5984,2185.6014853309343
1315.4798,2312.330473861204
1317.3605,2508.871053906878
1319.2405,2647.2731287705183
1321.1197,2698.2365766659877
1322.9982,2656.561249334417
1324.876,2642.096971534579
1326.753,2606.843541459626
1328.6293,2624.000730881751
1330.5048,2647.868285504708
1332.3796,2627.995924792247
1334.2537,2612.6833417294374
1336.127,2592.380203021393
1337.9996,2581.986149246396
1339.8714,2526.650795058933
1341.7426,2498.4737292936325
1343.6129,2511.3045155186164
1345.4826,2430.3426923172738
1347.3515,2394.287773159949
1349.2196,2377.189247213567
1351.087,2405.5465797021734
1352.9537,2437.50921207792
1354.8197,2587.276561737497
1356.6849,2775.6480217025
1358.5493,2868.822959121765
1360.4131,2923.5007133876434
1362.276,2871.8805952042694
1364.1383,2726.7118860407645
1365.9998,2517.9438386474503
1367.8606,2233.77567850753
1369.7206,1984.2066059247682
1371.5799,1811.5357988651795
1373.4384,1688.5124154527111
1375.2962,1579.3355956959567
1377.1533,1373.2544627183852
1379.0096,1090.468123850109
1380.8652,857.9756726886999
1382.7201,622.5261919270515
1384.5742,420.6187556783025
1386.4275,273.4024318303327
1388.2802,178.22628406483545
1390.132,94.23937332948208
1391.9832,59.390758789685606
1393.8336,25.77949866846575
1395.6832,-31.095349405059096
1397.5322,-8.83472805956535
1399.3803,-11.389269281191446
1401.2278,-23.609516797142533
1403.0745,-3.745900555829394
1404.9204,-0.6486146465922502
1406.7656,48.482184262771625
1408.6101,69.99634598412194
1410.4538,113.69371984450027
1412.2968,172.47415447098683
1414.139,259.5874973537284
1415.9805,335.68359425813196
1417.8213,459.96228835373586
1419.6613,617.673419453241
1421.5006,813.3168227697297
1423.3391,1084.5423273395518
1425.1769,1481.3997540658902
1427.0139,1998.438913006511
1428.8502,2609.7595994051835
1430.6858,3223.3615885212894
1432.5206,3662.4946295166183
1434.3547,3932.2584393193492
1436.188,3998.7026982327125
1438.0206,3926.277047237366
1439.8524,3834.581087326933
1441.6835,3714.364380232276
1443.5139,3636.72644933845
1445.3435,3598.516780886862
1447.1724,3532.9848247516684
1449.0005,3474.329994821851
1450.8279,3411.651669656554
1452.6545,3391.9491930716176
1454.4804,3445.9218747663726
1456.3056,3450.6189905206556
1458.13,3369.3397816550896
1459.9536,3152.6334549841094
1461.7766,2805.6991836287543
1463.5987,2389.936109183732
1465.4202,2017.6433451867606
1467.2409,1677.4699812762
1469.0608,1399.9150869139803
1470.88,1184.2777147873321
1472.6984,974.9069035843386
1474.5161,789.7016801503114
1476.3331,665.3610615814905
1478.1493,558.2840570771032
1479.9648,475.7196691827694
1481.7795,397.9168948612696
1483.5935,341.1747263181869
1485.4067,288.692151779941
1487.2192,231.96815606120526
1489.031,231.05172108973238
1490.842,197.54182647359994
1492.6522,166.03744951036606
1494.4618,178.0875655221771
1496.2705,166.19114817080663
1498.0785,163.4971693371508
1499.8858,130.4045992402007
1501.6924,122.11240646397437
1503.4981,127.8195582884482
1505.3032,141.12502077247973
1507.1075,108.2777586967286
1508.911,103.67673543060937
1510.7138,70.82091326075806
1512.5159,67.95925343704766
1514.3172,40.540716501142015
1516.1178,23.714262315115775
1517.9176,20.2788503356378
1519.7166,-10.416560217765436
1521.515,-2.57301032835403
1523.3126,-0.5914369179517962
1525.1094,-4.622751204015913
1526.9055,-6.167858495548899
1528.7008,-21.277617920266493
1530.4954,-30.352826988983452
1532.2893,-19.494070649112928
1534.0824,-30.801630623328037
1535.8747,-10.525593888536605
1537.6663,-12.815739713358198
1539.4572,-17.82174221573041
1541.2473,-3.393147484352994
1543.0367,19.420676431278025
1544.8253,-1.2296046207952713
1546.6132,36.90667501326607
1548.4003,51.33019327104512
1550.1867,74.94162772106256
1551.9723,115.09165541853827
1553.7572,144.13095266927985
1555.5414,176.86019462817876
1557.3247,219.93005500882145
1559.1074,306.2412057561937
1560.8893,386.8443166159823
1562.6705,459.34005427146303
1564.4509,558.4790815374727
1566.2305,641.6620566354459
1568.0094,736.0896322020321
1569.7876,827.2124544572634
1571.565,886.3311622602741
1573.3417,932.5963861980763
1575.1176,937.6087479943722
1576.8928,911.4188600469029
1578.6672,853.5773253773223
1580.4409,777.2847378930978
1582.2138,653.6416829659261
1583.986,557.7487381946567
1585.7575,495.1564746417257
1587.5282,440.16545779208127
1589.2981,388.72624817911264
1591.0673,363.8894019345562
1592.8358,393.5054713028867
1594.6035,390.22500488968944
1596.3704,399.19854736549587
1598.1366,438.97663949858816
1599.9021,481.05981806526506
1601.6668,508.14861545205986
1603.4308,592.0435592349077
1605.194,693.5951719082595
1606.9564,776.603970046131
1608.7182,920.9704632865878
1610.4791,1077.7951535016568
1612.2394,1250.9285333536636
1613.9988,1438.2210847269848
1615.7576,1656.7732769967138
1617.5156,1914.885565155735
1619.2728,2139.8583876292028
1621.0293,2320.892163693418
1622.785,2389.237291226099
1624.54,2346.8441448960452
1626.2942,2215.6130754796854
1628.0477,2003.5444102850083
1629.8005,1810.7384544638694
1631.5525,1584.7454931326865
1633.3037,1406.9657933004933
1635.0542,1300.8496061288683
1636.804,1180.0971687097363
1638.553,1108.008705126526
1640.3013,1097.3844276616987
1642.0488,1074.3745375176309
1643.7955,1095.8292249228562
1645.5416,1138.6986693621661
1647.2868,1202.2830393620611
1649.0313,1323.1824920620538
1650.7751,1482.3971725788297
1652.5181,1664.1272127972493
1654.2604,1929.0727297782
1656.0019,2233.9838239413007
1657.7427,2581.3105764154425
1659.4828,2931.8530459896824
1661.222,3164.2112656399704
1662.9606,3181.2852390237294
1664.6984,3020.87493815627
1666.4354,2647.080303240053
1668.1717,2203.5012442687894
1669.9072,1748.58764476539
1671.642,1361.7393662177542
1673.3761,1068.0062526279066
1675.1094,842.0381343804825
1676.8419,663.4348311800509
1678.5737,527.7461543108057
1680.3048,447.52190842259233
1682.0351,363.5618928877957
1683.7646,312.9159026035836
1685.4934,263.53372883150496
1687.2215,238.36515970395158
1688.9488,212.70998071797976
1690.6754,186.3679749869948
1692.4012,168.58892349730058
1694.1263,156.22260537152397
1695.8506,145.16879804640485
1697.5742,139.52727739645889
1699.297,123.99781784451625
1701.0191,102.33019241813554
1702.7404,98.72417290489966
1704.461,70.77953006909001
1706.1808,66.34603368774879
1707.8999,61.42345283012219
1709.6182,48.41155590199742
1711.3358,61.51011069492779
1713.0527,55.76888451635432
1714.7688,51.087644058618025
1716.4841,25.71615545637178
1718.1987,27.954184333392277
1719.9126,39.151496056296764
1721.6257,19.557855712163473
1723.338,19.723027996556084
1725.0496,15.89677740946172
1726.7605,19.17886825363712
1728.4706,28.6190646728719
1730.18,0.36713061916816514
1731.8886,5.872829758337957
1733.5964,10.335925752522144
1735.3036,13.85618220513652
1737.0099,1.1333626162368091
1738.7156,19.367230347318127
1740.4204,19.057548748543013
1742.1246,7.554080976402929
1743.8279,-1.743410003185545
1745.5306,-1.4851612998468227
1747.2325,-4.67139260653812
1748.9336,-9.652308779458508
1750.634,-21.378068007595175
1752.3336,-4.848732053370895
1754.0325,7.9358508876903215
1755.7307,-1.924118941103643
1757.4281,4.571558624197223
1759.1247,3.673102969491083
1760.8206,5.3307334349628945
1762.5158,10.644669324066854
1764.2102,13.465129886950763
1765.9039,3.1923342673194384
1767.5968,4.226501474226552
1769.289,-0.9821495151963973
1770.9804,9.66660023391978
1772.6711,16.472979468113863
1774.361,16.437216837261076
1776.0502,22.109540826507782
1777.7386,24.440179756629277
1779.4263,13.229361727305786
1781.1132,20.92731459381912
1782.7994,21.68426607915444
1784.4849,24.100443697027004
1786.1696,32.6760747443077
1787.8535,18.961386276865596
1789.5367,24.70660502381179
1791.2192,39.761957524642185
1792.9009,17.877670071789453
1794.5818,18.10396856006855
1796.2621,30.491078705518248
1797.9415,38.8392260431383
1799.6202,40.148635803020625
1801.2982,49.76953282686463
1802.9755,47.10214155488575
1804.6519,36.69668592960443
1806.3277,40.55338942252138
1808.0027,42.872475138172376
1809.6769,50.454165775559886
1811.3504,49.848683604961934
1813.0231,66.00625039211718
1814.6951,44.92708740427497
1816.3664,70.06141524862687
1818.0369,69.5094540830919
1819.7067,73.07142336497645
1821.3757,49.297541856490625
1823.044,66.33802758912998
1824.7115,64.5930981014144
1826.3783,81.56297026848279
1828.0443,64.59786031954536
1829.7096,70.49798366818231
1831.3741,64.66355508199831
1833.0379,72.79478862361611
1834.701,66.39189770902703
1836.3633,82.10509502627247
1838.0248,90.03459259947658
1839.6856,80.83060163171422
1841.3457,79.34333242571483
1843.005,86.17299447590312
1844.6636,89.71979648327306
1846.3214,101.58394628708857
1847.9785,86.21565082941561
1849.6349,86.36511603648296
1851.2904,121.18254697236353
1852.9453,100.16814783747895
1854.5994,102.37212162042579
1856.2528,100.8446703081213
1857.9054,97.7359948637627
1859.5572,103.54629524210077
1861.2083,103.12577042052953
1862.8587,111.4746183409784
1864.5084,106.7930359141219
1866.1572,95.8312189358885
1867.8054,101.43936213427878
1869.4528,122.56765927898141
1871.0994,106.0663031252916
1872.7453,103.58548520283034
1874.3905,109.87539598055332
1876.0349,106.83622489156437
1877.6786,111.96816027021305
1879.3215,117.07138938248954
1880.9637,128.64609837470243
1882.6051,115.69247222244985
1884.2458,117.26069461486804
1885.8858,113.45094808417116
1887.525,111.2634139899667
1889.1634,113.64827255735486
1890.8011,109.00570289880397
1892.4381,114.38588299029993
1894.0743,126.38898971777189
1895.7098,125.21519882329198
1897.3446,123.76468478504239
1898.9786,114.18762082905619
1900.6118,124.98417894371823
1902.2443,119.75452997554021
1903.8761,122.59884352119207
1905.5071,121.66728797979977
1907.1374,120.1600305245006
1908.7669,112.52723711176009
1910.3957,125.86907249644355
1912.0237,123.63570030814344
1913.651,129.2772829177643
1915.2776,130.24398145985515
1916.9034,125.53595577619217
1918.5285,108.70336440611345
1920.1528,98.54636463359816
1921.7764,111.56511265559357
1923.3992,113.70976368358379
1925.0213,109.98047181340303
1926.6427,103.42739000378788
1928.2633,79.65067011367069
1929.8832,136.55046296771093
1931.5023,95.82691859406236
1933.1207,105.88018565537413
1934.7383,126.41041185602762
1936.3552,98.31774384160349
1937.9714,102.00232699357935
1939.5868,106.01430571025662
1941.2015,95.15382336991433
1942.8154,88.82102229068983
1944.4286,95.56604383918216
1946.041,85.23902849378146
1947.6528,89.94011577721813
1949.2637,83.51944435983296
1950.8739,75.32715201256656
1952.4834,81.41337567116739
1954.0921,109.22825151811253
1955.7001,72.62191492174611
1957.3074,76.94450015813004
1958.9139,78.44614077710844
1960.5197,74.42696955908036
1962.1247,69.53711849998467
1963.729,68.72671885149248
1965.3325,57.695901169904346
1966.9353,73.49479532425335
1968.5374,59.42353060661526
1970.1387,74.83223557411861
1971.7393,59.871038189656474
1973.3392,61.99006566780122
1974.9383,59.63944462441441
1976.5366,62.3193010554578
1978.1342,63.079760360498994
1979.7311,61.92094731591351
1981.3273,54.04298606727912
1982.9227,58.846000140965316
1984.5173,57.330112522912486
1986.1112,61.59544561060102
1987.7044,62.24212122821132
1989.2968,57.32026058397037
1990.8885,57.92998426368467
1992.4795,73.3214122799584
1994.0697,63.59466406609772
1995.6592,55.24985832219545
1997.2479,62.08711311239904
1998.8359,60.35654594835751
2000.4232,59.058273720850366
2002.0097,51.692412717091656
2003.5955,53.55907863371408
2005.1805,72.2583866504267
2006.7648,70.54045141134793
2008.3484,58.805386838013646
2009.9312,71.65330614655613
2011.5133,61.73432196505428
2013.0946,53.5485462050558
2014.6752,54.59609016076456
2016.2551,61.32706459090082
2017.8342,62.641579708224754
2019.4126,68.13974511222614
2020.9902,56.27166977598063
2022.5672,71.98746199116704
2024.1433,61.13722948674831
2025.7188,70.97107927181446
2027.2935,63.08911774408307
2028.8674,57.44145059156244
2030.4406,55.67818287137038
2032.0131,48.399419066210385
2033.5849,58.50526310200485
2035.1559,45.89581842068287
2036.7261,58.42118787912091
2038.2957,52.781473875237225
2039.8645,59.32677822273877
2041.4325,61.65720220751905
2042.9998,59.4728465222031
2044.5664,59.47381124284584
2046.1323,67.86019585077361
2047.6974,52.08209923257573
2049.2617,47.88961959624157
2050.8254,62.23285462893841
2052.3883,64.61190153893813
2053.9504,55.526856912185394
2055.5118,52.57781668850566
2057.0725,51.56487625245654
2058.6325,52.588130462819436
2060.1917,57.09767366272695
2061.7502,54.19359966943125
2063.3079,61.87600172920838
2064.8649,50.594972546399504
2066.4212,64.40060420658688
2067.9767,58.84298828940382
2069.5315,47.622215730477365
2071.0856,43.938376877006476
2072.6389,50.24156159996778
2074.1915,55.981859330955785
2075.7433,46.05935899915039
2077.2945,40.17414897391245
2078.8448,50.47631716401088
2080.3945,41.86595107647372
2081.9434,40.8931377135666
2083.4916,27.157963658895824
2085.039,40.96051508713731
2086.5857,41.150877901387275
2088.1317,42.279137595136945
2089.677,34.89537925037007
2091.2215,37.64968752627874
2092.7652,29.292146733102754
2094.3083,44.322840804585894
2095.8506,44.691853381550345
2097.3921,44.09926766159151
2098.933,46.24516639538592
2100.4731,39.2296318926185
2102.0124,49.802746000523484
2103.5511,54.86459017403968
2105.089,47.51524537007913
2106.6261,49.05479199690831
2108.1626,38.93330998764077
2109.6983,52.600878784843644
2111.2332,55.60757744175089
2112.7675,43.40348448558893
2114.301,38.93867788750981
2115.8337,48.41323518462946
2117.3657,54.02723352467888
2118.897,40.48074957125664
2120.4276,43.97385944768939
2121.9575,37.35663887249666
2123.4866,54.57916312446014
2125.0149,39.141507108795395
2126.5426,36.343745184927684
2128.0695,44.335951320867025
2129.5956,63.96819912118667
2131.1211,50.19056174710158
2132.6458,51.55311172014535
2134.1698,45.10592105994601
2135.693,44.0490612706019
2137.2155,49.832603405151985
2138.7373,43.156618076145605
2140.2584,45.721175397806974
2141.7787,49.476345052794386
2143.2983,40.122196266555875
2144.8171,31.808797769775992
2146.3353,42.836217891918295
2147.8527,44.55452464435848
2149.3693,47.113785610110654
2150.8853,37.96406792664402
2152.4005,31.85543826029152
2153.9149,44.387962897745865
2155.4287,31.811707807146604
2156.9417,41.67673851275299
2158.454,32.23312022070809
2159.9655,49.180917720387924
2161.4764,38.770195478839014
2162.9865,37.80101747129811
2164.4958,47.87344728530206
2166.0045,31.487548130377718
2167.5124,45.09338273731805
2169.0195,33.89101352204125
2170.526,44.98050244953242
2172.0317,35.46191114586736
2173.5367,53.98530078731733
2175.0409,50.30073219553492
2176.5445,39.8582656523206
2178.0473,40.457960936468226
2179.5494,36.04987742818821
2181.0507,39.28407410311297
2182.5513,43.16060957637592
2184.0512,35.17954207027151
2185.5504,50.8909293754873
2187.0488,40.54482893091699
2188.5465,38.04129766654478
2190.0435,45.83039210690822
2191.5397,32.76216839613153
2193.0353,36.53668222003557
2194.5301,41.60398893682054
2196.0241,47.61414353932037
2197.5175,43.117200604330264
2199.0101,42.263214232504424
2200.502,33.502238093326014
2201.9931,39.13432543364661
2203.4835,35.40952916529591
2204.9733,33.2779018087615
2206.4622,41.48949553043553
2207.9505,24.594362163932146
2209.438,20.992553127970268
2210.9248,26.784119595326047
2212.4109,36.31911252885038
2213.8962,28.347582623553535
2215.3809,30.869580211255197
2216.8648,30.63515534029966
2218.3479,39.69435775033526
2219.8304,23.097236874659075
2221.3121,33.99384174962438
2222.7931,22.48422118061353
2224.2733,15.368423633070506
2225.7529,22.64649734759746
2227.2317,15.568490411112862
2228.7098,19.33445068407127
2230.1872,21.84442587124272
2231.6638,32.74846348405299
2233.1397,11.946610815484974
2234.6149,14.588914831037073
2236.0894,13.025422376742199
2237.5632,20.706180152744764
2239.0362,19.881234728934942
2240.5085,18.10063246814161
2241.9801,14.014419534382569
2243.4509,16.372641910669017
2244.921,12.975345439867851
2246.3904,17.922575801120274
2247.8591,19.564378543814428
2249.3271,12.00079903811286
2250.7943,4.831882458534892
2252.2608,8.357673859592182
2253.7266,19.02821824747832
2255.1917,17.393560544810498
2256.656,12.503745483924149
2258.1197,9.60881762321901
2259.5826,16.208821396057715
2261.0447,17.253801139715733
2262.5062,13.493801029380734
2263.9669,3.878865067702691
2265.4269,10.009037122393579
2266.8862,14.834361022377266
2268.3448,10.85488049648768
2269.8026,16.420639125215757
2271.2598,9.231680380504372
2272.7162,15.488047570090544
2274.1719,20.4897839093951
2275.6268,20.686932458958722
2277.0811,20.12953607442421
2278.5346,12.967637404566176
2279.9874,14.151278896864028
2281.4395,18.93050286912171
2282.8908,18.505351497630727
2284.3414,16.2758667693779
2285.7914,31.34209048629691
2287.2406,12.454064287563256
2288.689,25.86182949893214
2290.1368,22.86542732161888
2291.5838,24.16489869822101
2293.0302,21.01028434268244
2294.4758,17.051624727299213
2295.9206,19.938960114264887
2297.3648,24.772330595256562
2298.8082,20.60177606256252
2300.251,22.07733616074779
2301.693,15.499050328360681
2303.1343,23.26695778317594
2304.5748,17.68109758797857
2306.0147,20.191508572884118
2307.4538,17.748229391198265
2308.8922,20.70129849431237
2310.3299,15.250754156136054
2311.7669,15.146634443565972
2313.2031,8.588977270991904
2314.6387,10.977820401337567
2316.0735,9.963201511637294
2317.5076,22.545158169147953
2318.941,20.073727841493906
2320.3737,21.598947770848895
2321.8056,14.070854998649338
2323.2369,13.989486350342759
2324.6674,4.804878510668459
2326.0972,23.017068024471314
2327.5263,26.226043435859538
2328.9547,20.431793058770268
2330.3823,9.984304944880932
2331.8092,19.783566941551612
2333.2355,18.979566796299764
2334.661,17.222292058807284
2336.0858,18.6117300889606
2337.5098,18.647868074422718
2338.9332,18.23069301674002
2340.3558,20.760191730981205
2341.7778,25.23635084990758
2343.199,30.15915679867976
2344.6195,16.628595750095315
2346.0393,35.69465357536035
2347.4583,26.357315979395935
2348.8767,31.21656831017583
2350.2943,29.222395652101113
2351.7113,38.97478277740754
2353.1275,25.773714166107425
2354.543,30.369173908465427
2355.9578,34.81114583700901
2357.3718,31.34961348057459
2358.7852,28.484560019887113
2360.1978,15.66596832217624
2361.6098,32.64382096982615
2363.021,30.91810038856238
2364.4315,36.73878867767269
2365.8413,30.705867627264297
2367.2504,35.51931866005725
2368.6587,27.679122891714087
2370.0664,35.18526108270373
2371.4733,38.087713716704684
2372.8795,31.786460925543338
2374.285,24.081482460168218
2375.6899,32.6727577536642
2377.0939,21.71026599830168
2378.4973,15.443986059623967
2379.9,20.723896586071646
2381.3019,30.749976071646415
2382.7032,30.82220280311094
2384.1037,33.390554759729184
2385.5035,29.8050096125437
2386.9027,23.565544698691383
2388.3011,25.822137057259965
2389.6987,33.97476349168164
2391.0957,28.623400547167762
2392.492,17.16802442918265
2393.8876,20.70861105695724
2395.2824,18.195136178042276
2396.6765,23.677575332903302
2398.07,19.005903880055257
2399.4627,23.030096941237048
2400.8547,20.600129448129337
2402.246,31.265976102111836
2403.6366,25.177611398563158
2405.0265,31.335009520201993
2406.4156,27.638144397971473
2407.8041,28.43698964946509
2409.1918,19.231518615895197
2410.5789,35.371704354104736
2411.9652,29.357519728621696
2413.3508,26.888937250257868
2414.7358,27.16592913624993
2416.12,29.83846733494579
2417.5035,35.85652352303441
2418.8863,22.870069078820848
2420.2684,24.529075022045163
2421.6497,31.633512143746884
2423.0304,21.083350989675182
2424.4104,25.428561789244327
2425.7896,21.119114561035303
2427.1682,32.80497906934397
2428.546,37.18612486727511
2429.9232,34.762521179883606
2431.2996,29.534136860363787
2432.6753,24.35094041428499
2434.0503,28.66290005187534
2435.4246,30.869983739853524
2436.7982,26.62215915830984
2438.1711,30.769393678634287
2439.5433,30.311654405996478
2440.9148,25.148908137871786
2442.2856,35.881121368619915
2443.6557,32.508260341111736
2445.025,29.73029093940704
2446.3937,35.847178722483136
2447.7617,30.05888895201474
2449.1289,35.315386531205604
2450.4955,28.766636062670727
2451.8613,29.812601795871842
2453.2265,34.60324769260467
2454.5909,36.238537416538975
2455.9546,35.26843428531242
2457.3177,48.292901254177764
2458.68,34.71190092570316
2460.0416,38.725395419528354
2461.4025,48.28334650817408
2462.7627,34.23571557690741
2464.1222,42.48246352816216
2465.4811,49.4735509220161
2466.8392,41.508937893722305
2468.1966,40.588584083798764
2469.5533,57.21244871767442
2470.9093,51.13049061489221
2472.2645,55.49266802287127
2473.6191,47.04893867772614
2474.973,52.39925976064478
2476.3262,50.243587982326176
2477.6787,50.131879529477146
2479.0305,43.66409008636833
2480.3816,46.84017483595244
2481.7319,48.310088524541015
2483.0816,51.32378543004438
2484.4306,50.23121934727237
2485.7789,55.83234355779689
2487.1264,52.627110840878345
2488.4733,43.715473417453495
2489.8195,46.147382982188674
2491.165,50.422790792595606
2492.5097,51.29164764471261
2493.8538,48.85390383035008
2495.1972,46.60950912840235
2496.5398,49.30841282922427
2497.8818,53.90056375707627
2499.2231,45.88591024313496
2500.5637,53.96440007957108
2501.9035,46.5359805996967
2503.2427,50.350598597180465
2504.5812,57.50820040033136
2505.919,53.308731833952606
2507.256,57.65213814776564
2508.5924,50.588364058404636
2509.9281,53.36735370598285
2511.2631,58.58905072473033
2512.5974,58.653398215203765
2513.9309,58.360338692069604
2515.2638,53.559814083460196
2516.596,61.45176573390461
2517.9275,59.13613445233386
2519.2583,55.212860433161154
2520.5884,54.33188327943867
2521.9178,57.19314204209013
2523.2465,55.0465752287206
2524.5745,58.94212077500413
2525.9018,56.62971606614917
2527.2284,58.00929789794327
2528.5543,65.7808024998767
2529.8796,70.19416552134749
2531.2041,65.89932195394545
2532.5279,64.1962060873185
2533.851,61.134751552122
2535.1735,62.814891337049175
2536.4952,61.48655781944592
2537.8163,74.04968274850978
2539.1366,66.55419725857246
2540.4562,69.8000317434695
2541.7752,65.53711593149421
2543.0935,70.66537885294008
2544.411,60.93474888272942
2545.7279,69.14515368913123
2547.0441,64.89652033106665
2548.3596,71.08877517600587
2549.6744,67.7718439424541
2550.9885,68.44565163802889
2552.3019,66.61012259263015
2553.6146,72.31518045170179
2554.9266,73.31074819458638
2556.2379,63.89674807747508
2557.5485,67.02310162345191
2558.8585,71.58972971663297
2560.1677,71.39655257090413
2561.4762,74.59348968425388
2562.7841,75.7804598407057
2564.0913,75.90738107834841
2565.3977,73.77417067746626
2566.7035,67.38074515927008
2568.0086,79.57702030722885
2569.313,76.11291123100483
2570.6167,69.13833224448967
2571.9197,78.55319690044672
2573.222,76.70741806025609
2574.5236,74.50090779976574
2575.8246,72.88357742775048
2577.1248,82.85533750797578
2578.4244,85.7660978753716
2579.7232,81.51576753631485
2581.0214,89.75425463952178
2582.3189,87.48146651855069
2583.6157,93.64730960941819
2584.9118,93.70168947332598
2586.2072,100.24451073500347
2587.5019,98.17567708216359
2588.7959,96.8450912000742
2590.0893,96.95265479224668
2591.3819,106.59826859374192
2592.6739,111.63183237009474
2593.9652,110.95324482085698
2595.2557,108.8124035292625
2596.5456,112.25920496901273
2597.8348,119.1435445256858
2599.1234,118.46531646226777
2600.4112,118.82441385030927
2601.6983,124.17072857670797
2602.9848,118.4041513401175
2604.2705,126.42457159748449
2605.5556,120.78187762171387
2606.84,126.47595642146518
2608.1237,119.95669379757942
2609.4067,120.27397428613807
2610.689,115.92768122365652
2611.9707,122.56769674391018
2613.2516,120.3439018213981
2614.5319,120.75617620494296
2615.8115,116.40439843992823
2617.0903,112.08844586417615
2618.3685,118.40819465146512
2619.6461,122.01351985468892
2620.9229,111.15429534266002
2622.199,118.43039376405557
2623.4745,120.09168665600998
2624.7493,115.93804437135378
2626.0234,119.96933606200122
2627.2968,124.63542972048629
2628.5695,118.2361921396498
2629.8415,125.12148886597805
2631.1128,119.74118426359593
2632.3835,128.4951414454136
2633.6535,126.03322232692989
2634.9228,135.65528753869233
2636.1914,131.51119645091688
2637.4593,126.35080707726644
2638.7265,131.62397611629228
2639.9931,125.03055900303758
2641.259,127.42040985630598
2642.5242,126.34338154459601
2643.7887,125.29932566220225
2645.0525,122.13809253998534
2646.3156,125.20953125581309
2647.5781,118.71348966617239
2648.8398,117.49981437545512
2650.1009,118.06835080091861
2651.3613,121.86894318482234
2652.6211,122.85143458874205
2653.8801,114.96566685556445
2655.1385,119.5614805996621
2656.3961,125.53871528575092
2657.6531,124.79720918293265
2658.9094,121.33679930492167
2660.1651,124.25732141746084
2661.42,125.95861007292473
2662.6743,127.99049858111471
2663.9279,133.40281899224664
2665.1808,129.49540207663108
2666.433,133.26807727055103
2667.6846,133.57067271533543
2668.9354,132.15301521963278
2670.1856,136.214930256385
2671.4351,133.90624197700453
2672.6839,138.7267731707543
2673.9321,145.42634528783492
2675.1795,145.75477839117985
2676.4263,157.4118910894589
2677.6724,142.34750053379463
2678.9179,148.56142230119065
2680.1626,151.45347054517606
2681.4067,157.17345793366576
2682.6501,154.0711956200405
2683.8928,155.8464931859462
2685.1348,151.49915867231766
2686.3761,141.3289985616247
2687.6168,149.23581782134602
2688.8568,139.41942000567042
2690.0961,146.92960717642865
2691.3348,136.91618000125754
2692.5727,128.77893767849758
2693.81,132.36767803732812
2695.0466,125.58219761913904
2696.2826,130.22229164164332
2697.5178,135.73775406673252
2698.7524,124.47837755407511
2699.9863,133.39395340596275
2701.2195,134.78427167990327
2702.452,139.04912109946503
2703.6839,142.4382890403739
2704.9151,142.7515614878643
2706.1456,149.23872300278833
2707.3755,146.24955671848255
2708.6046,157.08384427589635
2709.8331,161.29136585348374
2711.0609,178.07190005886054
2712.2881,183.87522388672892
2713.5145,195.60111255107256
2714.7403,205.79933942712307
2715.9654,217.0196759341008
2717.1899,221.06189143323314
2718.4136,240.2757531155508
2719.6367,245.26102596146592
2720.8591,245.41747254863316
2722.0809,263.4448530020968
2723.3019,267.2929249927268
2724.5223,286.8614435569449
2725.7421,277.2001610582433
2726.9611,278.5588269915
2728.1795,275.48718807959176
2729.3972,273.2349882598068
2730.6142,266.2019687145618
2731.8306,250.83786789392366
2733.0462,238.99242158593972
2734.2612,213.56536307027886
2735.4756,206.1064232366857
2736.6892,184.16533083925174
2737.9022,164.7418125710044
2739.1145,154.38559328331797
2740.3262,144.8463961801491
2741.5372,129.47394292159873
2742.7475,117.51795371930388
2743.9571,104.82814749016262
2745.1661,93.75424197589376
2746.3744,86.04595386993515
2747.582,77.65299892818223
2748.7889,66.72509204607104
2749.9952,54.91194734250814
2751.2008,48.06327826914935
2752.4057,47.028797728531174
2753.61,40.858218142557575
2754.8136,39.25125146284461
2756.0165,44.60760923242651
2757.2188,38.427002601825336
2758.4204,35.90914227548717
2759.6213,29.803738573588532
2760.8215,34.460501457214605
2762.0211,32.97914058941319
2763.22,29.45936528862751
2764.4182,25.25088454350913
2765.6158,18.20340704811622
2766.8127,13.116641243998345
2768.009,10.34029539067103
2769.2045,4.074077616483635
2770.3994,0.8176959463827416
2771.5936,-0.12914163542541246
2772.7872,-10.666727152911562
2773.9801,-18.34535133992148
2775.1723,-7.615198369696998
2776.3639,-16.726269145420247
2777.5548,-20.428488494441524
2778.745,-18.821614148682613
2779.9346,-11.305199759465438
2781.1235,-16.828610950186828
2782.3117,-12.641100405298403
2783.4992,-14.141752691428508
2784.6861,-4.3295260906124895
2785.8723,-5.4532376087766465
2787.0579,-7.711660999881985
2788.2428,2.7964844599540015
2789.427,1.7225565341071274
2790.6106,18.067912957988483
2791.7935,24.883911449783568
2792.9757,28.27190954699944
2794.1573,32.133264538304445
2795.3382,49.31933342964879
2796.5184,54.18147290564991
2797.698,72.47103915773226
2798.8769,91.83938783550542
2800.0551,105.5378738638691
2801.2327,118.26785124932945
2802.4096,138.33067294301418
2803.5859,151.32769071337276
2804.7615,179.5602549455482
2805.9364,195.77971451140695
2807.1106,213.88741648721305
2808.2842,247.28470599143373
2809.4572,286.47292600366256
2810.6294,317.603417030646
2811.801,349.4775167144021
2812.972,393.0965595209144
2814.1423,427.7118764213923
2815.3119,475.5747944560791
2816.4808,523.1866363881
2817.6491,563.4487202248331
2818.8167,612.6623587417895
2819.9837,662.3288590799934
2821.15,697.749522253846
2822.3157,734.0756426544598
2823.4807,798.1585076954523
2824.645,837.0993974496848
2825.8086,876.9995840084333
2826.9716,910.5603310919807
2828.134,948.6328936506145
2829.2957,979.518517529019
2830.4567,1000.0184390855501
2831.617,1024.3838848833782
2832.7767,1041.9660714854897
2833.9358,1029.466205211033
2835.0941,1020.7854819594946
2836.2519,1008.5750873357007
2837.4089,986.0861967366221
2838.5653,982.1199754734795
2839.7211,972.9275789966318
2840.8761,985.2601529352387
2842.0306,996.6188331891841
2843.1843,1032.6547458057512
2844.3374,1080.2690068660345
2845.4899,1124.0627221245818
2846.6417,1203.5369865332514
2847.7928,1273.5428838032742
2848.9433,1349.1314856105114
2850.0931,1428.003850895396
2851.2422,1502.711025107046
2852.3907,1581.8540394145414
2853.5385,1646.1839099598521
2854.6857,1688.9516370664082
2855.8323,1747.3582045958008
2856.9781,1783.3545795201044
2858.1233,1845.0417113378126
2859.2679,1871.6705317138735
2860.4118,1923.0919538628182
2861.555,1971.7568722824722
2862.6976,2004.166162239742
2863.8395,2041.0206792839667
2864.9808,2058.5212589228227
2866.1214,2068.06871625378
2867.2614,2091.513845789097
2868.4007,2088.257421360345
2869.5393,2098.9501958839555
2870.6773,2118.9429013937897
2871.8146,2122.1362489342036
2872.9513,2129.730928360126
2874.0874,2130.7276083051242
2875.2227,2121.076936105455
2876.3574,2100.579537790101
2877.4915,2061.836018177273
2878.6249,2050.8469610793904
2879.7577,2014.1129296905085
2880.8898,1990.4844666962158
2882.0212,1996.3620946409726
2883.152,1953.4463161643935
2884.2821,1966.8376139424736
2885.4116,1959.4864511167443
2886.5405,1942.8932711603625
2887.6686,1951.7584979516187
2888.7962,1951.4825359398733
2889.923,1951.1157700569004
2891.0493,1979.6585657196497
2892.1748,1975.6612688339123
2893.2997,1990.474205508895
2894.424,2009.5476820971921
2895.5476,2031.3319850466546
2896.6706,2058.077380709659
2897.7929,2085.3341151252616
2898.9145,2110.802413751744
2900.0355,2138.1324811940485
2901.1559,2170.7245009490935
2902.2756,2202.0786351324714
2903.3946,2246.0450241525314
2904.513,2270.123786396837
2905.6308,2302.515017792502
2906.7479,2329.6687915654006
2907.8643,2333.13515791626
2908.9801,2363.4141437491166
2910.0953,2371.905752636658
2911.2098,2380.6599645174297
2912.3236,2362.02673561092
2913.4368,2354.5059983300184
2914.5494,2349.047661467347
2915.6613,2314.0016102704676
2916.7725,2290.1677064964665
2917.8831,2265.1457887624138
2918.9931,2229.435672783704
2920.1024,2198.1871516242722
2921.211,2186.149996053697
2922.319,2169.423954859689
2923.4264,2140.958754968454
2924.5331,2143.3041016119632
2925.6391,2135.159678612598
2926.7445,2132.2751483596994
2927.8493,2123.400151891012
2928.9534,2120.284308921528
2930.0569,2106.7272179322413
2931.1597,2100.1784562013004
2932.2619,2090.837579939583
2933.3634,2094.004124356183
2934.4643,2079.827603751819
2935.5645,2054.8075114871676
2936.6641,2021.0433201246306
2937.763,1998.534481678534
2938.8613,1946.830427952772
2939.959,1890.6305707658944
2941.056,1821.1343024681455
2942.1523,1719.790996503466
2943.248,1657.7500081044523
2944.3431,1552.9606753057928
2945.4375,1454.8723195646749
2946.5313,1355.3842468086793
2947.6244,1259.3457484166645
2948.7169,1157.1561022136466
2949.8087,1066.7645734311836
2950.8999,977.0204157292745
2951.9904,901.7728721002718
2953.0803,835.571175766324
2954.1696,776.4145509318513
2955.2582,720.5022134455619
2956.3462,665.9833713920198
2957.4335,643.4572256507663
2958.5202,604.4729704415095
2959.6062,580.8297935493852
2960.6916,561.0768767147999
2961.7764,543.8633958698631
2962.8605,536.8385213359147
2963.9439,530.4514179956616
2965.0267,523.0512453634258
2966.1089,513.4371576490156
2967.1905,509.2083038317262
2968.2714,511.11382775648224
2969.3516,522.102868176125
2970.4312,525.4745587323582
2971.5102,528.4280278458574
2972.5885,523.7623986825529
2973.6662,529.4767891240951
2974.7432,538.3703118145105
2975.8196,530.0420741030581
2976.8954,531.891177955294
2977.9705,510.21672003635354
2979.045,504.51779169246106
2980.1188,491.59347916767274
2981.192,484.5428636608682
2982.2645,447.315021454992
2983.3364,439.70902398756004
2984.4077,410.7739382229382
2985.4783,386.3588267284026
2986.5483,362.06274796349055
2987.6177,333.434756524151
2988.6864,301.32390338570576
2989.7545,269.32923618912895
2990.8219,241.24979956215628
2991.8887,210.1846354392311
2992.9548,187.93278334229927
2994.0204,160.19328069146053
2995.0852,136.31516302748747
2996.1495,116.7974642892201
2997.2131,97.13921705234685
2998.276,80.58945272458197
2999.3383,62.4472017422479
3000.4,43.41149373577247
3001.4611,38.381357711112
3002.5215,21.655822240108137
3003.5812,17.583915510789268
3004.6404,5.764665494625945
3005.6989,-2.5029000127503878
3006.7567,-3.019753273354638
3007.8139,-7.586841545230584
3008.8705,-9.90508191908691
3009.9264,-11.375315693085781
3010.9818,-7.148285213620852
3012.0364,-11.224619187682322
3013.0905,-14.60487491089134
3014.1439,-2.9894975449235517
3015.1966,-5.528786348753954
3016.2487,-3.323010716277679
3017.3002,0.47761519118574824
3018.3511,3.9229104091934914
3019.4013,5.512693968526605
3020.4509,14.24678486073708
3021.4998,19.725002022250237
3022.5481,22.647164247023795
3023.5958,19.063090131765648
3024.6428,30.022598046712403
3025.6892,33.57550617146978
3026.735,39.771632385417945
3027.7802,44.41079423218207
3028.8247,58.442808857671025
3029.8685,53.717492963686084
3030.9118,61.834662667600526
3031.9544,77.44413354961279
3032.9963,83.19572057157484
3034.0376,91.18923792089737
3035.0783,97.82449895303415
3036.1184,105.65131611154658
3037.1578,110.56950086175107
3038.1966,121.82886361245107
3039.2348,126.02921366675508
3040.2723,122.17035910948312
3041.3092,134.9521067651632
3042.3455,134.37426223662027
3043.3811,134.2366297771581
3044.4161,132.18901229633815
3045.4505,136.13121136135584
3046.4842,134.91302721751646
3047.5173,128.88425874881335
3048.5498,130.54470349010967
3049.5816,125.59415768742616
3050.6128,120.33241628133646
3051.6434,115.6592729564727
3052.6734,120.92452019414287
3053.7027,112.5279493190626
3054.7314,111.31935044670229
3055.7594,110.59851256725324
3056.7868,106.26522355771328
3057.8136,107.46927018909531
3058.8398,111.86043816976013
3059.8653,104.53851213337606
3060.8902,102.00327559500721
3061.9145,94.85451102433268
3062.9381,96.59199987099893
3063.9612,98.1655226361074
3064.9835,88.32485885483979
3066.0053,89.36978708072294
3067.0264,86.45008498403507
3068.0469,81.3155293413567
3069.0668,77.6158960647675
3070.086,79.6509602531921
3071.1046,67.47049622939613
3072.1226,71.22427751963568
3073.1399,59.862076975461974
3074.1567,56.08366673618369
3075.1727,54.088818342488565
3076.1882,40.17730277422814
3077.203,32.098890470365575
3078.2173,31.10335146809126
3079.2308,23.590455483606718
3080.2438,27.40997192208016
3081.2561,22.76166995277535
3082.2678,17.14531847085638
3083.2789,13.010686143870657
3084.2893,6.407541467912523
3085.2991,8.23565280896949
3086.3083,6.9447884689538455
3087.3169,4.784716667421463
3088.3248,-1.944794445519591
3089.3321,-0.2939767676081999
3090.3388,3.336957231913175
3091.3449,-0.7522019793700565
3092.3503,-3.5616639672419126
3093.3551,-4.141630782988727
3094.3593,-2.99226889687381
3095.3629,-3.663703404268972
3096.3658,-6.90602950777992
3097.3681,-4.269305809615361
3098.3698,-2.653521920749313
3099.3708,-4.858624801790796
3100.3713,0.1654650953349801
3101.3711,-3.1811241436354862
3102.3702,3.151733914037891
3103.3688,0.5641974805253938
3104.3667,0.8564247364799371
3105.364,-0.9214261430873023
3106.3607,-0.4191969917294074
3107.3568,4.863279562047651
3108.3522,4.826175077515913
3109.347,6.369661065314574
3110.3412,13.293908987821212
3111.3348,9.749090243716807
3112.3277,12.88537609874335
3113.32,10.052937721152006
3114.3117,8.251946150340189
3115.3028,13.782572325176005
3116.2932,15.744987102008196
3117.2831,14.789361199359774
3118.2723,16.415865178304003
3119.2608,18.424669452020524
3120.2488,16.365944269530473
3121.2361,17.98985969560829
3122.2229,20.446585631369118
3123.209,22.286291798029467
3124.1944,26.70914771234007
3125.1793,27.065322668188728
3126.1635,28.204985692371707
3127.1471,27.078305541032023
3128.1301,29.435450688262677
3129.1125,30.076589337373818
3130.0942,35.30188939732108
3131.0753,32.961518476294216
3132.0558,30.955643829464208
3133.0357,30.93443238238683
3134.015,35.69805075106153
3134.9936,34.246665242143415
3135.9716,32.58044180530714
3136.949,38.44954604776071
3137.9258,40.55414325090772
3138.902,41.494398311656326
3139.8775,44.17047572137322
3140.8524,40.832539556481166
3141.8267,45.18075345169824
3142.8004,45.565280633417125
3143.7735,42.83628387622299
3144.7459,47.64392549904826
3145.7178,48.13836739246249
3146.689,47.41977097059608
3147.6596,47.538297166195726
3148.6295,52.794106437810434
3149.5989,52.83735876860627
3150.5676,53.76821361380824
3151.5357,56.03682990026776
3152.5032,56.39336601715421
3153.4701,54.787979793268576
3154.4364,53.72082849347831
3155.402,61.992068834771025
3156.367,59.70185699692607
3157.3315,62.850348539802134
3158.2952,59.837698426239314
3159.2584,59.964060990574275
3160.221,62.42958996876668
3161.1829,65.43443849713559
3162.1442,67.77875908770419
3163.105,67.9127035981513
3164.065,66.6364232083681
3165.0245,68.10006841911883
3165.9834,73.2537890648034
3166.9416,75.29773429882111
3167.8993,69.73205254203336
3168.8563,74.30689146232419
3169.8127,75.77239803025714
3170.7684,73.82871847332679
3171.7236,74.67599826130379
3172.6782,76.21438212567159
3173.6321,81.84401405115361
3174.5854,81.16503726032951
3175.5381,82.67759415733875
3176.4902,82.63182633467045
3177.4417,81.37787455803775
3178.3926,82.6158787668355
3179.3428,85.34597808667988
3180.2924,88.01831081702818
3181.2415,85.48301440387793
3182.1899,85.74022541304358
3183.1377,88.04007955550937
3184.0848,88.38271168485727
3185.0314,93.46825577426851
3185.9773,93.89684491309711
3186.9227,93.66861125601459
3187.8674,92.58368601872397
3188.8115,98.04219948024212
3189.755,94.3442809937491
3190.6979,100.39005893200292
3191.6402,98.2296607243188
3192.5818,100.8632127961113
3193.5229,101.49084059049837
3194.4633,105.21266854196583
3195.4031,103.72882007009106
3196.3423,105.13941754232474
3197.2809,102.39458228882935
3198.2189,107.94443458837316
3199.1563,108.23909369577856
3200.0931,108.17867778642368
3201.0292,111.31330395329559
3201.9648,112.04308820759462
3202.8997,109.26814544738798
3203.834,114.93858945031204
3204.7677,115.45453290132164
3205.7008,114.96608733598572
3206.6333,112.92336313532786
3207.5652,118.87646953071078
3208.4964,119.22551462426348
3209.4271,116.47060532935029
3210.3571,120.76184736708039
3211.2865,119.29934529385685
3212.2154,123.98320245846423
3213.1436,126.1135210166936
3214.0712,125.44040188450398
3214.9982,127.86394471671909
3215.9246,125.4342479137586
3216.8503,127.05140859740276
3217.7755,128.1155226350893
3218.7001,129.8766846237419
3219.624,132.88498787912894
3220.5473,133.2905244182519
3221.4701,131.44338492926244
3222.3922,136.84365876740685
3223.3137,135.84143397349754
3224.2346,133.73679721991036
3225.1549,139.42983382060672
3226.0746,141.22062775218004
3226.9937,138.45926159692533
3227.9121,138.24581652493137
3228.83,140.18037232169416
3229.7473,141.3130073902516
3230.6639,144.39379873183785
3231.5799,143.67282193455694
3232.4954,144.6501511425749
3233.4102,144.62585906332953
3234.3244,148.250016957757
3235.238,152.12269464053483
3236.151,153.69396044384038
3237.0634,151.11388117862396
3237.9752,152.58252211889624
3238.8864,152.54994702752902
3239.797,152.4662181415688
3240.7069,153.48139617256263
3241.6163,153.89554030739532
3242.5251,158.20870819813769
3243.4332,160.5709559579052
3244.3408,158.68233811772612
3245.2477,159.39290760291908
3246.154,160.90271575197946
3247.0598,161.2118123094734
3247.9649,162.17024541093994
3248.8694,161.12806157979992
3249.7733,163.98530571777167
3250.6766,163.74202111529286
3251.5793,165.29824942294806
3252.4814,165.9540306539016
3253.3829,168.7094031683353
3254.2838,167.51440366689064
3255.1841,168.01906716311504
3256.0838,170.97342699541176
3256.9829,170.97751482199345
3257.8814,172.03136059133845
3258.7792,174.38499254214992
3259.6765,169.93843719281725
3260.5731,174.29171931788005
3261.4692,174.7448619924934
3262.3647,176.24788654889517
3263.2595,175.70081257187445
3264.1538,175.40365788374152
3265.0474,178.5064385497984
3265.9404,177.25916888131047
3266.8329,176.76186140447876
3267.7247,178.0645268729124
3268.616,177.86717427260186
3269.5066,180.06981080889207
3270.3966,181.52244190845647
3271.286,181.0750711972701
