RamanShift,CorrectedData
30.1047,610.7661478371601
32.3739,565.3522272616704
34.6426,522.788300578519
36.9109,477.2243560265223
39.1787,431.9103766166134
41.4461,385.9463405874815
43.7131,343.83222185871193
45.9796,301.6179904904265
48.2456,256.1036131044247
50.5112,216.23905330632596
52.7764,168.47427214071348
55.0411,127.05922848977991
57.3054,86.59387955097512
59.5692,39.67818125115668
61.8326,-0.9379113487566499
64.0955,-43.15444358462789
66.3579,-82.82145142258574
68.6199,-120.53853971586756
70.8815,-149.15448593141105
73.1426,-153.71686335614217
75.4032,-102.62175522367278
77.6634,112.63629086385015
79.9231,671.1637524956141
82.1824,1931.1171061344437
84.4412,4179.802821531527
86.6995,7269.32734912688
88.9574,10321.34709756249
91.2148,12502.868402787075
93.4717,13497.04749753588
95.7282,13668.290489515462
97.9842,13547.70335146191
100.2398,13147.241919428407
102.4949,12719.811893991098
104.7495,12235.668844253716
107.0036,11763.318212121872
109.2573,11331.015317144489
111.5105,10902.06536123731
113.7632,10535.82343300592
116.0154,10210.044512035258
118.2672,9981.083472552027
120.5185,9738.24508668248
122.7693,9553.634026742046
125.0197,9353.904867663694
127.2696,9180.262088844058
129.519,9034.160076140726
131.7679,8907.703123608662
134.0163,8709.74543496123
136.2642,8515.091124834767
138.5117,8304.09422076815
140.7587,8072.308665149347
143.0052,7894.188317325388
145.2512,7699.236955920217
147.4967,7470.75828061589
149.7417,7309.2059141021
151.9863,7151.283404360955
154.2304,7050.144226282507
156.4739,6944.891783243971
158.717,6863.329408121125
160.9596,6750.410364340827
163.2017,6591.9378466966455
165.4433,6423.214982478039
167.6844,6231.8448330550955
169.925,6040.780395565751
172.1651,5831.474604829494
174.4047,5660.680335258009
176.6439,5493.150402948239
178.8825,5334.987567390322
181.1206,5234.494533142891
183.3582,5118.523951414707
185.5954,5032.878421069588
187.832,4956.410489786107
190.0681,4884.622654914062
192.3037,4853.91736423914
194.5388,4794.397016700801
196.7734,4769.963962699338
199.0075,4767.170504691071
201.2411,4766.368897432683
203.4742,4750.761348009153
205.7068,4803.750015841775
207.9389,4789.98701284423
210.1704,4842.4744028927
212.4015,4838.364201963499
214.632,4856.758377608197
216.862,4899.4588489947255
219.0915,4886.517486723431
221.3205,4882.286112400072
223.549,4907.766498765237
225.777,4912.210369736652
228.0044,4901.669400154378
230.2314,4905.945215736379
232.4578,4934.239393183925
234.6837,4907.903460138834
236.909,4936.738894900533
239.1339,4878.147126689414
241.3582,4822.579535358485
243.582,4736.837451979285
245.8053,4652.222159397549
248.0281,4592.434893090651
250.2503,4550.026842013736
252.472,4526.049149197608
254.6932,4554.452912172799
256.9139,4533.089183209351
259.134,4579.00896903278
261.3536,4654.5632310377105
263.5727,4746.00288482868
265.7912,4834.578799464596
268.0092,4936.841796544337
270.2267,5000.592649320994
272.4436,5046.832081679249
274.6601,5038.710767497854
276.8759,4989.229330187243
279.0913,4907.838342770749
281.3061,4831.388328379411
283.5204,4788.82976106589
285.7341,4754.013066568961
287.9473,4711.988622739112
290.16,4711.50675988669
292.3721,4704.967761202163
294.5837,4754.671862760933
296.7947,4805.31925358872
299.0052,4858.360075164536
301.2152,4812.694420914195
303.4246,4709.272335679919
305.6334,4541.343816176988
307.8418,4352.608812027959
310.0495,4129.717227441958
312.2568,3912.7189231020175
314.4635,3675.163718394001
316.6696,3509.201393576587
318.8752,3348.231692156818
321.0802,3284.954322549722
323.2847,3261.818959688013
325.4887,3265.6252456548655
327.692,3233.4227899152647
329.8949,3206.061169277943
332.0972,3114.889928217408
334.2989,2989.4085791475563
336.5001,2860.0166033333853
338.7007,2724.9134521458145
340.9008,2640.3985483555916
343.1003,2489.9712874843362
345.2992,2437.481038649682
347.4976,2366.1771460695536
349.6955,2264.1589295870663
351.8927,2240.175685383565
354.0895,2191.5266869988063
356.2856,2148.161185570797
358.4812,2083.3284103222722
360.6763,2060.327568994363
362.8707,2025.457848494916
365.0646,2033.3184151285068
367.258,2014.7084149451375
369.4508,2018.5269736616274
371.643,2052.8731968477105
373.8346,2065.09616988786
376.0257,2103.6449576378127
378.2162,2112.7686043023477
380.4062,2084.166133049802
382.5956,2021.2365459208222
384.7844,1964.0788241143991
386.9726,1836.4419286171578
389.1603,1764.0248007749378
391.3474,1715.2263635691615
393.5339,1702.4455223410032
395.7199,1645.3811652793765
397.9052,1675.0321635487426
400.09,1679.8473718597506
402.2743,1738.3256281727326
404.4579,1821.9157536495459
406.641,1897.4665520687995
408.8235,1979.4268089899442
411.0054,2017.44529099777
413.1868,2141.9207448828
415.3675,2176.801897261106
417.5477,2157.4874533295597
419.7273,2067.826096517011
421.9064,1979.8664886774413
424.0848,1915.4572709865715
426.2627,1826.3970648214618
428.4399,1698.1344724045994
430.6166,1540.2680776945072
432.7928,1352.6964476683615
434.9683,1198.718133900662
437.1432,1082.381674438946
439.3176,966.4355953435734
441.4914,923.728411851087
443.6645,888.9586295336758
445.8371,845.6247447262467
448.0091,795.4752448741265
450.1806,796.5086089663928
452.3514,771.673308037376
454.5216,783.2178051563187
456.6913,750.0405556757369
458.8603,742.0900071159649
461.0288,783.2645994969389
463.1967,756.512765417694
465.3639,731.9329296446258
467.5306,713.123509379001
469.6967,707.4829145027634
471.8622,710.8095477666202
474.0271,734.901804846455
476.1914,716.5580743100554
478.3551,719.5267373761981
480.5182,718.6561680980849
482.6807,749.1447333336482
484.8426,822.7407927542663
487.0039,981.4426985398677
489.1647,1152.2987946429803
491.3248,1301.9074152017056
493.4843,1333.1168828311593
495.6432,1300.4255071273838
497.8015,1214.3315843552573
499.9592,1148.533397775399
502.1163,1056.7792185051203
504.2728,883.2673061763971
506.4287,763.6959098534171
508.5839,629.663269767695
510.7386,523.2176185137896
512.8927,476.95718238963127
515.0461,451.5301824609787
517.199,494.4348350240198
519.3512,574.9193518596439
521.5029,682.2319398043956
523.6539,805.2707999456279
525.8043,876.3341265483787
527.9541,821.5201058249786
530.1033,735.3269152244229
532.2519,629.8527239805044
534.3999,584.4456939737502
536.5472,607.5539807861642
538.694,679.8257341552917
540.8401,799.8590977431477
542.9856,895.1022084134902
545.1305,900.1531950314902
547.2748,870.7101775112997
549.4185,802.8712667655427
551.5615,746.5345649997444
553.704,718.8481663907187
555.8458,776.0601576499357
557.987,824.8186183003863
560.1276,933.7716201044605
562.2675,1120.8672265763716
564.4069,1350.8034918926105
566.5456,1572.3784590210034
568.6837,1642.4901574213409
570.8212,1473.8366008296298
572.958,1161.8657865569767
575.0942,856.1256971761268
577.2299,652.514303641161
579.3648,544.6795683449127
581.4992,487.1194471550716
583.6329,538.731890492536
585.766,587.4648439070133
587.8985,681.0662475608951
590.0304,719.3840357419249
592.1616,707.9661359271877
594.2922,659.5104683999289
596.4222,584.2149463637388
598.5515,475.22747642709965
600.6802,396.7459593563517
602.8083,316.5682911655622
604.9358,303.7923639013379
607.0626,320.41606644460717
609.1888,367.7872846383807
611.3144,421.6039011215071
613.4393,474.8637948549713
615.5636,554.2148405837152
617.6873,581.4549083040456
619.8103,549.531862470124
621.9327,496.4435617215613
624.0544,394.0878592026538
626.1756,284.662603093263
628.2961,225.96563763236736
630.4159,170.9948042123233
632.5351,167.24794196583207
634.6537,162.87288831564456
636.7716,162.06747901203835
638.8889,186.4795481765641
641.0056,183.75692831009655
643.1216,193.49745004871966
645.237,190.09894219094895
647.3518,143.85923160033144
649.4659,134.2761432394218
651.5793,107.04750063219217
653.6922,87.321125959852
655.8043,63.9948403331382
657.9159,65.41646398957892
660.0268,44.28381652675398
662.137,70.7947168880819
664.2466,71.64698357414545
666.3556,66.63843437758169
668.4639,55.01688637456027
670.5716,41.53015597486956
672.6786,28.42605903812546
674.785,-0.5975889913479477
676.8907,-5.842972953487333
678.9958,0.6877282816785737
681.1002,-12.757605784577208
683.204,-21.381102521393586
685.3072,-14.784761849427014
687.4097,-40.97037009212363
689.5115,-39.78956587316043
691.6127,-27.043578522218013
693.7132,-39.83323987121548
695.8131,-22.85911158672843
697.9123,0.4286425987320399
700.0109,1.3800873151794804
702.1089,21.295282910485184
704.2061,55.97427594544661
706.3028,96.46711276791302
708.3987,139.82383916599065
710.4941,131.09449996311832
712.5887,159.2791385845003
714.6827,212.77779714439657
716.7761,247.14051616427605
718.8688,332.56733403783437
720.9608,407.35828668736576
723.0522,480.9634067094894
725.1429,510.9827226272473
727.233,526.4162581540504
729.3224,609.8640318934858
731.4112,592.5260571849803
733.4993,510.802341269321
735.5867,397.3428854620406
737.6735,292.6976859706556
739.7596,202.31673502925605
741.845,154.45002194495737
743.9298,126.64753400171048
746.014,103.10925693897025
748.0974,109.28517522971924
750.1802,111.52527231584918
752.2624,133.9795305464013
754.3439,151.04793115516804
756.4247,191.63045403614979
758.5048,263.9770775728639
760.5843,377.88777823252804
762.6631,530.4125298425924
764.7413,789.4013024516298
766.8188,1140.9040608040932
768.8956,1414.0707617504231
770.9718,1634.8513507320176
773.0473,1612.395759049572
775.1221,1537.6039016552677
777.1962,1393.9256773773286
779.2697,1374.5109696679447
781.3426,1459.2096480400523
783.4147,1521.571568261481
785.4862,1537.0965715079665
787.557,1459.0344837395332
789.6271,1259.0851155452447
791.6966,950.2482629238184
793.7654,651.9237092831254
795.8335,444.0112285285559
797.901,311.31058804626355
799.9678,238.5215507822968
802.0339,180.1438765695948
804.0993,158.97732285588972
806.1641,127.82164528747126
808.2282,124.7265979208587
810.2916,98.94193353436003
812.3544,59.81740365901351
814.4164,36.502758836446446
816.4778,50.047749010113876
818.5385,88.30212375844803
820.5986,152.91563215940187
822.658,250.93802240791229
824.7166,416.31904116976057
826.7747,669.4584326013492
828.832,916.5559366958942
830.8886,1128.961286752029
832.9446,1240.5742069028292
834.9999,1175.2444099917575
837.0545,1038.1215964565408
839.1085,861.5054549824645
841.1618,719.3456638735979
843.2143,611.2418928189618
845.2662,499.59380431411864
847.3175,465.9010547422222
849.368,394.6632954904844
851.4179,382.8801732871143
853.467,323.051330913685
855.5155,322.27640732297004
857.5633,272.6550382372343
859.6105,230.4868561559815
861.6569,206.97149085216734
863.7027,193.458569793881
865.7478,175.39771837950047
867.7922,147.93856007282102
869.8359,147.28071658365752
871.8789,153.1738081424446
873.9212,174.71745350680612
875.9629,212.21126990263383
878.0039,284.2548728086449
880.0441,300.7978755814429
882.0837,347.5898887350895
884.1226,371.68051977566483
886.1609,430.7693727333535
888.1984,503.05604792153645
890.2352,577.990141345902
892.2714,599.2712439815823
894.3069,593.2489410238095
896.3416,504.17281167510555
898.3757,432.89242920550714
900.4091,376.20736184332327
902.4418,376.8671734879408
904.4739,392.27142427667604
906.5052,441.56967057817565
908.5358,436.9114648383693
910.5658,388.0463550874947
912.595,303.42388498667424
914.6236,179.74359431656967
916.6515,119.40501982360365
918.6786,69.30769645676583
920.7051,82.35115797099888
922.7309,118.13493742817263
924.756,115.10856706664345
926.7804,160.77157794342384
928.8041,161.77349996444082
930.8272,179.46386142790834
932.8495,178.5921890143054
934.8711,203.20800760947395
936.892,184.8608403133362
938.9123,182.50020819374095
940.9318,218.6756304699279
942.9506,220.4866245361418
944.9688,216.73270559987031
946.9862,172.16338666373576
949.003,102.77817856303591
951.019,43.67659041143634
953.0344,29.55813029482306
955.0491,5.522305862320081
957.063,19.36862446746818
959.0763,83.6465934085877
961.0888,94.30571979031492
963.1007,133.14550988082283
965.1119,147.16546900522735
967.1223,122.8151011571913
969.1321,132.69390885872463
971.1412,132.2513934036906
973.1495,132.1370547590118
975.1572,129.0503915691006
977.1641,153.7409011570021
979.1704,138.20807955525788
981.1759,122.60142125900347
983.1808,128.7704193812947
985.1849,144.36456580917547
987.1884,185.38335114198662
989.1911,235.37626453542453
991.1932,259.49279329135425
993.1945,259.33242235788157
995.1951,261.64463408818574
997.1951,244.9289082421201
999.1943,246.93472196309403
1001.1928,259.4615499452284
1003.1906,272.65886441329894
1005.1877,345.3261349974673
1007.1841,407.66282860131014
1009.1798,432.0184086751465
1011.1748,391.69233459266525
1013.1691,348.984061407376
1015.1627,243.59304025586425
1017.1556,155.5687187848789
1019.1477,96.91054220524029
1021.1392,37.31795417208332
1023.1299,17.39039737144185
1025.12,46.877314116170055
1027.1093,72.5281465452199
1029.0979,144.59233632877294
1031.0859,200.2193244117302
1033.0731,225.35855029307095
1035.0596,207.25945146958293
1037.0454,168.32146318446894
1039.0304,104.04401860833877
1041.0148,60.02654922858892
1042.9985,26.16848549217957
1044.9814,-5.9307427541934885
1046.9636,-26.52170592551738
1048.9452,-52.15491518866065
1050.926,6.169383241348896
1052.9061,24.551464177085563
1054.8855,36.641602369431894
1056.8642,57.240072323757886
1058.8421,80.84714817902022
1060.8194,107.2631035017721
1062.7959,116.08821105009793
1064.7717,146.1227425094553
1066.7469,187.01696840442037
1068.7213,242.57115779834385
1070.695,262.23557788440803
1072.6679,301.66049343008217
1074.6402,326.9461665804856
1076.6117,317.6928564641339
1078.5826,275.250818940081
1080.5527,193.42030669045607
1082.5221,129.85156964487896
1084.4908,146.5948557987681
1086.4587,132.45041184902902
1088.426,161.16848302661901
1090.3925,147.449313237993
1092.3584,186.54314477792195
1094.3235,180.5502184666857
1096.2879,238.5207732591325
1098.2515,291.70504630460937
1100.2145,376.4532723672596
1102.1767,466.11568329417605
1104.1382,590.7425071679227
1106.099,725.033967409905
1108.0591,824.4902815341088
1110.0185,913.5616598041788
1111.9771,955.6483042388604
1113.9351,932.750407721282
1115.8923,902.2681535780939
1117.8488,840.3017158084399
1119.8045,756.0012593887841
1121.7596,661.7169408925788
1123.7139,598.648909333262
1125.6675,555.3473071071107
1127.6204,591.1122706239094
1129.5726,583.0939307399713
1131.524,540.8924124004866
1133.4748,482.20783471970935
1135.4248,385.19031140296875
1137.3741,335.3399513335203
1139.3226,254.2068595427154
1141.2705,240.7911377085111
1143.2176,195.642884966795
1145.164,198.81219804554667
1147.1097,167.4991717163166
1149.0546,127.40389876253676
1150.9989,78.17647029264845
1152.9424,22.116976141055147
1154.8852,-22.724494639604472
1156.8272,-43.347853217857846
1158.7686,-26.00278374453319
1160.7092,-27.98853732540647
1162.6491,14.595894701555608
1164.5883,64.20180060387065
1166.5267,128.08046850310166
1168.4644,190.9831858787952
1170.4014,283.8112389296939
1172.3377,394.06591194470957
1174.2732,536.5984863746412
1176.2081,736.4102397296319
1178.1421,970.4524441538406
1180.0755,1244.2763644273264
1182.0082,1440.483255625627
1183.9401,1522.1743603815162
1185.8713,1448.0509069229356
1187.8017,1276.5141082560858
1189.7315,1098.5151629066595
1191.6605,871.5052566352097
1193.5888,745.6855642171422
1195.5163,649.1072517128118
1197.4432,592.2714777257188
1199.3693,580.1793943682906
1201.2947,530.8321478302423
1203.2193,540.7808784994945
1205.1432,538.0767214556481
1207.0664,532.4708063704957
1208.9889,513.814257535063
1210.9106,511.3081939156691
1212.8316,525.9037293404908
1214.7519,564.0519725246254
1216.6715,579.3040269241346
1218.5903,624.9609903545606
1220.5084,669.0239548384052
1222.4257,722.694006148563
1224.3424,738.122223367689
1226.2583,806.809678351503
1228.1735,903.7074355745017
1230.0879,981.9665514430885
1232.0016,1110.538073326596
1233.9146,1178.023038774691
1235.8269,1215.8224742316602
1237.7384,1179.4873943615653
1239.6492,1130.5188016702382
1241.5592,1126.2176868686447
1243.4686,1139.2350293625586
1245.3772,1250.7717972955816
1247.285,1382.7289474189647
1249.1922,1502.657423976244
1251.0986,1595.8081573836635
1253.0042,1688.3820630308978
1254.9092,1750.730040349536
1256.8134,1807.2529718873516
1258.7169,1881.9517226848184
1260.6196,1976.7271397098812
1262.5216,2058.3300511109696
1264.4229,2144.061265269242
1266.3234,2244.0715699825596
1268.2232,2303.3117316081725
1270.1223,2334.932494062615
1272.0207,2360.7345782293073
1273.9183,2334.1686816423453
1275.8151,2296.8854782284798
1277.7113,2297.935618572775
1279.6067,2363.619730291441
1281.5014,2499.0884180213357
1283.3953,2736.8422627631167
1285.2885,3048.081820526563
1287.181,3366.2076199530284
1289.0727,3654.2701592030494
1290.9637,3872.6199027750895
1292.854,3987.8572786249088
1294.7435,3994.5826759820707
1296.6323,3913.246444197566
1298.5204,3797.148892676563
1300.4077,3640.9402916917666
1302.2943,3498.9708735443924
1304.1802,3301.1908341262556
1306.0653,3057.450334339464
1307.9497,2810.4495020742206
1309.8333,2600.988434646224
1311.7162,2430.317201266682
1313.5984,2343.335845136919
1315.4798,2255.5443851550876
1317.3605,2230.592816785986
1319.2405,2198.4811129389686
1321.1197,2093.8092242174625
1322.9982,1921.6270792400883
1324.876,1778.6345856873731
1326.753,1618.0316320235747
1328.6293,1497.3680889266075
1330.5048,1403.7938108940666
1332.3796,1305.7086374498726
1334.2537,1253.262394080004
1336.127,1193.2548932133573
1337.9996,1175.2859347462045
1339.8714,1151.2053066422718
1341.7426,1138.5627851124254
1343.6129,1165.8081348554824
1345.4826,1162.591109184631
1347.3515,1168.6114497549825
1349.2196,1144.8688865957338
1351.087,1161.2131380499695
1352.9537,1193.0939110120871
1354.8197,1250.9109007643524
1356.6849,1325.0637906580932
1358.5493,1404.7522515355304
1360.4131,1499.675940988248
1362.276,1602.6845025603075
1364.1383,1650.9775647990136
1365.9998,1596.2547402248265
1367.8606,1461.4156248484314
1369.7206,1324.7597987179674
1371.5799,1197.236827267419
1373.4384,1077.8462626831724
1375.2962,975.5376451792472
1377.1533,837.3105041912004
1379.0096,675.0643593992149
1380.8652,511.1987221103691
1382.7201,400.7630968810963
1384.5742,293.4069831558454
1386.4275,213.87987637143397
1388.2802,168.48126903060984
1390.132,109.6606514973223
1391.9832,93.61751245070718
1393.8336,77.80133947329523
1395.6832,59.11161921144412
1397.5322,33.19783753349657
1399.3803,31.109479716682472
1401.2278,13.696030706252259
1403.0745,15.456975136364235
1404.9204,26.541797504216902
1406.7656,31.699982152439134
1408.6101,50.431013158244696
1410.4538,46.03437428184816
1412.2968,85.60954877915447
1414.139,123.95601944572627
1415.9805,158.17326822103269
1417.8213,200.56077580498413
1419.6613,250.3680213157577
1421.5006,332.94448186592444
1423.3391,436.5396320643754
1425.1769,577.602943190559
1427.0139,786.5838821585285
1428.8502,1059.0819101063107
1430.6858,1294.8464803060942
1432.5206,1477.0770354392503
1434.3547,1583.3230052386857
1436.188,1614.8338046665403
1438.0206,1590.3588328517235
1439.8524,1506.847472774808
1441.6835,1465.0990915127813
1443.5139,1422.563041074157
1445.3435,1417.3886588164582
1447.1724,1406.1752678715798
1449.0005,1389.6221771975297
1450.8279,1385.828681690566
1452.6545,1365.9440623507248
1454.4804,1403.1175863197568
1456.3056,1399.948507079972
1458.13,1368.1360640825055
1459.9536,1299.3294827790119
1461.7766,1202.4779749397853
1463.5987,1072.2307393418282
1465.4202,913.2869627373643
1467.2409,784.8958211563131
1469.0608,663.3064814957256
1470.88,538.5681028036961
1472.6984,430.1298374952553
1474.5161,372.8408325997548
1476.3331,297.9502308452479
1478.1493,262.257171231382
1479.9648,232.81078977830202
1481.7795,208.16021988358352
1483.5935,200.75459261669675
1485.4067,185.0930369655107
1487.2192,165.67467991034937
1489.031,156.29864658060933
1490.842,145.5140604489393
1492.6522,146.7700434250046
1494.4618,139.16571596332915
1496.2705,133.45019705073855
1498.0785,125.37260428240006
1499.8858,116.33205391898036
1501.6924,103.52766096742425
1503.4981,98.55853927135513
1505.3032,84.82380163912148
1507.1075,72.77255989348532
1508.911,73.70392500897151
1510.7138,47.267007232379
1512.5159,42.81091607346798
1514.3172,42.38476056933132
1516.1178,26.837649328952466
1517.9176,16.968690537468774
1519.7166,1.526992111643267
1521.515,-11.73833820144523
1523.3126,-5.77819266998813
1525.1094,-11.043346296178697
1526.9055,-21.234516358066912
1528.7008,-14.202309810674251
1530.4954,-20.597121476205075
1532.2893,-15.319204295788722
1534.0824,-21.16860544531255
1535.8747,-13.045219061814123
1537.6663,-0.4987278079634052
1539.4572,-4.228684024693848
1541.2473,13.115364929351472
1543.0367,15.83391394008163
1544.8253,21.977457762252925
1546.6132,61.99649099228327
1548.4003,55.49150800681673
1550.1867,101.51300256253353
1551.9723,120.51146786119943
1553.7572,184.68739608945066
1555.5414,247.4412782288107
1557.3247,307.17360341392987
1559.1074,411.1848583050464
1560.8893,489.975526490663
1562.6705,575.0460874474361
1564.4509,651.7970157522655
1566.2305,697.428780231593
1568.0094,743.8418431938896
1569.7876,742.5866599733404
1571.565,758.4136784657117
1573.3417,766.6233391409046
1575.1176,761.9660748846845
1576.8928,765.1423109165844
1578.6672,806.4524648364763
1580.4409,827.346946592811
1582.2138,855.2761580695151
1583.986,903.8904928770462
1585.7575,970.5903360731013
1587.5282,1012.7260636764743
1589.2981,1071.1980420000555
1591.0673,1118.906627229477
1592.8358,1178.202164838391
1594.6035,1236.7849891113844
1596.3704,1265.1554225510233
1598.1366,1316.2637752920257
1599.9021,1340.5103448175548
1601.6668,1375.3454154481371
1603.4308,1443.5692580991977
1605.194,1508.4321299327066
1606.9564,1601.3342736749441
1608.7182,1719.6759169678708
1610.4791,1868.3572714401043
1612.2394,2057.8785315235054
1613.9988,2231.839872966361
1615.7576,2389.641450938175
1617.5156,2515.633398290052
1619.2728,2564.3658239766846
1621.0293,2526.638811796432
1622.785,2439.1524199039955
1624.54,2261.2066811876894
1626.2942,2070.4516041443057
1628.0477,1858.58717465857
1629.8005,1665.6133579106927
1631.5525,1507.7801004950145
1633.3037,1356.9373323497402
1635.0542,1235.3849683352764
1636.804,1135.1229097426562
1638.553,1066.151045509063
1640.3013,1032.1692532204527
1642.0488,1011.7773998012708
1643.7955,1014.2753418542702
1645.5416,1042.5629258644326
1647.2868,1072.7399881739848
1649.0313,1112.056354699528
1650.7751,1173.7118406302607
1652.5181,1223.1562500348218
1654.2604,1291.389375244731
1656.0019,1378.3109963599459
1657.7427,1485.8708805665322
1659.4828,1610.7187812674456
1661.222,1698.804437006934
1662.9606,1707.2275702220575
1664.6984,1657.0878863618348
1666.4354,1482.8850738030067
1668.1717,1269.8688043514392
1669.9072,1038.3887349841466
1671.642,851.8445099794558
1673.3761,687.335763231807
1675.1094,556.6621201171968
1676.8419,458.77319913826364
1678.5737,372.0686132310261
1680.3048,320.84797074377116
1682.0351,261.3608763041009
1683.7646,229.9569313311381
1685.4934,196.3357346303976
1687.2215,176.04688270782572
1688.9488,160.93997010601197
1690.6754,135.91458960707905
1692.4012,123.92033238375029
1694.1263,105.3067882496041
1695.8506,100.17354577901529
1697.5742,78.8701924932925
1699.297,71.94631491200903
1701.0191,65.40149876603732
1702.7404,49.93532906678752
1704.461,49.44739017165557
1706.1808,39.33726593868414
1707.8999,38.90453973144372
1709.6182,22.698794520132196
1711.3358,23.219612885903643
1713.0527,18.416577182924584
1714.7688,19.089269533166544
1716.4841,10.737271874436601
1718.1987,15.760165953649448
1719.9126,18.557533410348697
1721.6257,3.978955726475988
1723.338,12.474014198399573
1725.0496,16.04229008269749
1726.7605,10.383364511209038
1728.4706,18.54681845535083
1730.18,5.432232782706706
1731.8886,2.0891881753921098
1733.5964,21.067265261200646
1735.3036,21.266044647034732
1737.0099,8.985106729124254
1738.7156,6.87403169103959
1740.4204,1.8823996265011829
1742.1246,-2.590209439511
1743.8279,4.555784499159245
1745.5306,-5.130012675138914
1747.2325,-16.79799512561499
1748.9336,-6.048505766651715
1750.634,-6.031719700662734
1752.3336,-5.797751605489111
1754.0325,-5.146655902093244
1755.7307,-9.378429091898624
1757.4281,7.706983738761892
1759.1247,8.359731194062078
1760.8206,-0.5700381988924619
1762.5158,-0.9821759965939236
1764.2102,5.323471939147339
1765.9039,0.7470695584586338
1767.5968,4.338780758233497
1769.289,-2.801230572104714
1770.9804,11.777199413479366
1772.6711,16.47426254531456
1774.361,12.240150535957355
1776.0502,8.825054933222646
1777.7386,25.729167162524845
1779.4263,20.402678561028097
1781.1132,16.395780208604947
1782.7994,16.35866298110227
1784.4849,21.391517590409876
1786.1696,32.19453458483031
1787.8535,19.9679042987525
1789.5367,29.561816744620046
1791.2192,25.52646173519838
1792.9009,25.812028787634517
1794.5818,38.56870716381172
1796.2621,27.046685867493125
1797.9415,35.79615351675511
1799.6202,30.91729845920895
1801.2982,34.51030868450425
1802.9755,33.87537187311864
1804.6519,38.31267536042719
1806.3277,33.72240614305156
1808.0027,33.45475083448673
1809.6769,39.50989571100422
1811.3504,34.4880267143285
1813.0231,37.38932939108531
1814.6951,34.663988943021195
1816.3664,43.0121901979885
1818.0369,45.3841176372016
1819.7067,50.87995531175261
1821.3757,44.249886818893856
1823.044,56.44409524707794
1824.7115,43.36276324225912
1826.3783,43.206072885951926
1828.0443,48.274205826043726
1829.7096,45.917343278360136
1831.3741,58.735665975986876
1833.0379,56.979354192835444
1834.701,61.248587615460565
1836.3633,61.74354536062424
1838.0248,59.914405932602676
1839.6856,62.96134721823762
1841.3457,71.68454650522688
1843.005,63.384180451655766
1844.6636,61.210424998763756
1846.3214,70.06345545394959
1847.9785,61.193446512508444
1849.6349,61.300572169101315
1851.2904,72.48500580645543
1852.9453,69.69692019429294
1854.5994,73.93648737748606
1856.2528,77.50387870393865
1857.9054,78.6992647821902
1859.5572,81.22281544574184
1861.2083,82.9746997411022
1862.8587,93.15508590255195
1864.5084,92.96414133462497
1866.1572,73.10203251030487
1867.8054,84.16892497293452
1869.4528,81.61498353483648
1871.0994,79.74037216664487
1872.7453,84.3452540228443
1874.3905,79.22979146051591
1876.0349,80.64414599328916
1877.6786,85.13847834249589
1879.3215,90.51294842302752
1880.9637,100.61771529839064
1882.6051,92.60293712696296
1884.2458,87.76877106094537
1885.8858,85.71537332651008
1887.525,82.99289927214215
1889.1634,90.35150338917344
1890.8011,82.64133933900735
1892.4381,82.61255987953234
1894.0743,97.26531694222467
1895.7098,84.29976163243543
1897.3446,94.46604408286316
1898.9786,81.46431358320945
1900.6118,86.24471847851612
1902.2443,83.90740629918173
1903.8761,89.90252371315773
1905.5071,87.43021654932295
1907.1374,82.49062973753075
1908.7669,96.83390733333249
1910.3957,87.61019256737438
1912.0237,82.76962770196269
1913.651,95.41235412330252
1915.2776,89.68851238990317
1916.9034,85.0482421061505
1918.5285,97.04168197954618
1920.1528,83.81896986710888
1921.7764,89.68024265544136
1923.3992,91.77563639295681
1925.0213,83.95528623126677
1926.6427,81.66932640422658
1928.2633,78.5678903061397
1929.8832,96.30111051461631
1931.5023,90.9191188215882
1933.1207,73.17204605597692
1934.7383,90.66002213751301
1936.3552,88.48317625420702
1937.9714,88.54163668747003
1939.5868,89.18553083388178
1941.2015,83.01498520460655
1942.8154,83.98012541895321
1944.4286,77.48107626608112
1946.041,74.31796169534903
1947.6528,74.6909048813053
1949.2637,77.2500282553184
1950.8739,70.84545350184851
1952.4834,76.22730153285636
1954.0921,76.94569255184774
1955.7001,79.2507460000561
1957.3074,76.44258054925797
1958.9139,74.37131407872278
1960.5197,76.98706370329478
1962.1247,74.43994579410548
1963.729,66.28007595241536
1965.3325,68.35756903508593
1966.9353,76.92253923617841
1968.5374,75.3751000661781
1970.1387,72.21536426634543
1971.7393,76.99344382419031
1973.3392,75.1594500050694
1974.9383,68.16349330440539
1976.5366,70.0556834660265
1978.1342,64.28612955212668
1979.7311,74.35493992434328
1981.3273,66.86222230145279
1982.9227,64.1080836586824
1984.5173,62.59263030263753
1986.1112,73.56596789884259
1987.7044,73.4782014868963
1989.2968,61.47943537073809
1990.8885,70.01977311952555
1992.4795,71.84931768762215
1994.0697,66.818171329194
1995.6592,66.37643557991464
1997.2479,76.8242113072763
1998.8359,67.26159871500738
2000.4232,57.188697238595296
2002.0097,71.00560564091154
2003.5955,59.8624221129412
2005.1805,60.259244135613585
2006.7648,64.64616859123453
2008.3484,68.62329175951743
2009.9312,65.94070927371467
2011.5133,68.7985160808463
2013.0946,58.69680646852612
2014.6752,68.83567403638312
2016.2551,62.01521179707902
2017.8342,70.83551207491837
2019.4126,65.34666657405455
2020.9902,65.64876629028606
2022.5672,67.89190156594486
2024.1433,63.67616208687559
2025.7188,64.15163686000437
2027.2935,65.96841425549644
2028.8674,58.52658200200062
2030.4406,58.576227168481864
2032.0131,67.86743623863936
2033.5849,63.950295110410366
2035.1559,65.97488900305848
2036.7261,67.99130249634493
2038.2957,72.2496195102824
2039.8645,73.1999232849713
2041.4325,68.54229633801606
2042.9998,63.62682045502231
2044.5664,61.253576736173045
2046.1323,67.87264564538373
2047.6974,64.4841070340342
2049.2617,61.08804007477829
2050.8254,60.684523295429244
2052.3883,70.87363461291989
2053.9504,59.30545133733824
2055.5118,61.63005007003653
2057.0725,61.79750681931307
2058.6325,61.85789697716575
2060.1917,60.6612953176176
2061.7502,67.70777599611324
2063.3079,60.74741256148491
2064.8649,53.230277885487
2066.4212,58.75644423240021
2067.9767,57.725983334202056
2069.5315,58.18896633530642
2071.0856,65.29546380286752
2072.6389,58.345545722150405
2074.1915,57.639281425465924
2075.7433,58.12673966166983
2077.2945,52.65798860322491
2078.8448,54.133095841327304
2080.3945,54.75212844059331
2081.9434,53.615152924308745
2083.4916,48.67223526823864
2085.039,50.8234409119965
2086.5857,54.91883480847389
2088.1317,47.65848140232811
2089.677,50.54244458902849
2091.2215,48.32078778745961
2092.7652,58.6935739110819
2094.3083,54.21086539014789
2095.8506,46.87272406797479
2097.3921,56.92921124577117
2098.933,57.930387756018604
2100.4731,54.12631386190685
2102.0124,50.11704924732135
2103.5511,53.002653054885286
2105.089,47.38318392605174
2106.6261,49.10869997224722
2108.1626,61.22925883106677
2109.6983,54.79491764901866
2111.2332,61.05573296031878
2112.7675,59.211760751233896
2114.301,55.66305639747395
2115.8337,58.05967468263157
2117.3657,55.90166983366885
2118.897,50.98909549695156
2120.4276,53.7720047598292
2121.9575,53.90045019976071
2123.4866,50.22448385648477
2125.0149,61.144157230736255
2126.5426,60.45952132100524
2128.0695,48.07062651434046
2129.5956,56.97752259319509
2131.1211,53.480258859316564
2132.6458,49.17888404467749
2134.1698,48.32344634644778
2135.693,46.06399347000888
2137.2155,48.10057263750821
2138.7373,57.683230610453734
2140.2584,59.11201366934756
2141.7787,49.1369675178596
2143.2983,52.008137268540054
2144.8171,46.02556754256989
2146.3353,42.63930244104915
2147.8527,47.24938560482258
2149.3693,50.90586024834181
2150.8853,54.10876911356502
2152.4005,49.35815443339243
2153.9149,46.05405789963618
2155.4287,48.74652071052799
2156.9417,47.535583603758596
2158.454,46.871286829553924
2159.9655,47.103670162784624
2161.4764,45.182772909608616
2162.9865,42.80863390514753
2164.4958,53.981291532695536
2166.0045,53.15078374746031
2167.5124,55.56714796483709
2169.0195,49.68042106871371
2170.526,42.44063938730699
2172.0317,47.89783875202966
2173.5367,41.80205456988881
2175.0409,43.60332176891336
2176.5445,45.95167485911213
2178.0473,46.64714791446124
2179.5494,45.139774549420395
2181.0507,44.92958791197782
2182.5513,50.51662069872475
2184.0512,43.50090515695695
2185.5504,55.682473028803656
2187.0488,43.31135562138593
2188.5465,47.037583684999845
2190.0435,42.41118753682815
2191.5397,41.13219702367837
2193.0353,40.20064156824594
2194.5301,49.21655018190495
2196.0241,41.32995147402323
2197.5175,46.04087356180344
2199.0101,43.19934414914883
2200.502,40.50539047955431
2201.9931,45.7090393645218
2203.4835,31.960317210499284
2204.9733,43.80924996684473
2206.4622,39.45586326331295
2207.9505,32.50018229156649
2209.438,37.992231848709594
2210.9248,36.03203640684478
2212.4109,38.41962005815219
2213.8962,38.005006534492225
2215.3809,44.138219183529316
2216.8648,34.91928097287797
2218.3479,38.648214428770814
2219.8304,34.62504172824765
2221.3121,27.999784661866727
2222.7931,38.17246467393551
2224.2733,34.79310292876443
2225.7529,27.761720208939096
2227.2317,31.02833694911442
2228.7098,27.492973306328054
2230.1872,31.15564912733447
2231.6638,35.916383983958895
2233.1397,32.57519713646974
2234.6149,25.232107485972335
2236.0894,35.48713360782
2237.5632,31.540293825045296
2239.0362,29.791606105809308
2240.5085,25.041088102870106
2241.9801,21.388757171070267
2243.4509,29.634630414841922
2244.921,22.278724724729614
2246.3904,27.27105669493227
2247.8591,20.561642696861725
2249.3271,30.350498829219305
2250.7943,23.537640985090206
2252.2608,20.223084754054526
2253.7266,23.456845490316255
2255.1917,19.388938345848885
2256.656,27.869378238057436
2258.1197,21.948179890457595
2259.5826,23.32535774787175
2261.0447,20.150926035640566
2262.5062,22.67489874585152
2263.9669,29.39728966908274
2265.4269,17.218112369163805
2266.8862,20.337380115951476
2268.3448,25.10510600712155
2269.8026,20.12130293697618
2271.2598,19.735983548766853
2272.7162,26.04916028453232
2274.1719,14.710845388951668
2275.6268,26.171050846212722
2277.0811,26.42978849339505
2278.5346,18.437069905867986
2279.9874,32.79290639470287
2281.4395,30.147309086600785
2282.8908,19.00028878033362
2284.3414,21.351855973200372
2285.7914,23.252020972497462
2287.2406,28.300793872002885
2288.689,23.148184532974767
2290.1368,25.64420253366353
2291.5838,23.438857220837917
2293.0302,24.632157684824847
2294.4758,24.424112781562656
2295.9206,22.864731120668466
2297.3648,25.304021067518704
2298.8082,26.591990758842485
2300.251,22.478648078329286
2301.693,23.814000643748898
2303.1343,25.548055848084914
2304.5748,28.33082084618121
2306.0147,23.16230253740116
2307.4538,22.892507537800327
2308.8922,28.37144223181167
2310.3299,26.749112774943114
2311.7669,19.925525038988667
2313.2031,22.25068462825135
2314.6387,21.874596947779025
2316.0735,19.04726718011267
2317.5076,26.068700289047513
2318.941,20.73890104790638
2320.3737,22.257873969325033
2321.8056,22.17562335855041
2323.2369,27.59215329825082
2324.6674,17.957467649338696
2326.0972,26.521569996805226
2327.5263,25.084463746066945
2328.9547,29.296152037325044
2330.3823,23.956637759936143
2331.8092,21.465923510295568
2333.2355,17.42401164523244
2334.661,19.480904306916727
2336.0858,21.136603463278618
2337.5098,16.491110887439447
2338.9332,23.39442814115489
2340.3558,19.34655662126943
2341.7778,20.097497490683622
2343.199,20.09725171883258
2344.6195,27.54582007417673
2346.0393,18.243203124204058
2347.4583,29.93940116094467
2348.8767,24.03441429399652
2350.2943,18.278242333563924
2351.7113,21.620884849507263
2353.1275,22.21234122890445
2354.543,24.0526106426247
2355.9578,23.191692039413965
2357.3718,20.379584127491967
2358.7852,19.066285383161755
2360.1978,21.351794078931107
2361.6098,26.486108296645057
2363.021,16.51922590463073
2364.4315,19.301144506354376
2365.8413,18.18186154009021
2367.2504,22.761374251101188
2368.6587,26.089679702831518
2370.0664,21.916774731111843
2371.4733,20.742655910876067
2372.8795,20.867319597890628
2374.285,24.890761940495622
2375.6899,16.312978878358308
2377.0939,14.283966102238367
2378.4973,13.703719139766122
2379.9,18.422233375732105
2381.3019,18.139504057889837
2382.7032,18.80552624977065
2384.1037,14.820294833511355
2385.5035,21.383804503193574
2386.9027,21.54604980469628
2388.3011,18.007025070060536
2389.6987,25.8167244158667
2391.0957,15.275141778625027
2392.492,17.43227083667864
2393.8876,11.388105115619453
2395.2824,18.442637966716916
2396.6765,10.245862627359486
2398.07,12.697772150509593
2399.4627,7.9983594866709495
2400.8547,18.897617459369997
2402.246,11.245538812149675
2403.6366,14.142116099576924
2405.0265,7.937341763763698
2406.4156,16.731208105400583
2407.8041,11.373707345805144
2409.1918,12.614831538982912
2410.5789,9.50457262520274
2411.9652,9.442922418585454
2413.3508,16.32987263820644
2414.7358,14.115414908711955
2416.12,13.299540691449636
2417.5035,10.532241306613173
2418.8863,9.863507941400883
2420.2684,12.343331677688923
2421.6497,16.12170349871866
2423.0304,11.398614264298374
2424.4104,14.924054673019498
2425.7896,11.548015309487482
2427.1682,14.870486609067314
2428.546,14.14145889164405
2429.9232,16.01092232839801
2431.2996,13.878866949095084
2432.6753,16.445282623392075
2434.0503,9.460159082157475
2435.4246,12.67348589180682
2436.7982,13.035252524154487
2438.1711,15.44544832427988
2439.5433,12.554062506910782
2440.9148,17.311084132320445
2442.2856,12.716502135241853
2443.6557,12.220305277297257
2445.025,11.272482192943812
2446.3937,13.273021394436
2447.7617,15.421911281303608
2449.1289,15.619140120346344
2450.4955,8.814696024144894
2451.8613,12.058566949088515
2453.2265,9.350740763419651
2454.5909,12.041205214795298
2455.9546,12.829947957364993
2457.3177,12.216956524866589
2458.68,15.352218322738452
2460.0416,15.385720634249651
2461.4025,15.467450589147177
2462.7627,17.397395163320937
2464.1222,16.625541177986634
2465.4811,16.151875280385923
2466.8392,21.526383951505352
2468.1966,12.299053510813053
2469.5533,14.669870062513326
2470.9093,22.338819587820353
2472.2645,16.70588792124954
2473.6191,21.27106067392822
2474.973,12.184323289925203
2476.3262,22.545661000598386
2477.6787,21.255058915463053
2479.0305,16.262501918577982
2480.3816,21.01797468145145
2481.7319,18.871461712966948
2483.0816,18.822947311828443
2484.4306,26.32241558802525
2485.7789,19.419850463317573
2487.1264,13.565235596241621
2488.4733,18.60855445113532
2489.8195,23.049790356684127
2491.165,20.338926455488377
2492.5097,16.825945659650472
2493.8538,20.960830677883905
2495.1972,22.5435640506426
2496.5398,17.074128108772356
2497.8818,21.502504957683357
2499.2231,21.928676532044676
2500.5637,17.40262455150065
2501.9035,19.974330516408997
2503.2427,22.69377575310125
2504.5812,17.51094138816569
2505.919,15.425808321253328
2507.256,16.538357276905742
2508.5924,16.598568825406744
2509.9281,20.156423371656558
2511.2631,17.711901154569944
2512.5974,19.614982211497477
2513.9309,23.765646402670768
2515.2638,20.113873392171683
2516.596,19.659642606425564
2517.9275,18.702933270719257
2519.2583,19.49372441374311
2520.5884,24.13199487715815
2521.9178,15.617723307688436
2523.2465,20.80088811073813
2524.5745,26.03146753553409
2525.9018,26.00943962329427
2527.2284,17.134782154922277
2528.5543,19.25747265122743
2529.8796,22.177488461671487
2531.2041,25.19480674314144
2532.5279,19.559404430749623
2533.851,24.22125820766047
2535.1735,24.430344561444485
2536.4952,18.936639737459643
2537.8163,23.940119736760607
2539.1366,19.490760371035776
2540.4562,26.088537212572646
2541.7752,27.08342563875101
2543.0935,25.025400766065502
2544.411,30.26443744017655
2545.7279,30.700510256490816
2547.0441,30.833593507770615
2548.3596,28.663661179773385
2549.6744,30.340686949920666
2550.9885,29.714644208997697
2552.3019,28.785506044383
2553.6146,33.35324524630883
2554.9266,29.51783431715262
2556.2379,24.77924542575923
2557.5485,27.73745044579539
2558.8585,29.142421003135638
2560.1677,25.44412844628002
2561.4762,34.54254383230463
2562.7841,29.037637963844134
2564.0913,35.029381298108035
2565.3977,25.91774400192955
2566.7035,32.10269589184813
2568.0086,30.13420652522592
2569.313,37.41224513839808
2570.6167,33.236780666358015
2571.9197,31.60778166997659
2573.222,30.775216377756834
2574.5236,28.839052702124178
2575.8246,34.249258247751925
2577.1248,33.55580033092306
2578.4244,34.008645925428
2579.7232,32.90776166949931
2581.0214,32.50311386128308
2582.3189,30.494668469848108
2583.6157,43.482391139231936
2584.9118,37.416247208525704
2586.2072,36.44620158199672
2587.5019,41.7222187897498
2588.7959,39.49426299742788
2590.0893,38.91229795345174
2591.3819,41.976287011299604
2592.6739,45.48619313532669
2593.9652,42.39197887012557
2595.2557,41.64360630542683
2596.5456,48.591037107041586
2597.8348,45.58423252434477
2599.1234,41.773153320800986
2600.4112,44.607759804032725
2601.6983,44.888011863930956
2602.9848,49.01386894430934
2604.2705,42.78529004010136
2605.5556,44.70223365610187
2606.84,50.164657869253034
2608.1237,55.7725203094748
2609.4067,41.675778105040735
2610.689,45.42438782649927
2611.9707,44.16830562764116
2613.2516,41.207487208013475
2614.5319,44.99188782548015
2615.8115,40.621462325830436
2617.0903,46.64616510493468
2618.3685,42.615950152448875
2619.6461,42.68077099156736
2620.9229,41.09058071932512
2622.199,46.29533200594946
2623.4745,42.04497711076189
2624.7493,43.639467830130855
2626.0234,46.47875553997508
2627.2968,48.36279117981874
2628.5695,47.59152522439851
2629.8415,43.61490766482336
2631.1128,45.282888016287046
2632.3835,48.145415357834395
2633.6535,41.25243831568142
2634.9228,42.75390503459019
2636.1914,47.49976324679827
2637.4593,42.53996025700437
2638.7265,48.024442894909555
2639.9931,43.103157564815376
2641.259,44.426050190778994
2642.5242,41.94306626582613
2643.7887,40.30415083872214
2645.0525,41.559248538801825
2646.3156,44.358303592358595
2647.5781,41.15125981009345
2648.8398,41.888060559124284
2650.1009,40.068648795056504
2651.3613,42.392967054615156
2652.6211,38.360957473838795
2653.8801,38.82256176483645
2655.1385,38.27772125610764
2656.3961,42.3763768879264
2657.6531,39.51846921778963
2658.9094,42.15393837943046
2660.1651,44.13272411139755
2661.42,45.95476573070022
2662.6743,43.970002113020655
2663.9279,49.37837167449345
2665.1808,48.829812391553304
2666.433,48.02426174685138
2667.6846,48.961656734740615
2668.9354,42.59193386933154
2670.1856,60.31502917511827
2671.4351,50.330878250675795
2672.6839,53.58941609142866
2673.9321,56.79057718949301
2675.1795,63.984295501090656
2676.4263,57.57050441453799
2677.6724,55.44913667830829
2678.9179,64.87012446517011
2680.1626,55.533399393400515
2681.4067,56.388892432575716
2682.6501,55.586533996938016
2683.8928,54.17625393684085
2685.1348,51.657981546772305
2686.3761,55.08164557945801
2687.6168,48.497174271043974
2688.8568,46.05449530685982
2690.0961,45.20353588726357
2691.3348,51.244222752068396
2692.5727,47.476482189052206
2693.81,46.50023997355086
2695.0466,42.56542140613544
2696.2826,49.371951322374656
2697.5178,48.11975413218329
2698.7524,50.35875375175661
2699.9863,45.58887361609237
2701.2195,51.66003665660091
2702.452,50.27216534880404
2703.6839,52.42518165162306
2704.9151,57.81900702125779
2706.1456,53.95356238965624
2707.3755,59.17876811057653
2708.6046,61.844543998241164
2709.8331,68.05080927508502
2711.0609,68.69748254509773
2712.2881,68.93448173176088
2713.5145,74.86172407158128
2714.7403,72.77912611172121
2715.9654,75.83660365072569
2717.1899,84.13407175934864
2718.4136,93.37144474997817
2719.6367,93.2986360936618
2720.8591,96.46555832773277
2722.0809,100.67212305653803
2723.3019,109.36824091976916
2724.5223,110.60382155039656
2725.7421,108.72877348770837
2726.9611,110.49300416495441
2728.1795,114.29641992809715
2729.3972,114.08892601816879
2730.6142,100.12042653323743
2731.8306,93.84082443048206
2733.0462,95.60002166587742
2734.2612,87.99791925699006
2735.4756,79.58441726538649
2736.6892,69.15941487265414
2737.9022,64.32281046453627
2739.1145,60.12450173518195
2740.3262,55.01438573551238
2741.5372,54.74235891520371
2742.7475,46.108317173788464
2743.9571,42.76215586337557
2745.1661,36.453769874990854
2746.3744,33.08305367203869
2747.582,32.74990135338584
2748.7889,31.15420668706858
2749.9952,29.545863113624364
2751.2008,21.92476376204857
2752.4057,18.790801465878047
2753.61,18.343868839402063
2754.8136,21.683858309002005
2756.0165,13.560662117620751
2757.2188,11.424172291362595
2758.4204,14.62428072072538
2759.6213,14.810879181965248
2760.8215,13.383859305095768
2762.0211,11.693112572021676
2763.22,12.438530330809357
2764.4182,10.970003812594115
2765.6158,8.637424124126113
2766.8127,6.690682262455567
2768.009,7.629669138258521
2769.2045,3.554275595304347
2770.3994,6.614392401065885
2771.5936,3.109910287473241
2772.7872,-4.259280079687386
2773.9801,2.0067119342712942
2775.1723,-5.942180485755699
2776.3639,-5.806024174940177
2777.5548,0.9151733939289386
2778.745,-3.428537249755834
2779.9346,-7.73710558575371
2781.1235,-2.1104468427367635
2782.3117,-2.598398955692346
2783.4992,-2.6507787762438966
2784.6861,-2.5673771980092965
2785.8723,-4.64795863332651
2787.0579,-2.8922618464354173
2788.2428,-6.0499791684692354
2789.427,-1.9207740368655948
2790.6106,-6.104249449770293
2791.7935,-2.349989216796615
2792.9757,0.5924838338940219
2794.1573,10.973670350532359
2795.3382,7.244070975424279
2796.5184,10.554186241139092
2797.698,10.254516607805641
2798.8769,16.595562430011086
2800.0551,17.52782395979753
2801.2327,24.10180128325149
2802.4096,29.06799431118131
2803.5859,29.67690271337773
2804.7615,34.62902586895143
2805.9364,40.674862860244275
2807.1106,50.46491242330802
2808.2842,62.04967288744575
2809.4572,68.57964207731186
2810.6294,82.45531719706409
2811.801,93.92719476506383
2812.972,106.24577047511934
2814.1423,126.26153908176713
2815.3119,139.07499427708603
2816.4808,160.7866284905396
2817.6491,183.94693276084175
2818.8167,197.25639651883995
2819.9837,219.56550735591253
2821.15,248.6247508908738
2822.3157,265.48461054688335
2823.4807,284.6955672608532
2824.645,315.25809931484946
2825.8086,334.2226821439825
2826.9716,356.33978803078196
2828.134,381.15988591555043
2829.2957,407.7834411751933
2830.4567,417.9609153750167
2831.617,418.3927660024926
2832.7767,421.92944636548395
2833.9358,421.8214055879263
2835.0941,412.76908857446085
2836.2519,407.2729360115146
2837.4089,404.4833844578243
2838.5653,396.55086639939674
2839.7211,387.9258102774056
2840.8761,378.95864056751566
2842.0306,377.69977786613424
2843.1843,389.5996389800816
2844.3374,403.50863693918103
2845.4899,420.72718087725923
2846.6417,443.3556758930566
2847.7928,468.7445228780422
2848.9433,495.79411829012827
2850.0931,500.55485389978185
2851.2422,533.027116519529
2852.3907,560.4112879563476
2853.5385,574.9077446869439
2854.6857,594.4668575839121
2855.8323,621.1389917707684
2856.9781,632.3745064263605
2858.1233,649.5737545181468
2859.2679,673.8370826898399
2860.4118,692.4148310894157
2861.555,704.8573331264788
2862.6976,722.2149152864858
2863.8395,739.3378970063204
2864.9808,750.6265905007167
2866.1214,762.9813005910302
2867.2614,772.2523245923508
2868.4007,775.1399521899555
2869.5393,774.0944653465979
2870.6773,782.5161382736324
2871.8146,795.2552374414693
2872.9513,792.112021495357
2874.0874,785.0367411279926
2875.2227,783.7296391109519
2876.3574,780.9909503654449
2877.4915,756.4209019753838
2878.6249,751.2697132147728
2879.7577,734.1375957934065
2880.8898,738.2247539083824
2882.0212,728.1313844154229
2883.152,725.357676788002
2884.2821,720.2038132182807
2885.4116,724.4199686448433
2886.5405,713.6063108042357
2887.6686,723.2130001888047
2888.7962,729.590190154834
2889.923,721.3380268264773
2891.0493,729.5066490319866
2892.1748,730.6461883862339
2893.2997,741.3567692090244
2894.424,746.838508513702
2895.5476,756.7915159000429
2896.6706,759.6658934994382
2897.7929,766.8617358753638
2898.9145,786.9791299946369
2900.0355,774.8681551554578
2901.1559,801.2788827862354
2902.2756,813.9113765666971
2903.3946,826.465692163782
2904.513,822.1418771053147
2905.6308,849.6899706544642
2906.7479,851.7600038529797
2907.8643,869.7519992457117
2908.9801,864.9659708599105
2910.0953,867.5519240253068
2911.2098,859.0098554219715
2912.3236,871.6897530544559
2913.4368,849.9915963372137
2914.5494,840.5653559678008
2915.6613,829.4109941438574
2916.7725,822.6284646573697
2917.8831,812.4677130062148
2918.9931,808.4786764619853
2920.1024,799.2112841715959
2921.211,782.5654571971755
2922.319,774.3911086087396
2923.4264,781.0881436506495
2924.5331,768.4064598233551
2925.6391,761.095946816426
2926.7445,761.4564866353664
2927.8493,761.2379536747217
2928.9534,772.9902147144721
2930.0569,771.9631289222191
2931.1597,774.0065477356611
2932.2619,774.1203148728664
2933.3634,785.3542663118374
2934.4643,786.4082302893737
2935.5645,771.732027188732
2936.6641,775.2754695290876
2937.763,771.6883621122954
2938.8613,760.9205019874554
2939.959,742.6216784867847
2941.056,710.9916733332955
2942.1523,686.4302608237824
2943.248,660.1872081451245
2944.3431,619.8622756198974
2945.4375,590.0052169688054
2946.5313,556.5157797139295
2947.6244,507.59370547729907
2948.7169,472.63873031578566
2949.8087,429.9005852103238
2950.8999,405.17899641546126
2951.9904,366.92368588673946
2953.0803,345.68437152791034
2954.1696,321.86076757348894
2955.2582,306.1525848011469
2956.3462,283.25953076994824
2957.4335,270.73130997743147
2958.5202,254.2176240885398
2959.6062,246.31817206090318
2960.6916,242.93265030997577
2961.7764,237.06075278803002
2962.8605,229.80217101801193
2963.9439,229.2565941522601
2965.0267,212.22370904509148
2966.1089,215.30320025825705
2967.1905,219.34475023127098
2968.2714,221.19803925061532
2969.3516,222.31274540932483
2970.4312,227.83854458845383
2971.5102,227.37511044592944
2972.5885,241.87211436129334
2973.6662,239.47922544033628
2974.7432,232.99611037012795
2975.8196,236.57243344294585
2976.8954,233.85785662110644
2977.9705,237.6520395012018
2979.045,233.65463934124566
2980.1188,223.76531102273128
2981.192,223.3337070906057
2982.2645,213.55947785216296
2983.3364,210.89227138136008
2984.4077,204.3817336165594
2985.4783,190.9275083872009
2986.5483,178.07923747890706
2987.6177,171.18656076802554
2988.6864,153.69911635011172
2989.7545,143.81654060885532
2990.8219,127.5884683909552
2991.8887,118.26453310494486
2992.9548,105.19436688347315
2994.0204,87.77760067654378
2995.0852,88.31386438221688
2996.1495,73.40278702077669
2997.2131,62.54399672936876
2998.276,58.33712091111104
2999.3383,50.93178634368155
3000.4,45.12761922138722
3001.4611,34.12424522921722
3002.5215,27.071289600884683
3003.5812,27.41837722886035
3004.6404,15.665132734902244
3005.6989,11.611180466584557
3006.7567,10.956144614830237
3007.8139,10.349649254450526
3008.8705,9.141318350695315
3009.9264,4.430775765317975
3010.9818,0.21764526865888456
3012.0364,-1.8984494132492955
3013.0905,-0.8178845565501831
3014.1439,-1.3910174718778023
3015.1966,-3.3681972991996076
3016.2487,-3.7997592822185595
3017.3002,-3.1360050163466724
3018.3511,-4.677198137400836
3019.4013,-3.9235709525078164
3020.4509,-2.8253090435850368
3021.4998,-1.6825587960762505
3022.5481,0.9545616294120975
3023.5958,-6.764049118964209
3024.6428,-4.488492402594858
3025.6892,0.6811979899809444
3026.735,2.3950331102631424
3027.7802,4.853024002939719
3028.8247,1.305181688748462
3029.8685,2.6015171398968278
3030.9118,9.842041315540655
3031.9544,11.026765148820573
3032.9963,10.955699474457049
3034.0376,8.4288550169029
3035.0783,8.946242391054056
3036.1184,18.45787212751793
3037.1578,17.663754667439548
3038.1966,22.363900267385333
3039.2348,21.358319007284194
3040.2723,28.89702074342611
3041.3092,25.280015118517923
3042.3455,23.857311486296283
3043.3811,28.328918947697844
3044.4161,27.994846365086175
3045.4505,25.205102317535676
3046.4842,28.209695104172397
3047.5173,32.408632772071314
3048.5498,29.20192308621054
3049.5816,30.789573487481988
3050.6128,30.821591124758257
3051.6434,29.74798283901633
3052.6734,28.66875516301738
3053.7027,28.533914332042784
3054.7314,27.293466294686382
3055.7594,32.247416714202885
3056.7868,33.59577098091246
3057.8136,34.28853416266101
3058.8398,32.87571099133697
3059.8653,35.557305855943355
3060.8902,33.383322816726306
3061.9145,33.853765578358804
3062.9381,29.168637511680757
3063.9612,28.527941648994457
3064.9835,31.731680730915883
3066.0053,34.07985721278156
3067.0264,29.37247323261137
3068.0469,32.90953058762666
3069.0668,33.04103078132417
3070.086,32.81697498810527
3071.1046,25.18736405196124
3072.1226,30.652198488713495
3073.1399,26.311478562309887
3074.1567,26.265204230176394
3075.1727,24.363375186624182
3076.1882,20.705990863312508
3077.203,24.893050448266834
3078.2173,23.024552922452784
3079.2308,16.900497017905508
3080.2438,19.420881236414687
3081.2561,15.435703910765028
3082.2678,10.794963179532516
3083.2789,12.148657026936093
3084.2893,9.996783329245204
3085.2991,7.589339841242719
3086.3083,11.17632421774374
3087.3169,7.607734037669999
3088.3248,3.3335667681799777
3089.3321,5.853819800354884
3090.3388,1.6684904919402754
3091.3449,6.627576142143525
3092.3503,4.131074033487138
3093.3551,3.028981382217964
3094.3593,4.321295363272114
3095.3629,4.9080131212959515
3096.3658,-0.8108682422770812
3097.3681,-0.4853516750936109
3098.3698,5.684567975773376
3099.3708,2.1989007119141206
3100.3713,1.2576564780732156
3101.3711,0.6108451970062845
3102.3702,-1.7915232211075391
3103.3688,3.1505611278024475
3104.3667,1.2871260451238555
3105.364,4.3181993007387405
3106.3607,6.943808651657918
3107.3568,-0.5360181882896882
3108.3522,3.878746425286721
3109.347,3.1881354915996667
3110.3412,2.9921819710741886
3111.3348,0.19091879225402408
3112.3277,3.2343788537611715
3113.32,0.6725950523084379
3114.3117,5.055600252264895
3115.3028,0.683427311273725
3116.2932,2.45610903642212
3117.2831,-0.8763217720369525
3118.2723,1.1361676615884022
3119.2608,4.343618867444583
3120.2488,-0.5539266356836876
3121.2361,5.44357262755215
3122.2229,4.236163666227746
3123.209,2.8738934349830245
3124.1944,5.056808846096274
3125.1793,4.584956783106918
3126.1635,5.75838407898631
3127.1471,4.477137520856225
3128.1301,2.2412638382546675
3129.1125,3.950809715948239
3130.0942,4.3058218162909085
3131.0753,9.10634676212856
3132.0558,3.7524311332488907
3133.0357,9.044121418376136
3134.015,6.931464068710255
3134.9936,4.864505445010018
3135.9716,7.643291838719556
3136.949,9.817869492637946
3137.9258,6.238284573131402
3138.902,9.30458314838745
3139.8775,9.216811224210801
3140.8524,9.82501471336036
3141.8267,10.429239436426947
3142.8004,9.979531115751264
3143.7735,9.27593536938162
3144.7459,10.668497715571085
3145.7178,9.307263579813352
3146.689,8.692278280917158
3147.6596,9.873587044618645
3148.6295,12.401235009731153
3149.5989,14.425267216332188
3150.5676,9.145728580486924
3151.5357,12.262663874007877
3152.5032,11.72611777725028
3153.4701,15.036134847942755
3154.4364,13.642759526552705
3155.402,12.19603610318618
3156.367,14.146008731521594
3157.3315,14.792721443276985
3158.2952,11.886218128710336
3159.2584,18.22654253015244
3160.221,15.813738271071905
3161.1829,14.797848792671957
3162.1442,17.378917378018425
3163.105,14.856987162198674
3164.065,19.682101106510903
3165.0245,17.50430202368346
3165.9834,18.67363252962368
3166.9416,18.640135065195892
3167.8993,17.303851884528108
3168.8563,19.614825055347016
3169.8127,20.923096472340774
3170.7684,19.228707834049303
3171.7236,19.88170062978158
3172.6782,21.7321161565595
3173.6321,20.929995512587954
3174.5854,21.275379578750705
3175.5381,22.26830902663154
3176.4902,22.958824315060458
3177.4417,20.296965680184393
3178.3926,25.282773128562038
3179.3428,22.61628646378243
3180.2924,21.297545236606886
3181.2415,24.176588771633888
3182.1899,23.653456180486423
3183.1377,22.878186333021628
3184.0848,23.900817862562082
3185.0314,25.971389173648504
3185.9773,26.139938431813434
3186.9227,25.05650354287554
3187.8674,26.171122151254117
3188.8115,24.383831650803415
3189.755,26.544669173666488
3190.6979,26.553671608148065
3191.6402,27.260875577106216
3192.5818,30.06631743786226
3193.5229,28.22003327512878
3194.4633,31.372058872955215
3195.4031,26.27242973319064
3196.3423,27.02118104396356
3197.2809,30.518347730678176
3198.2189,26.713964448526895
3199.1563,27.758065547518633
3200.0931,30.75068511052267
3201.0292,28.091856942827636
3201.9648,32.43161454221531
3202.8997,33.219991125548894
3203.834,30.007019585375456
3204.7677,31.342732482042152
3205.7008,34.02716207582594
3206.6333,32.260340313576464
3207.5652,31.842298801871724
3208.4964,33.32306882468634
3209.4271,32.35268134757193
3210.3571,32.88116700284942
3211.2865,34.35855609931295
3212.2154,35.03487861694495
3213.1436,33.26016419214231
3214.0712,36.58444211095313
3214.9982,35.857741326823856
3215.9246,36.23009042735652
3216.8503,37.10151764157574
3217.7755,36.92205083620521
3218.7001,36.94171750695345
3219.624,36.460544780308496
3220.5473,38.278559413341156
3221.4701,35.145787798516835
3222.3922,38.862255945515315
3223.3137,37.5779895125585
3224.2346,37.54301376924574
3225.1549,39.407353609396466
3226.0746,42.47103355139998
3226.9937,40.88407771957202
3227.9121,39.146509813518016
3228.83,40.70835312400259
3229.7473,41.31963055032527
3230.6639,43.48036458470204
3231.5799,40.44057730615258
3232.4954,40.950290358892914
3233.4102,43.659524982733274
3234.3244,41.71830200798098
3235.238,41.37664182834814
3236.151,41.83456442036379
3237.0634,41.992089346790536
3237.9752,42.49923575204538
3238.8864,42.55602236062436
3239.797,46.6124674720312
3240.7069,46.26858896020937
3241.6163,40.624404232977646
3242.5251,46.12993023546892
3243.4332,45.78518350657201
3244.3408,44.14018012387647
3245.2477,43.944935707119974
3246.154,45.4494654346384
3247.0598,47.45378404531823
3247.9649,43.207905823551314
3248.8694,49.561844579191614
3249.7733,48.815613690014025
3250.6766,49.219226038174995
3251.5793,51.072694017674806
3252.4814,49.77602953032147
3253.3829,50.12924396719606
3254.2838,50.28234822161932
3255.1841,51.33535268561954
3256.0838,52.03826724840154
3256.9829,50.991101285816576
3257.8814,49.09386365333323
3258.7792,53.646562696509065
3259.6765,50.049206269962966
3260.5731,52.851801691848166
3261.4692,49.804355779825855
3262.3647,51.506874823039155
3263.2595,50.15936461258762
3264.1538,51.86183042450204
3265.0474,51.86427703321956
3265.9404,54.91670869455899
3266.8329,51.06912914569634
3267.7247,54.071541574640534
3268.616,54.623948658709196
3269.5066,51.3763525345045
3270.3966,53.52875479238911
3271.286,54.13115650896214
