RamanShift,CorrectedData
30.1047,1677.9445718066997
32.3739,1563.9887986878769
34.6426,1440.983008789608
36.9109,1324.4271696925593
39.1787,1206.6712345675667
41.4461,1087.7151433411934
43.7131,968.8588238732904
45.9796,848.7021931465559
48.2456,734.8951584551003
50.5112,613.6876186060115
52.7764,497.6794650574253
55.0411,383.47058313060177
57.3054,266.1608531700055
59.5692,149.1501516853957
61.8326,41.038352524922814
64.0955,-71.27467195476422
66.3579,-182.08904980739985
68.6199,-289.4041970527459
70.8815,-378.1177106409566
73.1426,-415.8742963742583
75.4032,-315.3148826589478
77.6634,134.8237566828982
79.9231,1344.1579978248806
82.1824,4197.704215592363
84.4412,9507.378771369129
86.6995,16982.447984561928
88.9574,24405.278079503703
91.2148,29482.185110702943
93.4717,31755.38488861534
95.7282,32112.242928874733
97.9842,31876.62442956113
100.2398,30986.34426763209
102.4949,30115.31700127894
104.7495,29059.856878829574
107.0036,28027.87784745869
109.2573,27097.79356374245
111.5105,26213.067403978213
113.7632,25407.162473485427
116.0154,24739.99161545285
118.2672,24250.267418997624
120.5185,23711.552225836975
122.7693,23348.008135185453
125.0197,22992.197009142095
127.2696,22598.680476325848
129.519,22314.919935433696
131.7679,21867.926559175823
134.0163,21507.211297113205
136.2642,21064.184880127563
138.5117,20567.8578240285
140.7587,20113.94043398378
143.0052,19646.292809482584
145.2512,19186.724848874706
147.4967,18739.896254047002
149.7417,18356.016535019084
151.9863,18092.795014411597
154.2304,17875.590831285037
156.4739,17584.012943771937
158.717,17348.220131248927
160.9596,17071.17099725252
163.2017,16686.823971837017
165.4433,16275.187314345025
167.6844,15806.769117250897
169.925,15376.177310277124
172.1651,14870.869665078504
174.4047,14522.353799548062
176.6439,14154.787182870132
178.8825,13813.027139005513
181.1206,13586.130850367124
183.3582,13266.755361237629
185.5954,13055.507580038378
187.832,12880.894282523164
190.0681,12742.822113890725
192.3037,12624.64759053083
194.5388,12489.227101405055
196.7734,12415.166909228486
199.0075,12372.623151823936
201.2411,12459.75184286257
203.4742,12390.258872289309
205.7068,12439.850005451568
207.9389,12429.030883794172
210.1704,12504.307024363447
212.4015,12505.58381991542
214.632,12558.266538163043
216.862,12622.610321763435
219.0915,12602.220187791056
221.3205,12602.901027094267
223.549,12614.807604499234
225.777,12652.044558803116
228.0044,12680.916402655013
230.2314,12704.127522183568
232.4578,12754.932176708267
234.6837,12755.284498507337
236.909,12794.588492309678
239.1339,12711.448035291358
241.3582,12514.116876682552
243.582,12285.048638598979
245.8053,12109.596818015181
248.0281,11924.01478905522
250.2503,11817.1058047472
252.472,11755.022998879082
254.6932,11804.519387067761
256.9139,11776.197867379926
259.134,11878.761219837053
261.3536,12019.662106698663
263.5727,12195.803071436652
265.7912,12308.186537326319
268.0092,12564.914805684923
270.2267,12667.640054747868
272.4436,12679.96433710141
274.6601,12557.889578655415
276.8759,12434.167578520111
279.0913,12249.15001022684
281.3061,12015.938422965268
283.5204,11875.38424343356
285.7341,11737.088778170517
287.9473,11705.253214961089
290.16,11730.928624219343
292.3721,11691.815959306834
294.5837,11870.766056275817
296.7947,12032.82963426041
299.0052,12094.35729368706
301.2152,11999.849514653932
303.4246,11751.706656315615
305.6334,11299.528957828217
307.8418,10762.216540830777
310.0495,10296.619413967057
312.2568,9793.287478258651
314.4635,9300.720531760971
316.6696,8920.01827459655
318.8752,8578.030313880725
321.0802,8442.956167528657
323.2847,8332.095267675202
325.4887,8323.146962025663
327.692,8271.6605149644
329.8949,8148.785107644309
332.0972,7894.269838501694
334.2989,7608.963724485007
336.5001,7305.815703600008
338.7007,6995.074637762837
340.9008,6839.939315831478
343.1003,6563.058456713183
345.2992,6388.1307109158115
347.4976,6180.3046633166505
349.6955,6062.878834911675
351.8927,5971.651684893821
354.0895,5793.7716118272565
356.2856,5766.536954559613
358.4812,5617.09599400084
360.6763,5585.696953395509
362.8707,5527.687999817237
365.0646,5478.017244482695
367.258,5430.482743331659
369.4508,5422.132497523757
371.643,5503.714453913775
373.8346,5492.57650513519
376.0257,5509.466488784339
378.2162,5446.582187531811
380.4062,5426.571328953527
382.5956,5251.3315861596
384.7844,5102.960577994429
386.9726,4859.555870789105
389.1603,4711.964979845132
391.3474,4569.285371868453
393.5339,4523.214466445375
395.7199,4388.549637469358
397.9052,4394.138213601715
400.09,4382.227479618277
402.2743,4501.1146763535035
404.4579,4617.7470008195705
406.641,4820.921605017535
408.8235,4916.18559477097
411.0054,5044.936027694259
413.1868,5185.26991223993
415.3675,5200.884206411158
417.5477,5185.275816358428
419.7273,5114.691596223394
421.9064,4994.778348294947
424.0848,4885.082823715071
426.2627,4667.801723677976
428.4399,4367.531700527048
430.6166,3984.1693599276678
432.7928,3584.5112638698956
434.9683,3250.6539345021265
437.1432,3001.993858127629
439.3176,2747.577488543151
441.4914,2611.6512495254974
443.6645,2506.9615373757206
445.8371,2417.7047222783476
448.0091,2291.6271493483127
450.1806,2232.3251395234947
452.3514,2145.994990825515
454.5216,2176.0329789527514
456.6913,2063.9853581436346
458.8603,2102.9483608762803
461.0288,2153.4681989889486
463.1967,2076.741063290425
465.3639,2087.0131230548286
467.5306,2066.7805267888616
469.6967,2041.0394021291158
471.8622,1990.1858560443725
474.0271,2030.315975093028
476.1914,2050.675825931614
478.3551,1985.9114549135156
480.5182,2049.61888788535
482.6807,2103.244130834639
484.8426,2281.7831692527197
487.0039,2570.831967598495
489.1647,2944.636467513039
491.3248,3265.1925849291274
493.4843,3366.596206333168
495.6432,3321.64318555966
497.8015,3155.629342777147
499.9592,3040.8504649377446
502.1163,2819.8023074372886
504.2728,2455.6805952631166
506.4287,2168.5810252045503
508.5839,1798.1492694941135
510.7386,1542.1309786785296
512.8927,1441.0217853230351
515.0461,1394.7173065715651
517.199,1467.963145157837
519.3512,1612.0048898684
521.5029,1834.888114810181
523.6539,2069.408377970056
525.8043,2140.8612189860396
527.9541,2073.2921568020647
530.1033,1911.1466889534622
532.2519,1744.3702922426473
534.3999,1671.85842436058
536.5472,1693.8565255545182
538.694,1929.9100193531467
540.8401,2215.564312346578
542.9856,2427.4647918258433
545.1305,2460.806822926337
547.2748,2352.98574650881
549.4185,2175.1468788259426
551.5615,1983.4855126005696
553.704,1976.5969188040563
555.8458,1986.126348572925
557.987,2162.119033277726
560.1276,2340.770184427769
562.2675,2724.174991911159
564.4069,3202.5286222083087
566.5456,3655.7262145578843
568.6837,3798.2628761732813
570.8212,3413.633677710626
572.958,2692.5336518434287
575.0942,2056.70779710886
577.2299,1602.9010851187595
579.3648,1366.508466917896
581.4992,1321.0248775220298
583.6329,1429.0952382818487
585.766,1596.5144573377947
587.8985,1724.0274285393753
590.0304,1738.479029770946
592.1616,1692.964121676605
594.2922,1590.3275475156515
596.4222,1345.0141336177658
598.5515,1153.4186904093494
600.6802,982.5860148666688
602.8083,821.2608924318156
604.9358,786.5880987210203
607.0626,821.462401137911
609.1888,867.3285592202446
611.3144,1021.6813242911612
613.4393,1115.7154390005198
615.5636,1241.4256357813756
617.6873,1245.1566359096287
619.8103,1219.8031482469414
621.9327,1034.559869203409
624.0544,828.8714829911132
626.1756,638.0326634765443
628.2961,505.1380762374811
630.4159,404.78238047137893
632.5351,413.41023032432713
634.6537,389.3162758945891
636.7716,381.44516314634166
638.8889,387.54153415060864
641.0056,409.35002716397867
643.1216,385.8652765676288
645.237,379.23191264924026
647.3518,294.3445618378446
649.4659,228.44784677015014
651.5793,176.48638713942637
653.6922,140.20480035446963
655.8043,130.6477020592156
657.9159,144.20970649556875
660.0268,124.38542659895757
662.137,145.81947386271713
664.2466,128.80645853633723
666.3556,124.1909894111086
668.4639,97.31767399027376
670.5716,118.58111853516857
672.6786,86.92592833396338
674.785,1.5967074890231743
676.8907,-49.36194076654829
678.9958,-5.905429150749114
681.1002,-48.7886772558013
683.204,-22.066545678699185
685.3072,-21.14340761754829
687.4097,-52.573415825667325
689.5115,-91.0105118337433
691.6127,-62.30811196404284
693.7132,-91.16872334382788
695.8131,-30.09423064232942
697.9123,-30.335607753238946
700.0109,13.056472071113603
702.1089,44.03163863110058
704.2061,100.8393912929314
706.3028,153.9292289825098
708.3987,205.60064961734133
710.4941,224.45314957565097
712.5887,308.1862231796513
714.6827,410.1493625070307
716.7761,574.2420565536104
718.8688,766.4137902137445
720.9608,915.5140426393627
723.0522,1066.6422853182612
725.1429,1124.497980583099
727.233,1176.0305801001196
729.3224,1265.5395242905852
731.4112,1195.8742418154634
733.4993,1027.2841486803245
735.5867,805.118648932008
737.6735,600.2771363445136
739.7596,399.958996640662
741.845,269.7136095405167
743.9298,162.04035076455148
746.014,149.18859333611545
748.0974,138.75770865816048
750.1802,158.29706664175137
752.2624,171.90603581039431
754.3439,223.5839831046378
756.4247,357.98027374597586
758.5048,528.5442707200782
760.5843,801.5253334328099
762.6631,1188.2228160046016
764.7413,1797.3860645406385
766.8188,2551.214413263886
768.8956,3138.907178423453
770.9718,3563.913650756318
773.0473,3543.3330896103926
775.1221,3271.414718694459
777.1962,2984.2577262839804
779.2697,2918.111267940274
781.3426,2966.0744693820834
783.4147,3130.696427147037
785.4862,3208.4762081120316
787.557,3071.4628478469986
789.6271,2598.405349837116
791.6966,1970.4526868529374
793.7654,1360.1038056809757
795.8335,943.2576334032183
797.901,609.3130835006268
799.9678,440.11906002158867
802.0339,350.8744609213827
804.0993,320.37817975410144
806.1641,276.47910656510066
808.2282,200.57612819596397
810.2916,139.66812872348783
812.3544,109.05399021872108
814.4164,46.98259335603507
816.4778,72.8028177192682
818.5385,111.16354242243688
820.5986,295.3136458515437
822.658,535.7520052809559
824.7166,868.1774950319159
826.7747,1395.8389840681557
828.832,1944.9353326716373
830.8886,2344.2153871659393
832.9446,2567.0279744252875
834.9999,2463.321897881762
837.0545,2185.1459352971724
839.1085,1859.4488398001158
841.1618,1553.1793426677286
843.2143,1336.6861565826712
845.2662,1122.9179786958139
847.3175,983.5734927911762
849.368,848.9013714236007
851.4179,781.6502773122029
853.467,665.6688646870934
855.5155,621.7057799618815
857.5633,569.9596628935033
859.6105,478.72914702183516
861.6569,401.2628601871711
863.7027,344.4094254425181
865.7478,308.4674618282552
867.7922,276.33558494067256
869.8359,243.96240729139208
871.8789,283.4965386286767
873.9212,396.63658626117467
875.9629,479.0811546625755
878.0039,633.7288443402176
880.0441,738.3282510106292
882.0837,805.9779640530523
884.1226,832.376565463459
886.1609,913.6226291780422
888.1984,1033.6147208092407
890.2352,1161.9513968332758
892.2714,1215.2312033902272
894.3069,1189.4026750006524
896.3416,1024.3643340328108
898.3757,899.0646909609368
900.4091,832.052246015619
902.4418,819.1254904368125
904.4739,828.1329071439559
906.5052,927.1229708652427
908.5358,901.3941480475423
910.5658,782.9448958665034
912.595,595.323662483841
914.6236,392.7288882318244
916.6515,277.40900748949025
918.6786,173.96245070859186
920.7051,169.23764556680362
922.7309,236.33301800217123
924.756,228.546992260377
926.7804,343.1779902237722
928.8041,366.6744314892421
930.8272,442.48473222190296
932.8495,421.8073049201266
934.8711,429.39055765743615
936.892,362.9828942892873
938.9123,380.1327143772378
940.9318,422.4384138530222
942.9506,388.6483848470489
944.9688,343.7110152653386
946.9862,275.374689127435
949.003,153.5377870157772
951.019,69.59868675906
953.0344,17.205764650610945
955.0491,-14.492603712229538
957.063,73.20195709583459
959.0763,138.18796728120105
961.0888,178.86394631824987
963.1007,264.62841229949663
965.1119,290.92988152880935
967.1223,317.11686766378625
969.1321,295.33788145272774
971.1412,319.641430472775
973.1495,280.6260193476919
975.1572,309.9901495048325
977.1641,367.0823195652938
979.1704,371.3510250502768
981.1759,309.1447578101561
983.1808,345.01200598180367
985.1849,384.10125461065036
987.1884,461.71098529200935
989.1911,578.4396757801878
991.1932,661.7357992123962
993.1945,688.1978229414563
995.1951,673.0242077028288
997.1951,664.363407350007
999.1943,633.9638690062493
1001.1928,645.9740331511803
1003.1906,708.3423339247875
1005.1877,833.367199007318
1007.1841,920.2470489956031
1009.1798,930.9802961528039
1011.1748,887.9653435396212
1013.1691,749.6505849069545
1015.1627,544.9844051260588
1017.1556,316.76518157168175
1019.1477,210.39128616873495
1021.1392,113.71108767448277
1023.1299,73.772952742278
1025.12,109.87524688836675
1027.1093,186.9163348912698
1029.0979,304.444580430767
1031.0859,411.9083453174662
1033.0731,436.60598831754214
1035.0596,397.93586407807925
1037.0454,295.1463228801167
1039.0304,211.38571102534115
1041.0148,81.30237186397426
1042.9985,-0.40535336760876817
1044.9814,-59.38912424605587
1046.9636,-106.9005962985375
1048.9452,-99.7908317548754
1050.926,-26.459824907939037
1052.9061,-20.35657314018863
1054.8855,2.970190499561795
1056.8642,50.871936324660055
1058.8421,127.90010497624462
1060.8194,168.60613658674265
1062.7959,212.74147000957782
1064.7717,292.25754241212053
1066.7469,381.00578883433445
1068.7213,466.98764139360355
1070.695,548.6545283972664
1072.6679,605.1078734827843
1074.6402,589.3990948010833
1076.6117,605.1296044520113
1078.5826,502.35080864143674
1080.5527,389.7141075239342
1082.5221,280.0208962305842
1084.4908,298.822565995315
1086.4587,327.67050525185914
1088.426,382.1660994457234
1090.3925,393.6107307457223
1092.3584,444.65577749901786
1094.3235,426.35261411667125
1096.2879,532.2026105631921
1098.2515,669.7571325395656
1100.2145,831.0675404247486
1102.1767,1006.535187900141
1104.1382,1242.011420336461
1106.099,1530.4475730390877
1108.0591,1764.0949688932924
1110.0185,1957.6049154798693
1111.9771,2060.778702738671
1113.9351,1990.8176010335028
1115.8923,1836.872860120393
1117.8488,1695.1457098471947
1119.8045,1509.8873616930396
1121.7596,1358.1490101856089
1123.7139,1235.5818347537133
1125.6675,1178.23700124469
1127.6204,1217.4156631500573
1129.5726,1169.8689621789617
1131.524,1133.9980278664007
1133.4748,977.003978048695
1135.4248,819.2379192221833
1137.3741,656.6509481131689
1139.3226,547.6941532555811
1141.2705,513.1686166168474
1143.2176,416.47541468746203
1145.164,362.86561882623573
1147.1097,315.69029622722337
1149.0546,262.75051045583314
1150.9989,154.29732192057236
1152.9424,32.83178840245091
1154.8852,-34.69503386049473
1156.8272,-67.33208895854114
1158.7686,-52.77797437857225
1160.7092,-2.630614959911327
1162.6491,39.4125917100755
1164.5883,142.8042743238675
1166.5267,268.74706117981805
1168.4644,406.09357914824614
1170.4014,613.2964524120052
1172.3377,882.4583010930128
1174.2732,1201.3317391802266
1176.2081,1659.7193718380295
1178.1421,2145.823792217494
1180.0755,2702.3475768725057
1182.0082,3081.943280898715
1183.9401,3264.5134323682996
1185.8713,3194.6105285340072
1187.8017,2862.8870340034555
1189.7315,2460.04538143816
1191.6605,2030.7879748707674
1193.5888,1740.0671937334719
1195.5163,1565.4853971505963
1197.4432,1454.7949268457978
1199.3693,1429.6481088878772
1201.2947,1353.9972547976977
1203.2193,1343.6946617996418
1205.1432,1350.7426135781225
1207.0664,1325.7433803806125
1208.9889,1310.849218947158
1210.9106,1324.66237276038
1212.8316,1317.7350721944094
1214.7519,1373.6195343767522
1216.6715,1407.4679632575735
1218.5903,1460.7825490508494
1220.5084,1566.4154678958657
1222.4257,1681.5188813240966
1224.3424,1777.444935202855
1226.2583,1920.845758584268
1228.1735,2055.5734627460224
1230.0879,2214.580139757347
1232.0016,2411.267861131746
1233.9146,2553.1386762369184
1235.8269,2565.494610327889
1237.7384,2570.9376631282976
1239.6492,2441.069808706843
1241.5592,2420.242995422859
1243.4686,2461.4591472249813
1245.3772,2642.6701638594222
1247.285,2832.9779204578062
1249.1922,3044.834265725058
1251.0986,3248.1410200363225
1253.0042,3337.9999733184122
1254.9092,3467.812883016726
1256.8134,3600.081473196664
1258.7169,3765.907433245502
1260.6196,3945.8424165497054
1262.5216,4158.3380388366695
1264.4229,4384.245876375371
1266.3234,4634.917463851412
1268.2232,4731.104292107933
1270.1223,4855.657805638909
1272.0207,4878.079401627279
1273.9183,4876.570428699409
1275.8151,4798.232186700873
1277.7113,4800.915926711545
1279.6067,4858.722851828977
1281.5014,5138.004117141575
1283.3953,5556.010829150518
1285.2885,6112.844042976941
1287.181,6654.2047581818815
1289.0727,7249.943913197942
1290.9637,7615.862379915679
1292.854,7885.410957726216
1294.7435,7883.090369862051
1296.6323,7773.801260701575
1298.5204,7588.144195792282
1300.4077,7391.619662943654
1302.2943,7136.278074083739
1304.1802,6810.119767224392
1306.0653,6337.4950090146895
1307.9497,5861.453998002519
1309.8333,5451.996869360823
1311.7162,5114.02369964801
1313.5984,4900.084510902514
1315.4798,4786.229274022545
1317.3605,4691.657910905466
1319.2405,4590.020295586353
1321.1197,4349.016255183707
1322.9982,4062.395570915831
1324.876,3818.707980510874
1326.753,3481.503181073025
1328.6293,3265.0308315193915
1330.5048,3103.240555952062
1332.3796,2947.1319458228163
1334.2537,2841.604561551033
1336.127,2773.107934084771
1337.9996,2735.8915659560425
1339.8714,2719.9549319657917
1341.7426,2730.7474795560493
1343.6129,2808.368628969297
1345.4826,2800.6677731405525
1347.3515,2809.244276921151
1349.2196,2820.29747715576
1351.087,2852.976682596599
1352.9537,2925.981173792922
1354.8197,3043.56020276422
1356.6849,3239.9629922701733
1358.5493,3407.6387346348647
1360.4131,3616.336589782747
1362.276,3763.6056835619
1364.1383,3824.7951056570364
1365.9998,3694.803908116819
1367.8606,3388.1311047419604
1369.7206,3027.2256723851406
1371.5799,2711.4865540177334
1373.4384,2420.612662338858
1375.2962,2205.552882932773
1377.1533,1878.3060771776136
1379.0096,1539.8710843959889
1380.8652,1207.096725127447
1382.7201,906.7318045128322
1384.5742,671.1251156220151
1386.4275,512.7754424575587
1388.2802,365.93156231077955
1390.132,253.2422473452416
1391.9832,204.9562660651991
1393.8336,131.17238444248596
1395.6832,100.5893663993811
1397.5322,89.2559745464414
1399.3803,56.5209704883373
1401.2278,29.183114937185564
1403.0745,49.04116803989564
1404.9204,40.693889651554855
1406.7656,62.5900391368441
1408.6101,95.07837545350594
1410.4538,118.50765693339054
1412.2968,196.026640957567
1414.139,270.1340837220296
1415.9805,375.928739462508
1417.8213,463.4593597133962
1419.6613,574.1246922498076
1421.5006,721.8234802122615
1423.3391,966.2544610000405
1425.1769,1308.9663647941861
1427.0139,1718.4079121132045
1428.8502,2281.877810385936
1430.6858,2818.774749857149
1432.5206,3272.2473979528304
1434.3547,3523.4943939112236
1436.188,3564.7643442480976
1438.0206,3494.805820244286
1439.8524,3369.4673575329807
1441.6835,3251.347456799319
1443.5139,3196.544585033769
1445.3435,3131.357176713331
1447.1724,3120.0836343495666
1449.0005,3087.472329140468
1450.8279,3049.7216010831917
1452.6545,3072.9297593001775
1454.4804,3117.9450824166506
1456.3056,3129.9158183285426
1458.13,3065.1901837523337
1459.9536,2940.9663641053494
1461.7766,2691.242514153014
1463.5987,2408.2167592510914
1465.4202,2063.9871978429255
1467.2409,1769.3019042896913
1469.0608,1507.7089323126975
1470.88,1241.1563179402374
1472.6984,1023.9920821235146
1474.5161,827.4142334021726
1476.3331,696.6707700759398
1478.1493,590.5596821704021
1479.9648,547.0789527444449
1481.7795,475.5265589513547
1483.5935,408.300472473632
1485.4067,388.84866023851555
1487.2192,381.8690850902458
1489.031,342.50970598457934
1490.842,324.51847805858506
1492.6522,313.84335302423915
1494.4618,303.88227934833685
1496.2705,275.68320235923875
1498.0785,254.69406434649136
1499.8858,219.91280484281015
1501.6924,211.63736083397544
1503.4981,182.46566710664047
1505.3032,148.5956563310874
1507.1075,130.7752593529458
1508.911,125.05240553188924
1510.7138,95.1250229198431
1512.5159,64.49103831821049
1514.3172,62.34837757714831
1516.1178,15.244965901901196
1517.9176,19.078727874237302
1519.7166,-25.152412076523433
1521.515,-15.750529711847776
1523.3126,-32.01744952060835
1525.1094,-14.054838643884978
1526.9055,-35.26404436844405
1528.7008,-31.69627357321133
1530.4954,-54.05238084931261
1532.2893,-36.232904142105326
1534.0824,-57.13784141366614
1535.8747,-16.06682865935636
1537.6663,-11.61893106750631
1539.4572,-0.09305331882660539
1541.2473,15.362015979088028
1543.0367,21.047489148243585
1544.8253,33.11457835702549
1546.6132,88.71449556335028
1548.4003,136.74845239398928
1550.1867,208.1176595885663
1551.9723,273.123326519225
1553.7572,394.26666047693107
1555.5414,506.7488660214194
1557.3247,681.3211437697619
1559.1074,885.5846892715426
1560.8893,1059.4406912631384
1562.6705,1230.2903296250815
1564.4509,1395.7347736435022
1566.2305,1487.7251803016252
1568.0094,1575.61269262533
1569.7876,1583.5484387632487
1571.565,1592.3835311078901
1573.3417,1582.5690662162751
1575.1176,1614.8561247215976
1576.8928,1609.3957714313574
1578.6672,1646.639055004497
1580.4409,1667.8870080060015
1582.2138,1698.0906465344651
1583.986,1783.000970009617
1585.7575,1889.8689608702825
1587.5282,1991.9955837252792
1589.2981,2121.1317842847357
1591.0673,2250.828488338818
1592.8358,2346.9866004663827
1594.6035,2490.3070027380018
1596.3704,2589.3905537543833
1598.1366,2699.58808721317
1599.9021,2786.350410918102
1601.6668,2896.7783056770386
1603.4308,3040.722524434339
1605.194,3203.1337911665833
1606.9564,3426.9127994431265
1608.7182,3713.7602108019883
1610.4791,4015.476652512063
1612.2394,4367.462714704643
1613.9988,4715.3189473562625
1615.7576,5060.795856768823
1617.5156,5291.343902091043
1619.2728,5433.263491863688
1621.0293,5397.104981714082
1622.785,5187.8186729369245
1624.54,4874.10481285586
1626.2942,4534.113596916356
1628.0477,4098.9951718228285
1629.8005,3739.1996389385667
1631.5525,3390.3270586369017
1633.3037,3110.5274538991725
1635.0542,2889.9008138034505
1636.804,2684.3470963225336
1638.553,2553.9662305302145
1640.3013,2491.808118656816
1642.0488,2458.5726373929974
1643.7955,2512.409638511346
1645.5416,2553.7689491987185
1647.2868,2655.5003715178827
1649.0313,2751.953681993915
1650.7751,2930.1786305968935
1652.5181,3084.2249397773603
1654.2604,3258.642302684073
1656.0019,3489.880381623544
1657.7427,3742.4888063158596
1659.4828,4019.8671715823075
1661.222,4227.365034819284
1662.9606,4240.831913224518
1664.6984,4060.6672817220942
1666.4354,3666.1205728277782
1668.1717,3117.791178450663
1669.9072,2585.9284538386382
1671.642,2095.881723061688
1673.3761,1713.6002843305096
1675.1094,1413.833414896987
1676.8419,1180.7803748770048
1678.5737,971.5404102481125
1680.3048,834.9627551800622
1682.0351,722.296634127199
1683.7646,600.9912631942457
1685.4934,550.8958512629611
1687.2215,466.6096012051921
1688.9488,415.0317103838297
1690.6754,390.8113714956703
1692.4012,334.0477730871935
1694.1263,314.9400997967696
1695.8506,283.28753292228976
1697.5742,259.98925061224827
1699.297,204.44442818226526
1701.0191,182.25223834806638
1702.7404,165.1118517809373
1704.461,155.72243732964307
1706.1808,123.53316219183307
1707.8999,135.99319200793298
1709.6182,105.95169118303829
1711.3358,99.80782276231503
1713.0527,81.91074873141315
1714.7688,56.15963007790651
1716.4841,59.65362697026285
1718.1987,74.44189901535674
1719.9126,63.57360522352565
1721.6257,60.54790386069271
1723.338,67.06395255704365
1725.0496,54.52090833728835
1726.7605,48.967927555497226
1728.4706,52.30416602053492
1730.18,41.92877905158548
1731.8886,45.89092144479491
1733.5964,41.789747577020535
1735.3036,51.52441136621428
1737.0099,40.294066312430004
1738.7156,31.19786540047926
1740.4204,0.33496121223470254
1742.1246,1.4545060175923936
1743.8279,0.15565208309999434
1745.5306,-12.512448339238745
1747.2325,-0.40064299897494493
1748.9336,-18.259654646301442
1750.634,-14.540202028989825
1752.3336,-24.392821480859766
1754.0325,-22.967904079117943
1755.7307,-18.365597216683454
1757.4281,-6.485818837117222
1759.1247,-2.178303411664274
1760.8206,7.05727938175778
1762.5158,5.771281626481141
1764.2102,13.714055335264675
1765.9039,11.93595246315499
1767.5968,2.7373248280591724
1769.289,7.3185241285282245
1770.9804,-4.320097964257911
1772.6711,11.67181014769767
1774.361,6.944643220170292
1776.0502,18.248795892217913
1777.7386,21.784662733452024
1779.4263,33.75263813100082
1781.1132,40.55311625414379
1782.7994,31.83649093463646
1784.4849,25.90315559870396
1786.1696,31.303503354207805
1787.8535,46.68792704997577
1789.5367,37.50681922180593
1791.2192,56.460571938614976
1792.9009,40.79957689425419
1794.5818,39.52422521797098
1796.2621,45.03490763101672
1797.9415,55.38201445940285
1799.6202,58.165935578789686
1801.2982,71.43706031101829
1802.9755,51.79577739626893
1804.6519,70.0924748603561
1806.3277,53.72754021113542
1808.0027,53.2013602555412
1809.6769,64.2143212632327
1811.3504,68.01680897185679
1813.0231,74.10920847691978
1814.6951,67.94190419375809
1816.3664,90.51527979661978
1818.0369,85.72971828033269
1819.7067,96.2356017345719
1821.3757,85.58331139171605
1823.044,106.1732275217887
1824.7115,94.45572953898318
1826.3783,91.78119579576241
1828.0443,112.90000370003327
1829.7096,87.81252974189192
1831.3741,109.3691492824355
1833.0379,98.87023680463699
1834.701,125.51616569777843
1836.3633,112.20730836244184
1838.0248,114.04403594404812
1839.6856,130.1767184659475
1841.3457,134.10572481105237
1843.005,137.43142256050805
1844.6636,145.45417795440426
1846.3214,137.72435585851872
1847.9785,150.59231968408858
1849.6349,137.10843146511024
1851.2904,158.97305172965844
1852.9453,168.53653963472516
1854.5994,147.1992527475727
1856.2528,172.91154695009982
1857.9054,165.72377665221347
1859.5572,162.58629453470576
1861.2083,186.74945162113363
1862.8587,181.31359730919257
1864.5084,175.47907912908386
1866.1572,173.8962427978763
1867.8054,170.11543227784887
1869.4528,183.1869897923193
1871.0994,176.41125586345242
1872.7453,176.1885691815437
1874.3905,176.11926667277794
1876.0349,189.20368350145736
1877.6786,202.89215307069162
1879.3215,192.93500689155553
1880.9637,189.63257444620376
1882.6051,199.08518328744003
1884.2458,202.3431590717446
1885.8858,207.25682546474673
1887.525,197.87650410864353
1889.1634,184.0525145730653
1890.8011,181.43517444887948
1892.4381,187.72479948643013
1894.0743,193.07170362171246
1895.7098,202.22619891347313
1897.3446,204.48859548974406
1898.9786,185.05920145629761
1900.6118,204.68832287401847
1902.2443,171.52626395320203
1903.8761,193.67332685725978
1905.5071,192.87981203434265
1907.1374,191.846017995867
1908.7669,196.97224132445353
1910.3957,217.55877668426365
1912.0237,198.75591676973636
1913.651,210.0639520997256
1915.2776,212.33317120552647
1916.9034,198.91386051779546
1918.5285,196.65630434385912
1920.1528,185.7107850019038
1921.7764,196.47758284355587
1923.3992,194.85697636333225
1925.0213,179.09924209097608
1926.6427,183.90465460766382
1928.2633,182.2234867035777
1929.8832,191.50600932985571
1931.5023,189.85249161540287
1933.1207,191.91320077406272
1934.7383,176.83840212115638
1936.3552,184.8783590528733
1937.9714,181.18333319702015
1939.5868,185.30358433262063
1941.2015,172.0393704268663
1942.8154,168.19094759391373
1944.4286,168.65857022752607
1946.041,166.14249103955854
1947.6528,170.79296105528147
1949.2637,155.7102296385433
1950.8739,151.09454444526318
1952.4834,144.3461515742615
1954.0921,159.21529561341276
1955.7001,157.40221970713264
1957.3074,158.00716540768371
1958.9139,141.78037269330798
1960.5197,142.87207996217785
1962.1247,143.48252419466235
1963.729,145.21194094241218
1965.3325,138.26056432225323
1966.9353,168.62862699889365
1968.5374,148.36636025443795
1970.1387,123.67399368470387
1971.7393,131.10175540184946
1973.3392,132.49987228129385
1974.9383,145.36856988744012
1976.5366,136.95807245969127
1978.1342,142.51860278376807
1979.7311,147.5003822758108
1981.3273,132.80363092677362
1982.9227,148.17856725261117
1984.5173,134.1254084412417
1986.1112,124.44437019879797
1987.7044,133.63566689016125
1989.2968,127.74951163577043
1990.8885,130.7861162197073
1992.4795,128.39569114856113
1994.0697,137.2284456210591
1995.6592,133.78458755197425
1997.2479,135.06432348379622
1998.8359,130.31785862117158
2000.4232,130.5453968181032
2002.0097,138.3971406254168
2003.5955,116.12329128848478
2005.1805,125.4740486687092
2006.7648,132.14961146626092
2008.3484,116.70017712656954
2009.9312,134.4259417735716
2011.5133,111.77710036420513
2013.0946,132.05384651114673
2014.6752,130.55637270930492
2016.2551,122.48487013305066
2017.8342,126.63952865119154
2019.4126,133.92053690768967
2020.9902,126.8780822801125
2022.5672,139.61235080682331
2024.1433,132.47352725740507
2025.7188,134.91179500531712
2027.2935,130.2273360992856
2028.8674,130.9703312389188
2030.4406,120.89095982155368
2032.0131,109.33939993482318
2033.5849,104.76582845745202
2035.1559,118.17042117477195
2036.7261,118.10335282445794
2038.2957,122.71479696248139
2039.8645,112.05492596378144
2041.4325,126.37391097614909
2042.9998,124.22192202682459
2044.5664,118.29912787931403
2046.1323,124.85569605490309
2047.6974,132.24179289188783
2049.2617,121.80758348000768
2050.8254,114.20323158658607
2052.3883,140.12889976086967
2053.9504,122.08474941007444
2055.5118,123.77094054012787
2057.0725,116.88763193611135
2058.6325,109.93498114539761
2060.1917,124.31314454648464
2061.7502,131.92227741852093
2063.3079,120.56253379752593
2064.8649,126.28406640029652
2066.4212,122.38702673800503
2067.9767,124.67156505898424
2069.5315,125.48783038769784
2071.0856,115.58597050189451
2072.6389,105.61613192444497
2074.1915,95.07846002236283
2075.7433,100.9230991064992
2077.2945,117.05019253692285
2078.8448,103.7098826644708
2080.3945,104.25231066947913
2081.9434,104.82761669518527
2083.4916,113.48593984230365
2085.039,93.47741816327425
2086.5857,80.60218857567861
2088.1317,102.7103870623248
2089.677,91.00214880000044
2091.2215,95.32760793838906
2092.7652,100.03689771715472
2094.3083,98.18015042268621
2095.8506,100.60749734100341
2097.3921,112.16906877632573
2098.933,101.01499402679974
2100.4731,101.9454012688825
2102.0124,115.2104176688797
2103.5511,108.71016937364539
2105.089,111.09478137792962
2106.6261,113.7643775893821
2108.1626,109.86908080470516
2109.6983,103.35901268295765
2111.2332,111.43429378450833
2112.7675,99.74504363613732
2114.301,118.89138065028146
2115.8337,107.32342224192803
2117.3657,114.04128463715256
2118.897,106.84508298879587
2120.4276,101.1849313092871
2121.9575,110.91094254260429
2123.4866,111.02322862087703
2125.0149,105.97190036712686
2126.5426,98.90706749414312
2128.0695,93.07883865499753
2129.5956,109.23732151369154
2131.1211,104.73262280343897
2132.6458,103.2648481650806
2134.1698,101.48410219213224
2135.693,109.990488445462
2137.2155,106.38410947109901
2138.7373,105.01506671516813
2140.2584,103.83346055995389
2141.7787,100.33939033759134
2143.2983,104.8829543418808
2144.8171,105.2142498632295
2146.3353,84.38337314321598
2147.8527,96.84041937127722
2149.3693,85.48548289301766
2150.8853,93.81865708563919
2152.4005,83.19003447148884
2153.9149,98.94970663472895
2155.4287,95.44776432762296
2156.9417,90.28429731293795
2158.454,87.05939439896497
2159.9655,95.22314349115254
2161.4764,94.02563162435717
2162.9865,95.76694488120302
2164.4958,92.69716840406
2166.0045,91.51638637762949
2167.5124,85.57468205964005
2169.0195,95.52213779265799
2170.526,98.00883506350283
2172.0317,92.13485440377463
2173.5367,95.50027536498555
2175.0409,91.50517657730052
2176.5445,98.19963571588323
2178.0473,98.53372954084557
2179.5494,93.90753383030483
2181.0507,99.97112337704107
2182.5513,92.22457203476029
2184.0512,97.51795265745727
2185.5504,89.55133717688204
2187.0488,88.77479654960644
2188.5465,80.83840083668974
2190.0435,66.59221921144422
2191.5397,83.08632003879939
2193.0353,95.62077101776276
2194.5301,76.64563901647966
2196.0241,75.61098994688791
2197.5175,93.26688895446978
2199.0101,77.96340042859742
2200.502,83.95058782597516
2201.9931,81.22851382367367
2203.4835,77.44724025925848
2204.9733,70.00682815800974
2206.4622,71.60733777073665
2207.9505,69.24882864818005
2209.438,75.6813596250081
2210.9248,63.80498884340227
2212.4109,67.81977368873072
2213.8962,67.37577090831269
2215.3809,67.42303657127036
2216.8648,75.36162607296933
2218.3479,66.24159413454572
2219.8304,69.51299472352002
2221.3121,69.42588114499813
2222.7931,61.430306008956904
2224.2733,64.87632123111507
2225.7529,61.413978112889936
2227.2317,57.093327306935635
2228.7098,50.714418851767505
2230.1872,60.5773022149674
2231.6638,58.882026356974166
2233.1397,62.5786396324545
2234.6149,55.117189807255954
2236.0894,51.24772402143981
2237.5632,52.270288863895985
2239.0362,51.984930411037794
2240.5085,49.841694216577025
2241.9801,43.74062531437676
2243.4509,51.53176823988315
2244.921,49.765167091136846
2246.3904,49.74086545086152
2247.8591,60.858906404129584
2249.3271,39.96933253860652
2250.7943,43.57218583336862
2252.2608,49.167507867800396
2253.7266,35.60533978556532
2255.1917,42.98572223865199
2256.656,51.90869552299637
2258.1197,38.87429950467845
2259.5826,41.28257353069148
2261.0447,44.933556559286444
2262.5062,36.527287135888855
2263.9669,49.16380335658937
2265.4269,38.84314295220656
2266.8862,47.41534316192178
2268.3448,38.98044083648574
2269.8026,40.738472352496046
2271.2598,45.439473696746745
2272.7162,37.23348044864724
2274.1719,46.27052773321225
2275.6268,35.050650303121984
2277.0811,39.67388244835115
2278.5346,47.14025810836915
2279.9874,46.0998108259073
2281.4395,46.45257367229465
2282.8908,42.99857925786341
2284.3414,51.0878597284202
2285.7914,58.120446799785896
2287.2406,53.046371676903846
2288.689,52.46566498351308
2290.1368,48.828356812891116
2291.5838,40.48447673365877
2293.0302,45.484053826154195
2294.4758,47.877116765870596
2295.9206,40.363693773461364
2297.3648,42.193812590808875
2298.8082,46.36750055615971
2300.251,41.33478458582249
2301.693,46.245691132432285
2303.1343,44.75024623527702
2304.5748,44.598475471188976
2306.0147,49.840403969498084
2307.4538,48.126056413549804
2308.8922,43.95545698828687
2310.3299,46.62862939739216
2311.7669,49.74559690499541
2313.2031,42.90638230894001
2314.6387,47.811007909614545
2316.0735,37.60949557834306
2317.5076,42.80186670834087
2318.941,38.688142316728545
2320.3737,42.01834299260827
2321.8056,36.39248893820104
2323.2369,53.360599935545
2324.6674,58.02269540275347
2326.0972,49.828794224334615
2327.5263,40.87891470456998
2328.9547,50.4730746494547
2330.3823,49.461291456193976
2331.8092,43.543582017262906
2333.2355,47.81996273052437
2334.661,41.240449558406
2336.0858,50.45505798513659
2337.5098,48.613803082539334
2338.9332,49.86669941788796
2340.3558,44.76376107231749
2341.7778,52.05500162829685
2343.199,40.940434220656925
2344.6195,43.470071463678096
2346.0393,55.09392556223884
2347.4583,46.66200828651745
2348.8767,45.974330855753806
2350.2943,48.43090402256735
2351.7113,54.38173807983617
2353.1275,49.22684283612898
2354.543,48.866227556198055
2355.9578,52.04990101252906
2357.3718,49.82787148894499
2358.7852,47.650146748771476
2360.1978,54.01673405705583
2361.6098,53.627640202345674
2363.021,52.832871433021865
2364.4315,54.8824334611902
2365.8413,46.27633147062852
2367.2504,48.11457009629157
2368.6587,44.047153510370435
2370.0664,53.774085403912295
2371.4733,51.84536902749255
2372.8795,60.36100709394668
2374.285,51.521001797655344
2375.6899,50.475354729390574
2377.0939,44.22406696471535
2378.4973,44.51713907444014
2379.9,44.95457118713466
2381.3019,49.63636298619804
2382.7032,46.76251370548334
2384.1037,52.03302208248124
2385.5035,47.54788638705713
2386.9027,45.357104368746604
2388.3011,43.410673301607176
2389.6987,50.80859000612463
2391.0957,55.00085086867921
2392.492,41.43745176756465
2393.8876,36.41838803106748
2395.2824,46.14365457309907
2396.6765,31.313245943388324
2398.07,28.427156230226956
2399.4627,33.63537920877559
2400.8547,31.83790836992273
2402.246,37.68473686820414
2403.6366,36.32585753977662
2405.0265,40.06126284395066
2406.4156,39.240944876779395
2407.8041,41.364895333704794
2409.1918,35.93310551775903
2410.5789,35.795566318327246
2411.9652,38.552268265465045
2413.3508,27.503201531272452
2414.7358,25.148355902327467
2416.12,26.287720890176388
2417.5035,37.371285754882706
2418.8863,49.14903949363327
2420.2684,41.970970729901524
2421.6497,33.48706759567233
2423.0304,30.997317803219744
2424.4104,35.50170872994852
2425.7896,34.05022744329085
2427.1682,40.39286065565955
2428.546,33.77959473896658
2429.9232,37.110415661196384
2431.2996,43.03530905253774
2432.6753,42.004260172075874
2434.0503,37.26725384854353
2435.4246,29.47427449063059
2436.7982,31.225306134355378
2438.1711,37.47033252099391
2439.5433,35.10933707956963
2440.9148,37.39230286440295
2442.2856,36.01921257872186
2443.6557,25.190048551830955
2445.025,27.204792752843105
2446.3937,35.963426898971534
2447.7617,31.215932435381546
2449.1289,36.9622904476048
2450.4955,46.30248170901416
2451.8613,38.68648662335988
2453.2265,32.96428513136823
2454.5909,33.63585678690049
2455.9546,37.15118081417609
2457.3177,25.860236101056785
2458.68,39.363001163892136
2460.0416,42.409454260430266
2461.4025,38.64957325478929
2462.7627,40.18333558699271
2464.1222,42.91071831056877
2465.4811,44.13169807721306
2466.8392,36.14625110951454
2468.1966,47.35435318874579
2469.5533,44.80597973471686
2470.9093,50.55110569369526
2472.2645,54.18970556388854
2473.6191,45.92175333799378
2474.973,50.74722246681131
2476.3262,49.81608594192494
2477.6787,54.5283162474459
2479.0305,53.68388536932525
2480.3816,38.53276474823156
2481.7319,51.37492528799453
2483.0816,50.56033750711708
2484.4306,50.038971410352815
2485.7789,51.760796496852436
2487.1264,44.77578176537713
2488.4733,48.13389569708022
2489.8195,53.08510632535831
2491.165,55.27938120226838
2492.5097,44.16668734901748
2493.8538,45.5969912340189
2495.1972,43.420258884019404
2496.5398,40.53645586979633
2497.8818,45.59554732792469
2499.2231,44.497497989615
2500.5637,47.192272130123
2501.9035,38.429833579729575
2503.2427,42.16014569679339
2504.5812,48.63317145537519
2505.919,52.24887340793464
2507.256,53.0072136205996
2508.5924,45.05815363701015
2509.9281,46.301654470734775
2511.2631,52.48767668476046
2512.5974,52.716180379058414
2513.9309,48.337125128722846
2515.2638,45.60046998168707
2516.596,55.65617350251364
2517.9275,60.2541937997604
2519.2583,46.79448842542365
2520.5884,55.07701432895851
2521.9178,55.05172799187483
2523.2465,51.86858534491307
2524.5745,57.22754176829653
2525.9018,48.878552123562145
2527.2284,42.921570699972904
2528.5543,45.70655129800639
2529.8796,51.43344728892464
2531.2041,53.102211586924795
2532.5279,53.41279659186955
2533.851,68.6651541726003
2535.1735,63.10923566383053
2536.4952,54.79499171362261
2537.8163,52.47237233894725
2539.1366,58.04132700882565
2540.4562,55.451804667555166
2541.7752,70.8037536790207
2543.0935,56.897121852589294
2544.411,66.93185628959066
2545.7279,63.257903522383344
2547.0441,70.5252094140078
2548.3596,70.0337191949252
2549.6744,72.93337739034541
2550.9885,64.82412782514143
2552.3019,63.30591359485254
2553.6146,72.62867714677793
2554.9266,69.79236029515732
2556.2379,61.94690412794421
2557.5485,66.99224903516892
2558.8585,67.92833478739249
2560.1677,73.30510048525423
2561.4762,76.57248455011063
2562.7841,68.98042467026744
2564.0913,78.02885776830567
2565.3977,76.36772007700245
2566.7035,70.59694704884669
2568.0086,70.1664733726501
2569.313,78.22623303125556
2570.6167,79.97615930584107
2571.9197,86.71618469532257
2573.222,83.39624089885467
2574.5236,86.96625874843039
2575.8246,79.4261682420804
2577.1248,89.42589850817274
2578.4244,88.41537788081428
2579.7232,91.59453379985314
2581.0214,95.66329282098388
2582.3189,93.87158058395607
2583.6157,89.71932177188671
2584.9118,96.8064401291773
2586.2072,88.132858503036
2587.5019,94.19849877260708
2588.7959,98.15328193570576
2590.0893,101.64712804816293
2591.3819,109.07995618427697
2592.6739,107.10168440187499
2593.9652,104.66222966798523
2595.2557,104.06150787861918
2596.5456,108.24943388316603
2597.8348,107.4759214904002
2599.1234,112.84088342660232
2600.4112,111.2442313432939
2601.6983,114.68587576358823
2602.9848,120.81572609815623
2604.2705,115.63369061081062
2605.5556,119.63967635720712
2606.84,117.43358923666506
2608.1237,124.56533395210727
2609.4067,117.9348140321207
2610.689,109.49193175963967
2611.9707,121.28658823825037
2613.2516,115.8186834766201
2614.5319,107.18811627055061
2615.8115,105.44478425765703
2617.0903,109.78858400367346
2618.3685,109.06941101988639
2619.6461,115.68715971969652
2620.9229,111.74172342581028
2622.199,116.98299430406303
2623.4745,117.11086340287306
2624.7493,111.5752206008292
2626.0234,115.02595460541124
2627.2968,103.91295300834793
2628.5695,107.88610225110847
2629.8415,122.59528773603301
2631.1128,105.89039378660073
2632.3835,106.22130350033842
2633.6535,97.38789891586896
2634.9228,110.99006100960253
2636.1914,115.57766978407028
2637.4593,109.10060413190297
2638.7265,109.35874178995482
2639.9931,113.75195940407423
2641.259,99.5301325265225
2642.5242,109.34313557204155
2643.7887,104.74084196007243
2645.0525,107.823124016625
2646.3156,104.5898530203009
2647.5781,100.34089917147048
2648.8398,93.77613162460591
2650.1009,101.54541853077069
2651.3613,99.9986271032675
2652.6211,102.23562353994521
2653.8801,104.55627303866686
2655.1385,102.51043977493907
2656.3961,103.79798687870618
2657.6531,107.1187764548082
2658.9094,103.92266957010565
2660.1651,113.30952622027166
2661.42,105.32920536175288
2662.6743,119.78156481790086
2663.9279,116.81646135877531
2665.1808,112.13375055662038
2666.433,114.83328681551643
2667.6846,118.1649234182064
2668.9354,124.12851249910057
2670.1856,127.07390501096017
2671.4351,131.00095066526183
2672.6839,131.60949790274287
2673.9321,131.14939385413163
2675.1795,140.37048433406153
2676.4263,135.22261384567253
2677.6724,138.20562548839928
2678.9179,140.31936100945097
2680.1626,141.06366077398116
2681.4067,135.53836374394962
2682.6501,136.7933074706806
2683.8928,140.22832815011486
2685.1348,128.89326061026077
2686.3761,136.28793827684308
2687.6168,126.26219328665445
2688.8568,127.8158564136088
2690.0961,124.44875716899821
2691.3348,125.56072378595638
2692.5727,115.50158325312975
2693.81,111.17116130355794
2695.0466,120.36928251526467
2696.2826,121.79577035456248
2697.5178,109.90044708407095
2698.7524,115.03313374845209
2699.9863,122.39365029336409
2701.2195,124.18181551413386
2702.452,123.89744698215236
2703.6839,126.99036102699267
2704.9151,134.810372739253
2706.1456,141.85729593962878
2707.3755,137.73094310071144
2708.6046,150.68112527652
2709.8331,160.05765214376413
2711.0609,163.7603318723427
2712.2881,168.23897103157765
2713.5145,183.89337455318798
2714.7403,193.72334568650365
2715.9654,192.72868584192094
2717.1899,200.55919449260278
2718.4136,214.86466918442568
2719.6367,226.79490545767442
2720.8591,238.44969670398706
2722.0809,245.92883404705265
2723.3019,261.8321062260638
2724.5223,270.5092995209249
2725.7421,267.0101975932199
2726.9611,270.33458139943934
2728.1795,271.88222922597214
2729.3972,264.70291665586166
2730.6142,246.14641655332957
2731.8306,238.7624991355683
2733.0462,218.25093215830668
2734.2612,205.31148098964866
2735.4756,190.14390881518892
2736.6892,173.6479767674075
2737.9022,169.12344407734577
2739.1145,150.12006823956568
2740.3262,131.3876050573947
2741.5372,129.97580883295984
2742.7475,114.78443255451253
2743.9571,104.56322791054595
2745.1661,98.46194544170942
2746.3744,84.33033464302014
2747.582,70.51814402487605
2748.7889,73.47512125437197
2749.9952,62.25101329342169
2751.2008,53.545566369187895
2752.4057,57.30852608632324
2753.61,43.48963751402516
2754.8136,49.18864514840618
2756.0165,45.00529305068267
2757.2188,43.539324790185105
2758.4204,35.390483486191215
2759.6213,34.558511822585956
2760.8215,37.39315212934969
2762.0211,32.39414639087829
2763.22,25.81123621763595
2764.4182,28.94416289614594
2765.6158,24.94266745481957
2766.8127,24.60649063262656
2768.009,20.485372919109977
2769.2045,14.729054557748896
2770.3994,6.387275587168574
2771.5936,2.109775898703674
2772.7872,0.0462953198169771
2773.9801,-1.2534263431267618
2775.1723,-9.139649746252871
2776.3639,-4.7126230239578035
2777.5548,-8.672503005537237
2778.745,-13.669399441183486
2779.9346,-12.303335442783691
2781.1235,-10.524197564925316
2782.3117,-16.831749451874543
2783.4992,-19.62564961116425
2784.6861,-13.80538840115048
2785.8723,-7.670260119949717
2787.0579,-8.719421149848472
2788.2428,-7.3519512472350925
2789.427,-3.5168430614809267
2790.6106,-7.16301579596518
2791.7935,-3.0393535208042977
2792.9757,4.255331252411793
2794.1573,10.472256375234906
2795.3382,21.662639656663373
2796.5184,27.977698800973485
2797.698,37.16865129581504
2798.8769,42.53671434906164
2800.0551,49.48310479689985
2801.2327,57.50903905015002
2802.4096,81.11573302480087
2803.5859,86.10440206175133
2804.7615,91.42626069074277
2805.9364,116.33252258047344
2807.1106,135.22440048537874
2808.2842,151.65310599656937
2809.4572,184.0198493529124
2810.6294,200.57583927674398
2811.801,240.57228265020262
2812.972,266.51038434966904
2814.1423,303.5413468458006
2815.3119,351.16636994415194
2816.4808,388.7366504148637
2817.6491,443.65338151641356
2818.8167,491.96775261991263
2819.9837,530.3809486599391
2821.15,589.9441496513936
2822.3157,645.1085303053668
2823.4807,697.0252594335095
2824.645,748.5454993963864
2825.8086,810.72040558431
2826.9716,870.2011259021382
2828.134,906.3388001475254
2829.2957,948.7845594161147
2830.4567,996.3395257401618
2831.617,1004.504811664077
2832.7767,1021.9815197688762
2833.9358,1021.6207425905266
2835.0941,1012.1235624451804
2836.2519,989.7910514327837
2837.4089,970.6742715320456
2838.5653,956.9242748237665
2839.7211,932.1921036820034
2840.8761,930.078790911572
2842.0306,949.5353599953667
2843.1843,947.6128251154946
2844.3374,977.3621909587092
2845.4899,1018.3344527356367
2846.6417,1060.0305958832816
2847.7928,1117.8515956553042
2848.9433,1168.648416705059
2850.0931,1222.4720125073848
2851.2422,1291.323324850636
2852.3907,1354.1032832984479
2853.5385,1398.9128045012217
2854.6857,1439.1527915683268
2855.8323,1492.9741336200045
2856.9781,1532.377705384969
2858.1233,1592.6643666621924
2859.2679,1642.2849619268707
2860.4118,1684.0403197275564
2861.555,1722.3312521899522
2862.6976,1764.6085545993578
2863.8395,1817.7730050177613
2864.9808,1833.8253638610645
2866.1214,1855.3163733674414
2867.2614,1877.8467574368108
2868.4007,1899.1172214159296
2869.5393,1899.0784518730868
2870.6773,1911.0311163853999
2871.8146,1939.6758635392018
2872.9513,1916.713322810515
2874.0874,1911.344104278603
2875.2227,1918.9187988555977
2876.3574,1886.8379783401897
2877.4915,1860.2521953418814
2878.6249,1827.8119836017956
2879.7577,1808.6678582585346
2880.8898,1794.1703161725804
2882.0212,1794.0698361177374
2883.152,1772.9168789261068
2884.2821,1758.311887489093
2885.4116,1742.4552869689296
2886.5405,1750.4974849447337
2887.6686,1749.0388715710687
2888.7962,1760.029819497524
2889.923,1772.9706838833013
2891.0493,1787.761802287304
2892.1748,1786.9034945387284
2893.2997,1786.6960625891556
2894.424,1806.8397905211305
2895.5476,1824.8849445502374
2896.6706,1820.081772823664
2897.7929,1854.7805052397484
2898.9145,1886.631353496011
2900.0355,1909.3845107421685
2901.1559,1945.0901512616226
2902.2756,1972.198430243932
2903.3946,2000.309483427753
2904.513,2012.973426829758
2905.6308,2053.0403564635253
2906.7479,2067.960348212899
2907.8643,2108.733457431321
2908.9801,2100.809718792629
2910.0953,2118.989145883327
2911.2098,2111.0717312818215
2912.3236,2100.007446376629
2913.4368,2100.246241445549
2914.5494,2092.788045766305
2915.6613,2057.4827676141613
2916.7725,2010.080294336501
2917.8831,1986.7304927058785
2918.9931,1964.9332093940477
2920.1024,1936.9882712054564
2921.211,1933.49548529522
2922.319,1902.854639448574
2923.4264,1895.1655021157962
2924.5331,1885.2278227186198
2925.6391,1881.1913317271242
2926.7445,1882.2057407591087
2927.8493,1881.370742620462
2928.9534,1895.4360112950135
2930.0569,1890.7012019528865
2931.1597,1898.115950809844
2932.2619,1909.1298751746372
2933.3634,1915.49257337486
2934.4643,1922.4536246468047
2935.5645,1921.462589071841
2936.6641,1886.9690075068008
2937.763,1872.9724015938916
2938.8613,1837.92227410563
2939.959,1804.9681090848098
2941.056,1747.6093721950015
2942.1523,1686.2955110500948
2943.248,1630.2759557878849
2944.3431,1521.8001196832147
2945.4375,1432.8173997081649
2946.5313,1347.9771776168172
2947.6244,1257.0788208350791
2948.7169,1168.9716833090858
2949.8087,1080.4051064141854
2950.8999,975.2284198360084
2951.9904,907.8409424561356
2953.0803,844.991983403863
2954.1696,788.3808427300776
2955.2582,739.2068120357468
2956.3462,683.4691750380298
2957.4335,652.0672080620175
2958.5202,626.2501805981103
2959.6062,596.867355616036
2960.6916,577.0179898230213
2961.7764,557.6013339576192
2962.8605,541.9666329882034
2963.9439,529.0631263071343
2965.0267,514.2400478871061
2966.1089,525.596626410182
2967.1905,523.1820854160253
2968.2714,523.0956431883321
2969.3516,524.286512778979
2970.4312,526.5539020088855
2971.5102,540.2470134561064
2972.5885,537.6650444331582
2973.6662,547.2571868500875
2974.7432,558.1226272402907
2975.8196,543.7105466645929
2976.8954,549.5701206025935
2977.9705,537.7505190967862
2979.045,533.2509066939638
2980.1188,529.870442563414
2981.192,514.5082805419163
2982.2645,489.01356916754514
2983.3364,486.53545183329345
2984.4077,460.3730670420184
2985.4783,438.67554843122286
2986.5483,416.74202503467893
2987.6177,381.8216214994038
2988.6864,353.7634583049949
2989.7545,321.6666521128331
2990.8219,298.4803160466653
2991.8887,271.60356001357206
2992.9548,245.83549093583133
2994.0204,222.97521301968504
2995.0852,186.77182801302092
2996.1495,162.9744354339744
2997.2131,136.9321329329631
2998.276,119.44401653066035
2999.3383,108.05918087841832
3000.4,88.62671943314928
3001.4611,77.94572457117346
3002.5215,63.015287782544476
3003.5812,51.484499777858616
3004.6404,41.05245063755973
3005.6989,30.168229927246728
3006.7567,26.980926801994144
3007.8139,22.239630115194302
3008.8705,6.1934284504303605
3009.9264,7.941410168889377
3010.9818,0.13266356982427396
3012.0364,-3.533723126925622
3013.0905,-5.708661702847451
3014.1439,-5.793028637534405
3015.1966,-7.537643381049463
3016.2487,-11.59326751110001
3017.3002,-9.110587304336207
3018.3511,-2.740173220665895
3019.4013,-10.382504705229962
3020.4509,-5.3880338288389
3021.4998,-7.157108941081674
3022.5481,-10.640024565089504
3023.5958,-8.387003724475449
3024.6428,-1.9981631490075529
3025.6892,-3.7235357822865467
3026.735,1.4868653937361955
3027.7802,14.683064595231656
3028.8247,1.7650860235020218
3029.8685,6.28295373301944
3030.9118,19.486691760605197
3031.9544,17.22632408025123
3032.9963,26.10187447108268
3034.0376,30.813366539961862
3035.0783,40.71082363273206
3036.1184,40.99426878710324
3037.1578,50.41372463367759
3038.1966,53.06921339311458
3039.2348,57.210756781936595
3040.2723,58.43837598597389
3041.3092,57.20209161894951
3042.3455,63.05192371020286
3043.3811,65.33789171705263
3044.4161,67.31001446629847
3045.4505,65.71831013136119
3046.4842,66.91279621256166
3047.5173,71.99348955303788
3048.5498,69.6104063268001
3049.5816,76.61356198792373
3050.6128,71.55297129438043
3051.6434,72.82864823800634
3052.6734,74.69060609510808
3053.7027,73.28885741370595
3054.7314,75.62341399491402
3055.7594,68.64428690695814
3056.7868,73.85148646183046
3057.8136,76.99502228508015
3058.8398,72.32490326374187
3059.8653,70.29113751490013
3060.8902,75.6937324323905
3061.9145,71.28269470713724
3062.9381,71.25803027312764
3063.9612,72.31974435152182
3064.9835,86.61784145089996
3066.0053,68.85232535664477
3067.0264,71.57319898796072
3068.0469,72.63046457552929
3069.0668,67.6241236342999
3070.086,64.25417695291736
3071.1046,67.1206246437855
3072.1226,63.42346617676634
3073.1399,63.76270035051601
3074.1567,59.98832532945585
3075.1727,59.40033864038057
3076.1882,45.54873721020158
3077.203,42.68351737182698
3078.2173,40.10467500267745
3079.2308,37.26220555333876
3080.2438,34.206104073349934
3081.2561,22.986365239628242
3082.2678,29.802983387029997
3083.2789,20.205952620548032
3084.2893,22.945266747145524
3085.2991,20.72091937172624
3086.3083,14.13290386974154
3087.3169,11.381213409433542
3088.3248,12.765841017715502
3089.3321,14.936779607688663
3090.3388,7.494021964795991
3091.3449,5.037560725112769
3092.3503,6.4673884497742335
3093.3551,3.1334976495400326
3094.3593,2.4858807704959816
3095.3629,4.074530227393154
3096.3658,-1.6505615898761334
3097.3681,5.060597667835253
3098.3698,5.958016838784687
3099.3708,2.441704710623526
3100.3713,-0.038329988576833784
3101.3711,-4.132078555162025
3102.3702,0.010468097438831592
3103.3688,-0.26063966473878963
3104.3667,0.5546484197643338
3105.364,-0.3436147838024226
3106.3607,-1.8053819511276004
3107.3568,-2.530602325188113
3108.3522,4.530792886804761
3109.347,2.928897758356868
3110.3412,-1.6361936823336691
3111.3348,-0.16438743635760034
3112.3277,3.2444268407691084
3113.32,7.440361135760924
3114.3117,3.973527402888152
3115.3028,1.8440375220176577
3116.2932,1.8520033332811465
3117.2831,1.2975366583700918
3118.2723,3.230749300455841
3119.2608,5.951753049734521
3120.2488,2.2106596640949476
3121.2361,5.857580841908401
3122.2229,3.992628259439698
3123.209,3.11591353437791
3124.1944,4.97754824448586
3125.1793,9.827643936367338
3126.1635,8.31631210685066
3127.1471,7.643664154487652
3128.1301,7.709811394667128
3129.1125,5.2148650663413605
3130.0942,9.908936331364401
3131.0753,11.942136299441856
3132.0558,11.16457598118997
3133.0357,11.476366267803755
3134.015,11.527617938832478
3134.9936,18.96844165906191
3135.9716,14.948947978001726
3136.949,10.269247255477282
3137.9258,16.92944970182465
3138.902,15.279665424687707
3139.8775,15.320004362415943
3140.8524,17.90057630056225
3141.8267,17.7714908714796
3142.8004,22.232857528515297
3143.7735,23.934785547301715
3144.7459,18.72738398114275
3145.7178,22.960761643994516
3146.689,17.38502716253933
3147.6596,24.95028893385195
3148.6295,21.306655181156998
3149.5989,23.20423387817617
3150.5676,35.34313278556466
3151.5357,26.67345943193547
3152.5032,28.195320992470258
3153.4701,32.85882437561622
3154.4364,30.71407620786738
3155.402,34.21118278712957
3156.367,32.35025010416787
3157.3315,34.931383807635584
3158.2952,35.554689222683635
3159.2584,31.420271325149088
3160.221,36.428234735322235
3161.1829,35.22868375929063
3162.1442,34.321722338859544
3163.105,37.50745406354744
3164.065,36.23598217965565
3165.0245,38.107409558410936
3165.9834,39.02183870868036
3166.9416,40.279371758256914
3167.8993,39.88011044471519
3168.8563,35.87415610283614
3169.8127,45.76160966859959
3170.7684,43.692571719243816
3171.7236,43.11714237439108
3172.6782,47.68542131673784
3173.6321,43.59750779780922
3174.5854,49.50350059227613
3175.5381,51.15349803883448
3176.4902,47.597597981145135
3177.4417,48.98589775133404
3178.3926,50.61849420555123
3179.3428,51.59548371008773
3180.2924,50.71696212504966
3181.2415,54.38302479458837
3182.1899,56.09376655568557
3183.1377,54.09928170149275
3184.0848,55.89966396422377
3185.0314,59.49500653509964
3185.9773,54.63540204634483
3186.9227,62.370942535233695
3187.8674,59.30171949268663
3188.8115,62.0778237859146
3189.755,56.549345689111405
3190.6979,60.11637485569261
3191.6402,66.62900037358037
3192.5818,63.73731072953307
3193.5229,63.641393744019126
3194.4633,68.44133660013385
3195.4031,62.63722584455865
3196.3423,66.62914733956153
3197.2809,69.41718632103829
3198.2189,70.45142735859321
3199.1563,75.73195432765878
3200.0931,68.55885039915316
3201.0292,70.63219798667497
3201.9648,71.9520788182344
3202.8997,72.4685739155196
3203.834,76.43176358069795
3204.7677,74.79172739125113
3205.7008,72.14854416034314
3206.6333,77.05229195322075
3207.5652,78.40304811364526
3208.4964,81.60088921485507
3209.4271,79.84589104605809
3210.3571,82.93812858045337
3211.2865,78.577675992781
3212.2154,83.46460662839979
3213.1436,86.04899304689184
3214.0712,85.38090697319313
3214.9982,86.26041927174974
3215.9246,84.13759995319863
3216.8503,86.56251816557263
3217.7755,87.73524221552849
3218.7001,85.50583954409784
3219.624,88.22437671495982
3220.5473,92.14091943673523
3221.4701,92.55553253580104
3222.3922,93.91827991712503
3223.3137,96.07922456011968
3224.2346,93.53842850501462
3225.1549,96.59595283124725
3226.0746,94.25185768287068
3226.9937,96.50620223797843
3227.9121,96.00904473214545
3228.83,99.06044243588472
3229.7473,104.06045165961866
3230.6639,102.1591277231653
3231.5799,101.00652490573816
3232.4954,99.35269646495938
3233.4102,101.04769464838591
3234.3244,102.14157071004774
3235.238,107.63437489349784
3236.151,107.52615642087346
3237.0634,106.31696343796816
3237.9752,106.60684301531379
3238.8864,106.44584116027264
3239.797,112.73400281413856
3240.7069,108.92137185374699
3241.6163,110.55799102859324
3242.5251,113.79390199895892
3243.4332,111.1291453195457
3244.3408,113.51376040711622
3245.2477,113.19778556714166
3246.154,116.53125796995553
3247.0598,113.16421365391348
3247.9649,118.64668749205856
3248.8694,116.12871322579167
3249.7733,116.36032341004673
3250.6766,116.44154943847056
3251.5793,120.22242154110664
3252.4814,121.90296878358296
3253.3829,120.83321902930322
3254.2838,121.56319892264142
3255.1841,124.24293389963933
3256.0838,121.52244818070668
3256.9829,122.75176474382388
3257.8814,123.03090535174678
3258.7792,125.90989053971357
3259.6765,127.68873961265338
3260.5731,126.96747061639634
3261.4692,125.49610031988522
3262.3647,129.02464422238802
3263.2595,127.05311656821169
3264.1538,128.3315303114167
3265.0474,127.10989713553239
3265.9404,130.33822744077264
3266.8329,128.16653035625242
3267.7247,132.59481370770428
3268.616,131.72308403919553
3269.5066,129.35134656884523
3270.3966,131.3796051975416
3271.286,129.35786253265928
