RamanShift,CorrectedData
30.1047,1605.56282997055
32.3739,1485.704672803313
34.6426,1374.096499580448
36.9109,1264.2382793892791
39.1787,1150.2799675761662
41.4461,1038.7715068450852
43.7131,923.8128283972125
45.9796,810.703853046008
48.2456,700.0944923668042
50.5112,589.6346498278938
52.7764,477.32422189662475
55.0411,366.4630991439984
57.3054,257.1511673677738
59.5692,152.73830870107855
61.8326,38.07440270552888
64.0955,-67.14067258464203
66.3579,-173.55703951594518
68.6199,-272.3741496995724
70.8815,-355.1397209118909
73.1426,-397.09874991151275
75.4032,-312.79268561123837
77.6634,84.44099009264335
79.9231,1187.867920102772
82.1824,3801.603746477378
84.4412,8669.414099396014
86.6995,15610.764571022195
88.9574,22574.22066682529
91.2148,27460.447736167043
93.4717,29781.560902666963
95.7282,30271.375015340105
97.9842,30145.904625385898
100.2398,29511.763981290034
102.4949,28856.067030079157
104.7495,27941.727423662272
107.0036,26984.458525387712
109.2573,26083.523419186535
111.5105,25232.534919145226
113.7632,24355.255578515033
116.0154,23599.247698221847
118.2672,23058.223335639013
120.5185,22456.444312147403
122.7693,21978.972218545645
125.0197,21585.368421067942
127.2696,21156.34406615876
129.519,20896.16008440889
131.7679,20559.627194845678
134.0163,20289.255907534884
136.2642,19960.15652694598
138.5117,19623.589154655885
140.7587,19244.263692639975
143.0052,18888.889846637714
145.2512,18544.12712994594
147.4967,18189.184866972595
149.7417,17889.222196684354
151.9863,17668.748076156036
154.2304,17505.221283570252
156.4739,17195.250420422126
158.717,17038.743913154573
160.9596,16718.160016258
163.2017,16357.506813835389
165.4433,15961.692222808117
167.6844,15473.22399652249
169.925,15026.409728707902
172.1651,14525.056858361506
174.4047,14125.772674216354
176.6439,13733.214319754934
178.8825,13363.688797202007
181.1206,13095.652971450196
183.3582,12800.013573755245
185.5954,12598.527204416348
187.832,12382.050335732594
190.0681,12255.78931401778
192.3037,12131.350361765211
194.5388,11998.939578910296
196.7734,11925.412944074944
199.0075,11903.92631589167
201.2411,11926.135433738858
203.4742,11874.39591795564
205.7068,11923.413269619796
207.9389,11927.192871065143
210.1704,11977.839985391372
212.4015,11993.459756426251
214.632,12036.207208219144
216.862,12129.08724488482
219.0915,12196.004650175993
221.3205,12290.914086554498
223.549,12433.920094522126
225.777,12671.327091671546
228.0044,12893.18937125622
230.2314,13281.761099816355
232.4578,13587.296314960253
234.6837,13844.69892147862
236.909,13948.322688289203
239.1339,13782.22124586276
241.3582,13462.098085186839
243.582,13035.706559426764
245.8053,12635.449887126893
248.0281,12253.631156474527
250.2503,11930.053329302462
252.472,11668.419244907198
254.6932,11543.481623284693
256.9139,11400.29306774673
259.134,11299.90606617027
261.3536,11203.422992429343
263.5727,11245.546107398935
265.7912,11080.427559919799
268.0092,11083.369386377233
270.2267,10969.073512352272
272.4436,10834.441752592242
274.6601,10644.62581215376
276.8759,10486.87728774902
279.0913,10350.297669643965
281.3061,10231.088343235779
283.5204,10182.250590418658
285.7341,10174.135590775933
287.9473,10264.094422068427
290.16,10419.328060315607
292.3721,10617.287378896008
294.5837,10985.373146994896
296.7947,11258.686027624653
299.0052,11357.376573943942
301.2152,11142.845226524569
303.4246,10707.192312364581
305.6334,10061.718047033573
307.8418,9409.72253902922
310.0495,8917.955796232034
312.2568,8497.117732425291
314.4635,8177.508172212729
316.6696,7978.976855226896
318.8752,7833.82343932527
321.0802,7831.99750257557
323.2847,7870.648544707277
325.4887,7831.475987129905
327.692,7722.579172546493
329.8949,7517.557365345321
332.0972,7204.809752688898
334.2989,6875.1854465641445
336.5001,6496.833486909909
338.7007,6239.602844913183
340.9008,6053.242426792634
343.1003,5838.251076370918
345.2992,5734.077576938262
347.4976,5645.520653402384
349.6955,5556.128973330242
351.8927,5549.151147833585
354.0895,5464.635732462881
356.2856,5435.531227277088
358.4812,5350.2860776888265
360.6763,5334.848674755391
362.8707,5244.0673560312425
365.0646,5205.590405722347
367.258,5177.41605559402
369.4508,5160.342485355655
371.643,5178.067822942507
373.8346,5069.040144686391
376.0257,5044.257475138475
378.2162,4893.167788159521
380.4062,4751.86900716773
382.5956,4501.709006649628
384.7844,4353.985613573048
386.9726,4179.5966098887475
389.1603,4108.439734007645
391.3474,3982.9626825446867
393.5339,3927.0631110304403
395.7199,3816.488635165835
397.9052,3794.5368313811978
400.09,3739.2052379419583
402.2743,3771.341355168197
404.4579,3779.142645987935
406.641,3922.056535615793
408.8235,4118.430411474981
411.0054,4395.411621768135
413.1868,4776.047473513605
415.3675,5056.285229775638
417.5477,5203.1221058579995
419.7273,5216.655266501617
421.9064,5001.881824416196
424.0848,4855.448840144903
426.2627,4579.553324212089
428.4399,4255.1922385876205
430.6166,3838.862499445837
432.7928,3402.410980409164
434.9683,3038.5345167114156
437.1432,2793.929909562303
439.3176,2586.993929786184
441.4914,2416.323320268133
443.6645,2367.6147980232963
445.8371,2243.915055903586
448.0091,2134.420763084765
450.1806,2060.0285663034647
452.3514,1947.2850909521076
454.5216,1938.0869418228376
456.6913,1828.4307042349556
458.8603,1863.4129441269015
461.0288,1938.9302091528116
463.1967,1907.7790283327013
465.3639,1986.2559112972885
467.5306,2012.657348599514
469.6967,2133.479810929759
471.8622,2242.9197488518366
474.0271,2363.42359159477
476.1914,2410.2377459583804
478.3551,2338.958595108261
480.5182,2340.3824981076214
482.6807,2299.155790630104
484.8426,2414.174784945528
487.0039,2671.285770332159
489.1647,3057.0850119265288
491.3248,3477.2187481523106
493.4843,3634.2831868623525
495.6432,3592.8245011373056
497.8015,3466.388827715007
499.9592,3422.2722674050547
502.1163,3361.6208863531683
504.2728,3078.8307164823473
506.4287,2769.847756099396
508.5839,2282.3679727228136
510.7386,1945.7873061726314
512.8927,1734.251673445211
515.0461,1619.3569720790456
517.199,1547.5990822701115
519.3512,1571.473868020823
521.5029,1629.1771778576021
523.6539,1693.7048445921464
525.8043,1713.9526847443867
527.9541,1735.366497897212
530.1033,1682.5420664939975
532.2519,1695.2251556244591
534.3999,1791.9115135528937
536.5472,2042.1968715913572
538.694,2492.426943132792
540.8401,3067.1474211481764
542.9856,3554.8539736842285
545.1305,3683.8922381162047
547.2748,3513.3578162708163
549.4185,3111.5962731358613
551.5615,2756.1531385655617
553.704,2606.123911298184
555.8458,2512.9040625104644
557.987,2550.2890373179125
560.1276,2514.8242557069952
562.2675,2585.505112161305
564.4069,2655.626976016174
566.5456,2655.1851907519103
568.6837,2587.6250732925437
570.8212,2278.541914010264
572.958,1867.5309774010111
575.0942,1571.3375051753083
577.2299,1343.3067203683731
579.3648,1313.6338303020548
581.4992,1408.2640288651382
583.6329,1559.0424968100797
585.766,1786.7644008067
587.8985,1925.3748919344089
590.0304,1899.8191034049705
592.1616,1837.5421491764082
594.2922,1736.9391242085549
596.4222,1546.1551050858325
598.5515,1416.035151023283
600.6802,1229.4243057743934
602.8083,1007.767598932307
604.9358,978.5600477959288
607.0626,921.1966595864997
609.1888,863.0724317396616
611.3144,847.3823524790914
613.4393,732.5214013977602
615.5636,654.1345496148133
617.6873,567.0167609241853
619.8103,506.8629925784844
621.9327,389.8681961601469
624.0544,336.12731818299653
626.1756,304.63530126218757
628.2961,298.48708465159507
630.4159,197.52760455875432
632.5351,189.75179420633322
634.6537,132.15458484172814
636.7716,134.18090581483193
638.8889,128.0256851539998
641.0056,131.9338495457905
643.1216,126.4003243965144
645.237,153.57003379314483
647.3518,104.13790055865684
649.4659,163.09884598031567
651.5793,171.54779030402278
653.6922,148.0796521446864
655.8043,136.93934840174916
657.9159,110.9217944938664
660.0268,34.57190447030371
662.137,-6.665408728884358
664.2466,-45.49557753698173
666.3556,-29.023967799843376
668.4639,-51.75549086251522
670.5716,15.255231879395069
672.6786,91.15409606761932
674.785,130.83684494412591
676.8907,202.99922083934325
678.9958,265.7869647753396
681.1002,237.49581574420336
683.204,241.42151008016117
685.3072,168.1597817424863
687.4097,127.85636227624491
689.5115,88.00698154489874
691.6127,68.40736813336662
693.7132,18.853249746489382
695.8131,-27.359646594946753
697.9123,-70.53578221412863
700.0109,-78.82934511137319
702.1089,-98.19381863454146
704.2061,-65.98189862634536
706.3028,-31.395299973250076
708.3987,28.764921597434295
710.4941,98.04802399744221
712.5887,288.8032648508688
714.6827,580.9299008013295
716.7761,912.6771856044197
718.8688,1255.0443672064393
720.9608,1489.080684426919
723.0522,1547.335363534954
725.1429,1398.1076159088243
727.233,1139.146637453472
729.3224,902.951610092754
731.4112,638.4717043590663
733.4993,468.2060817553047
735.5867,253.25389739964885
737.6735,172.3643017282211
739.7596,110.68644264461182
741.845,47.81946632876861
743.9298,53.662517853785175
746.014,27.86474181455742
748.0974,38.975282269373565
750.1802,68.64328299787849
752.2624,82.76788738997493
754.3439,118.24823814913361
756.4247,210.58347715115997
758.5048,330.5227450893799
760.5843,564.8651805512945
762.6631,922.7599188191871
764.7413,1406.8560895266855
766.8188,2055.3528130798313
768.8956,2539.5991958160976
770.9718,2837.194323519445
773.0473,2729.88725657784
775.1221,2406.027027007327
777.1962,2044.8126395250765
779.2697,1845.143074787995
781.3426,1898.1672930048717
783.4147,2157.084235933062
785.4862,2444.542826348261
787.557,2476.3919654553265
789.6271,2085.330530013689
791.6966,1534.6573720188735
793.7654,1003.8213226130902
795.8335,637.9211975919952
797.901,423.8558027130348
799.9678,348.8239373544493
802.0339,357.7743966559283
804.0993,397.2059722689264
806.1641,404.3174522671652
808.2282,386.2076207523023
810.2916,275.7752577828287
812.3544,187.6191395551632
814.4164,142.38803950798865
816.4778,181.83072920380255
818.5385,147.7459787812386
820.5986,265.4825565606243
822.658,404.1892293848359
824.7166,511.21476144193
826.7747,779.2579128780799
828.832,1042.2674387273182
830.8886,1200.5920862311086
832.9446,1345.980592208247
834.9999,1365.3816814716138
837.0545,1326.8940653742848
839.1085,1322.3164416155287
841.1618,1259.8474946256792
843.2143,1226.985895611915
845.2662,1138.2803031829426
847.3175,1073.679363677611
849.368,970.8317120519787
851.4179,893.7859725253074
853.467,725.1907596085548
855.5155,637.2446788748184
857.5633,533.6963286452956
859.6105,437.5443008687398
861.6569,376.287182156937
863.7027,335.1735547462358
865.7478,312.40199711011155
867.7922,360.7210843703124
869.8359,379.82938852456937
871.8789,530.4754779634004
873.9212,673.7079172790382
875.9629,839.9252657589586
878.0039,1035.8260759535733
880.0441,1140.708892014034
882.0837,1180.5222477332445
884.1226,1127.5646654970242
886.1609,1023.8846558859768
888.1984,927.8807182050641
890.2352,933.751341520403
892.2714,919.7950056193113
894.3069,899.9601809515934
896.3416,795.09532876911
898.3757,759.5989013241215
900.4091,764.069342917941
902.4418,775.6550902559029
904.4739,794.7045724026539
906.5052,822.3162106662912
908.5358,742.7884184078757
910.5658,610.8696007653089
912.595,466.75815544861143
914.6236,346.45247405911505
916.6515,295.00094353056556
918.6786,260.90194733219687
920.7051,300.6538659832331
922.7309,412.2550773938874
924.756,508.4539564678398
926.7804,600.398873986218
928.8041,549.638195645628
930.8272,612.4202811386822
932.8495,582.2934846616208
934.8711,536.9561542864849
936.892,424.45663226238685
938.9123,293.59325546888067
940.9318,195.2643565409635
942.9506,122.96826517770023
944.9688,31.85330912552672
946.9862,12.71781490119065
949.003,-75.9398912970828
951.019,-86.77148339824089
953.0344,-72.0778766917283
955.0491,-5.209119619872581
957.063,83.33545943297577
959.0763,184.356532134565
961.0888,239.00476931928642
963.1007,321.9808399779813
965.1119,361.83541071143736
967.1223,413.4691449006441
969.1321,416.3327023082438
971.1412,455.12673856219953
973.1495,497.45190512714544
975.1572,536.1588489164587
977.1641,563.8982118690001
979.1704,569.5706305620533
981.1759,556.0767359339188
983.1808,631.967153227195
985.1849,720.4425021237184
987.1884,894.2033959856544
989.1911,1087.850440970753
991.1932,1218.2842342947279
993.1945,1292.1053622947911
995.1951,1245.414399125315
997.1951,1248.911906019619
999.1943,1153.9484317568895
1001.1928,1145.8745126271897
1003.1906,1170.840673381108
1005.1877,1239.3974273104923
1007.1841,1224.6952759987907
1009.1798,1201.4847086354785
1011.1748,1017.4662021630884
1013.1691,839.8402215093065
1015.1627,606.4572214271648
1017.1556,419.0176482712941
1019.1477,323.5719423317605
1021.1392,271.87053970845045
1023.1299,248.31387326554795
1025.12,323.00237314852166
1027.1093,367.8864670197054
1029.0979,482.31657931142036
1031.0859,565.89313077712
1033.0731,579.7665373471045
1035.0596,504.0372092927428
1037.0454,364.00555108773733
1039.0304,264.2219621654276
1041.0148,146.88683831910566
1042.9985,69.85057269984281
1044.9814,35.913556989848075
1046.9636,9.226182172835252
1048.9452,19.338838873380155
1050.926,25.751917623800182
1052.9061,39.81580876301814
1054.8855,46.08090237245051
1056.8642,89.74758813535118
1058.8421,150.96625527417564
1060.8194,190.63729211390637
1062.7959,215.16108546987198
1064.7717,259.5380202510296
1066.7469,321.4184792147262
1068.7213,324.60284252293786
1070.695,337.4914871234596
1072.6679,310.9347867180586
1074.6402,287.1831116335961
1076.6117,241.93682908759365
1078.5826,269.3963034257431
1080.5527,245.71189657437208
1082.5221,335.2339677658583
1084.4908,540.612873775457
1086.4587,724.6489680260966
1088.426,843.6925985345752
1090.3925,890.4441060712124
1092.3584,872.653822969407
1094.3235,755.7220726581199
1096.2879,690.6491698397767
1098.2515,725.0354216595879
1100.2145,815.2811283562733
1102.1767,912.4365829182098
1104.1382,1088.5020701809608
1106.099,1337.7778658557418
1108.0591,1550.9642347687404
1110.0185,1705.4614283683695
1111.9771,1763.3696825934057
1113.9351,1546.089216328015
1115.8923,1285.8702308226766
1117.8488,1026.3129118669713
1119.8045,762.4174323917905
1121.7596,649.2339550648994
1123.7139,596.4626349298924
1125.6675,601.3536205380315
1127.6204,684.107054475955
1129.5726,624.6730733167697
1131.524,619.3518067925143
1133.4748,648.6933783885033
1135.4248,625.9479053965388
1137.3741,618.665498621489
1139.3226,571.0962626087403
1141.2705,506.84029571703195
1143.2176,437.5476905941432
1145.164,459.9685348194562
1147.1097,453.45291159687804
1149.0546,455.5008995306307
1150.9989,362.8125726904145
1152.9424,244.33800059092482
1154.8852,98.47724911873411
1156.8272,11.830381717038108
1158.7686,-57.652539155732484
1160.7092,-37.57145115945332
1162.6491,-26.675716005132017
1164.5883,72.4856799350182
1166.5267,173.36401677918457
1168.4644,303.1605739206998
1170.4014,513.9766290192638
1172.3377,761.713456702968
1174.2732,1034.27232646014
1176.2081,1313.204500161979
1178.1421,1606.0112293369648
1180.0755,1860.3937523815293
1182.0082,1982.9032916320011
1183.9401,2039.3410508207708
1185.8713,1902.7582138512007
1187.8017,1668.4559442332447
1189.7315,1397.2853864492718
1191.6605,1112.9976682970955
1193.5888,910.4939036016822
1195.5163,796.2251950580248
1197.4432,730.6426362561806
1199.3693,712.54731282396
1201.2947,680.040303082751
1203.2193,704.672678228475
1205.1432,724.3955026566518
1207.0664,746.1098337160738
1208.9889,777.8167215115818
1210.9106,842.8172086869199
1212.8316,912.5623301076694
1214.7519,971.1031122112454
1216.6715,996.4405723094396
1218.5903,1034.3757180030216
1220.5084,1044.4595469283604
1222.4257,1057.993046378071
1224.3424,1021.2771932001706
1226.2583,1084.8629536627532
1228.1735,1174.351283821141
1230.0879,1323.1931288820297
1232.0016,1475.0894223086025
1233.9146,1517.841084332118
1235.8269,1438.5990204329437
1237.7384,1320.9141209130357
1239.6492,1155.0872616883726
1241.5592,1040.5193054657857
1243.4686,1008.6611034012385
1245.3772,1005.7634962455031
1247.285,1012.177314662742
1249.1922,1008.3033792594897
1251.0986,1029.2425005205123
1253.0042,1055.1454788475448
1254.9092,1100.0631043498997
1256.8134,1210.8961565854406
1258.7169,1381.045404111398
1260.6196,1544.61160337605
1262.5216,1786.8954970172144
1264.4229,1971.8478122266015
1266.3234,2125.069258326974
1268.2232,2206.660524922614
1270.1223,2240.5222803671213
1272.0207,2243.1051709474896
1273.9183,2208.859820545489
1275.8151,2147.686830611846
1277.7113,2093.9867805086915
1279.6067,2021.160228121289
1281.5014,1934.8577103950474
1283.3953,1952.829744063768
1285.2885,1992.976826512684
1287.181,2067.049435598732
1289.0727,2212.698029249086
1290.9637,2333.4730447204256
1292.854,2462.824897142458
1294.7435,2563.0539783101685
1296.6323,2730.1606553902866
1298.5204,2916.8952699190095
1300.4077,3100.258136130932
1302.2943,3196.0995390916987
1304.1802,3242.1197328643802
1306.0653,3091.4689395510513
1307.9497,2937.297348832599
1309.8333,2763.0551194752225
1311.7162,2663.8923808721484
1313.5984,2681.8092347860584
1315.4798,2773.9557563407097
1317.3605,2863.8819938417746
1319.2405,2983.137967855374
1321.1197,2959.123670308807
1322.9982,2856.139063297999
1324.876,2810.634079327642
1326.753,2725.9086223410404
1328.6293,2703.312568175158
1330.5048,2698.895765407876
1332.3796,2660.25803558396
1334.2537,2644.2991732592136
1336.127,2618.868946386866
1337.9996,2608.7670964771587
1339.8714,2618.0933388516405
1341.7426,2591.3473627442
1343.6129,2607.578831207784
1345.4826,2585.0373813818733
1347.3515,2572.3226243301624
1349.2196,2555.1341452659735
1351.087,2580.12150367941
1352.9537,2659.9842335092326
1354.8197,2786.4218428929935
1356.6849,2985.4838133684016
1358.5493,3082.919598608949
1360.4131,3189.2286224332975
1362.276,3179.310277830914
1364.1383,3074.9639258989855
1365.9998,2854.488895941595
1367.8606,2531.634486513196
1369.7206,2261.0499676233458
1371.5799,2030.7845839652664
1373.4384,1866.5875576216795
1375.2962,1734.658090367463
1377.1533,1489.7453653116236
1379.0096,1171.8485482165897
1380.8652,891.2167899473361
1382.7201,669.6492296503575
1384.5742,463.4449975599782
1386.4275,308.75321721403725
1388.2802,203.42300751592666
1390.132,114.95348428151101
1391.9832,93.4937612924241
1393.8336,27.192951180767523
1395.6832,6.200165643705986
1397.5322,-3.5354838935209045
1399.3803,2.335113932326749
1401.2278,-22.98889419603347
1403.0745,27.941638380766562
1404.9204,-0.673912018854935
1406.7656,70.11383064410984
1408.6101,93.40424914104551
1410.4538,131.59672554220015
1412.2968,213.3906409837855
1414.139,269.1853752860443
1415.9805,410.18030613531755
1417.8213,501.67480852609333
1419.6613,637.6682533510611
1421.5006,843.860006486163
1423.3391,1091.1494274306606
1425.1769,1464.3858672452188
1427.0139,1939.2186660790148
1428.8502,2564.89714943737
1430.6858,3186.120623433423
1432.5206,3606.8883685313403
1434.3547,3881.249633334086
1436.188,3900.053630375739
1438.0206,3851.399533377883
1439.8524,3734.386477061572
1441.6835,3624.4135576338613
1443.5139,3532.279833957946
1445.3435,3481.5343286528905
1447.1724,3444.1260290149603
1449.0005,3395.603887525079
1450.8279,3320.866822222919
1452.6545,3303.263717192105
1454.4804,3367.043423307603
1456.3056,3384.1047584117387
1458.13,3305.3465066764065
1459.9536,3097.267418432464
1461.7766,2783.4162109573017
1463.5987,2384.291570555639
1465.4202,2015.2921556980318
1467.2409,1678.4166010121298
1469.0608,1434.1635209726555
1470.88,1185.7315132701751
1472.6984,973.7691612536191
1474.5161,820.325036414607
1476.3331,652.3477005070699
1478.1493,528.5357070816935
1479.9648,448.83760316568987
1481.7795,392.95193050091984
1483.5935,327.72722634086495
1485.4067,303.4620240094946
1487.2192,277.8048535535072
1489.031,251.1042419849855
1490.842,234.908713537965
1492.6522,196.11678993543865
1494.4618,169.67699055131743
1496.2705,159.33783279833733
1498.0785,154.04783239247172
1499.8858,128.25550345631927
1501.6924,135.20935857200038
1503.4981,115.60790903908583
1505.3032,129.8996648050561
1507.1075,101.98313466131549
1508.911,88.25682610026979
1510.7138,74.61924559449835
1512.5159,62.56889873401633
1514.3172,36.30429036264559
1516.1178,19.323924698525843
1517.9176,16.42630559675672
1519.7166,8.059936719199868
1521.515,-9.726678436542898
1523.3126,-7.8850364534637265
1525.1094,-19.266536745039048
1526.9055,-10.122499953234183
1528.7008,-36.45405424731416
1530.4954,-41.01222667277216
1532.2893,-28.697680099106947
1534.0824,-40.41066768367364
1535.8747,-10.551155894004296
1537.6663,-15.068707495060153
1539.4572,-17.31277984575445
1541.2473,-1.9326797686162536
1543.0367,7.622458868498143
1544.8253,19.30352150520048
1546.6132,64.56139350488138
1548.4003,37.496960037896315
1550.1867,102.76110562898793
1551.9723,149.40471442793023
1553.7572,205.67866955689078
1555.5414,275.4338526439924
1557.3247,339.9211432605716
1559.1074,436.241418223628
1560.8893,555.8455509509477
1562.6705,651.7844104979058
1564.4509,768.8088603614242
1566.2305,829.9197575205799
1568.0094,908.6679512663641
1569.7876,967.4542825905737
1571.565,1005.5295833983264
1573.3417,1038.6946759202037
1575.1176,1059.1503723314918
1576.8928,1042.6974744205318
1578.6672,975.2367733841638
1580.4409,905.0190499922537
1582.2138,819.1950752623047
1583.986,764.8156111616304
1585.7575,712.681411465594
1587.5282,674.8932223014076
1589.2981,652.0017826694698
1591.0673,653.907824821249
1592.8358,699.8120744882035
1594.6035,738.1652508627112
1596.3704,788.8680661390331
1598.1366,812.3712251297788
1599.9021,872.4754247588812
1601.6668,944.8313538265616
1603.4308,1050.5396924082884
1605.194,1165.351111131219
1606.9564,1311.3662701171124
1608.7182,1485.3858178342202
1610.4791,1678.1103896371283
1612.2394,1866.9406060265705
1613.9988,2103.627070722176
1615.7576,2306.220368774172
1617.5156,2566.171064196514
1619.2728,2757.22969794096
1621.0293,2886.5967852975523
1622.785,2905.0228139840456
1624.54,2812.858242852222
1626.2942,2691.3035017036423
1628.0477,2448.6589922112857
1629.8005,2237.8250891350935
1631.5525,2042.2521427484226
1633.3037,1862.2904809463753
1635.0542,1737.4904112015379
1636.804,1634.2022223635927
1638.553,1579.8761859073174
1640.3013,1576.0625569654712
1642.0488,1575.561574872051
1643.7955,1618.9234632004318
1645.5416,1682.7484297683727
1647.2868,1781.7366662044005
1649.0313,1895.7883473095599
1650.7751,2070.853630067528
1652.5181,2258.8826525041
1654.2604,2478.6255319365396
1656.0019,2758.382363093282
1657.7427,3099.7032159165115
1659.4828,3400.2881327645878
1661.222,3611.4371249988453
1662.9606,3607.0501699777346
1664.6984,3397.777208945338
1666.4354,3032.618147075237
1668.1717,2545.222855563242
1669.9072,2024.7911752789823
1671.642,1601.1229216398638
1673.3761,1287.5678898153783
1675.1094,1005.7258589637922
1676.8419,817.646595367693
1678.5737,681.7298552524121
1680.3048,566.4253866668141
1682.0351,484.73293084246825
1683.7646,394.5022233466925
1685.4934,364.3829948994762
1687.2215,331.8249722757878
1688.9488,286.17787860676526
1690.6754,248.09143370530046
1692.4012,239.76535452250846
1694.1263,215.6993555285908
1695.8506,210.6931487961001
1697.5742,183.19644424059516
1699.297,164.708949670709
1701.0191,142.5303710631074
1702.7404,139.11041274736863
1704.461,110.84877762776887
1706.1808,102.29516721748041
1707.8999,93.34928192118969
1709.6182,89.81082112063223
1711.3358,74.07948326405358
1713.0527,83.80496590158964
1714.7688,60.43696584258396
1716.4841,49.275179058332014
1718.1987,49.61930091576005
1719.9126,61.419026289047
1721.6257,37.92404955617894
1723.338,59.434064480955385
1725.0496,42.59876444793554
1726.7605,48.36784224734129
1728.4706,34.74099024340694
1730.18,23.717900316689793
1731.8886,25.748264000337713
1733.5964,23.081772590321634
1735.3036,21.018117125131084
1737.0099,28.10698841244175
1738.7156,36.398077049749645
1740.4204,22.891073353482625
1742.1246,23.78566727608677
1743.8279,11.78154854109971
1745.5306,0.6284066342059305
1747.2325,-8.474069076725755
1748.9336,-4.87618923010632
1750.634,-11.678179808399364
1752.3336,10.569781919063644
1754.0325,-12.932364652035176
1755.7307,-4.784680231707625
1757.4281,0.9629036643550535
1759.1247,-3.789496680582033
1760.8206,-7.641764992881235
1762.5158,17.856252858165135
1764.2102,7.95478734449398
1765.9039,8.904068759481106
1767.5968,-2.9456726830426305
1769.289,5.005793141713639
1770.9804,7.65872578581093
1772.6711,6.213384751252306
1774.361,10.770029463454648
1776.0502,17.07891928570507
1777.7386,17.840313473592687
1779.4263,20.204471111915154
1781.1132,36.62165110706928
1782.7994,23.44211216340591
1784.4849,14.866112619062278
1786.1696,20.343910577755196
1787.8535,49.67576399454265
1789.5367,42.46193062104521
1791.2192,38.602667712128095
1792.9009,10.798232098037715
1794.5818,27.698880222996195
1796.2621,43.4048684232439
1797.9415,36.56645275803248
1799.6202,41.28388885256845
1801.2982,38.307431966393324
1802.9755,32.53733694621542
1804.6519,42.87385825566844
1806.3277,39.767250033011805
1808.0027,49.067765987771054
1809.6769,67.3256594317977
1811.3504,45.04118318626797
1813.0231,63.36458939910517
1814.6951,51.196129767820366
1816.3664,65.5360553562814
1818.0369,49.98461671639461
1819.7067,73.39206374470768
1821.3757,57.20864583792627
1823.044,74.48461165883464
1824.7115,74.32020929813234
1826.3783,66.96568610167515
1828.0443,69.17128867211704
1829.7096,80.78726294245644
1831.3741,79.86385415398036
1833.0379,86.95130674010352
1834.701,72.34986433560289
1836.3633,77.40976970574275
1838.0248,81.58126489229107
1839.6856,98.31459116291762
1841.3457,104.6099889694824
1843.005,92.66769778070011
1844.6636,97.03795601918591
1846.3214,96.87100118087983
1847.9785,108.56706979134287
1849.6349,93.17639740742652
1851.2904,106.89921850031578
1852.9453,101.93576660942972
1854.5994,112.2362742051987
1856.2528,123.90097273869605
1857.9054,115.78009253863456
1859.5572,125.62386269471608
1861.2083,122.88251113884508
1862.8587,119.20626454668673
1864.5084,102.29534836508356
1866.1572,117.74998684881439
1867.8054,118.57040322970624
1869.4528,131.10681956208828
1871.0994,123.8094567145854
1872.7453,120.27853424475597
1874.3905,115.61427047206462
1876.0349,137.31688251319156
1877.6786,128.63658632867418
1879.3215,129.12359650588314
1880.9637,132.37812634582315
1882.6051,131.10038785826555
1884.2458,122.99059172920124
1885.8858,137.44894733361934
1887.525,137.32566281660138
1889.1634,134.07094494874264
1890.8011,114.78499912738243
1892.4381,132.26802940915104
1894.0743,126.77023870283028
1895.7098,109.1418285945224
1897.3446,153.33299940262896
1898.9786,135.04395035413245
1900.6118,153.12487914268695
1902.2443,127.72598211150898
1903.8761,135.94745407256778
1905.5071,128.73948856057314
1907.1374,136.35227775076282
1908.7669,144.48601253097922
1910.3957,144.690882425542
1912.0237,135.1170755139119
1913.651,130.4647784286417
1915.2776,140.58417645111513
1916.9034,143.6754535580685
1918.5285,135.08879232039908
1920.1528,128.62437387224873
1921.7764,137.98237799687377
1923.3992,131.76298319128682
1925.0213,121.91636657267782
1926.6427,135.69270394060868
1928.2633,114.04216987547852
1929.8832,143.11493760075882
1931.5023,127.81117919950134
1933.1207,115.78106532360971
1934.7383,122.97476534687576
1936.3552,110.74244748528099
1937.9714,120.38427872506054
1939.5868,113.90042494502472
1941.2015,105.5910508201423
1942.8154,115.15631988637824
1944.4286,104.44639462378791
1946.041,87.3114363608654
1947.6528,101.95160538164123
1949.2637,98.117061097033
1950.8739,91.30796189844114
1952.4834,102.77446519609748
1954.0921,100.66672748715541
1955.7001,87.28490424102552
1957.3074,100.87914992045103
1958.9139,99.74961811532785
1960.5197,88.89646140676064
1962.1247,90.569831378358
1963.729,90.9198787247658
1965.3325,71.69675323493198
1966.9353,84.8506037886084
1968.5374,77.28157854857886
1970.1387,72.73982482912334
1971.7393,82.42548917170552
1973.3392,82.33871739039273
1974.9383,80.67965447499819
1976.5366,89.79844459194919
1978.1342,76.09523110087616
1979.7311,75.32015646342643
1981.3273,84.47336238029766
1982.9227,84.85498979898648
1984.5173,67.46517882225703
1986.1112,75.15406870432389
1987.7044,80.07179802475207
1989.2968,66.11850461156564
1990.8885,91.69432549207181
1992.4795,78.19939703239356
1994.0697,70.883854681711
1995.6592,80.54783310721086
1997.2479,69.8414662672426
1998.8359,61.364887314678754
2000.4232,66.56822870397718
2002.0097,66.65162227594783
2003.5955,68.61519920571823
2005.1805,75.10909000190031
2006.7648,69.58342448695453
2008.3484,71.88833173225271
2009.9312,80.0739401133319
2011.5133,78.94037728684793
2013.0946,70.58777010871631
2014.6752,74.06624464544961
2016.2551,56.625926257683886
2017.8342,79.81693956539266
2019.4126,75.9394086222917
2020.9902,68.49345668392766
2022.5672,66.17920624645376
2024.1433,79.44677912108955
2025.7188,75.3462964572634
2027.2935,64.37787860993717
2028.8674,64.99164518061139
2030.4406,66.88771512700737
2032.0131,67.46620675693157
2033.5849,59.22723770931361
2035.1559,63.87092494842295
2036.7261,68.39738484625718
2038.2957,70.70673313610632
2039.8645,64.79908486728664
2041.4325,69.07455438204966
2042.9998,59.68325537465512
2044.5664,63.42530084861846
2046.1323,56.30080321062201
2047.6974,62.459874233096116
2049.2617,70.90262512546451
2050.8254,74.47916647255215
2052.3883,76.23960815015971
2053.9504,73.93405928929565
2055.5118,75.46262825857366
2057.0725,65.12542268726702
2058.6325,79.62254945002314
2060.1917,63.30411477023654
2061.7502,66.82022407507634
2063.3079,67.47098215867095
2064.8649,61.70649314694833
2066.4212,53.5768604911259
2067.9767,72.58218702535737
2069.5315,60.9225750480291
2071.0856,61.648126131705794
2072.6389,51.65894123972771
2074.1915,55.40512071895455
2075.7433,40.78676439965625
2077.2945,54.85397155805299
2078.8448,51.456841062497915
2080.3945,44.84547123280504
2081.9434,56.06995987422101
2083.4916,55.080404343539385
2085.039,43.07690143685477
2086.5857,52.10954739945805
2088.1317,47.92843804587187
2089.677,39.43366866952351
2091.2215,52.475334084557744
2092.7652,48.003528710782575
2094.3083,50.968346443255086
2095.8506,53.76988069699655
2097.3921,49.00822437734678
2098.933,49.88346985194585
2100.4731,52.09570899835353
2102.0124,50.545033195294764
2103.5511,53.131533300539104
2105.089,65.70529966640538
2106.6261,57.81642211389749
2108.1626,61.66498980696679
2109.6983,60.90109133140072
2111.2332,65.624814656338
2112.7675,51.53624714190664
2114.301,55.58547549198806
2115.8337,60.3225858951007
2117.3657,57.297663983909615
2118.897,61.260794787854365
2120.4276,59.41206276339881
2121.9575,51.25155175439977
2123.4866,70.37934501059408
2125.0149,50.995525269203426
2126.5426,57.350174563657674
2128.0695,57.44337441743187
2129.5956,59.3252057804998
2131.1211,55.04574902840204
2132.6458,57.05508394342769
2134.1698,54.30328975740872
2135.693,48.29044513162694
2137.2155,50.516628184332376
2138.7373,48.53191655087062
2140.2584,56.48638736142152
2141.7787,60.130117260846646
2143.2983,52.16318232914364
2144.8171,47.185658045010314
2146.3353,49.997619365512946
2147.8527,49.1491407758615
2149.3693,51.69029626129077
2150.8853,44.7211593155439
2152.4005,41.991802915462586
2153.9149,48.15229959067733
2155.4287,43.95272145090121
2156.9417,51.14314012432487
2158.454,44.973626799612475
2159.9655,51.49425215399697
2161.4764,50.80508641497613
2162.9865,49.80619929510544
2164.4958,53.14765999888982
2166.0045,51.12953723277337
2167.5124,50.45189917172388
2169.0195,50.31481347941485
2170.526,51.818347315001574
2172.0317,50.012567334490996
2173.5367,55.49753967570837
2175.0409,50.973329976353625
2176.5445,57.54000331915131
2178.0473,47.097624277094155
2179.5494,54.496256847775385
2181.0507,49.33596455781253
2182.5513,51.11681038886172
2184.0512,48.13885682922091
2185.5504,51.10216585601893
2187.0488,41.856798964997324
2188.5465,61.45281714087628
2190.0435,50.89028094980836
2191.5397,47.819250343418844
2193.0353,46.3897847644314
2194.5301,48.80194317737664
2196.0241,44.35578408288825
2197.5175,51.85136549358003
2199.0101,46.138744978509294
2200.502,36.11797958821876
2201.9931,41.489125911864676
2203.4835,28.60224017742371
2204.9733,32.20737819798205
2206.4622,44.80459550060414
2207.9505,29.993947290281312
2209.438,36.87548832395987
2210.9248,32.94927305864621
2212.4109,24.715355582593247
2213.8962,23.573789654562006
2215.3809,32.27462878615984
2216.8648,25.917926253257974
2218.3479,29.753735008981266
2219.8304,29.432107747276632
2221.3121,25.153096864554755
2222.7931,28.866754462904737
2224.2733,22.37313239288642
2225.7529,25.52228221639325
2227.2317,27.914255271587535
2228.7098,33.899102641410764
2230.1872,15.476875129661266
2231.6638,27.397623201146644
2233.1397,29.311397165907238
2234.6149,22.66824706000648
2236.0894,17.16822262639448
2237.5632,16.51137338133958
2239.0362,16.397748669427074
2240.5085,12.227397670130358
2241.9801,9.050369398944213
2243.4509,14.966712749090675
2244.921,12.376476523288602
2246.3904,18.279709374589856
2247.8591,13.426459832281353
2249.3271,11.316776242853848
2250.7943,15.500706818533672
2252.2608,12.128299658379547
2253.7266,4.599602706443875
2255.1917,10.56466378549726
2256.656,11.723530672314155
2258.1197,9.376251038024293
2259.5826,1.7228724365227208
2261.0447,10.563442327942084
2262.5062,6.34800815518679
2263.9669,3.776617255527526
2265.4269,24.54931690275521
2266.8862,12.416154332895303
2268.3448,13.577176536481375
2269.8026,11.832430379885409
2271.2598,14.431962593708931
2272.7162,5.775819790229207
2274.1719,5.56404843740529
2275.6268,19.44669494543814
2277.0811,14.423805668888917
2278.5346,15.595426767851905
2279.9874,20.86160425818389
2281.4395,20.972383999788008
2282.8908,9.477811643952236
2284.3414,15.8779326322408
2285.7914,14.522792311440298
2287.2406,20.212435869559613
2288.689,24.6969083493791
2290.1368,22.976254591555062
2291.5838,25.250519189776014
2293.0302,22.51974650796842
2294.4758,5.833980657553184
2295.9206,11.743265524754861
2297.3648,23.49764493745829
2298.8082,7.947162606116535
2300.251,13.741862006206702
2301.693,4.631786533734612
2303.1343,25.366979447287576
2304.5748,11.59748395913607
2306.0147,19.72334302788022
2307.4538,14.694599496147248
2308.8922,10.061296009329794
2310.3299,16.12347506587639
2311.7669,10.731179063622108
2313.2031,1.884450239168018
2314.6387,21.233330721803895
2316.0735,14.677843815160827
2317.5076,15.818012610537608
2318.941,18.75386005245457
2320.3737,16.98540892725225
2321.8056,12.062681833733222
2323.2369,12.13570120084637
2324.6674,16.604489336914412
2326.0972,12.469068428902915
2327.5263,14.929460497732748
2328.9547,20.235687439633693
2330.3823,16.337771001541455
2331.8092,17.585732728035396
2333.2355,9.929594000317365
2334.661,9.11937602373223
2336.0858,12.755099904329882
2337.5098,19.63678665696682
2338.9332,16.364457168949343
2340.3558,14.938132131215525
2341.7778,27.857832071059647
2343.199,15.173577366394625
2344.6195,20.285388116555737
2346.0393,21.493284269143146
2347.4583,14.697285568903112
2348.8767,20.947411545649857
2350.2943,24.64368158222578
2351.7113,26.486114851999105
2353.1275,20.42473028190159
2354.543,12.509546534003789
2355.9578,25.540582066129332
2357.3718,24.567855211005508
2358.7852,22.791384045953578
2360.1978,24.611186402617022
2361.6098,14.17727988472518
2363.021,27.039681849896397
2364.4315,29.498409513976185
2365.8413,26.50347982241385
2367.2504,24.004909425674327
2368.6587,28.002714709188695
2370.0664,16.446911818339004
2371.4733,26.737516618480527
2372.8795,23.374544810499742
2374.285,18.458011827907967
2375.6899,16.18793287047265
2377.0939,12.014322953380884
2378.4973,24.937196929941024
2379.9,20.656569533318816
2381.3019,19.922455247308562
2382.7032,11.384868349139424
2384.1037,21.29382291681634
2385.5035,18.249332914495767
2386.9027,15.651412093396516
2388.3011,10.70007402224428
2389.6987,14.795332113250765
2391.0957,12.437199671627923
2392.492,25.275689854634493
2393.8876,10.260815695158271
2395.2824,14.742589973329927
2396.6765,8.52102536667337
2398.07,9.29613440528658
2399.4627,19.26792953405834
2400.8547,15.086423104916548
2402.246,15.001627277109833
2403.6366,16.96355405902341
2405.0265,10.522215309026251
2406.4156,15.92762271585309
2407.8041,5.479787863016099
2409.1918,11.52872217475192
2410.5789,14.72438233221601
2411.9652,16.66672490127644
2413.3508,23.65570630055788
2414.7358,16.74128278201772
2416.12,15.473410361056267
2417.5035,19.95204488566162
2418.8863,26.627142049088434
2420.2684,23.498657345071024
2421.6497,21.416546001072902
2423.0304,21.1307630095705
2424.4104,16.14126314887517
2425.7896,22.198000985990575
2427.1682,20.00093092650843
2428.546,17.50000715404053
2429.9232,14.295183652190076
2431.2996,22.386414229560728
2432.6753,32.02365255180462
2434.0503,17.006852060710344
2435.4246,18.73596587783038
2436.7982,12.660946954648693
2438.1711,19.38174805529036
2439.5433,16.198321817270312
2440.9148,17.21062068428671
2442.2856,16.31859693805518
2443.6557,13.922202688185621
2445.025,16.871389881102573
2446.3937,18.466110324008923
2447.7617,16.80631565539386
2449.1289,23.291957329086813
2450.4955,27.37298663085403
2451.8613,23.39935461354264
2453.2265,26.471012056270183
2454.5909,32.437909504160984
2455.9546,26.7499972376296
2457.3177,21.607225212712024
2458.68,22.159543117944054
2460.0416,31.15690042578956
2461.4025,25.999246387117637
2462.7627,32.486529941228696
2464.1222,23.66869976743135
2465.4811,27.64570422016891
2466.8392,37.067491417198426
2468.1966,38.98400919981998
2469.5533,44.19520503865908
2470.9093,41.301026014501076
2472.2645,51.401418766179745
2473.6191,35.39632951951876
2474.973,41.63570398632828
2476.3262,44.71948752445553
2477.6787,39.64762507539092
2479.0305,45.570061133430954
2480.3816,33.23673979639557
2481.7319,36.59760470640458
2483.0816,33.402599173210774
2484.4306,31.151666140591033
2485.7789,37.99474821829642
2487.1264,29.631787704561248
2488.4733,37.5627265176729
2489.8195,33.48750627960089
2491.165,36.556068236687224
2492.5097,48.51835330040001
2493.8538,38.17430201664638
2495.1972,26.523854446150494
2496.5398,32.0669502678935
2497.8818,44.00352889561816
2499.2231,39.5835294223981
2500.5637,37.10689050127189
2501.9035,34.923550389443335
2503.2427,34.983446973047535
2504.5812,35.586517788984224
2505.919,45.632700024318865
2507.256,41.371930510252014
2508.5924,46.50414562165713
2509.9281,36.52928131968872
2511.2631,41.647273100460325
2512.5974,37.45805609479282
2513.9309,42.41156501703517
2515.2638,45.057734206956184
2516.596,42.1964975802091
2517.9275,46.077788601870225
2519.2583,41.00154031505065
2520.5884,42.46768530208419
2521.9178,36.92615573528974
2523.2465,35.17688336230947
2524.5745,47.019799561523996
2525.9018,44.65483535954593
2527.2284,51.131921312790155
2528.5543,53.80098753112327
2529.8796,47.96196361309296
2531.2041,50.51477861923706
2532.5279,47.90936113047405
2533.851,55.34563922257507
2535.1735,50.473540492218035
2536.4952,55.74299198262486
2537.8163,51.85392023228212
2539.1366,49.95625122224703
2540.4562,50.999910415037675
2541.7752,66.13482277361004
2543.0935,66.76091275092108
2544.411,64.6781041385799
2545.7279,56.88632006058674
2547.0441,62.535482994160816
2548.3596,62.225514847658474
2549.6744,52.95633690408147
2550.9885,58.42786982417624
2552.3019,58.690033739126875
2553.6146,63.59274819583857
2554.9266,68.78593215431681
2556.2379,58.41950393863988
2557.5485,62.64338118502724
2558.8585,64.30748094550347
2560.1677,63.61171964565949
2561.4762,57.90601306801159
2562.7841,68.29027635895898
2564.0913,64.3644240858406
2565.3977,60.42837013309338
2566.7035,60.88202774151057
2568.0086,68.97530954760168
2569.313,62.158127579056554
2570.6167,66.58039317381167
2571.9197,64.44201704822297
2573.222,75.04290925284215
2574.5236,65.6329791938009
2575.8246,69.16213552680188
2577.1248,74.18028625121815
2578.4244,75.93733867480194
2579.7232,85.3831993635024
2581.0214,77.2677741238956
2582.3189,83.74096790872579
2583.6157,81.2026848980596
2584.9118,82.90282843455441
2586.2072,84.89130104884066
2587.5019,92.6680044425209
2588.7959,93.68283946828501
2590.0893,89.18570605214234
2591.3819,99.77650318327471
2592.6739,103.25512895900704
2593.9652,105.47148047889903
2595.2557,108.37545380995971
2596.5456,103.2669439644834
2597.8348,102.74584487100998
2599.1234,111.61204942541013
2600.4112,112.11544949609652
2601.6983,109.65593583536167
2602.9848,118.13339807434363
2604.2705,114.94772474762158
2605.5556,121.24880320844096
2606.84,115.78651966057032
2608.1237,107.31075909529045
2609.4067,109.4714053460172
2610.689,112.6683411730591
2611.9707,114.75144824201055
2613.2516,115.02060709178312
2614.5319,111.17569711377354
2615.8115,116.5665965491732
2617.0903,106.24318252741637
2618.3685,114.4053310122718
2619.6461,109.65291690507689
2620.9229,102.93581396311578
2622.199,112.55389484714397
2623.4745,116.30703118855877
2624.7493,105.3950934932189
2626.0234,113.31795110391266
2627.2968,118.57547230947785
2628.5695,117.31752426557284
2629.8415,121.34397294210197
2631.1128,120.00468313579427
2632.3835,117.94951842993925
2633.6535,110.62834120777984
2634.9228,117.84101267306403
2636.1914,115.28739292325679
2637.4593,123.31734087741302
2638.7265,115.0307143017144
2639.9931,113.72736972916897
2641.259,120.10716254247814
2642.5242,115.76994698706972
2643.7887,120.06557610729982
2645.0525,124.34390178982568
2646.3156,108.70477472064835
2647.5781,110.64804434233054
2648.8398,109.47355901038719
2650.1009,103.78116597385275
2651.3613,116.02071138702667
2652.6211,105.29204036639669
2653.8801,115.39499686824348
2655.1385,114.02942379592798
2656.3961,105.84516289886159
2657.6531,117.39205478616088
2658.9094,115.41993900849155
2660.1651,121.52865394259891
2661.42,122.1680368110288
2662.6743,123.53792362104105
2663.9279,127.03814915821482
2665.1808,126.41854697275079
2666.433,120.42894934446775
2667.6846,135.1191872889994
2668.9354,135.93909061769023
2670.1856,138.48848779069255
2671.4351,138.7672059087684
2672.6839,143.97507068779487
2673.9321,147.16190645597692
2675.1795,141.52753610176944
2676.4263,150.22178104200822
2677.6724,146.5944612782544
2678.9179,141.14539530985144
2680.1626,147.07440017019832
2681.4067,152.13129148124023
2682.6501,145.31588339417806
2683.8928,155.0279885389008
2685.1348,146.11741809213834
2686.3761,139.5839816803409
2687.6168,142.87748746878498
2688.8568,136.09774222690714
2690.0961,134.54455129536922
2691.3348,134.96771865385585
2692.5727,127.2170469366061
2693.81,121.39233742818237
2695.0466,129.543390140977
2696.2826,122.27000387345856
2697.5178,129.3219761286622
2698.7524,125.84910318692312
2699.9863,126.7511800353567
2701.2195,131.62800040258782
2702.452,135.22935674972985
2703.6839,144.75504022161607
2704.9151,143.1048406107863
2706.1456,142.9285462622305
2707.3755,148.32594408988996
2708.6046,162.2968195784212
2709.8331,159.79095672922136
2711.0609,163.95813792071965
2712.2881,175.598143933436
2713.5145,188.56075390830927
2714.7403,204.0957452302968
2715.9654,203.0528933987486
2717.1899,216.18197187205755
2718.4136,242.88275207808766
2719.6367,248.35500328288379
2720.8591,247.99849232366324
2722.0809,267.3129835540934
2723.3019,278.09823884785726
2724.5223,281.2540174055081
2725.7421,280.6800756466166
2726.9611,284.7761671782141
2728.1795,281.24204280053084
2729.3972,272.6774504660359
2730.6142,264.0821353147777
2731.8306,244.30583976003032
2733.0462,230.89830357424705
2734.2612,217.40926408682265
2735.4756,209.93845631816924
2736.6892,179.5356131146067
2737.9022,173.40046522307023
2739.1145,151.28274159513944
2740.3262,137.9821694483894
2741.5372,130.94847448756764
2742.7475,120.63138103760053
2743.9571,106.18061211392956
2745.1661,96.24588952568308
2746.3744,85.87693402018346
2747.582,80.37346538229428
2748.7889,69.33520253811002
2749.9952,53.46186360999042
2751.2008,55.253166026943404
2752.4057,48.358826683358416
2753.61,48.92856192109349
2754.8136,42.71208759841852
2756.0165,39.259119084317604
2757.2188,44.2693713206545
2758.4204,37.04255885670159
2759.6213,27.328395799037935
2760.8215,34.57659588381739
2762.0211,32.43687257390985
2763.22,24.50893898641982
2764.4182,26.642507914082955
2765.6158,12.837291904545737
2766.8127,8.843003239029883
2768.009,5.609354070384768
2769.2045,9.886056463029547
2770.3994,4.022822425290201
2771.5936,2.9193638666326933
2772.7872,-5.474607343705259
2773.9801,-10.159379365679115
2775.1723,-18.685185667917324
2776.3639,-8.402158226848655
2777.5548,-21.460242353897456
2778.745,-12.059299422927722
2779.9346,-16.84897641998225
2781.1235,-17.528799858702882
2782.3117,-16.098127931457498
2783.4992,-14.206143717903558
2784.6861,-7.401869477400794
2785.8723,-5.334185549933466
2787.0579,-3.451898330810195
2788.2428,-5.953760926826135
2789.427,6.961508039687715
2790.6106,5.395249424472013
2791.7935,12.898804013652295
2792.9757,25.17351253940194
2794.1573,38.52071560490606
2795.3382,51.59175356161552
2796.5184,58.48796637577391
2797.698,73.0606934977078
2798.8769,78.66127379286411
2800.0551,96.64104539608297
2801.2327,108.50134565559233
2802.4096,131.29351095320953
2803.5859,138.21887658573883
2804.7615,167.32877653704918
2805.9364,184.47454340882155
2807.1106,212.20750812944834
2808.2842,230.8789997825777
2809.4572,262.94034532978196
2810.6294,300.4928694238447
2811.801,327.18789408814564
2812.972,364.0767383411361
2814.1423,411.2107179293889
2815.3119,457.99114495871015
2816.4808,492.21932742279887
2817.6491,535.6965687354424
2818.8167,591.3241673882359
2819.9837,642.3034165158081
2821.15,690.385603339547
2822.3157,733.5720086578065
2823.4807,778.8639063650852
2824.645,818.1625630201614
2825.8086,864.6692373931752
2826.9716,918.1851800726408
2828.134,951.6616330003807
2829.2957,992.7998289363647
2830.4567,1018.800991123948
2831.617,1033.6663328784873
2832.7767,1038.4970573273295
2833.9358,1035.9943572611585
2835.0941,1035.8094150856878
2836.2519,1019.3934028466879
2837.4089,996.9474822318354
2838.5653,988.0228047348731
2839.7211,984.5705118800693
2840.8761,968.8417353114645
2842.0306,983.8875968273944
2843.1843,1013.6092085377776
2844.3374,1074.8076727136577
2845.4899,1119.3840814899852
2846.6417,1179.9395162536352
2847.7928,1254.4750471976427
2848.9433,1332.9917327156459
2850.0931,1404.3906186565337
2851.2422,1464.7727375392783
2852.3907,1536.4391078389463
2853.5385,1606.090733382875
2854.6857,1651.3286026340138
2855.8323,1709.353687994404
2856.9781,1754.3669453528
2858.1233,1797.3193135044219
2859.2679,1844.5117137008185
2860.4118,1885.995049220348
2861.555,1938.8702048962498
2862.6976,1964.538046701814
2863.8395,2008.449421221629
2864.9808,2022.155155394903
2866.1214,2046.40605607635
2867.2614,2045.7029098991345
2868.4007,2067.3464830323583
2869.5393,2075.8375211880957
2870.6773,2090.4767494049584
2871.8146,2103.0148719631798
2872.9513,2096.002572238229
2874.0874,2099.3905125754254
2875.2227,2103.379334360063
2876.3574,2076.269657983531
2877.4915,2046.9620828034276
2878.6249,2023.657187414652
2879.7577,1991.6555299424847
2880.8898,1967.507648275633
2882.0212,1967.664060386252
2883.152,1947.2252645714184
2884.2821,1917.9417394515697
2885.4116,1916.7639441748906
2886.5405,1931.5423187101487
2887.6686,1931.1272838584723
2888.7962,1925.469241105568
2889.923,1939.3185726258694
2891.0493,1953.8256413391168
2892.1748,1940.6407907718672
2893.2997,1973.1643449124203
2894.424,1985.1966083426687
2895.5476,2003.337865912862
2896.6706,2036.988382621283
2897.7929,2045.848403432838
2898.9145,2081.868152942549
2900.0355,2103.1978352869537
2901.1559,2147.2376337839096
2902.2756,2178.0877107192973
2903.3946,2219.8982069066187
2904.513,2234.9692413785015
2905.6308,2266.2009109685896
2906.7479,2289.8932901608364
2907.8643,2327.846430777185
2908.9801,2331.8103617406473
2910.0953,2351.83508869577
2911.2098,2336.1205939689976
2912.3236,2338.466836368423
2913.4368,2310.0737513409354
2914.5494,2304.6412509487527
2915.6613,2277.5192241533578
2916.7725,2240.7075368698206
2917.8831,2213.60603223802
2918.9931,2202.264530990759
2920.1024,2162.18283172478
2921.211,2160.660711014183
2922.319,2134.1479238112374
2923.4264,2114.5442034616076
2924.5331,2097.549261969477
2925.6391,2090.9127901935885
2926.7445,2095.834458017194
2927.8493,2094.363914414416
2928.9534,2082.3007874010345
2930.0569,2063.59468404919
2931.1597,2084.295190608015
2932.2619,2071.8518726906964
2933.3634,2081.0142750674677
2934.4643,2066.231921790046
2935.5645,2053.3043161000032
2936.6641,2033.9809405765961
2937.763,1999.3112572660352
2938.8613,1940.0947078747236
2939.959,1888.5807141159526
2941.056,1820.368678302065
2942.1523,1727.1579838595985
2943.248,1664.297996011403
2944.3431,1570.9880627087489
2945.4375,1468.4275152599266
2946.5313,1368.665669263347
2947.6244,1272.7018256331448
2948.7169,1164.5852715968003
2949.8087,1083.1652816547735
2950.8999,986.4411186616732
2951.9904,927.2120346404548
2953.0803,837.3272717496639
2954.1696,772.3860628757253
2955.2582,728.1876325317917
2956.3462,681.6311975071558
2957.4335,650.8159673092342
2958.5202,615.0911446291318
2959.6062,607.7059256497938
2960.6916,579.3595004032547
2961.7764,554.5510528444897
2962.8605,543.5297611348793
2963.9439,538.8947978902936
2965.0267,524.5453302913053
2966.1089,516.9305201295393
2967.1905,528.5995239511673
2968.2714,522.551493133056
2969.3516,523.2355737660776
2970.4312,535.9509067155888
2971.5102,531.0966276145915
2972.5885,527.5218667365782
2973.6662,541.3757490440762
2974.7432,538.3573942243939
2975.8196,537.5159165510822
2976.8954,529.8504249141188
2977.9705,525.2100228283223
2979.045,518.7938085100077
2980.1188,502.75087492339037
2981.192,491.63030984474744
2982.2645,475.93119602284764
2983.3364,453.5526112901573
2984.4077,421.89362871983064
2985.4783,407.5033168494957
2986.5483,376.5807399978446
2987.6177,345.7249584085364
2988.6864,319.685028559423
2989.7545,285.2100034711068
2990.8219,259.2989329673403
2991.8887,219.6008640197761
2992.9548,202.26484100707768
2994.0204,166.18990611189992
2995.0852,140.87509949424953
2996.1495,125.96945965223455
2997.2131,99.07202367521234
2998.276,87.58182739284558
2999.3383,73.94790564407737
3000.4,55.91929239203233
3001.4611,49.59502086035644
3002.5215,30.67412371350298
3003.5812,18.7556331199753
3004.6404,12.838580941535497
3005.6989,8.62199885239005
3006.7567,3.7549183983597345
3007.8139,-5.913628960954384
3008.8705,-5.3346118034996834
3009.9264,-5.058939630070654
3010.9818,-16.137468648689946
3012.0364,-15.571004528573667
3013.0905,-10.960191725626032
3014.1439,-4.055519141416653
3015.1966,-12.157366185199749
3016.2487,0.08392824840655067
3017.3002,2.9181467168720587
3018.3511,-4.354928223172294
3019.4013,0.11448595572318254
3020.4509,-4.823784713258817
3021.4998,13.680085801919915
3022.5481,19.72597172290648
3023.5958,10.713747134547646
3024.6428,21.793285924430336
3025.6892,27.064461873004063
3026.735,30.2271485427857
3027.7802,35.681219225647794
3028.8247,41.67654691119134
3029.8685,47.6130042322057
3030.9118,49.5904634047148
3031.9544,61.708796168612764
3032.9963,66.71787376788905
3034.0376,78.5175668294454
3035.0783,84.95774531300532
3036.1184,100.18827839311672
3037.1578,103.45903439475074
3038.1966,108.7698806409959
3039.2348,107.62068342035036
3040.2723,112.2113079336142
3041.3092,114.5916183053804
3042.3455,114.46147753812937
3043.3811,120.27074748842506
3044.4161,124.5192888682173
3045.4505,112.80696118674837
3046.4842,126.28362270806775
3047.5173,113.19913056815574
3048.5498,106.05334064015653
3049.5816,106.24610766522318
3050.6128,107.82728532397522
3051.6434,106.59672623457152
3052.6734,107.15428193689831
3053.7027,99.64980290487483
3054.7314,100.0331385408773
3055.7594,94.75413725078425
3056.7868,95.66264644014313
3057.8136,92.20851256696017
3058.8398,95.69158113261528
3059.8653,93.91169671640347
3060.8902,95.46870294070402
3061.9145,92.7124424887794
3062.9381,90.79275708920522
3063.9612,90.40948754343293
3064.9835,90.06247374498639
3066.0053,89.50155468329484
3067.0264,80.67656844716294
3068.0469,81.73735223037994
3069.0668,75.88374241996965
3070.086,68.11557458558232
3071.1046,71.98268353803093
3072.1226,67.08490340697298
3073.1399,55.12206760223927
3074.1567,48.74400886281174
3075.1727,50.05055937645173
3076.1882,44.191550843480684
3077.203,30.316814463714394
3078.2173,33.426180995053414
3079.2308,24.719480892230052
3080.2438,22.8965442757152
3081.2561,19.60720101878485
3082.2678,15.451280765749743
3083.2789,12.328612964848816
3084.2893,7.939026909808206
3085.2991,10.682351771068113
3086.3083,6.508416639678558
3087.3169,3.2670504998661443
3088.3248,1.3580822707733091
3089.3321,-0.16865916112803347
3090.3388,-2.213344922946618
3091.3449,-1.6261444568863226
3092.3503,-1.0072050938353243
3093.3551,0.3433420805013725
3094.3593,-0.1746239576024493
3095.3629,-1.1612242353063493
3096.3658,5.3834219647233965
3097.3681,-2.290793039549385
3098.3698,-4.083976983995001
3099.3708,-3.8462147194612157
3100.3713,-3.277550297865986
3101.3711,-4.1779893474421215
3102.3702,-3.597504753695091
3103.3688,-3.136027664016865
3104.3667,0.6065467132729339
3105.364,1.230354498771021
3106.3607,-0.8144681929912849
3107.3568,-0.8777852597862363
3108.3522,1.290547537151184
3109.347,-0.8093167943393951
3110.3412,1.222774740676357
3111.3348,6.2869832222074535
3112.3277,0.23346971803522365
3113.32,9.66239523307128
3114.3117,10.67391843986475
3115.3028,10.11819791434084
3116.2932,8.245392125685669
3117.2831,9.405659441903325
3118.2723,11.949158148544115
3119.2608,15.426046437101817
3120.2488,13.086482379578598
3121.2361,15.03062389371621
3122.2229,17.908628766391644
3123.209,16.970654634175702
3124.1944,18.816858954553027
3125.1793,21.34739901530176
3126.1635,20.562431916031684
3127.1471,22.012114542878663
3128.1301,20.246603576354545
3129.1125,24.766055476850198
3130.0942,23.420626502290432
3131.0753,26.610472662939543
3132.0558,27.185749734855577
3133.0357,33.99661322799187
3134.015,21.74321838044429
3134.9936,26.175720090342622
3135.9716,27.99427303838455
3136.949,30.699031643510608
3137.9258,36.140150044718624
3138.902,35.36778207401615
3139.8775,41.48208120200928
3140.8524,37.48320054562636
3141.8267,38.97129280697496
3142.8004,42.69651031333068
3143.7735,37.60900500225619
3144.7459,40.40892838434915
3145.7178,40.7464315941172
3146.689,43.6716653619787
3147.6596,46.73478001088777
3148.6295,45.185925427081834
3149.5989,47.02525102945059
3150.5676,49.152905785024494
3151.5357,49.469038190581486
3152.5032,45.523796251370506
3153.4701,50.9673274779501
3154.4364,50.19977892564092
3155.402,54.82129714009032
3156.367,55.48202816494795
3157.3315,54.53211749565044
3158.2952,58.571710072814206
3159.2584,52.35095029173449
3160.221,53.61998196198941
3161.1829,59.72894836964761
3162.1442,60.52799226457799
3163.105,56.41725579935988
3164.065,58.346880521292775
3165.0245,60.06700741350359
3165.9834,61.47777687565045
3166.9416,59.77932870672143
3167.8993,61.42180209092686
3168.8563,61.25533561468379
3169.8127,65.68006725019123
3170.7684,70.89613435709487
3171.7236,69.8036736382397
3172.6782,74.00282108750943
3173.6321,72.99371200075099
3174.5854,72.47648093378314
3175.5381,75.45126171248748
3176.4902,79.11818743798086
3177.4417,75.87739045686745
3178.3926,73.82900232456959
3179.3428,81.32315383773567
3180.2924,77.40997505472411
3181.2415,79.43959522066177
3182.1899,82.41214280657573
3183.1377,82.07774548909713
3184.0848,83.3365301207357
3185.0314,83.88862273322373
3185.9773,88.0341485249281
3186.9227,87.6732318553296
3187.8674,82.50599620356743
3188.8115,89.33256417204854
3189.755,92.1530575381198
3190.6979,94.76759718580257
3191.6402,91.42630307758752
3192.5818,92.12929422828942
3193.5229,94.77668873845997
3194.4633,96.5186037873579
3195.4031,95.90515560647508
3196.3423,95.63645946211729
3197.2809,96.26262966153877
3198.2189,101.83377955562914
3199.1563,101.5500215326517
3200.0931,100.711466962532
3201.0292,102.91822619969533
3201.9648,101.67040859145229
3202.8997,107.16812245593118
3203.834,100.86147509455625
3204.7677,105.60057273707046
3205.7008,106.78552060460203
3206.6333,110.76642286227334
3207.5652,114.39338260735167
3208.4964,109.7165018294399
3209.4271,109.58588137420718
3210.3571,113.35162099015751
3211.2865,113.51381932993615
3212.2154,116.87257391267208
3213.1436,114.0279811223561
3214.0712,116.0801361742532
3214.9982,120.02913314334855
3215.9246,117.225064943826
3216.8503,119.41802328957804
3217.7755,120.8580987222465
3218.7001,123.04538058929292
3219.624,123.3299570295979
3220.5473,125.76191495158821
3221.4701,121.34134003039095
3222.3922,126.11831668351407
3223.3137,128.24292811505208
3224.2346,128.6652562679163
3225.1549,127.13538180258874
3226.0746,132.55338409289882
3226.9937,131.51934124132214
3227.9121,133.9333300248004
3228.83,134.9954259050818
3229.7473,135.25570300458122
3230.6639,137.96423409575942
3231.5799,135.4210905985198
3232.4954,136.12634255312355
3233.4102,136.93005864562087
3234.3244,138.03230620079853
3235.238,140.38315117414263
3236.151,142.0826581408162
3237.0634,142.3308902721506
3237.9752,141.1279093186508
3238.8864,140.97377560751266
3239.797,142.56854805465304
3240.7069,146.41228416625094
3241.6163,147.65504002279977
3242.5251,149.09687024067006
3243.4332,149.13782795968194
3244.3408,148.97796482868668
3245.2477,149.9173310051573
3246.154,149.8059751567871
3247.0598,151.693944452096
3247.9649,155.43128456154406
3248.8694,154.06803963865195
3249.7733,154.55425228262737
3250.6766,155.78996355199754
3251.5793,158.1252129597471
3252.4814,157.61003846096096
3253.3829,156.99447642947186
3254.2838,163.37856166301208
3255.1841,159.06232738936907
3256.0838,161.6958052025447
3256.9829,159.6290251059176
3257.8814,160.96201548590824
3258.7792,164.54480313264668
3259.6765,166.32741322664293
3260.5731,163.45986930295882
3261.4692,165.49219323338198
3262.3647,165.9744052551013
3263.2595,167.5065239503837
3264.1538,164.7385662417521
3265.0474,168.07054737666402
3265.9404,170.1024809551913
3266.8329,172.53437889670016
3267.7247,168.81625141953197
3268.616,172.49810701668432
3269.5066,170.67995249299216
3270.3966,170.51179292830943
3271.286,166.79363169569032
