RamanShift,CorrectedData
30.1047,1084.477987155204
32.3739,1003.9148164722706
34.6426,926.8516349445572
36.9109,848.9384216881357
39.1787,770.4751465505615
41.4461,691.9617708900051
43.7131,617.9482483598856
45.9796,540.1845256940038
48.2456,462.8205434466779
50.5112,389.3062367703808
52.7764,312.7915361893797
55.0411,236.2263683348792
57.3054,159.5106567101687
59.5692,82.29432245627366
61.8326,8.027285119113117
64.0955,-60.84053657833719
66.3579,-134.30922399337427
68.6199,-198.92825068633482
70.8815,-255.94574846840797
73.1426,-281.5578618575587
75.4032,-209.60817847372505
77.6634,95.56252682619504
79.9231,923.815573171006
82.1824,2853.962278733887
84.4412,6455.713952449863
86.6995,11599.631874714338
88.9574,16837.427261365567
91.2148,20587.861212245505
93.4717,22389.294658821822
95.7282,22815.13832668357
97.9842,22784.55271752687
100.2398,22333.698104896448
102.4949,21807.984534491516
104.7495,21101.421828674294
107.0036,20371.769591727163
109.2573,19633.48721691828
111.5105,18866.933893798123
113.7632,18118.918615582283
116.0154,17446.65018681702
118.2672,16961.087230859404
120.5185,16393.23819660001
122.7693,15985.361363318541
125.0197,15642.814846362315
127.2696,15297.606601225034
129.519,15113.394426972263
131.7679,14878.585969693497
134.0163,14705.038724344284
136.2642,14496.310037094316
138.5117,14248.357107062897
140.7587,14049.53698840624
143.0052,13828.006592796984
145.2512,13583.172691412397
147.4967,13309.14191714969
149.7417,13161.720767074337
151.9863,12971.015605160404
154.2304,12846.58266376475
156.4739,12613.028045534074
158.717,12501.907724649252
160.9596,12284.42754916088
163.2017,11986.793242100483
165.4433,11647.560403655301
167.6844,11302.684514144657
169.925,10940.62093741226
172.1651,10511.07492427498
174.4047,10205.501616143476
176.6439,9841.656049317658
178.8825,9576.893158042423
181.1206,9364.36777814611
183.3582,9114.534649688127
185.5954,8919.948419084201
187.832,8774.413641604728
190.0681,8648.2847833206
192.3037,8538.766222558592
194.5388,8456.31225116262
196.7734,8442.27707558895
199.0075,8436.564817730712
201.2411,8453.529515058279
203.4742,8406.625120676374
205.7068,8460.40550315443
207.9389,8465.57444699563
210.1704,8520.235652099098
212.4015,8528.542733708224
214.632,8604.699221864033
216.862,8731.258561322138
219.0915,8784.77411079115
221.3205,8931.649141667105
223.549,9123.286837498303
225.777,9370.04029251655
228.0044,9675.062509720796
230.2314,10108.50639840958
232.4578,10442.074771130829
234.6837,10759.670339347405
236.909,10872.495710101422
239.1339,10734.453382838303
241.3582,10452.845748278509
243.582,9969.175089797978
245.8053,9535.393586244187
248.0281,9103.453316772866
250.2503,8792.906265185822
252.472,8526.204324250319
254.6932,8365.94929880457
256.9139,8164.74290842474
259.134,8043.48678902751
261.3536,7890.88249488213
263.5727,7778.781499822988
265.7912,7609.535198775647
268.0092,7508.394908877864
270.2267,7373.861871172041
272.4436,7257.287251616637
274.6601,7134.322142431496
276.8759,7027.067563263594
279.0913,6962.324462416686
281.3061,6948.59371792386
283.5204,6978.826138194961
285.7341,7014.272462153898
287.9473,7151.233358936321
290.16,7327.309427535157
292.3721,7602.351195431011
294.5837,7952.80911683139
296.7947,8234.783569920297
299.0052,8349.774853353641
301.2152,8106.5831834395
303.4246,7734.108692988211
305.6334,7172.051433744281
307.8418,6652.861380111128
310.0495,6240.138434771666
312.2568,5919.9324338801935
314.4635,5692.043151189631
316.6696,5613.320301253577
318.8752,5572.313541705199
321.0802,5592.122474044468
323.2847,5655.496644048213
325.4887,5681.285541572058
327.692,5588.788599916653
329.8949,5400.805195569802
332.0972,5136.584649131426
334.2989,4819.826227193402
336.5001,4519.229144981763
338.7007,4301.492569524283
340.9008,4142.515622656456
343.1003,3996.6473831988505
345.2992,3921.8868885468864
347.4976,3858.7831361295102
349.6955,3809.1350841568037
351.8927,3855.2916522510204
354.0895,3821.601721943067
356.2856,3803.9141362109385
358.4812,3761.6776998166188
360.6763,3738.791179482949
362.8707,3678.7033043160063
365.0646,3684.062766033958
367.258,3635.8682195679394
369.4508,3587.5682830084643
371.643,3572.0115380873613
373.8346,3515.1965306607835
376.0257,3426.6717708647757
378.2162,3351.8357336834233
380.4062,3192.5368598340956
382.5956,3028.9735565158117
384.7844,2921.344199002224
386.9726,2742.8471322772475
389.1603,2718.0806721113768
391.3474,2640.893106846628
393.5339,2600.6326976442215
395.7199,2519.2476792564466
397.9052,2525.6362604292735
400.09,2458.896624716195
402.2743,2515.4269304143527
404.4579,2509.125311231919
406.641,2589.739875722804
408.8235,2783.018707349671
411.0054,3062.659863677791
413.1868,3474.0113744422506
415.3675,3767.021238751542
417.5477,3929.6374209740534
419.7273,3957.95784780796
421.9064,3808.880406655071
424.0848,3642.952945337611
426.2627,3403.5232735890168
428.4399,3107.0891647131903
430.6166,2775.898357978811
432.7928,2448.3485615836726
434.9683,2132.6374559665874
437.1432,1934.062697082887
439.3176,1735.3719195615304
441.4914,1661.012738690857
443.6645,1613.382752405494
445.8371,1538.429542029935
448.0091,1447.05067275486
450.1806,1386.7436943866505
452.3514,1314.6061422611874
454.5216,1295.5855378469223
456.6913,1192.1293894662467
458.8603,1205.7351924857012
461.0288,1234.7504303505375
463.1967,1228.2725744486597
465.3639,1365.6490838204754
467.5306,1470.0274052236673
469.6967,1607.2549717594338
471.8622,1727.7292018287008
474.0271,1879.4974977598467
476.1914,1917.2572446039612
478.3551,1878.9058086171535
480.5182,1825.7405368829732
482.6807,1780.0587576959078
484.8426,1816.05778109305
487.0039,2000.734899310908
489.1647,2350.2373864254114
491.3248,2714.2624965051564
493.4843,2893.207460116366
495.6432,2871.569480682647
497.8015,2807.24573269553
499.9592,2806.333361930867
502.1163,2804.4794860920447
504.2728,2608.6811948191335
506.4287,2339.9355497074066
508.5839,1919.289586265335
510.7386,1621.8403166020362
512.8927,1434.1347336337367
515.0461,1273.3698140582655
517.199,1160.642520232108
519.3512,1104.8998017780468
521.5029,1087.8885967124497
523.6539,1093.8058320026903
525.8043,1112.3484237372559
527.9541,1137.0132770665878
530.1033,1166.7472860176458
532.2519,1259.1473332472633
534.3999,1370.910289744801
536.5472,1665.6830139081594
538.694,2101.362350426125
540.8401,2685.995127330665
542.9856,3194.9281516401315
545.1305,3333.958203512926
547.2748,3165.9820311581734
549.4185,2789.1963494454158
551.5615,2423.797841584381
553.704,2239.5831628928354
555.8458,2154.1489444505696
557.987,2137.5417949415496
560.1276,1998.9083015082506
562.2675,1907.6450299177413
564.4069,1805.948525947997
566.5456,1664.0153163005562
568.6837,1559.29190961747
570.8212,1334.0247979006417
572.958,1166.160457559059
575.0942,1057.8953516614638
577.2299,955.9259316149892
579.3648,978.7986382478302
581.4992,1073.5599028289162
583.6329,1271.9561468391985
585.766,1493.1837810240359
587.8985,1603.3892034092278
590.0304,1624.1187970887404
592.1616,1549.2689291226561
594.2922,1477.2859503298605
596.4222,1357.4661960365684
598.5515,1226.3559867961303
600.6802,1068.4516295872418
602.8083,918.1994191250396
604.9358,873.1456394401466
607.0626,788.186565381202
609.1888,707.9684630653865
611.3144,594.1375907280235
613.4393,441.7901995247539
615.5636,329.42253466984766
617.6873,245.03083695967507
619.8103,192.9613438963861
621.9327,152.66029053182865
624.0544,165.17390998824703
626.1756,180.84843386128523
628.2961,173.88009209485062
630.4159,131.86511282437277
632.5351,110.69972244648307
634.6537,47.7301460391609
636.7716,20.45260757340293
638.8889,16.31333054290917
641.0056,46.0585382368572
643.1216,37.384290974256146
645.237,111.43664861352772
647.3518,98.06167063925568
649.4659,137.05541542166247
651.5793,135.81394035035373
653.6922,128.08330144439788
655.8043,130.90955336471598
657.9159,122.68874949140445
660.0268,47.316941895471246
662.137,-12.859818578963313
664.2466,-27.29548156093915
666.3556,-34.093868209914945
668.4639,-15.458527003496783
670.5716,9.25733417844458
672.6786,100.70066188672718
674.785,174.1683101913859
676.8907,250.8071321554562
678.9958,320.96397910029737
681.1002,313.8356998391937
683.204,283.11913997580086
685.3072,265.3611419754234
687.4097,209.8585454721724
689.5115,187.55818744655335
691.6127,79.95690278049005
693.7132,42.95152448032604
695.8131,-18.461115247158887
697.9123,-50.58418462469854
700.0109,-52.57066744848453
702.1089,-80.62304217870769
704.2061,-42.59326209460232
706.3028,-28.582475051212896
708.3987,3.508596603103797
710.4941,96.07951605891503
712.5887,295.0298114559009
714.6827,576.5590099729488
716.7761,953.216635838653
718.8688,1257.0022075160177
720.9608,1482.3152339358912
723.0522,1470.7552114590999
725.1429,1251.6216216233242
727.233,942.6139312586965
729.3224,645.3315946791408
731.4112,367.37405677244533
733.4993,193.59075597308038
735.5867,79.93112704178748
737.6735,45.59460280339408
739.7596,6.330615283428415
741.845,-15.111403948531006
743.9298,22.41797661379769
746.014,44.26833943961174
748.0974,67.78926677393338
750.1802,32.18034041910687
752.2624,57.69114149958568
754.3439,81.52125081802296
756.4247,130.67024860016318
758.5048,230.73771425654013
760.5843,365.72322589099076
762.6631,613.2263592999789
764.7413,987.496686622746
766.8188,1473.283773866272
768.8956,1885.687177162571
770.9718,2124.9564379108288
773.0473,2045.841078653354
775.1221,1776.6406006828947
777.1962,1438.2044848337946
779.2697,1300.6321941739889
781.3426,1366.0231773893756
783.4147,1655.6768701595374
785.4862,1947.0926945038254
787.557,2004.7700558848328
789.6271,1699.2083402942262
791.6966,1206.4069136759754
793.7654,797.9651249819772
795.8335,524.9823111000578
797.901,379.6078009383982
799.9678,354.9409181553583
802.0339,385.6809826132203
804.0993,468.27731062486237
806.1641,459.57921464635456
808.2282,428.1360024509968
810.2916,322.29697721630146
812.3544,274.2114378384276
814.4164,200.7786799905616
816.4778,190.74799660378176
818.5385,198.71867860138627
820.5986,247.29001499919195
822.658,296.91129282583734
824.7166,333.4817966370647
826.7747,443.7008080195046
828.832,567.9676052249733
830.8886,651.7314620682864
832.9446,796.54164668459
834.9999,871.8474206917217
837.0545,942.1980377421041
839.1085,1023.8427427696943
841.1618,1034.8307712864653
843.2143,1068.761348565975
845.2662,1027.7336895334674
847.3175,998.3469984265876
849.368,893.8504692056413
851.4179,790.6932858474702
853.467,666.7246233904134
855.5155,599.9936489658849
857.5633,514.349523038054
859.6105,424.5414000711544
861.6569,369.3684293859278
863.7027,323.2797560577055
865.7478,325.2745214681372
867.7922,342.9018637660738
869.8359,443.510917847625
871.8789,552.2508151798829
873.9212,682.0706827948352
875.9629,860.5696422019655
878.0039,1024.496808090059
880.0441,1110.5512865422033
882.0837,1111.1821733965262
884.1226,1015.5885533856417
886.1609,889.669500130346
888.1984,793.9740770955568
890.2352,737.3513388494948
892.2714,695.5003320206451
894.3069,687.9700958639787
896.3416,645.6596626794662
898.3757,623.2680578873797
900.4091,650.6443004513967
902.4418,680.2374031025229
904.4739,683.196372065323
906.5052,680.6702067619899
908.5358,566.2078997827566
910.5658,477.70843691115715
912.595,358.22079826864774
914.6236,257.29395919960825
916.6515,244.47689146621087
918.6786,254.4685642576933
920.7051,336.01794431852886
922.7309,427.32399584850555
924.756,505.1356796872351
926.7804,586.151952401091
928.8041,579.4717655050981
930.8272,602.2940646527641
932.8495,562.9677897028814
934.8711,502.54187449130313
936.892,373.5652472242082
938.9123,249.93683108236473
940.9318,159.55554551088517
942.9506,51.220307455519105
944.9688,-24.469967733536578
946.9862,-37.56636521828659
949.003,-60.26972570576072
951.019,-45.28051461500581
953.0344,-12.64859527050794
955.0491,27.776621355579664
957.063,107.59585065057217
959.0763,200.60980772402309
961.0888,249.36920660952637
963.1007,324.2747593345812
965.1119,364.32717543299896
967.1223,412.37716119584
969.1321,432.4754192709006
971.1412,498.27264818220465
973.1495,498.16954212902783
975.1572,539.3667903279229
977.1641,585.5150770137507
979.1704,573.2650810277055
981.1759,573.2174753558347
983.1808,669.1229272515357
985.1849,755.3820982360321
987.1884,917.6456431393217
989.1911,1096.5642092375865
991.1932,1239.088434630553
993.1945,1294.7189464523099
995.1951,1282.656359446065
997.1951,1209.9512754078396
999.1943,1177.054283307094
1001.1928,1148.6159600137808
1003.1906,1158.0368706273111
1005.1877,1199.1175687609384
1007.1841,1159.458596447551
1009.1798,1086.960483728858
1011.1748,934.1737490519845
1013.1691,760.7988999944519
1015.1627,597.9864347920466
1017.1556,450.7868440725697
1019.1477,396.85061248396505
1021.1392,343.47822016631017
1023.1299,349.97014329118065
1025.12,404.9268545953728
1027.1093,443.59882331598146
1029.0979,543.3865146408361
1031.0859,582.6403893217794
1033.0731,592.5109026767923
1035.0596,530.4485041974522
1037.0454,419.15363745023205
1039.0304,334.5267406971234
1041.0148,247.21824800858758
1042.9985,186.17859010982102
1044.9814,155.15819525383722
1046.9636,134.05748983187004
1048.9452,123.0268986835681
1050.926,133.7168453080094
1052.9061,123.77775197400751
1054.8855,152.21003961320548
1056.8642,147.86412791947077
1058.8421,226.8904350645762
1060.8194,238.03937774165297
1062.7959,277.81137037493136
1064.7717,284.35682500824987
1066.7469,308.27615090733343
1068.7213,276.4197544943472
1070.695,267.5880391086939
1072.6679,209.08140532558264
1074.6402,179.600251044345
1076.6117,198.19497207350287
1078.5826,209.11596242557607
1080.5527,264.3636141311408
1082.5221,424.08831712961364
1084.4908,613.1904587167801
1086.4587,834.8704219475467
1088.426,969.678583744917
1090.3925,969.2653126831929
1092.3584,921.780967639892
1094.3235,813.2258977998827
1096.2879,705.2504431302268
1098.2515,673.7049354657311
1100.2145,693.1896995886955
1102.1767,761.0050535443761
1104.1382,901.0513084461318
1106.099,1049.628767797275
1108.0591,1243.8377260906118
1110.0185,1378.32846732266
1111.9771,1401.5012630515612
1113.9351,1187.1563710521768
1115.8923,932.7940350843564
1117.8488,647.4144870363871
1119.8045,430.867949468623
1121.7596,328.50463846727416
1123.7139,264.6247658098746
1125.6675,289.3785399889139
1127.6204,348.21616685064055
1129.5726,371.73784934751984
1131.524,423.04378694985553
1133.4748,472.3341754105795
1135.4248,529.2092062521897
1137.3741,553.4190662738429
1139.3226,541.4139369826098
1141.2705,507.04399435136565
1143.2176,482.2094089388538
1145.164,494.91034623337055
1147.1097,519.446966901125
1149.0546,544.31942665922
1150.9989,454.9778760302952
1152.9424,332.6224600937976
1154.8852,156.0033193793979
1156.8272,53.920591090542985
1158.7686,11.274410870647444
1160.7092,-23.685086176077675
1162.6491,-10.657765058162113
1164.5883,61.806745829868305
1166.5267,138.35892456456168
1168.4644,255.5492486043986
1170.4014,431.5781940242714
1172.3377,620.2462343435827
1174.2732,802.9038387659521
1176.2081,985.801470292542
1178.1421,1126.9895838954726
1180.0755,1236.8686246888574
1182.0082,1238.4390265169131
1183.9401,1204.8012108551738
1185.8713,1044.555586794786
1187.8017,828.0025513788896
1189.7315,637.9424912050681
1191.6605,417.3757845908849
1193.5888,309.30280347448024
1195.5163,212.52391562023968
1197.4432,139.78948569952445
1199.3693,93.74987625845824
1201.2947,68.70544844527467
1203.2193,84.35656247070983
1205.1432,97.25357785845063
1207.0664,163.59685328861997
1208.9889,235.536746468807
1210.9106,330.07361347063215
1212.8316,400.35780801035526
1214.7519,470.4896805034987
1216.6715,498.6695773620122
1218.5903,496.49784029295006
1220.5084,466.4748060166721
1222.4257,460.15080628856686
1224.3424,420.57616819927534
1226.2583,480.55121423793025
1228.1735,576.126262687907
1230.0879,694.6016270270675
1232.0016,811.7776149720194
1233.9146,848.5545272933541
1235.8269,784.3326566438882
1237.7384,654.912287190894
1239.6492,529.4436952583228
1241.5592,462.52715062099924
1243.4686,382.3129177593182
1245.3772,336.45125652840306
1247.285,319.0924229602515
1249.1922,289.63666972235296
1251.0986,290.3342462912715
1253.0042,317.83539924721026
1254.9092,367.2903722670335
1256.8134,471.8994058492526
1258.7169,621.512736819479
1260.6196,736.6805972843295
1262.5216,908.0532131352975
1264.4229,1038.3308028970696
1266.3234,1121.6635760138015
1268.2232,1176.2517315463456
1270.1223,1144.1954573389194
1272.0207,1134.6949294732258
1273.9183,1101.2503125890125
1275.8151,1080.261759979082
1277.7113,999.4794139237338
1279.6067,883.2034059006492
1281.5014,762.7338573927182
1283.3953,671.1208810507987
1285.2885,599.3145818984121
1287.181,546.5150582478745
1289.0727,552.8224024183528
1290.9637,603.486701263867
1292.854,715.3580361102167
1294.7435,852.9864822483323
1296.6323,1024.8221078155657
1298.5204,1271.4149724194058
1300.4077,1500.665125419122
1302.2943,1670.7226034598361
1304.1802,1741.2874281800214
1306.0653,1691.559604510926
1307.9497,1616.089119970924
1309.8333,1559.7259451627956
1311.7162,1553.420034528432
1313.5984,1643.4213269124657
1315.4798,1776.3297456253317
1317.3605,1952.1451975432542
1319.2405,2096.2675717791617
1321.1197,2123.2967379245324
1322.9982,2103.4325446081707
1324.876,2103.3748192259177
1326.753,2094.5733681392917
1328.6293,2143.377976676066
1330.5048,2175.9384092182804
1332.3796,2135.504408714204
1334.2537,2119.375696352719
1336.127,2104.9519719676673
1337.9996,2072.7829141991347
1339.8714,2039.6181806376899
1341.7426,2001.107408146076
1343.6129,1990.0502131908534
1345.4826,1936.596192227511
1347.3515,1884.1449218110379
1349.2196,1853.7959591304625
1351.087,1853.148842533366
1352.9537,1927.103091829369
1354.8197,2036.6582082966074
1356.6849,2157.313673942189
1358.5493,2266.868950406644
1360.4131,2259.1234777573663
1362.276,2191.6266733930615
1364.1383,2086.4279321212034
1365.9998,1897.1766268330002
1367.8606,1675.722109555385
1369.7206,1508.8137133435243
1371.5799,1378.900754495367
1373.4384,1316.782534220723
1375.2962,1243.908339940399
1377.1533,1051.5274459073753
1379.0096,849.9891139355532
1380.8652,636.642595323558
1382.7201,461.78713287012533
1384.5742,312.32196300756596
1386.4275,217.89631755032497
1388.2802,130.00942518962893
1390.132,70.11051243774318
1391.9832,57.39880450684268
1393.8336,4.073525907997919
1395.6832,-0.516099421704439
1397.5322,-17.120847585912088
1399.3803,-18.291489532439755
1401.2278,-26.12862517183794
1403.0745,-6.932671682675846
1404.9204,-12.603785218559551
1406.7656,27.607947324293946
1408.6101,42.202564961478856
1410.4538,70.23010643251337
1412.2968,127.04061005489166
1414.139,181.48411344380793
1415.9805,274.46065294405435
1417.8213,342.87026308558325
1419.6613,481.36297565374207
1421.5006,648.7388190051774
1423.3391,880.547816682908
1425.1769,1222.8399857425684
1427.0139,1642.1153344343115
1428.8502,2180.3738587798953
1430.6858,2683.065538379925
1432.5206,3068.890331031268
1434.3547,3271.898167700137
1436.188,3313.5889486638425
1438.0206,3264.4125414807145
1439.8524,3160.4687805731955
1441.6835,3088.0074677196053
1443.5139,3024.7783730935785
1445.3435,2985.081235988673
1447.1724,2969.0157654506693
1449.0005,2906.581640674535
1450.8279,2830.0285111650824
1452.6545,2824.1059973613073
1454.4804,2860.3636914019235
1456.3056,2856.1011571845847
1458.13,2787.91793000331
1459.9536,2599.7135165911095
1461.7766,2308.0873958018115
1463.5987,1975.5390204921127
1465.4202,1653.5178204378371
1467.2409,1370.8232056594165
1469.0608,1148.20456964211
1470.88,954.4112921629426
1472.6984,797.3427415168949
1474.5161,636.6482764548377
1476.3331,537.7272477542151
1478.1493,445.47899982598983
1479.9648,379.25287170385263
1481.7795,327.59819796670763
1483.5935,286.3643094009317
1485.4067,221.1005335169216
1487.2192,207.15619496143154
1489.031,183.63061617021413
1490.842,183.62311750745903
1492.6522,154.48301750105202
1494.4618,133.7596328426489
1496.2705,123.5022786790746
1498.0785,123.41026881956122
1499.8858,110.08291583831942
1501.6924,117.91953107546124
1503.4981,109.71942477026869
1505.3032,100.3819059828279
1507.1075,95.4062826760337
1508.911,91.39186180896377
1510.7138,81.03794938663395
1512.5159,66.14385050014289
1514.3172,31.458869430209234
1516.1178,24.432309796114623
1517.9176,11.463474902553116
1519.7166,3.651667809898754
1521.515,15.896191463891228
1523.3126,10.896348773756017
1525.1094,-2.8485575102417897
1526.9055,-22.939224746798118
1528.7008,-12.926321837519481
1530.4954,-16.810288521160146
1532.2893,-15.341435402519437
1534.0824,-24.969905151617695
1535.8747,-7.195687177533728
1537.6663,-8.91852143999813
1539.4572,-0.9880760138262303
1541.2473,7.596070122193851
1543.0367,-2.8156521398468612
1544.8253,-0.6728119838176099
1546.6132,20.825049534777918
1548.4003,33.27839808182398
1550.1867,46.587699114956195
1551.9723,76.40341775902516
1553.7572,95.12601867300555
1555.5414,140.45596575184254
1557.3247,159.343721939219
1559.1074,208.53974877426026
1560.8893,254.7945062026547
1562.6705,323.7084520846947
1564.4509,371.6320417327279
1566.2305,461.96572722201927
1568.0094,540.259956911515
1569.7876,623.9651745405049
1571.565,686.031818445681
1573.3417,735.2103207240839
1575.1176,762.1511066124376
1576.8928,741.1045939953624
1578.6672,692.971193135973
1580.4409,597.3513068863349
1582.2138,522.145331168806
1583.986,425.1536559322303
1585.7575,350.6266659040007
1587.5282,301.31474155997466
1589.2981,275.06825986974354
1591.0673,244.53759478975326
1592.8358,237.22311752576752
1594.6035,240.77519683817627
1596.3704,238.4941991151395
1598.1366,253.23048833706616
1599.9021,277.0344260994252
1601.6668,312.70637146538047
1603.4308,359.84668072775503
1605.194,413.6057070523084
1606.9564,497.88380000633515
1608.7182,596.6813050210717
1610.4791,702.9485625489192
1612.2394,849.0859070754659
1613.9988,1003.6436660568156
1615.7576,1217.2221584582135
1617.5156,1400.7716932084709
1619.2728,1627.2425670641796
1621.0293,1760.4850627742148
1622.785,1816.499446815027
1624.54,1818.835968058217
1626.2942,1704.844857210393
1628.0477,1504.1763267898014
1629.8005,1308.0305722662424
1631.5525,1120.9077740677549
1633.3037,979.3580995420702
1635.0542,851.5317048278462
1636.804,771.3787362701569
1638.553,688.1493316987621
1640.3013,682.8436212296342
1642.0488,631.8617280972549
1643.7955,644.903768707668
1645.5416,665.7698531483006
1647.2868,722.1100850575394
1649.0313,786.8245614160742
1650.7751,916.6133719834943
1652.5181,1077.176598651144
1654.2604,1267.4143141442364
1656.0019,1536.6765804162178
1657.7427,1847.7634467463931
1659.4828,2150.724947047303
1661.222,2348.4110967538554
1662.9606,2378.5718897937077
1664.6984,2250.3572966104084
1666.4354,1989.71726386179
1668.1717,1608.8017157021102
1669.9072,1255.9105563884586
1671.642,979.6436740899067
1673.3761,742.0009444164214
1675.1094,582.4822331815346
1676.8419,444.38739877876947
1678.5737,345.0662937768275
1680.3048,294.11876630053666
1682.0351,253.594661024061
1683.7646,202.79381968037887
1685.4934,178.76608146652393
1687.2215,147.71128355159112
1688.9488,137.62926131701738
1690.6754,127.31984866712514
1692.4012,120.6328781299469
1694.1263,102.26818096031661
1695.8506,93.42558720674151
1697.5742,89.00492589504665
1699.297,73.10602511680167
1701.0191,61.57871207352878
1702.7404,61.02281323568968
1704.461,43.43815445796031
1706.1808,44.47456098478983
1707.8999,43.431857626247165
1709.6182,43.20986874765572
1711.3358,26.40841828002044
1713.0527,28.027329722249988
1714.7688,25.216426309169492
1716.4841,19.225530995331155
1718.1987,31.054466483123633
1719.9126,15.003055282680634
1721.6257,15.421119593593176
1723.338,27.35848146542162
1725.0496,11.414962793515315
1726.7605,3.5403851996411504
1728.4706,12.734570191415969
1730.18,4.8973392410543966
1731.8886,-2.471486306575571
1733.5964,-4.7720851555775425
1735.3036,6.395388680091173
1737.0099,-2.81917114039652
1738.7156,-6.865871021821249
1740.4204,2.1552107945556145
1742.1246,-4.055935342478051
1743.8279,-0.7993191056846172
1745.5306,13.87509035096673
1747.2325,-4.0826681412968355
1748.9336,0.4774441100023523
1750.634,-8.094493416805562
1752.3336,12.901598751836445
1754.0325,13.015880953473697
1755.7307,11.89851339663619
1757.4281,8.649656159696178
1759.1247,14.319469202041319
1760.8206,9.658112396563183
1762.5158,26.415745472960452
1764.2102,13.642528064352064
1765.9039,-0.7113804603013705
1767.5968,5.604179131538103
1769.289,8.88937317909722
1770.9804,18.294367965561378
1772.6711,13.669329685223602
1774.361,19.51442434943283
1776.0502,14.729817832845583
1777.7386,10.915675814974975
1779.4263,12.822163828036992
1781.1132,18.399447295091022
1782.7994,9.597691510975892
1784.4849,13.767061586535647
1786.1696,3.8077225366389484
1787.8535,21.969839238484155
1789.5367,19.10357653119445
1791.2192,24.409099034194696
1792.9009,33.03657117587477
1794.5818,24.486157140534488
1796.2621,27.15802078210936
1797.9415,33.25232570967319
1799.6202,20.369235260720416
1801.2982,31.658912440222366
1802.9755,31.421520049459104
1804.6519,30.75722057312214
1806.3277,31.966176181688525
1808.0027,23.64854873806439
1809.6769,44.55449978549336
1811.3504,50.78419063073352
1813.0231,41.98778213500145
1814.6951,40.0154346516706
1816.3664,42.31730811423904
1818.0369,40.193562056049814
1819.7067,33.794355587273
1821.3757,52.819847416145194
1823.044,52.77019591295857
1824.7115,53.79555891980817
1826.3783,41.746093751086846
1828.0443,47.17195718323296
1829.7096,44.973305575223776
1831.3741,53.050294814318704
1833.0379,54.503080338043674
1834.701,45.58181705342349
1836.3633,52.03665932245144
1838.0248,57.06776105130416
1839.6856,62.875275625792256
1841.3457,67.90935586104888
1843.005,72.82015394345626
1844.6636,70.107821380303
1846.3214,71.92250895067764
1847.9785,59.41436673259068
1849.6349,71.88354408482815
1851.2904,66.13018977203342
1852.9453,65.30445184001496
1854.5994,70.20647767328
1856.2528,75.33641400329248
1857.9054,84.29440685945269
1859.5572,91.88060151779564
1861.2083,76.79514241141464
1862.8587,84.73817305459579
1864.5084,84.20983619367598
1866.1572,76.26027372761064
1867.8054,72.13962671325703
1869.4528,75.19803544487081
1871.0994,67.73563949531172
1872.7453,78.25257768545998
1874.3905,77.54898815883939
1876.0349,79.17500827644926
1877.6786,81.5807746237997
1879.3215,75.61642299465029
1880.9637,81.28208836695444
1882.6051,80.37790496250113
1884.2458,84.10400619025904
1885.8858,82.2605246554192
1887.525,82.19759212213239
1889.1634,72.91533953194585
1890.8011,66.41389700443074
1892.4381,76.4433939300061
1894.0743,85.85395903495282
1895.7098,88.79572028111852
1897.3446,84.66880477181144
1898.9786,79.3233387223836
1900.6118,83.25944750149915
1902.2443,68.42725568459036
1903.8761,81.27688701449506
1905.5071,75.30846454977882
1907.1374,83.12211053623878
1908.7669,89.51794646658823
1910.3957,90.29609300232028
1912.0237,83.65666990974887
1913.651,90.0497960522273
1915.2776,81.3755894565436
1916.9034,87.1341672489873
1918.5285,84.12564574209318
1920.1528,73.50014037705455
1921.7764,84.80776575380924
1923.3992,73.24863573729294
1925.0213,76.07286334436549
1926.6427,74.68056085939998
1928.2633,48.17183980604227
1929.8832,98.84681096113331
1931.5023,80.45558461979545
1933.1207,77.0982700886841
1934.7383,86.47497586990016
1936.3552,78.83580969456102
1937.9714,64.73087842903556
1939.5868,68.51028815133418
1941.2015,74.72414429215996
1942.8154,71.47255159711312
1944.4286,67.30561406455308
1946.041,64.22343497811403
1947.6528,65.1261169483746
1949.2637,61.363761943679265
1950.8739,63.98647128111179
1952.4834,54.99434566411969
1954.0921,60.337485156285084
1955.7001,59.01598927124769
1957.3074,50.62995691927313
1958.9139,58.27948642046704
1960.5197,56.56467558863642
1962.1247,47.43562165479375
1963.729,52.09242128430651
1965.3325,48.43517066818572
1966.9353,54.46396547651898
1968.5374,58.07890089504167
1970.1387,44.880071564849914
1971.7393,48.31757154625211
1973.3392,42.0914944507565
1974.9383,47.85193340669548
1976.5366,45.19898112148803
1978.1342,45.432729824033004
1979.7311,34.803271291241344
1981.3273,46.710696845696475
1982.9227,38.05509746195003
1984.5173,45.08656364744752
1986.1112,44.70518552908288
1987.7044,59.561052782886236
1989.2968,39.45425463783522
1990.8885,47.83487972729904
1992.4795,51.40301629010469
1994.0697,34.958752086730556
1995.6592,45.852174363625636
1997.2479,32.68337001765235
1998.8359,43.852425487151095
2000.4232,54.00942688362943
2002.0097,34.55445988007182
2003.5955,44.63760960936747
2005.1805,42.85896085886225
2006.7648,43.16859796952531
2008.3484,44.616604853737726
2009.9312,48.8530649921953
2011.5133,37.478061419427036
2013.0946,40.74167668143275
2014.6752,44.39399294943212
2016.2551,46.335091987227656
2017.8342,39.265055114683264
2019.4126,48.88396318831212
2020.9902,40.79189667197693
2022.5672,47.23893554070139
2024.1433,46.87515936159036
2025.7188,35.70064722936013
2027.2935,35.76547776997563
2028.8674,32.21972925239527
2030.4406,37.413479587923234
2032.0131,34.29680636566661
2033.5849,31.36978680059792
2035.1559,46.13249776472264
2036.7261,47.43501581634905
2038.2957,39.627417052460714
2039.8645,34.10977709569181
2041.4325,42.13217117240231
2042.9998,38.094674167855146
2044.5664,41.097360545991364
2046.1323,43.34030438980585
2047.6974,39.92357937132044
2049.2617,39.24725872915337
2050.8254,40.9114153026876
2052.3883,45.36612153883482
2053.9504,45.91144947539249
2055.5118,45.24747069649811
2057.0725,43.87425632717486
2058.6325,35.991877039971655
2060.1917,41.350403068695414
2061.7502,38.049904287234426
2063.3079,38.5904501559736
2064.8649,37.5721097547987
2066.4212,38.1449517776922
2067.9767,31.509044542915376
2069.5315,41.26445598728105
2071.0856,23.2612537325125
2072.6389,33.29950498768903
2074.1915,31.329276729278035
2075.7433,27.75063560075273
2077.2945,25.96364793229361
2078.8448,35.118379776575466
2080.3945,16.664896926636743
2081.9434,26.653264824332496
2083.4916,29.983548744868813
2085.039,28.405813696919836
2086.5857,25.670124389324656
2088.1317,22.526545246864202
2089.677,25.175140437619007
2091.2215,26.16597390440404
2092.7652,26.949109338283165
2094.3083,25.624610168660865
2095.8506,32.04253955545062
2097.3921,36.45296040232097
2098.933,30.15593529251487
2100.4731,25.251526444746787
2102.0124,20.589795776171854
2103.5511,36.02080495143048
2105.089,30.094615429265446
2106.6261,28.561288308212283
2108.1626,22.670884385860177
2109.6983,28.173464174185483
2111.2332,22.619087958456703
2112.7675,21.10781574220789
2114.301,33.93970730278318
2115.8337,26.164822206448434
2117.3657,30.533219680073444
2118.897,31.44495868887975
2120.4276,30.650097892757003
2121.9575,28.098695637145056
2123.4866,31.390809960984257
2125.0149,27.076498622227632
2126.5426,29.45581906492123
2128.0695,34.37882846234584
2129.5956,30.69558369322499
2131.1211,29.85614129249427
2132.6458,37.660557488133804
2134.1698,32.608888209562906
2135.693,29.401189009595328
2137.2155,29.637515114956386
2138.7373,43.81792145835993
2140.2584,23.842462676145715
2141.7787,33.861192966474505
2143.2983,34.02416628908247
2144.8171,22.181436265094703
2146.3353,26.88305617539504
2147.8527,32.67907907905271
2149.3693,34.619557766306684
2150.8853,32.3545447006054
2152.4005,35.63409199920193
2153.9149,26.608251455804407
2155.4287,25.377074507780208
2156.9417,14.590612326414657
2158.454,27.448915829222642
2159.9655,26.302035787813338
2161.4764,22.05002269930708
2162.9865,25.192926797804148
2164.4958,32.13079809690453
2166.0045,31.913686358280074
2167.5124,20.391641022294493
2169.0195,33.3647112101753
2170.526,33.532945839234344
2172.0317,30.546393493136748
2173.5367,27.555102420218304
2175.0409,27.859120563351553
2176.5445,32.308495589858694
2178.0473,29.603274888470764
2179.5494,31.493505524834745
2181.0507,27.029234268564778
2182.5513,34.110507574340204
2184.0512,31.837371626548133
2185.5504,29.609872268471577
2187.0488,31.278055025019626
2188.5465,27.491965125003162
2190.0435,25.401647484452724
2191.5397,25.607146744479564
2193.0353,27.50850729217848
2194.5301,22.65577325857339
2196.0241,25.19898849960373
2197.5175,29.138196644650975
2199.0101,22.823441071107595
2200.502,24.60476486498385
2201.9931,23.93221088405619
2203.4835,18.45582174005358
2204.9733,19.925639805382957
2206.4622,23.091707267893526
2207.9505,20.85406611617873
2209.438,15.462758107914624
2210.9248,16.317824792236934
2212.4109,18.469307563654297
2213.8962,13.917247653497611
2215.3809,12.911686108405434
2216.8648,19.852663835844282
2218.3479,11.990221614164057
2219.8304,10.824400023188446
2221.3121,22.055239522839315
2222.7931,13.782780464794882
2224.2733,11.307062980181172
2225.7529,19.12812706229738
2227.2317,13.946012591371755
2228.7098,23.96075925635205
2230.1872,14.172406606725986
2231.6638,6.680993952374706
2233.1397,9.63656046145502
2234.6149,9.139145235314231
2236.0894,11.588787278934433
2237.5632,12.93552550590664
2239.0362,15.829398713933983
2240.5085,12.470445571364849
2241.9801,14.458704588253568
2243.4509,17.89421414995013
2244.921,8.627012497218288
2246.3904,13.107137691879302
2247.8591,12.734627709484926
2249.3271,10.20952039451629
2250.7943,7.7318534641085535
2252.2608,10.051664533302073
2253.7266,4.318991139818991
2255.1917,8.38387072086482
2256.656,5.946340670456152
2258.1197,5.356438298770399
2259.5826,1.264200856522507
2261.0447,11.81966554086273
2262.5062,9.722856919575065
2263.9669,2.2737994422465135
2265.4269,11.12251746123627
2266.8862,11.569012613646464
2268.3448,16.113286425354318
2269.8026,17.55534030654701
2271.2598,12.645175506279315
2272.7162,13.83279309805232
2274.1719,8.668194028915536
2275.6268,11.151379107590742
2277.0811,16.082349056118005
2278.5346,10.11110448502427
2279.9874,17.93764584401299
2281.4395,13.31197348167666
2282.8908,14.234087567231882
2284.3414,18.653988136775524
2285.7914,11.17167508406419
2287.2406,16.037148116315052
2288.689,19.100406829028998
2290.1368,13.611450657335809
2291.5838,12.92027884536185
2293.0302,17.726890501119215
2294.4758,21.33128460341743
2295.9206,16.733459953797478
2297.3648,11.433415140488137
2298.8082,12.081148584383868
2300.251,13.826658592045078
2301.693,21.81994334922149
2303.1343,21.561000903395893
2304.5748,11.399829083852524
2306.0147,13.53642550426548
2307.4538,9.120787664310797
2308.8922,12.852912928301066
2310.3299,16.28279856934114
2311.7669,14.410441732007484
2313.2031,18.435839398048643
2314.6387,10.008988405108994
2316.0735,12.479885406475319
2317.5076,8.298526955344869
2318.941,15.514909480116444
2320.3737,18.979029326203886
2321.8056,16.39088268387229
2323.2369,12.100465553597132
2324.6674,20.507773771945267
2326.0972,13.862803054479173
2327.5263,22.315548911684118
2328.9547,19.61600671541737
2330.3823,16.514171614381553
2331.8092,21.660038561120018
2333.2355,17.153602343034322
2334.661,19.144857530925947
2336.0858,17.08379852406074
2337.5098,20.820419530256117
2338.9332,20.55471458649174
2340.3558,23.236677521543356
2341.7778,17.316301958639542
2343.199,19.34358128864301
2344.6195,22.86850872925322
2346.0393,22.74107730473429
2347.4583,20.261279810665314
2348.8767,20.37910881521475
2350.2943,26.944556683938686
2351.7113,28.707615578602258
2353.1275,24.21827739152525
2354.543,24.62653372795137
2355.9578,30.632375950942333
2357.3718,18.435795177294153
2358.7852,26.53678221747998
2360.1978,25.885327697614684
2361.6098,23.131421978446042
2363.021,25.775055161868636
2364.4315,29.31621711846276
2365.8413,25.604897461058385
2367.2504,28.69108550932424
2368.6587,26.724770326879593
2370.0664,14.905940690433795
2371.4733,24.534585109448415
2372.8795,27.060691944325924
2374.285,21.63424931012287
2375.6899,28.005245051289478
2377.0939,29.473666795933298
2378.4973,22.139501892110104
2379.9,27.952737393139103
2381.3019,25.413360130945023
2382.7032,20.77135665792497
2384.1037,19.87671327234301
2385.5035,20.779416064749398
2386.9027,21.879450926927348
2388.3011,30.976803542866435
2389.6987,18.871459377761596
2391.0957,22.163403587040136
2392.492,25.15262113741511
2393.8876,20.189096773965616
2395.2824,16.722814990245013
2396.6765,20.60376007791575
2398.07,23.481916161412357
2399.4627,27.007267159131914
2400.8547,21.629796754652716
2402.246,23.399488361480564
2403.6366,22.566325176823284
2405.0265,23.830290163894347
2406.4156,26.491366060243877
2407.8041,19.749535365119243
2409.1918,19.154780312854427
2410.5789,26.35708294028808
2411.9652,26.20642509271147
2413.3508,27.75278835184514
2414.7358,29.29615403734556
2416.12,33.13650319134166
2417.5035,37.97381656300092
2418.8863,30.35807457012612
2420.2684,27.289257250781816
2421.6497,23.067344339452177
2423.0304,20.99231529772902
2424.4104,22.264149356530822
2425.7896,29.78282553685301
2427.1682,29.998322637049682
2428.546,38.710619157646704
2429.9232,28.269693299187054
2431.2996,30.225522875107686
2432.6753,27.828085416148554
2434.0503,36.977358150794714
2435.4246,34.62331802925024
2436.7982,30.515941631945907
2438.1711,27.855205193079655
2439.5433,24.491084641690122
2440.9148,29.323555628263875
2442.2856,29.252593558377328
2443.6557,31.278173544371384
2445.025,21.550270406061543
2446.3937,24.86885865048174
2447.7617,35.233912569163635
2449.1289,34.54540620495027
2450.4955,33.00331324834576
2451.8613,31.15760704440055
2453.2265,31.908260608131854
2454.5909,35.00524664298126
2455.9546,34.398537533307945
2457.3177,37.78810531341884
2458.68,36.623921673635834
2460.0416,41.655957926399765
2461.4025,29.484185017912523
2462.7627,44.20857347781657
2464.1222,41.97909354091286
2465.4811,35.195714999916675
2466.8392,44.40840722775266
2468.1966,44.71713924538858
2469.5533,40.57187962970835
2470.9093,49.52259651042459
2472.2645,49.26925761153154
2473.6191,54.16183016179764
2474.973,50.45028089729868
2476.3262,45.98457601249254
2477.6787,48.914681197334176
2479.0305,39.39056168193321
2480.3816,49.66218220725233
2481.7319,48.67950712034889
2483.0816,51.9925002716584
2484.4306,46.70112502482192
2485.7789,42.85534422355539
2487.1264,42.405120244563875
2488.4733,44.85041503599905
2489.8195,45.091190121961745
2491.165,45.5274065780489
2492.5097,40.85902502894572
2493.8538,45.38600564406357
2495.1972,40.75830818422372
2496.5398,42.925891956387545
2497.8818,43.73871585993356
2499.2231,43.846738364981775
2500.5637,47.04991750426507
2501.9035,51.09821087204938
2503.2427,47.341575592101606
2504.5812,48.82996827720649
2505.919,47.96334506673355
2507.256,57.5416616117526
2508.5924,50.7148730837003
2509.9281,44.582934078596736
2511.2631,45.995798685313616
2512.5974,43.503420546893494
2513.9309,48.65575284642097
2515.2638,45.952748331946566
2516.596,60.89435926496327
2517.9275,50.180537447436734
2519.2583,51.46123407238912
2520.5884,52.83639983103751
2521.9178,56.455984899986674
2523.2465,53.56993892747778
2524.5745,53.778210997191934
2525.9018,52.28074965711119
2527.2284,61.727502917435515
2528.5543,56.61841826555764
2529.8796,54.15344257159495
2531.2041,59.082522139481114
2532.5279,58.00560273161517
2533.851,56.42262951957139
2535.1735,56.68354709486789
2536.4952,59.98829948479664
2537.8163,63.53683014981442
2539.1366,54.829081950494924
2540.4562,60.46499711204382
2541.7752,58.84451731137597
2543.0935,59.2675836207564
2544.411,59.53413652400519
2545.7279,52.244115912266636
2547.0441,56.047461081344295
2548.3596,60.09411080460018
2549.6744,60.784003294922115
2550.9885,57.46707616425681
2552.3019,62.593266416711515
2553.6146,57.76251048172281
2554.9266,63.07474416279484
2556.2379,56.62990268580677
2557.5485,60.62792064589047
2558.8585,55.418732071878935
2560.1677,62.35227038632598
2561.4762,59.32846845759843
2562.7841,58.79725853054015
2564.0913,60.80857225671076
2565.3977,62.062340699697415
2566.7035,66.00849431500154
2568.0086,63.54696293750135
2569.313,60.17767574199024
2570.6167,62.25056126779231
2571.9197,61.11554745245468
2573.222,58.67256161101915
2574.5236,65.57153044737197
2575.8246,62.66238007867395
2577.1248,64.74503596637066
2578.4244,65.46942294528418
2579.7232,66.53546520278633
2581.0214,67.59308627155474
2582.3189,71.54220901891273
2583.6157,77.23275563625276
2584.9118,76.41464759954545
2586.2072,73.93780561243403
2587.5019,74.30214961441533
2588.7959,83.65759880560825
2590.0893,80.55407164311038
2591.3819,85.74148574744339
2592.6739,79.96975793358848
2593.9652,96.78880415911215
2595.2557,89.74853958188368
2596.5456,91.09887839188417
2597.8348,98.13973388160974
2599.1234,91.52101843256781
2600.4112,94.79264344486853
2601.6983,92.25451940341196
2602.9848,99.45655584517203
2604.2705,102.29866138457731
2605.5556,107.48074364149119
2606.84,98.25270921279031
2608.1237,99.46446362054417
2609.4067,94.06591140429532
2610.689,95.10695610894163
2611.9707,97.78750033872228
2613.2516,99.05744574680654
2614.5319,98.46669300848924
2615.8115,92.2651418084904
2617.0903,96.60269084686348
2618.3685,102.22923790101049
2619.6461,104.14467978230681
2620.9229,99.64891227983554
2622.199,103.04183014123316
2623.4745,96.6233271176472
2624.7493,102.04329592980696
2626.0234,104.80162833220896
2627.2968,104.39821505891649
2628.5695,100.33294579597685
2629.8415,99.15570918545535
2631.1128,111.66639286608785
2632.3835,103.66488348505294
2633.6535,106.75106657286562
2634.9228,106.5248266233923
2636.1914,103.53604706298876
2637.4593,106.33461025276273
2638.7265,103.72039751846171
2639.9931,110.04328912248701
2641.259,110.3531642900362
2642.5242,100.39990114587408
2643.7887,109.08337671123405
2645.0525,99.95346700335051
2646.3156,97.36004694862447
2647.5781,98.60299047392203
2648.8398,98.83217053250928
2650.1009,101.74745909162226
2651.3613,102.54872713017562
2652.6211,95.08584460960964
2653.8801,91.85868046587728
2655.1385,96.06710268407312
2656.3961,106.51097833070503
2657.6531,99.14017351161016
2658.9094,101.7545532675158
2660.1651,100.75398164774782
2661.42,99.3383216840864
2662.6743,108.457435400772
2663.9279,98.06118382866214
2665.1808,105.3994269140399
2666.433,112.82202362257681
2667.6846,110.07883186595006
2668.9354,108.46970842761672
2670.1856,113.79450899024565
2671.4351,124.40308815180887
2672.6839,119.39529937233331
2673.9321,122.7209948678153
2675.1795,125.83002566029822
2676.4263,124.27224154461553
2677.6724,127.19749105730068
2678.9179,127.95562149216488
2680.1626,127.24647887104456
2681.4067,131.51990793621997
2682.6501,129.47575215750666
2683.8928,124.01385368952117
2685.1348,121.53405339212259
2686.3761,118.23619088503153
2687.6168,120.97010457262823
2688.8568,116.58563167693109
2690.0961,112.88260821025744
2691.3348,110.46086901906841
2692.5727,112.07024782099921
2693.81,103.66057722907641
2695.0466,111.13168873562415
2696.2826,103.08341279636102
2697.5178,106.51557875568892
2698.7524,105.82801492717545
2699.9863,104.87054855923287
2701.2195,106.49300584199312
2702.452,110.1952119168829
2703.6839,114.8269908603989
2704.9151,115.33816564708587
2706.1456,124.67855810321907
2707.3755,130.54798890169207
2708.6046,130.59627746861293
2709.8331,138.22324192460997
2711.0609,143.07869908434867
2712.2881,150.06246438026238
2713.5145,159.67435181399765
2714.7403,162.51417388657632
2715.9654,167.63174150227695
2717.1899,179.72686394023629
2718.4136,187.39934880327382
2719.6367,205.29900189694052
2720.8591,206.9256271527941
2722.0809,216.12902644940243
2723.3019,222.55899959607729
2724.5223,225.66534424084017
2725.7421,235.89785580612306
2726.9611,228.3063274577044
2728.1795,234.84055000238448
2729.3972,223.95031196390016
2730.6142,211.08539951758314
2731.8306,199.74559659926217
2733.0462,183.08068503391212
2734.2612,179.0404446490519
2735.4756,170.4246534413938
2736.6892,144.18308761724575
2737.9022,138.81552167866948
2739.1145,125.02172868589594
2740.3262,115.60148031100101
2741.5372,109.50454697584331
2742.7475,91.13069794626676
2743.9571,92.37970139307004
2745.1661,77.00132457574483
2746.3744,76.39533382998604
2747.582,59.5614947214753
2748.7889,53.54957205194114
2749.9952,53.95933002749712
2751.2008,42.64053231876136
2752.4057,44.44294205675868
2753.61,33.81632194610887
2754.8136,34.56043424700255
2756.0165,35.82504088146743
2757.2188,33.50990342592701
2758.4204,28.164783098554324
2759.6213,25.03944078242364
2760.8215,23.083637078961658
2762.0211,26.047132339200573
2763.22,14.529686683336365
2764.4182,13.631059971093862
2765.6158,11.501011916901177
2766.8127,3.1893020988759986
2768.009,4.195689980126019
2769.2045,4.519934991865966
2770.3994,-0.43820347664603787
2771.5936,0.5210339186487545
2772.7872,-2.502589100538387
2773.9801,-9.459308817706358
2775.1723,-11.849336515489142
2776.3639,-15.072788978025983
2777.5548,-15.629664614584385
2778.745,-17.219811257270067
2779.9346,-18.192920597839645
2781.1235,-11.048512302135123
2782.3117,-10.83592428872214
2783.4992,-4.904384101528649
2784.6861,-10.953011033598784
2785.8723,-0.5308753831801027
2787.0579,-2.4369380279399593
2788.2428,-5.5201545421011815
2789.427,6.520543845124337
2790.6106,14.386281050868263
2791.7935,22.178180927056815
2792.9757,31.34736718175361
2794.1573,30.14496330124041
2795.3382,47.97209245832573
2796.5184,61.62987752436851
2797.698,63.56944089100682
2798.8769,86.29190433358019
2800.0551,98.4483889917338
2801.2327,101.14001514219387
2802.4096,119.81790207720303
2803.5859,141.33316807760383
2804.7615,146.43693022605987
2805.9364,170.28030419190333
2807.1106,192.3144041800972
2808.2842,214.64034269280143
2809.4572,241.90923030903224
2810.6294,270.2721754614027
2811.801,288.5302841634336
2812.972,336.28465972592414
2814.1423,365.08640257437156
2815.3119,403.08660977142597
2816.4808,442.8863747288744
2817.6491,481.38678682763714
2818.8167,507.3389310197717
2819.9837,551.443887443467
2821.15,593.5527311635241
2822.3157,620.2665317303042
2823.4807,652.0863527586422
2824.645,687.7132516607074
2825.8086,716.9482793278057
2826.9716,742.5924797741111
2828.134,787.2968898443144
2829.2957,802.6625389571822
2830.4567,819.0904486585126
2831.617,837.4316324674783
2832.7767,843.3870957123479
2833.9358,831.3578353470737
2835.0941,830.844839891737
2836.2519,818.4490895528411
2837.4089,810.9215562284412
2838.5653,802.5632036321015
2839.7211,802.3249873681709
2840.8761,790.8578550153669
2842.0306,819.7127461291566
2843.1843,844.9405923564294
2844.3374,878.9423171469473
2845.4899,932.8188355010668
2846.6417,995.7210536297207
2847.7928,1071.9998684156546
2848.9433,1121.9061667844035
2850.0931,1183.190824941504
2851.2422,1236.604707873431
2852.3907,1302.698668734752
2853.5385,1355.323548313987
2854.6857,1415.3801743726708
2855.8323,1456.8693611191015
2856.9781,1497.641908607777
2858.1233,1530.9486023245008
2859.2679,1568.4402127786584
2860.4118,1592.7174951701493
2861.555,1622.1811890144713
2862.6976,1645.8820178999476
2863.8395,1675.3206891930897
2864.9808,1697.8978938015894
2866.1214,1703.414305879931
2867.2614,1713.6205826036207
2868.4007,1720.2673641140227
2869.5393,1716.0052734162946
2870.6773,1733.9849163129206
2871.8146,1744.8568814463329
2872.9513,1741.0217401191144
2874.0874,1748.2300461852792
2875.2227,1739.582336088625
2876.3574,1706.179128790648
2877.4915,1705.7709258570221
2878.6249,1679.7082117916298
2879.7577,1667.8914540406445
2880.8898,1637.7211032531577
2882.0212,1625.0975933993473
2883.152,1626.4713420721787
2884.2821,1606.7927506136439
2885.4116,1605.16220410102
2886.5405,1597.5300715436574
2887.6686,1597.446705899285
2888.7962,1633.7124441503317
2889.923,1620.7776073047598
2891.0493,1621.0925000334064
2892.1748,1631.2574107993337
2893.2997,1645.5226118546793
2894.424,1670.4883591390062
2895.5476,1677.9048921366511
2896.6706,1696.7224336270697
2897.7929,1714.6911896106676
2898.9145,1744.0613491206254
2900.0355,1769.3830840432138
2901.1559,1796.55654882409
2902.2756,1820.6818802150797
2903.3946,1853.1091970024436
2904.513,1881.0885997656244
2905.6308,1887.620170552972
2906.7479,1930.9039726019523
2907.8643,1939.490050273828
2908.9801,1955.0784286208234
2910.0953,1959.8191133002608
2911.2098,1944.0620904186806
2912.3236,1951.0073264844307
2913.4368,1940.5047685652387
2914.5494,1927.8043442187595
2915.6613,1897.4559615976002
2916.7725,1891.7095095763257
2917.8831,1858.9148580549409
2918.9931,1834.4718580163558
2920.1024,1815.8803418543325
2921.211,1811.0901236179143
2922.319,1796.7009991973418
2923.4264,1772.5627463719538
2924.5331,1766.725124954081
2925.6391,1752.1878770304243
2926.7445,1738.9507270204363
2927.8493,1750.7133818216887
2928.9534,1734.7755309422475
2930.0569,1733.3368463830443
2931.1597,1728.6469827972558
2932.2619,1728.1055775046902
2933.3634,1709.4122505386867
2934.4643,1704.066604651528
2935.5645,1702.118225501375
2936.6641,1673.0666817057236
2937.763,1629.161524860886
2938.8613,1589.102289832508
2939.959,1540.038495194622
2941.056,1479.7696436302367
2942.1523,1423.095222421976
2943.248,1347.5647040547683
2944.3431,1266.077546782589
2945.4375,1178.7331953837677
2946.5313,1101.1810819758587
2947.6244,1018.4206268890846
2948.7169,929.1512394418569
2949.8087,862.122318768382
2950.8999,784.8332547113537
2951.9904,726.1334284922431
2953.0803,662.0722134841888
2954.1696,625.4489757989952
2955.2582,576.9130749277451
2956.3462,551.2138641070314
2957.4335,507.6006908043166
2958.5202,493.3228969749246
2959.6062,474.22981949817284
2960.6916,448.07079032015014
2961.7764,442.74513664464723
2962.8605,432.75218119474755
2963.9439,430.1912422660828
2965.0267,425.11163382676335
2966.1089,417.3626655429873
2967.1905,417.24364282983703
2968.2714,417.25386692876793
2969.3516,420.49263490879974
2970.4312,420.80923966641393
2971.5102,427.5529698931655
2972.5885,431.12311007251736
2973.6662,432.46894041240313
2974.7432,427.3397368095254
2975.8196,426.4847708358982
2976.8954,425.6033097901378
2977.9705,423.39461670601327
2979.045,413.307950361261
2980.1188,395.8425652996712
2981.192,389.6977119319549
2982.2645,372.2726367103979
2983.3364,352.8165821903088
2984.4077,333.42878720426984
2985.4783,314.30848705669774
2986.5483,289.9549137177214
2987.6177,262.8672960143853
2988.6864,241.2448598741849
2989.7545,211.18682859594293
2990.8219,191.2424230660336
2991.8887,167.51086205896308
2992.9548,142.64136243681338
2994.0204,115.63313938655779
2995.0852,103.08540666875638
2996.1495,80.59737688763767
2997.2131,70.81826161657659
2998.276,64.19727162297426
2999.3383,45.98361696604951
3000.4,34.476507063048416
3001.4611,24.325150871381368
3002.5215,14.628757003693693
3003.5812,10.286533829379437
3004.6404,5.4476895715451406
3005.6989,-0.838567649567608
3006.7567,-2.373029768194101
3007.8139,-6.4064803412788365
3008.8705,-6.889679219199195
3009.9264,-11.073322251594107
3010.9818,-10.308036460207518
3012.0364,-6.74433824429417
3013.0905,-7.232641025824705
3014.1439,-5.12329085083087
3015.1966,-3.3665615112606133
3016.2487,1.2373243826136786
3017.3002,-1.8618221475312566
3018.3511,8.035809907608211
3019.4013,7.530050156939012
3020.4509,15.370728129010217
3021.4998,13.807673277070535
3022.5481,21.790714900661555
3023.5958,25.169682161248375
3024.6428,27.444404002389092
3025.6892,30.064709115945107
3026.735,35.88042591933373
3027.7802,47.64138252932537
3028.8247,50.44740670388586
3029.8685,54.29832572456712
3030.9118,66.34396636844735
3031.9544,69.53415486962143
3032.9963,79.06871679874484
3034.0376,85.9474770311316
3035.0783,90.17025965140863
3036.1184,101.83688788472824
3037.1578,105.79718405454014
3038.1966,107.20096946592537
3039.2348,113.79806436599324
3040.2723,114.13828792984373
3041.3092,118.17145819459623
3042.3455,111.39739205598761
3043.3811,116.26590522804011
3044.4161,114.42681231080223
3045.4505,114.47992674166352
3046.4842,114.82506081374538
3047.5173,110.86202567537029
3048.5498,107.09063132661015
3049.5816,106.16068665891663
3050.6128,95.62199949283524
3051.6434,102.82437658730453
3052.6734,98.9676237450434
3053.7027,93.10154574052694
3054.7314,91.62594635855416
3055.7594,96.64062845290871
3056.7868,93.54539396111491
3057.8136,88.04004385429081
3058.8398,88.12437816810078
3059.8653,85.74819605780885
3060.8902,81.31129579743549
3061.9145,82.96347480351915
3062.9381,82.55452967948543
3063.9612,77.88425619912556
3064.9835,80.00244931068522
3066.0053,77.30890318356782
3067.0264,70.00341118715218
3068.0469,66.03576591772821
3069.0668,62.305759271551864
3070.086,64.46318248452135
3071.1046,57.25782616947737
3072.1226,52.03948029462873
3073.1399,46.707934255606176
3074.1567,41.56297692764568
3075.1727,45.80439671890397
3076.1882,35.23198162190812
3077.203,30.295519171141223
3078.2173,29.44479654876659
3079.2308,22.129600633992425
3080.2438,18.19971801157905
3081.2561,16.60493504499081
3082.2678,8.795037915694934
3083.2789,15.369812639109483
3084.2893,9.72904514270212
3085.2991,8.12252120024246
3086.3083,8.850026488209721
3087.3169,0.0613466018579345
3088.3248,-0.1437329520590822
3089.3321,1.434572720359995
3090.3388,-0.9039500510914991
3091.3449,-6.709514950965811
3092.3503,-3.5323266333542165
3093.3551,0.07747727570627205
3094.3593,-5.130205561878299
3095.3629,-2.6054782581999234
3096.3658,-1.0983926745970365
3097.3681,-2.758974643680304
3098.3698,-3.7872390251176
3099.3708,0.5668268835798642
3100.3713,-2.8967263805813417
3101.3711,-1.1778482862628152
3102.3702,-4.576459363829613
3103.3688,-0.14246837694250303
3104.3667,-0.9257383704332938
3105.364,3.9238690341252322
3106.3607,5.606501463286605
3107.3568,7.422306504365764
3108.3522,8.421431688612714
3109.347,6.9040244730544345
3110.3412,8.420232230503686
3111.3348,8.970202264733018
3112.3277,10.304081795312726
3113.32,9.322017952111125
3114.3117,9.724157761955738
3115.3028,12.01064815845399
3116.2932,15.181635977971709
3117.2831,17.937267936768336
3118.2723,18.477690599287044
3119.2608,21.553050350598333
3120.2488,14.963493390995822
3121.2361,18.959165705242697
3122.2229,21.090213128467255
3123.209,19.156781306206184
3124.1944,21.259015673094034
3125.1793,20.647061472197727
3126.1635,28.12106373399393
3127.1471,27.581167282488735
3128.1301,28.67751666047758
3129.1125,28.110256134944244
3130.0942,29.929529686097354
3131.0753,30.13548101304302
3132.0558,29.82825351559204
3133.0357,31.057990292200444
3134.015,34.52483414304171
3134.9936,30.67892755770948
3135.9716,31.27041268054905
3136.949,38.49943134911645
3137.9258,33.31612508826363
3138.902,40.070635037848206
3139.8775,36.46310200456659
3140.8524,38.093666394408814
3141.8267,38.81246824873395
3142.8004,37.669647227964354
3143.7735,38.665342604397765
3144.7459,40.79969327363541
3145.7178,42.47283774462514
3146.689,44.73491411831783
3147.6596,42.88606007093603
3148.6295,48.47641283135314
3149.5989,46.50610919958195
3150.5676,51.12528549087118
3151.5357,47.234077555408426
3152.5032,48.43262073212845
3153.4701,52.221049887625234
3154.4364,50.09949940416657
3155.402,51.66810314180974
3156.367,53.326994459617026
3157.3315,50.02630619996971
3158.2952,56.266170671979076
3159.2584,56.896719684493405
3160.221,56.31808448369924
3161.1829,57.58039574681591
3162.1442,60.683783587881926
3163.105,59.128377545131826
3164.065,62.064306549962325
3165.0245,63.09169894248633
3165.9834,61.86068244217371
3166.9416,61.17138413757733
3167.8993,62.57393049864321
3168.8563,65.71844738360352
3169.8127,62.705060024951166
3170.7684,66.43389299799452
3171.7236,67.85507025099136
3172.6782,68.16871506786053
3173.6321,67.3749500539702
3174.5854,71.52389713300128
3175.5381,74.11567755488528
3176.4902,70.70041185431465
3177.4417,71.22821982482509
3178.3926,69.94922055294813
3179.3428,78.21353241293312
3180.2924,75.72127307953721
3181.2415,75.17255944538212
3182.1899,73.86750764587691
3183.1377,80.30623306470497
3184.0848,77.73885034687464
3185.0314,81.16547333433189
3185.9773,77.48621509163422
3186.9227,80.35118787168435
3187.8674,85.51050315252283
3188.8115,81.86427160867834
3189.755,85.41260305957451
3190.6979,83.95560650599225
3191.6402,85.39339009458637
3192.5818,85.92606113245566
3193.5229,91.45372607276495
3194.4633,87.9264905094185
3195.4031,91.64445912178323
3196.3423,89.60773570996118
3197.2809,89.11642315760974
3198.2189,94.77062345230894
3199.1563,93.07043769047453
3200.0931,97.01596602081608
3201.0292,94.85730766133864
3201.9648,96.59456085988765
3202.8997,99.17782291573542
3203.834,95.70719016220869
3204.7677,95.88275794085591
3205.7008,98.45462063615363
3206.6333,101.42287167375082
3207.5652,100.5876034947502
3208.4964,98.99890752602573
3209.4271,104.95687418857527
3210.3571,103.21159291340761
3211.2865,101.91315208196275
3212.2154,103.46163904356467
3213.1436,104.45714012840591
3214.0712,107.44974063206251
3214.9982,109.73952480553909
3215.9246,107.92657582534282
3216.8503,106.86097577058558
3217.7755,111.24280564111346
3218.7001,108.1721453681628
3219.624,112.54907377054185
3220.5473,113.67366858533728
3221.4701,112.39600642414506
3222.3922,114.56616276182439
3223.3137,113.98421194927441
3224.2346,115.55022719173263
3225.1549,118.16428055459436
3226.0746,115.72644294775263
3226.9937,117.63678409945766
3227.9121,118.04537258069512
3228.83,121.10227578608286
3229.7473,121.05755992978486
3230.6639,120.51129001494235
3231.5799,123.41352983412088
3232.4954,123.21434197477309
3233.4102,125.01378779021628
3234.3244,126.46192740162428
3235.238,125.40881968003296
3236.151,127.70452223185899
3237.0634,126.94909140943068
3237.9752,129.29258228803118
3238.8864,126.38504867345273
3239.797,126.77654307856164
3240.7069,130.86711675237373
3241.6163,134.8068196761393
3242.5251,132.8457005224375
3243.4332,133.5338066157792
3244.3408,133.5211839522182
3245.2477,134.2578771924702
3246.154,143.14392966203908
3247.0598,140.27938334384982
3247.9649,139.1642787893881
3248.8694,136.74865514734574
3249.7733,140.68255017477173
3250.6766,134.91600026122842
3251.5793,138.4990403894526
3252.4814,140.58170419302112
3253.3829,142.8140239205203
3254.2838,139.44603041471936
3255.1841,142.07775309024723
3256.0838,145.5092199672725
3256.9829,143.0404576451861
3257.8814,142.07149126828676
3258.7792,143.6523445504685
3259.6765,144.68303978491042
3260.5731,146.21359782826815
3261.4692,147.5940380903669
3262.3647,145.7243785188959
3263.2595,148.3546355856038
3264.1538,145.63482430499553
3265.0474,143.71495820802957
3265.9404,149.34504936931606
3266.8329,150.5251084263155
3267.7247,150.4551445230378
3268.616,154.8851652982417
3269.5066,152.06517688613445
3270.3966,152.74518387207146
3271.286,153.72518932075656
