RamanShift,CorrectedData
30.1047,1671.9507785530996
32.3739,1551.2114192374518
34.6426,1431.8220432022958
36.9109,1315.2826182160097
39.1787,1200.8430977287508
41.4461,1082.303422037849
43.7131,962.9635194322037
45.9796,845.3733073776789
48.2456,731.432693710503
50.5112,614.9915778131717
52.7764,498.3498517538527
55.0411,386.0074014507984
57.3054,262.91410783876233
59.5692,150.4198479924239
61.8326,39.12449635732142
64.0955,-72.42207412520523
66.3579,-182.01999090506106
68.6199,-286.71865793563074
70.8815,-374.7156607905899
73.1426,-414.9057207242217
75.4032,-310.07981558135816
77.6634,122.57522170131824
79.9231,1348.5256558844826
82.1824,4189.787750503057
84.4412,9475.227755606711
86.6995,16921.36187934723
88.9574,24290.90623512414
91.2148,29340.276767123323
93.4717,31617.639176621615
95.7282,31974.008871493083
97.9842,31738.55094343541
100.2398,30885.130164406164
102.4949,30011.410988977445
104.7495,28959.057562870013
107.0036,27939.183731690548
109.2573,26980.003051455136
111.5105,26116.578798788047
113.7632,25313.023980513506
116.0154,24625.251342289954
118.2672,24133.8733766456
120.5185,23568.75232985614
122.7693,23188.50020685853
125.0197,22836.728776902208
127.2696,22424.349577351615
129.519,22160.1239172039
131.7679,21719.762881212722
134.0163,21364.1273325305
136.2642,20913.32791711202
138.5117,20453.37506727081
140.7587,19953.829006187105
143.0052,19508.199752507415
145.2512,19049.947125339946
147.4967,18641.930748710907
149.7417,18297.260056147046
151.9863,17973.294294755808
154.2304,17749.042528672027
156.4739,17445.213642297604
158.717,17268.516342544008
160.9596,16962.00916187059
163.2017,16592.900460051525
165.4433,16162.39842724091
167.6844,15695.911087663833
169.925,15285.49630392139
172.1651,14781.461781655584
174.4047,14406.66507365344
176.6439,14025.413584887387
178.8825,13669.164576263185
181.1206,13427.37516843247
183.3582,13144.302345355241
185.5954,12958.70295671773
187.832,12754.783720763167
190.0681,12576.801226147736
192.3037,12477.6119339798
194.5388,12352.322179599705
196.7734,12316.238173571675
199.0075,12272.316002936723
201.2411,12269.761631573472
203.4742,12263.430900637402
205.7068,12298.77952858637
207.9389,12334.263111243938
210.1704,12358.937121445859
212.4015,12340.80690868527
214.632,12393.82769886593
216.862,12488.154594483549
219.0915,12436.992574095546
221.3205,12460.446491377805
223.549,12511.971075636297
225.777,12517.47093157253
228.0044,12502.3005387683
230.2314,12651.264251630715
232.4578,12702.716299543865
234.6837,12771.210785379204
236.909,12789.001684981038
239.1339,12661.742846481564
241.3582,12505.537990122972
243.582,12246.890709530024
245.8053,12030.504473272103
248.0281,11871.482627449705
250.2503,11713.078397858273
252.472,11670.144891578437
254.6932,11663.785098560038
256.9139,11624.301892051479
259.134,11735.99802866331
261.3536,11851.176148763067
263.5727,12041.588775358317
265.7912,12149.338312944865
268.0092,12359.827045602633
270.2267,12429.957135918165
272.4436,12461.830622879743
274.6601,12350.749421176077
276.8759,12167.315320877577
279.0913,12038.479988547175
281.3061,11783.694969074646
283.5204,11690.411686964972
285.7341,11565.48144888619
287.9473,11515.805444602227
290.16,11524.884748222186
292.3721,11557.070318697144
294.5837,11743.212999729325
296.7947,11879.513519450253
299.0052,11997.072488559323
301.2152,11828.990398960808
303.4246,11616.167622588255
305.6334,11128.80441308532
307.8418,10617.650907933974
310.0495,10091.007133328165
312.2568,9602.673009285323
314.4635,9124.198354912827
316.6696,8762.932893291314
318.8752,8438.476256259448
321.0802,8287.077988026567
323.2847,8249.687548417256
325.4887,8185.854314385322
327.692,8116.577580387704
329.8949,8042.35655902281
332.0972,7735.7403817232735
334.2989,7472.178099498171
336.5001,7117.468685999185
338.7007,6811.161040156221
340.9008,6638.303989724513
343.1003,6392.246294347688
345.2992,6212.086647286342
347.4976,6072.373677878608
349.6955,5929.8559533417665
351.8927,5845.281980169353
354.0895,5680.350205556362
356.2856,5632.409018244969
358.4812,5504.356750173853
360.6763,5440.091676957614
362.8707,5362.31201916729
365.0646,5347.465942973016
367.258,5273.801560921802
369.4508,5301.76693208601
371.643,5392.66006279998
373.8346,5373.3789063804
376.0257,5414.321362217361
378.2162,5319.285275967177
380.4062,5295.768439142959
382.5956,5119.368590064956
384.7844,4931.8834140957515
386.9726,4719.860545404241
389.1603,4599.247568840514
391.3474,4455.992022056042
393.5339,4402.641396709836
395.7199,4242.9931399009965
397.9052,4274.6446547022115
400.09,4266.693301756244
402.2743,4354.486398959421
404.4579,4464.971221541144
406.641,4621.945001185948
408.8235,4746.254924928677
411.0054,4918.198133584723
413.1868,5051.6717205069435
415.3675,5103.622729866214
417.5477,5110.798155316717
419.7273,5046.494939476395
421.9064,4898.709973855224
424.0848,4782.740099498233
426.2627,4592.132108463358
428.4399,4300.532744981145
430.6166,3900.7887073608163
432.7928,3482.446650906286
434.9683,3155.5031919135854
437.1432,2839.8049118542895
439.3176,2632.0483606449343
441.4914,2460.8800598040198
443.6645,2399.2965045295823
445.8371,2313.7941654108436
448.0091,2191.8694890440747
450.1806,2133.3688988876092
452.3514,2075.1387964810965
454.5216,2078.275562030498
456.6913,1991.3255549904006
458.8603,2021.135114032637
461.0288,2025.7505579157933
463.1967,1989.0181851871112
465.3639,2001.3842741363387
467.5306,1965.3950831630427
469.6967,1911.596850652957
471.8622,1905.035795337868
474.0271,1973.4581168336008
476.1914,1985.9599957056143
478.3551,1967.5375927848017
480.5182,1975.8370490424477
482.6807,2042.754485774476
484.8426,2176.336004518451
487.0039,2494.377686384387
489.1647,2861.0755907189523
491.3248,3219.9757519250597
493.4843,3314.7741757948534
495.6432,3245.5668359207502
497.8015,3071.4496727474125
499.9592,2960.618594263862
502.1163,2763.419477744619
504.2728,2422.0481708580282
506.4287,2132.75049363825
508.5839,1764.9222418989775
510.7386,1517.9091901263946
512.8927,1392.0570951574773
515.0461,1346.411698650114
517.199,1378.5687283416246
519.3512,1530.0738985052158
521.5029,1755.4229096284162
523.6539,1985.911446898017
525.8043,2073.4851779465953
527.9541,2004.6397505476143
530.1033,1818.0707917397049
532.2519,1651.4239085150948
534.3999,1585.094689685322
536.5472,1666.4787075476852
538.694,1867.3715185485435
540.8401,2174.368662469469
542.9856,2434.5156604183376
545.1305,2490.10801175933
547.2748,2386.6411915114895
549.4185,2168.0106497927773
551.5615,1950.7618128547438
553.704,1891.2900852688472
555.8458,1937.2908520989295
557.987,2113.009479495924
560.1276,2328.0913142378868
562.2675,2667.881681972769
564.4069,3090.375885067604
566.5456,3526.669199210628
568.6837,3692.1568691863195
570.8212,3297.6841045124656
572.958,2653.796077785295
575.0942,2005.2879286241914
577.2299,1550.7547701105923
579.3648,1319.1916952730498
581.4992,1275.3937816325815
583.6329,1357.706093518289
585.766,1519.373682505351
587.8985,1645.3915865918916
590.0304,1691.454828582304
592.1616,1636.8584148270675
594.2922,1505.4473347621206
596.4222,1312.4665614548212
598.5515,1082.9610529180682
600.6802,926.7757540400926
602.8083,744.7055988795237
604.9358,744.5955122272389
607.0626,733.6404114270626
609.1888,822.1852063768765
611.3144,938.2747996381604
613.4393,1028.054085550555
615.5636,1110.4679490709532
617.6873,1142.3612648757135
619.8103,1115.5288965365235
621.9327,941.0156962014698
624.0544,744.6665048633604
626.1756,559.2261541048556
628.2961,427.4894680619509
630.4159,310.70126527839057
632.5351,304.9563600230322
634.6537,266.8995634577186
636.7716,293.0256836947501
638.8889,335.27952617744086
641.0056,360.4558934188535
643.1216,360.39958457927423
645.237,325.10539521442115
647.3518,221.66811727602908
649.4659,181.48253946477234
651.5793,103.19344826465021
653.6922,91.84562834484132
655.8043,97.9838633425934
657.9159,75.90293597671553
660.0268,59.99762798617667
662.137,45.412720350925156
664.2466,90.89239467459447
666.3556,62.080378887734696
668.4639,53.0704000119822
670.5716,25.755564885979766
672.6786,20.678450175062608
674.785,-12.668624753525364
676.8907,-43.64354711026499
678.9958,-10.054077546084955
681.1002,-67.5575407128872
683.204,-67.21116082234585
685.3072,-74.57148718631288
687.4097,-105.39439767714975
689.5115,-69.6850251980668
691.6127,-70.89744976225302
693.7132,-84.1850552295
695.8131,-65.75051719408475
697.9123,-42.94567024159005
700.0109,-28.97169210994798
702.1089,-6.129331509853728
704.2061,35.33095227520607
706.3028,104.3587611937437
708.3987,169.30369684097423
710.4941,196.46535976853738
712.5887,248.49334883503252
714.6827,379.1872609344209
716.7761,546.0966904757297
718.8688,757.7712280761207
720.9608,922.7604588917948
723.0522,1077.813960501242
725.1429,1129.9813012553514
727.233,1152.4620387268733
729.3224,1229.8057191887547
731.4112,1121.0118773893264
733.4993,947.7800357788656
735.5867,728.8597055975388
737.6735,533.5003886077193
739.7596,356.85157928319313
741.845,230.96276676274647
743.9298,149.2834366166553
746.014,96.91307210556988
748.0974,87.10115499731546
750.1802,120.14716609058814
752.2624,141.0005853130824
754.3439,201.81089139102005
756.4247,287.8275616406263
758.5048,490.20007136002823
760.5843,736.2278929690892
762.6631,1152.7604939856774
764.7413,1721.9473345653932
766.8188,2451.7378633362423
768.8956,3046.1815117067563
770.9718,3500.227686568098
773.0473,3489.175764349611
775.1221,3233.775086478374
777.1962,2974.474959489702
779.2697,2834.874657581173
781.3426,2909.12342520562
783.4147,3033.9204784671347
785.4862,3148.7150043785896
787.557,3022.956159613652
789.6271,2560.3930693588536
791.6966,1966.4748285711612
793.7654,1351.9505066036218
795.8335,899.619153144542
797.901,623.0798043627256
799.9678,411.231487430794
802.0339,360.1232232905768
804.0993,312.95402877159904
806.1641,268.6729171021598
808.2282,201.17889838103656
810.2916,150.42098002026978
812.3544,81.64816742012772
814.4164,-2.2405355233331647
816.4778,90.80387426947345
818.5385,135.18039990054422
820.5986,279.1880435638359
822.658,501.1258061015051
824.7166,813.5926855638354
826.7747,1344.9376749898656
828.832,1878.7597592827042
830.8886,2265.707909896093
832.9446,2503.8310794961835
834.9999,2370.128198092052
837.0545,2127.548170654469
839.1085,1826.6398784529265
841.1618,1528.352181481454
843.2143,1296.5839214676707
845.2662,1095.7839248556957
847.3175,970.3010051238016
849.368,855.3339647924349
851.4179,754.6315966790407
853.467,654.2426850477332
855.5155,620.4660066163051
857.5633,527.9003315601367
859.6105,473.7444238499429
861.6569,412.74704217744875
863.7027,346.0569404969301
865.7478,271.8228686352086
867.7922,276.14357295853915
869.8359,260.91779711494746
871.8789,282.2942819910277
873.9212,383.6717658642083
875.9629,501.6989841889699
878.0039,635.9746685830905
880.0441,774.3975456473636
882.0837,828.7663356228386
884.1226,860.3297510065986
886.1609,946.5864960080653
888.1984,1012.6852662333786
890.2352,1171.274747822812
892.2714,1177.9036167897957
894.3069,1143.9705374350233
896.3416,1030.3241622801415
898.3757,855.0131324071081
900.4091,787.2860785946359
902.4418,772.9416230713123
904.4739,827.2783801928654
906.5052,919.8449565856154
908.5358,884.2899506031026
910.5658,778.4619514004298
912.595,571.9595392897972
914.6236,407.48128679878937
916.6515,284.82576073540804
918.6786,165.09152383284163
920.7051,167.97713597602524
922.7309,245.73115539898754
924.756,255.3021386559958
926.7804,358.7386398440103
928.8041,335.6392105069772
930.8272,424.5023986014603
932.8495,401.4267487276393
934.8711,392.26080124067084
936.892,377.40309248145604
938.9123,385.7021548682824
940.9318,399.1065170454149
942.9506,352.4647038001058
944.9688,317.6252359285463
946.9862,253.3366307022843
949.003,110.64740221662214
951.019,46.45606203350144
953.0344,2.0611206084031437
955.0491,-24.33891206775479
957.063,33.25447397534663
959.0763,123.89003185375259
961.0888,168.2665143509621
963.1007,257.28267301158303
965.1119,297.4872576975649
967.1223,312.6290156980267
969.1321,301.2566913272276
971.1412,288.61902577314504
973.1495,296.0647572111975
975.1572,341.6926209306057
977.1641,353.80134925994207
979.1704,335.6396711108664
981.1759,321.05631185701895
983.1808,346.39999351564984
985.1849,391.41943489345067
987.1884,463.0133513331184
989.1911,601.030454263162
991.1932,689.5194504819701
993.1945,722.1290407776232
995.1951,704.0579190430217
997.1951,686.6047719497801
999.1943,663.8182791289328
1001.1928,658.9471133454808
1003.1906,715.4899407262455
1005.1877,836.2954208085812
1007.1841,926.9122059749461
1009.1798,971.3889402448513
1011.1748,914.6742583686791
1013.1691,739.9667853829378
1015.1627,560.3151371773965
1017.1556,340.4679222421655
1019.1477,209.22374346420474
1021.1392,95.23120032580664
1023.1299,81.0888902170318
1025.12,101.39540957563622
1027.1093,187.69935402849114
1029.0979,292.0993181885151
1031.0859,392.7938947916373
1033.0731,438.3316736528013
1035.0596,403.8112406590135
1037.0454,295.9811773139809
1039.0304,214.3400610832905
1041.0148,88.63646647272799
1042.9985,12.818965844675404
1044.9814,-30.013869324840925
1046.9636,-85.96346768798321
1048.9452,-93.68095805835401
1050.926,-42.26661047452217
1052.9061,-14.919759102294847
1054.8855,35.76068413596295
1056.8642,71.1759563662672
1058.8421,115.57729435703914
1060.8194,158.71593416494215
1062.7959,229.59311069087198
1064.7717,278.46005724856695
1066.7469,356.06800485583517
1068.7213,454.4181817458957
1070.695,527.4118125912937
1072.6679,582.8501175204037
1074.6402,609.5843113874853
1076.6117,591.8156032183051
1078.5826,503.6451959427977
1080.5527,374.42428657273376
1082.5221,298.15406708344926
1084.4908,316.385725706039
1086.4587,329.52044769005806
1088.426,418.70941512121135
1090.3925,439.95380678999754
1092.3584,473.6547972998251
1094.3235,486.26355685456656
1096.2879,546.7312509215571
1098.2515,656.2090401054957
1100.2145,854.0480795437725
1102.1767,1021.2995178116853
1104.1382,1260.7644949440582
1106.099,1495.1941407627164
1108.0591,1767.3895724818485
1110.0185,1928.2018923637079
1111.9771,2035.8321849966542
1113.9351,1964.8815156870332
1115.8923,1843.8009293828782
1117.8488,1669.6414513834043
1119.8045,1475.0040885498238
1121.7596,1335.5898310469329
1123.7139,1191.9496542894904
1125.6675,1164.2345203363602
1127.6204,1202.5453793269098
1129.5726,1194.8831697581663
1131.524,1120.7488181017125
1133.4748,989.7932388802965
1135.4248,807.3173354091887
1137.3741,683.1220011057248
1139.3226,581.4081213140798
1141.2705,542.426574547213
1143.2176,428.5782335039985
1145.164,383.413965459049
1147.1097,350.6846334011989
1149.0546,276.54109648514714
1150.9989,193.33421035875472
1152.9424,63.31482790447262
1154.8852,-20.416199928587957
1156.8272,-56.75802282445511
1158.7686,-53.40958650932225
1160.7092,-43.11926969673914
1162.6491,7.315082461513157
1164.5883,133.2460555751495
1166.5267,242.92623518074652
1168.4644,438.15820548241754
1170.4014,624.6945482550163
1172.3377,888.2878408918259
1174.2732,1198.740654539184
1176.2081,1611.3555514605541
1178.1421,2113.285081931992
1180.0755,2666.8317801160065
1182.0082,3054.798159042266
1183.9401,3274.6367050721165
1185.8713,3140.399874018929
1187.8017,2816.090088949706
1189.7315,2425.9097415274664
1191.6605,2025.2111952543255
1193.5888,1740.396789373306
1195.5163,1587.368842875314
1197.4432,1430.8296573472999
1199.3693,1419.7315185025254
1201.2947,1400.426697745961
1203.2193,1351.817452285266
1205.1432,1363.9060253238404
1207.0664,1323.7946465469122
1208.9889,1303.8855320006533
1210.9106,1337.180884493293
1212.8316,1346.4328937942082
1214.7519,1375.493736300974
1216.6715,1433.0655749468388
1218.5903,1475.2005589101136
1220.5084,1566.4008230384625
1222.4257,1712.968487427548
1224.3424,1737.05565650903
1226.2583,1858.714417584888
1228.1735,2014.8968405865508
1230.0879,2200.904976858299
1232.0016,2376.8908575954574
1233.9146,2535.00649198429
1235.8269,2546.90386544216
1237.7384,2518.6849380363765
1239.6492,2383.151644365207
1241.5592,2338.7058938400805
1243.4686,2363.049572040909
1245.3772,2540.7845411605467
1247.285,2738.112639761357
1249.1922,2934.235680997861
1251.0986,3133.355450643454
1253.0042,3225.723705129177
1254.9092,3327.942169552518
1256.8134,3430.562536753733
1258.7169,3580.336466293652
1260.6196,3728.7655834274874
1262.5216,4001.251477607095
1264.4229,4268.3957009966725
1266.3234,4460.449765747903
1268.2232,4569.565141328526
1270.1223,4690.143252601779
1272.0207,4697.835478735259
1273.9183,4694.443151995128
1275.8151,4637.117557669197
1277.7113,4643.3599341008485
1279.6067,4727.521473262292
1281.5014,4923.303320692139
1283.3953,5310.206574653791
1285.2885,5839.782284177618
1287.181,6339.9314451919345
1289.0727,6859.804995227235
1290.9637,7214.153808414707
1292.854,7495.728690287492
1294.7435,7518.7303742372
1296.6323,7426.059518698156
1298.5204,7299.666706917383
1300.4077,7112.652447881311
1302.2943,6891.917177579706
1304.1802,6596.261260875815
1306.0653,6151.134993713718
1307.9497,5665.788606074881
1309.8333,5272.872266429425
1311.7162,4956.286086589584
1313.5984,4770.080125638877
1315.4798,4621.304393097966
1317.3605,4564.058850786707
1319.2405,4495.093414311921
1321.1197,4277.907953639847
1322.9982,4012.552293785786
1324.876,3741.376216985972
1326.753,3468.0294653511164
1328.6293,3283.0117435781694
1330.5048,3131.0727216837904
1332.3796,2955.9620368545247
1334.2537,2852.629294966192
1336.127,2792.1240723349956
1337.9996,2748.2959167508434
1339.8714,2752.7943480824124
1341.7426,2775.7688587154144
1343.6129,2824.2189135076287
1345.4826,2837.6439495591467
1347.3515,2830.6433757278774
1349.2196,2831.5165724952903
1351.087,2870.712892036424
1352.9537,2944.431658211158
1354.8197,3092.922166172245
1356.6849,3244.433681628123
1358.5493,3440.465439358015
1360.4131,3635.1666416968046
1362.276,3804.2364565747303
1364.1383,3864.474015570363
1365.9998,3694.6784122199133
1367.8606,3398.348701414854
1369.7206,3028.3839010998763
1371.5799,2698.732995236188
1373.4384,2432.2949375011667
1375.2962,2208.51865458486
1377.1533,1885.4030488543676
1379.0096,1546.1970005916082
1380.8652,1199.0493712244743
1382.7201,925.3090067188823
1384.5742,677.7747410502652
1386.4275,513.4953989409642
1388.2802,377.5197983355838
1390.132,270.7467520437731
1391.9832,190.52506909998556
1393.8336,122.35355583121145
1395.6832,110.58101665918821
1397.5322,81.25625478212623
1399.3803,60.82807229242462
1401.2278,45.34527046992389
1403.0745,66.35664998618631
1404.9204,41.01101105932412
1406.7656,82.8071532438853
1408.6101,108.69387568431284
1410.4538,167.5699766969774
1412.2968,209.23425351131937
1414.139,299.5355016810836
1415.9805,383.0725146676714
1417.8213,485.89408293713404
1419.6613,601.7989931247976
1421.5006,780.3360270070534
1423.3391,1005.3539603423078
1425.1769,1290.4515610856088
1427.0139,1743.1275871384696
1428.8502,2320.3307834978896
1430.6858,2888.1598777295967
1432.5206,3315.6635741960117
1434.3547,3579.8405483779597
1436.188,3622.3394425996357
1438.0206,3560.4588633868316
1439.8524,3382.497381041945
1441.6835,3349.103530262795
1443.5139,3250.075811922231
1445.3435,3189.2626934020664
1447.1724,3147.262609583365
1449.0005,3142.5739634545644
1450.8279,3106.345126531479
1452.6545,3136.5744389041874
1454.4804,3163.0102095993243
1456.3056,3174.7507162777747
1458.13,3134.8942049703337
1459.9536,2973.4388899602836
1461.7766,2753.3829541819723
1463.5987,2425.174550835358
1465.4202,2133.41180558657
1467.2409,1795.0928198499942
1469.0608,1498.8656737059027
1470.88,1262.1284292836453
1472.6984,1032.4791337239158
1474.5161,828.4158215461266
1476.3331,699.8865169449064
1478.1493,613.4892358307243
1479.9648,522.1719871151909
1481.7795,474.5827735750245
1483.5935,431.0195927652285
1485.4067,382.5804374949821
1487.2192,367.6632962632748
1489.031,351.36615374329176
1490.842,335.4369909315874
1492.6522,280.1237853110615
1494.4618,269.82451101024253
1496.2705,247.88713935642227
1498.0785,241.2596389786513
1499.8858,228.23997602711006
1501.6924,219.37611423939143
1503.4981,192.16601507068572
1505.3032,167.707637782426
1507.1075,145.04893971439196
1508.911,131.63787652928568
1510.7138,100.52240243932556
1512.5159,69.00047034035288
1514.3172,49.970032122988414
1516.1178,15.27903898785189
1517.9176,20.375441635864263
1519.7166,-10.892809384840803
1521.515,-3.1777637298828267
1523.3126,1.1186377642816296
1525.1094,-32.65551399294509
1526.9055,-47.35212810334451
1528.7008,-38.22278744011692
1530.4954,-55.01860182870223
1532.2893,-26.490299248896008
1534.0824,-44.43805804466592
1535.8747,-31.8617919218932
1537.6663,-38.31097065026097
1539.4572,6.165254299843582
1541.2473,23.51811418462603
1543.0367,28.5488401986413
1544.8253,38.30866330126355
1546.6132,103.74881416637709
1548.4003,129.92052308478196
1550.1867,209.42501930979324
1551.9723,270.7135307955232
1553.7572,387.08728340183825
1555.5414,494.94750028147155
1557.3247,677.6954007162849
1559.1074,848.0821990386694
1560.8893,1029.409102804063
1562.6705,1209.3773110870852
1564.4509,1355.0380126682721
1566.2305,1464.4923842343833
1568.0094,1548.1915889218062
1569.7876,1574.386775222004
1571.565,1556.5290761445312
1573.3417,1564.9696089550744
1575.1176,1568.2094753540332
1576.8928,1589.3997613921156
1578.6672,1585.7915374379327
1580.4409,1625.1358579661028
1582.2138,1664.8837615933307
1583.986,1726.7862706849673
1585.7575,1812.394390957531
1587.5282,1922.409110859673
1589.2981,2001.9814007161112
1591.0673,2091.762211627467
1592.8358,2249.002474674545
1594.6035,2372.1531000205287
1596.3704,2456.7649753385813
1598.1366,2538.7889645803407
1599.9021,2663.375907129788
1601.6668,2755.876616983016
1603.4308,2909.94188150236
1605.194,3079.97246049139
1606.9564,3271.419084654258
1608.7182,3555.882453895393
1610.4791,3878.46323540504
1612.2394,4199.512060814614
1613.9988,4558.829522970911
1615.7576,4897.9161727256
1617.5156,5134.172515342056
1619.2728,5268.8990071045
1621.0293,5223.346052955429
1622.785,5043.114005148351
1624.54,4744.603163703312
1626.2942,4418.363778209231
1628.0477,4029.2960508089855
1629.8005,3655.7501394618284
1631.5525,3343.2761618340483
1633.3037,3062.1741990344344
1635.0542,2844.1442987390137
1636.804,2661.136478002075
1638.553,2514.500725436468
1640.3013,2485.187003043674
1642.0488,2449.995247680178
1643.7955,2487.525371350588
1645.5416,2551.4272615595673
1647.2868,2637.300780936531
1649.0313,2745.045766596618
1650.7751,2914.562029281964
1652.5181,3102.949352284246
1654.2604,3275.9074897495257
1656.0019,3508.186164794368
1657.7427,3799.1850677762686
1659.4828,4072.3038539708605
1661.222,4256.892140661931
1662.9606,4277.649504410225
1664.6984,4061.525479207573
1666.4354,3699.169556269311
1668.1717,3146.0311861955215
1669.9072,2580.009782594593
1671.642,2101.4047276146034
1673.3761,1720.415377603536
1675.1094,1408.241067895326
1676.8419,1176.6311166197615
1678.5737,978.0348278242182
1680.3048,809.3014937897669
1682.0351,707.2803970171285
1683.7646,611.4208119140148
1685.4934,553.172005815331
1687.2215,475.58323994177863
1688.9488,423.1537699823398
1690.6754,385.4328468701706
1692.4012,338.41971730688874
1694.1263,303.5636241397874
1695.8506,299.2138068319641
1697.5742,265.0695018108818
1699.297,234.17994251187156
1701.0191,189.79435971956673
1702.7404,177.16198187680538
1704.461,158.53203552848208
1706.1808,144.35374544787192
1707.8999,133.22633482293304
1709.6182,123.74902539808454
1711.3358,104.12103758548437
1713.0527,99.34159055980126
1714.7688,72.30990245449448
1716.4841,81.62519040961297
1718.1987,72.83667084210492
1719.9126,57.74355935267158
1721.6257,51.44507081364691
1723.338,61.240419519929674
1725.0496,51.52881925196925
1726.7605,60.2594831778124
1728.4706,57.68162395021909
1730.18,29.894453619356682
1731.8886,36.597183658579524
1733.5964,37.039025242299886
1735.3036,41.36918917895673
1737.0099,35.78688590660249
1738.7156,21.54132544959748
1740.4204,13.731717474437119
1742.1246,12.557271432202924
1743.8279,19.767196636661993
1745.5306,-3.239297723988784
1747.2325,-3.6630026592229115
1748.9336,-12.754676817931795
1750.634,-19.265042255612116
1752.3336,-21.994693608539365
1754.0325,-14.994033055220825
1755.7307,5.936756952826272
1757.4281,-3.6023562455279716
1759.1247,-18.56140537077681
1760.8206,0.6596128441246947
1762.5158,-6.289112905340517
1764.2102,5.642606069715384
1765.9039,-13.594978713584169
1767.5968,1.198384205461025
1769.289,7.323082101386262
1770.9804,16.87950223674443
1772.6711,20.768031800858353
1774.361,10.089057814258467
1776.0502,9.292967089794729
1777.7386,20.480146339430576
1779.4263,24.100982182201733
1781.1132,22.20586103234291
1782.7994,19.695169063081266
1784.4849,45.56929222558347
1786.1696,31.47861627406928
1787.8535,40.12352650706771
1789.5367,30.254407908324083
1791.2192,51.12164506034969
1792.9009,38.32562224311141
1794.5818,39.01672322536115
1796.2621,53.14533139259629
1797.9415,50.31182974015019
1799.6202,54.11660073190433
1801.2982,59.36002632862346
1802.9755,53.59248794990981
1804.6519,74.91436642176814
1806.3277,59.62604203428009
1808.0027,54.727894328387265
1809.6769,53.12030224877117
1811.3504,74.70364419283806
1813.0231,79.17829802679353
1814.6951,88.79464086980624
1816.3664,77.80304904926697
1818.0369,85.20389800461862
1819.7067,92.34756239727585
1821.3757,100.38441603661431
1823.044,102.91483180853538
1824.7115,112.13918159510058
1826.3783,92.75783624922087
1828.0443,97.62116550241944
1829.7096,102.22953815864275
1831.3741,124.78332204562685
1833.0379,113.23288396881162
1834.701,117.87858948580833
1836.3633,124.87080302189952
1838.0248,125.909887823585
1839.6856,119.84620588865619
1841.3457,133.63011795580815
1843.005,152.0119835652731
1844.6636,149.8921609209856
1846.3214,137.67100670675882
1847.9785,144.24887610748783
1849.6349,131.02612293135826
1851.2904,139.90309954406848
1852.9453,155.33015700105898
1854.5994,151.55764495874018
1856.2528,162.73591152022163
1857.9054,161.76530327303726
1859.5572,160.9961651773615
1861.2083,169.828840575718
1862.8587,179.11367120066961
1864.5084,179.70099708649104
1866.1572,174.79115647632307
1867.8054,173.18448581629718
1869.4528,170.0813198046344
1871.0994,175.73199140771385
1872.7453,185.58683189110297
1874.3905,177.09617076304994
1876.0349,195.3103356759375
1877.6786,193.82965251118594
1879.3215,193.654445197114
1880.9637,189.08503572374548
1882.6051,189.27174414456204
1884.2458,200.86488862219585
1885.8858,178.11478542656369
1887.525,192.4217488189347
1889.1634,192.736091279432
1890.8011,178.85812336396293
1892.4381,187.1381537010734
1894.0743,196.77648913072971
1895.7098,200.07343462151903
1897.3446,207.9292931742625
1898.9786,188.64436578905088
1900.6118,207.46895138668333
1902.2443,193.90334700151652
1903.8761,210.0478475932182
1905.5071,182.3527461824242
1907.1374,197.81833368929256
1908.7669,195.69489921045488
1910.3957,200.23272986436132
1912.0237,195.48211081251156
1913.651,196.9933252140827
1915.2776,193.71665427342896
1916.9034,195.40237722497432
1918.5285,194.1507713659771
1920.1528,187.66211203967396
1921.7764,198.98667264779442
1923.3992,182.97472471544825
1925.0213,165.4765377778799
1926.6427,169.59237954058744
1928.2633,159.22251605430392
1929.8832,197.56721167384057
1931.5023,172.32672916178535
1933.1207,174.65132930505342
1934.7383,177.44127116729487
1936.3552,185.39681206564546
1937.9714,176.21820754283
1939.5868,179.70571128760776
1941.2015,163.30957522655535
1942.8154,168.1300494891948
1944.4286,148.01738257195257
1946.041,160.47182128995746
1947.6528,165.99361097816472
1949.2637,162.28299536681334
1950.8739,145.4402165262063
1952.4834,166.36551490381817
1954.0921,164.10912949271915
1955.7001,163.92129762232935
1957.3074,156.55225498097434
1958.9139,157.9522356177722
1960.5197,159.12147201631615
1962.1247,156.9101950806812
1963.729,155.91863412372732
1965.3325,129.54701688921477
1966.9353,141.195569561718
1968.5374,146.31451703034327
1970.1387,145.8040827722425
1971.7393,130.81448880142398
1973.3392,125.0959556738535
1974.9383,127.8987026373552
1976.5366,116.32294768879547
1978.1342,122.61890754605247
1979.7311,136.03679776377703
1981.3273,130.17683267043003
1982.9227,118.43922523410629
1984.5173,129.62418712113367
1986.1112,121.1819288134484
1987.7044,131.46265949674762
1989.2968,131.86658714491023
1990.8885,130.34391841719025
1992.4795,129.04485865417792
1994.0697,126.96961189302328
1995.6592,121.46838088043114
1997.2479,126.79136709341083
1998.8359,126.58877079428612
2000.4232,122.6607909774707
2002.0097,126.10762537148776
2003.5955,123.279470478255
2005.1805,128.3265215386141
2006.7648,134.99897256061513
2008.3484,134.6970162690418
2009.9312,137.5208440386898
2011.5133,120.57064589738593
2013.0946,122.54661049775132
2014.6752,121.5989252866998
2016.2551,126.82777648568253
2017.8342,126.13334910016124
2019.4126,125.46582686732177
2020.9902,129.37539226301715
2022.5672,122.51222650844284
2024.1433,106.47650953104039
2025.7188,125.41842003313127
2027.2935,126.4381356522706
2028.8674,127.53583277183247
2030.4406,135.4116865108083
2032.0131,108.66587071283311
2033.5849,108.49855786742592
2035.1559,118.95991937744839
2036.7261,119.55012556077759
2038.2957,128.46934554569316
2039.8645,115.8177472649736
2041.4325,130.2954973667065
2042.9998,118.50276134080264
2044.5664,114.98970337421792
2046.1323,117.05648646888199
2047.6974,127.65327247682762
2049.2617,119.4302220795239
2050.8254,120.13749468190917
2052.3883,129.82524849461925
2053.9504,145.0436405269163
2055.5118,102.69282648981016
2057.0725,108.52296064387542
2058.6325,116.53419622275896
2060.1917,109.82668537487939
2061.7502,127.15057908331369
2063.3079,121.25602723287398
2064.8649,122.99317843686777
2066.4212,113.51218009604418
2067.9767,113.61317838122045
2069.5315,110.94631832809364
2071.0856,112.41174383622842
2072.6389,108.30959769572837
2074.1915,103.04002157257923
2075.7433,102.80315604967109
2077.2945,101.04914067949494
2078.8448,97.27811398651079
2080.3945,103.89021348468759
2081.9434,107.68557571521455
2083.4916,104.46433618037918
2085.039,99.77662930561405
2086.5857,89.57258847170988
2088.1317,90.05234606169256
2089.677,109.06603356286155
2091.2215,88.1137815619943
2092.7652,88.49571955520832
2094.3083,87.8619761574837
2095.8506,98.21267909884386
2097.3921,117.0479552306931
2098.933,112.31793042230947
2100.4731,100.82272937249263
2102.0124,101.66247565686285
2103.5511,115.98729184281433
2105.089,106.6972994811158
2106.6261,105.99261896266535
2108.1626,104.37336961138749
2109.6983,107.03966969128123
2111.2332,117.14163642261383
2112.7675,103.37938595525634
2114.301,111.4530332676643
2115.8337,101.31269230450016
2117.3657,102.90847589589612
2118.897,103.4904958588586
2120.4276,108.60886298131072
2121.9575,100.41368701627039
2123.4866,106.30507663066737
2125.0149,96.63313948729683
2126.5426,94.44798218590199
2128.0695,109.89971035989606
2129.5956,103.4384286982131
2131.1211,100.31424079079011
2132.6458,98.32724919318025
2134.1698,91.92755545779414
2135.693,99.26526015377158
2137.2155,111.99046293097672
2138.7373,101.80326244662183
2140.2584,90.65375623801651
2141.7787,80.44204082443775
2143.2983,99.31821181862551
2144.8171,97.53236402890047
2146.3353,92.38459127040142
2147.8527,91.07498638294419
2149.3693,94.20364128249912
2150.8853,88.52064697428841
2152.4005,82.2760935214983
2153.9149,90.02007010210968
2155.4287,88.10266507134224
2156.9417,90.57396588421648
2158.454,94.53405911472669
2159.9655,95.63303043112796
2161.4764,99.820964556337
2162.9865,89.8979452569406
2164.4958,80.66405530131624
2166.0045,96.16937655886363
2167.5124,102.11399009234128
2169.0195,92.74797600281522
2170.526,92.77141337021271
2172.0317,83.13438034698106
2173.5367,101.68695415785464
2175.0409,88.9792111962256
2176.5445,93.4112268386159
2178.0473,94.28307557175594
2179.5494,85.39483094826483
2181.0507,82.59656557793096
2182.5513,78.93835121659572
2184.0512,90.47025879413604
2185.5504,92.29235845104495
2187.0488,89.50471942311515
2188.5465,87.55741002321543
2190.0435,83.60049766916768
2191.5397,85.18404890322017
2193.0353,94.55812943161641
2194.5301,86.12280410876133
2196.0241,77.4781368434783
2197.5175,80.72419068336467
2199.0101,69.16102790123637
2200.502,71.08870996266864
2201.9931,76.40729764162711
2203.4835,72.81685100119057
2204.9733,72.36742934036647
2206.4622,77.80909122999401
2207.9505,66.39189451723996
2209.438,66.46589627118055
2210.9248,71.03115289697485
2212.4109,65.28772013512275
2213.8962,73.0356530158133
2215.3809,71.27500591635908
2216.8648,60.15583248371536
2218.3479,60.278185652089405
2219.8304,68.34211775413087
2221.3121,60.797680519708365
2222.7931,68.79492499526987
2224.2733,69.93390161928733
2225.7529,54.21466014228395
2227.2317,62.38724961544449
2228.7098,54.35171854780697
2230.1872,53.058114824537824
2231.6638,50.25648578728783
2233.1397,51.94687824712696
2234.6149,59.37933851256025
2236.0894,60.2539123726242
2237.5632,52.97064502256444
2239.0362,50.67958105508728
2240.5085,42.680764533193724
2241.9801,52.47423901308866
2243.4509,62.26004762417051
2244.921,48.33823297109507
2246.3904,37.90883703591862
2247.8591,42.52190131731459
2249.3271,43.777466934869835
2250.7943,38.12557458295146
2252.2608,34.31626451815305
2253.7266,33.94957661581361
2255.1917,39.17555040811021
2256.656,38.694225087725044
2258.1197,39.055639455585606
2259.5826,38.959831925678145
2261.0447,36.106840521433014
2262.5062,30.646702876682866
2263.9669,41.579456264192004
2265.4269,43.755137650258575
2266.8862,35.52378358538613
2268.3448,45.485430182528034
2269.8026,41.54011319940082
2271.2598,41.83786793886566
2272.7162,43.32872928838401
2274.1719,45.262731717039514
2275.6268,43.589909260629156
2277.0811,46.410295502322924
2278.5346,52.82392358939296
2279.9874,49.28082620500891
2281.4395,48.13103550410233
2282.8908,41.924583148795136
2284.3414,56.01150031990073
2285.7914,41.39181777898625
2287.2406,39.465565727505464
2288.689,42.13277395299383
2290.1368,44.6434718483315
2291.5838,54.34768838507148
2293.0302,49.44545208833233
2294.4758,36.73679093975625
2295.9206,37.62173242653216
2297.3648,51.45030366848073
2298.8082,49.17253140920593
2300.251,41.788441877809646
2301.693,50.64806081166921
2303.1343,38.65141353027798
2304.5748,56.29852484664934
2306.0147,49.88941918728278
2307.4538,41.42412041569355
2308.8922,47.55265189650345
2310.3299,49.97503658009305
2311.7669,44.24129694131693
2313.2031,44.55145495528086
2314.6387,44.25553215467744
2316.0735,40.25354962668575
2317.5076,47.89552801592981
2318.941,50.18148756449909
2320.3737,47.8114480355282
2321.8056,40.135428690337676
2323.2369,37.45344831213356
2324.6674,46.36552528276866
2326.0972,51.42167760956113
2327.5263,44.771922836174326
2328.9547,42.11627799205553
2330.3823,37.504759658933835
2331.8092,43.58738399737672
2333.2355,42.864166792903234
2334.661,45.88512339516046
2336.0858,43.350268725154365
2337.5098,43.90961724504086
2338.9332,50.71318298347251
2340.3558,37.26097953000726
2341.7778,36.803019967071805
2343.199,39.58931700448329
2344.6195,43.96988298402903
2346.0393,51.894729851604325
2347.4583,53.0138691134066
2348.8767,44.92731175668723
2350.2943,44.435068238558415
2351.7113,49.737148566860014
2353.1275,55.78356230508143
2354.543,49.27431851934193
2355.9578,51.80942571792457
2357.3718,52.788891916369266
2358.7852,49.812724612121656
2360.1978,46.93093077473941
2361.6098,59.74351687565172
2363.021,49.50048891697952
2364.4315,45.851852303408805
2365.8413,46.897611944621076
2367.2504,53.287772291779675
2368.6587,41.17233732707291
2370.0664,48.65131049981096
2371.4733,45.67469484758158
2372.8795,55.042492921458916
2374.285,53.104706815770896
2375.6899,51.861338074421155
2377.0939,47.162387710265875
2378.4973,54.00785621754835
2379.9,48.09774361888867
2381.3019,45.83204939682855
2382.7032,49.46077255293403
2384.1037,42.38391163044969
2385.5035,39.95146467801362
2386.9027,46.31342932042503
2388.3011,49.51980278296935
2389.6987,44.020581827797855
2391.0957,49.6657627218641
2392.492,46.75534129191681
2393.8876,43.53931286804686
2395.2824,36.217672312792956
2396.6765,36.09041405329947
2398.07,41.857532154535306
2399.4627,34.169020320566005
2400.8547,35.624871836881425
2402.246,34.475079647282655
2403.6366,32.91963633932187
2405.0265,29.758534155801385
2406.4156,33.39176501032671
2407.8041,37.36932051891938
2409.1918,34.99119196368338
2410.5789,43.5573702530296
2411.9652,38.16784594545834
2413.3508,32.42260916389614
2414.7358,39.02164964959195
2416.12,42.16495681956815
2417.5035,42.852519700631206
2418.8863,40.78432689793863
2420.2684,44.76036658812268
2421.6497,39.43062653997288
2423.0304,42.145094074674034
2424.4104,38.303756119106765
2425.7896,33.95659917869932
2427.1682,44.05360937584396
2428.546,40.74477249336769
2429.9232,30.280073873562287
2431.2996,38.65949845127227
2432.6753,45.23303085854184
2434.0503,42.40065534082055
2435.4246,42.21235569122791
2436.7982,34.46811527887701
2438.1711,44.667917050758206
2439.5433,42.81174360918112
2440.9148,37.44957710977667
2442.2856,25.431399280058486
2443.6557,33.20719147304476
2445.025,27.32693478744011
2446.3937,31.390609989876793
2447.7617,34.09819757371861
2449.1289,32.84967771842378
2450.4955,39.84503026246887
2451.8613,43.93423471583412
2453.2265,43.667270190049635
2454.5909,38.64411535730369
2455.9546,33.664748453112225
2457.3177,33.229147326550674
2458.68,38.43728949004742
2460.0416,33.58915212373995
2461.4025,44.08471202339342
2462.7627,40.82394564888216
2464.1222,42.75682901923392
2465.4811,38.48333774523678
2466.8392,40.25344701011136
2468.1966,46.467131612245225
2469.5533,48.47436594749195
2470.9093,55.37512394703435
2472.2645,46.26937905731177
2473.6191,59.307104171012384
2474.973,55.938271718131546
2476.3262,54.16285353559374
2477.6787,55.73082090094158
2479.0305,52.892144550088574
2480.3816,46.79679466164066
2481.7319,38.89474088528243
2483.0816,48.83595240273121
2484.4306,48.1703980067565
2485.7789,51.74804600176935
2487.1264,46.668864210476386
2488.4733,48.53281993810492
2489.8195,48.68988002319384
2491.165,42.5400108189541
2492.5097,50.2331781916979
2493.8538,51.46934758233806
2495.1972,49.49848392945546
2496.5398,42.62055165693823
2497.8818,43.13551469368929
2499.2231,48.043336542407474
2500.5637,41.593980274435694
2501.9035,47.43740848068421
2503.2427,41.92358333612367
2504.5812,42.65246654135092
2505.919,33.12401937772756
2507.256,57.438202700091324
2508.5924,46.844977032039424
2509.9281,54.49430232278792
2511.2631,51.436138053103036
2512.5974,50.87044315880826
2513.9309,43.94717606136658
2515.2638,53.21629467353648
2516.596,49.27775646860573
2517.9275,51.481518387699
2519.2583,54.327536879164086
2520.5884,55.315767876533414
2521.9178,46.14616677006427
2523.2465,52.96868839685749
2524.5745,51.883287132551914
2525.9018,48.739916823099975
2527.2284,44.23853079562127
2528.5543,53.57908188983663
2529.8796,47.66152250308221
2531.2041,51.035804496903665
2532.5279,57.45187925623202
2533.851,62.459697655640866
2535.1735,65.35920999518578
2536.4952,68.30036595032539
2537.8163,56.133114542926705
2539.1366,59.307404111852975
2540.4562,52.82318243463715
2541.7752,63.43039669573773
2543.0935,65.02899355138231
2544.411,67.21891902349444
2545.7279,63.10011848370834
2547.0441,66.02253663146905
2548.3596,72.28611753522102
2549.6744,70.49080460318339
2550.9885,73.63654052071456
2552.3019,70.82326726826557
2553.6146,71.80092608992243
2554.9266,70.71945752153852
2556.2379,67.6288013809583
2557.5485,72.52889677883172
2558.8585,70.06968214952144
2560.1677,74.55109520210124
2561.4762,72.22307294494885
2562.7841,80.03555164093132
2564.0913,70.73846683068462
2565.3977,73.53175325449013
2566.7035,76.16534494524467
2568.0086,78.88917520052757
2569.313,75.00317655626452
2570.6167,75.55728075948991
2571.9197,85.20141880720644
2573.222,88.28552094084455
2574.5236,82.35951654982046
2575.8246,80.47333414069533
2577.1248,87.22690139643555
2578.4244,87.02014519527404
2579.7232,94.90299154317552
2581.0214,89.27536557590338
2582.3189,93.88719148019129
2583.6157,102.58839255002022
2584.9118,90.27889114049924
2586.2072,90.90860858085375
2587.5019,95.27746529752108
2588.7959,95.48538080785238
2590.0893,102.2322736764246
2591.3819,102.66806151296123
2592.6739,103.99266090486321
2593.9652,107.30598741285121
2595.2557,113.40795555771979
2596.5456,106.94847878720395
2597.8348,116.42746941495886
2599.1234,105.14483868515629
2600.4112,115.50049667769315
2601.6983,117.49435242101822
2602.9848,119.17631378857595
2604.2705,121.7462874788672
2605.5556,113.70417899863037
2606.84,114.09989263714158
2608.1237,112.08333154663512
2609.4067,130.45439773834664
2610.689,118.66299210267857
2611.9707,117.30901422549005
2613.2516,111.64236250601061
2614.5319,109.76293417037982
2615.8115,107.9706253283141
2617.0903,109.46533099190128
2618.3685,107.24694509352253
2619.6461,105.2153604709066
2620.9229,116.42046888931316
2622.199,106.66216106184811
2623.4745,107.74032653741278
2624.7493,110.55485379828724
2626.0234,112.70563024934847
2627.2968,103.29254218992469
2628.5695,106.66547479228825
2629.8415,106.92431219578623
2631.1128,111.46893747311117
2632.3835,111.54923262771229
2633.6535,112.51507854835017
2634.9228,109.5663550082927
2636.1914,112.75294065565777
2637.4593,107.37471304290011
2638.7265,113.3315485949455
2639.9931,107.9733226629728
2641.259,105.34990946484538
2642.5242,104.86118213869383
2643.7887,106.55701276914965
2645.0525,110.4372723922329
2646.3156,104.55183097839392
2647.5781,103.8005573937105
2648.8398,100.23331945874224
2650.1009,95.6499839560438
2651.3613,108.75041666583672
2652.6211,94.98448241184269
2653.8801,104.95204493027973
2655.1385,103.35296700752065
2656.3961,104.33711038041827
2657.6531,96.95433575229572
2658.9094,109.5045027831053
2660.1651,107.43747016325653
2661.42,114.9530954881144
2662.6743,107.5012352786689
2663.9279,113.88174490637994
2665.1808,118.49447866769492
2666.433,115.53928972024414
2667.6846,124.76603003671323
2668.9354,125.9245504343952
2670.1856,125.11470048292267
2671.4351,130.63632849268345
2672.6839,135.93928152291824
2673.9321,136.42340532650508
2675.1795,144.93854429692885
2676.4263,143.58454146344047
2677.6724,140.31123840590612
2678.9179,139.61847526834617
2680.1626,139.15609079166938
2681.4067,137.1239223206003
2682.6501,145.22180580830252
2683.8928,137.49957583670073
2685.1348,139.25706553550197
2686.3761,127.84410665941732
2687.6168,123.51052957058812
2688.8568,124.85616335271436
2690.0961,116.13083585439153
2691.3348,118.03437367565334
2692.5727,109.66660225522571
2693.81,113.62734585149076
2695.0466,119.21642762616545
2696.2826,118.83366960469289
2697.5178,119.87889262035242
2698.7524,120.15191631808688
2699.9863,114.60255914405064
2701.2195,122.73063834287916
2702.452,129.1359700131826
2703.6839,117.8183690262652
2704.9151,136.67764896207171
2706.1456,142.96362222236377
2707.3755,149.82609984212667
2708.6046,146.91489142670986
2709.8331,153.5798050832023
2711.0609,162.12064744954404
2712.2881,169.23722362787748
2713.5145,176.57933709913817
2714.7403,182.2467896518899
2715.9654,193.83938130890346
2717.1899,205.0569102704818
2718.4136,219.3991727985345
2719.6367,224.5159631044021
2720.8591,233.65707320543333
2722.0809,240.72229287381788
2723.3019,255.91140954517533
2724.5223,265.7742082479022
2725.7421,274.5104714512813
2726.9611,285.1699789668538
2728.1795,268.60250786105644
2729.3972,265.5078323486261
2730.6142,250.93572395827493
2731.8306,237.63595156363704
2733.0462,222.15828152898968
2734.2612,215.50247784225047
2735.4756,192.16830226975452
2736.6892,177.55551442281245
2737.9022,160.21387199105197
2739.1145,149.4931308885461
2740.3262,138.5430454272293
2741.5372,135.41336842410504
2742.7475,114.25385131074677
2743.9571,105.16424416459478
2745.1661,92.04429592055101
2746.3744,86.59375446187556
2747.582,80.91236675138583
2748.7889,67.5498788859615
2749.9952,56.50603615335922
2751.2008,53.280583165836845
2752.4057,54.27326397059204
2753.61,53.33382208201698
2754.8136,38.41200047177108
2756.0165,33.457541578176006
2757.2188,36.120187455433324
2758.4204,42.999679823169686
2759.6213,38.29576003980992
2760.8215,36.85816903378225
2762.0211,33.68664735055802
2763.22,34.530935167026655
2764.4182,25.690772323211718
2765.6158,22.665898313827483
2766.8127,14.156052376680805
2768.009,10.310973522920108
2769.2045,9.330400622133084
2770.3994,9.81407244079844
2771.5936,5.26172765209094
2772.7872,0.6231048310453389
2773.9801,-2.3020574999211476
2775.1723,-6.4140208246215025
2776.3639,-6.313023629314671
2777.5548,-12.099240324192579
2778.745,-13.972782252340835
2779.9346,-12.183639885434786
2781.1235,-16.03166410705569
2782.3117,-17.866584086221906
2783.4992,-15.087968835628317
2784.6861,-15.495208880794394
2785.8723,-9.13754401843164
2787.0579,-3.6140592481150406
2788.2428,-10.873748285354623
2789.427,-1.5155687412087673
2790.6106,-4.888369597991186
2791.7935,-1.0909846974834636
2792.9757,5.5778009533438535
2794.1573,15.669213246457957
2795.3382,23.48447801804741
2796.5184,32.4748209476096
2797.698,37.49146747979694
2798.8769,47.23564273451416
2800.0551,53.35857145675152
2801.2327,64.91147791914341
2802.4096,78.8955858607394
2803.5859,78.26211837147412
2804.7615,98.21229775232632
2805.9364,111.34734552165435
2807.1106,143.46848221569292
2808.2842,162.8269272572038
2809.4572,181.9738986342643
2810.6294,208.31061270668192
2811.801,240.43828401452595
2812.972,270.8581250147597
2814.1423,310.27134575996354
2815.3119,356.37915359413716
2816.4808,402.28275275856697
2817.6491,445.48334393074833
2818.8167,488.0821237653495
2819.9837,540.9802844622052
2821.15,582.4790133403294
2822.3157,642.7794923089341
2823.4807,697.6828974524407
2824.645,754.8903984274764
2825.8086,808.4531579138401
2826.9716,860.6723310424263
2828.134,908.049064859599
2829.2957,954.5844978049983
2830.4567,978.1797592377746
2831.617,1006.7859689712333
2832.7767,1021.4542370368828
2833.9358,1027.9856633983713
2835.0941,1016.581337804806
2836.2519,1004.8423397254369
2837.4089,977.0697384637015
2838.5653,952.4145932746142
2839.7211,945.9279536424922
2840.8761,932.5108595275065
2842.0306,942.7643414305489
2843.1843,958.4894205274035
2844.3374,984.58710856621
2845.4899,1013.1084077102154
2846.6417,1067.4043102767944
2847.7928,1120.9257984522387
2848.9433,1188.3738437487978
2850.0931,1233.149406469462
2851.2422,1306.1534350334846
2852.3907,1371.4868655286243
2853.5385,1418.9006209811068
2854.6857,1449.5956107022876
2855.8323,1512.5227298145182
2856.9781,1564.7328589441936
2858.1233,1603.8768635924814
2859.2679,1659.3555936132216
2860.4118,1721.9198828214858
2861.555,1744.27054843879
2862.6976,1789.0583904674518
2863.8395,1817.1341914670834
2864.9808,1866.0487161067138
2866.1214,1886.852710884031
2867.2614,1884.0969036362353
2868.4007,1900.582003332001
2869.5393,1923.7587000990334
2870.6773,1926.6276650592172
2871.8146,1948.7895500968516
2872.9513,1943.2949878299592
2874.0874,1933.5945913886667
2875.2227,1943.0889544701527
2876.3574,1914.2286514356497
2877.4915,1893.664237215501
2878.6249,1869.0962475977647
2879.7577,1827.9251994338542
2880.8898,1810.6015908842242
2882.0212,1796.675901830074
2883.152,1786.7985940465899
2884.2821,1781.970111342199
2885.4116,1772.1908796573418
2886.5405,1764.2613071127594
2887.6686,1775.8817841072837
2888.7962,1777.9026833971338
2889.923,1784.1743599797123
2891.0493,1797.8471510733941
2892.1748,1800.1713760548118
2893.2997,1814.4973363221263
2894.424,1817.625315271786
2895.5476,1836.8055781552641
2896.6706,1863.1383720477832
2897.7929,1878.473925656509
2898.9145,1900.8124490572236
2900.0355,1915.2541335409715
2901.1559,1957.8991513906717
2902.2756,1986.1476557367027
2903.3946,2017.799780130452
2904.513,2030.30563826183
2905.6308,2079.4653236427503
2906.7479,2096.828909482071
2907.8643,2108.496448193996
2908.9801,2114.217971224442
2910.0953,2141.64348893436
2911.2098,2139.822990542523
2912.3236,2153.256443851268
2913.4368,2126.5437952647044
2914.5494,2118.3349696543755
2915.6613,2079.179870626389
2916.7725,2051.6783806035005
2917.8831,2034.8803612166694
2918.9931,1992.2856535800702
2920.1024,1961.0940784590748
2921.211,1946.9054366962
2922.319,1930.11950952302
2923.4264,1915.736058702057
2924.5331,1911.6548266946374
2925.6391,1908.2255368047277
2926.7445,1900.2978932197457
2927.8493,1902.6215810448548
2928.9534,1904.246266382239
2930.0569,1919.6215963078687
2931.1597,1925.3971988552507
2932.2619,1926.972682861676
2933.3634,1933.0476379104643
2934.4643,1922.5716343152098
2935.5645,1931.1442230590287
2936.6641,1920.1149358993237
2937.763,1887.6332852820533
2938.8613,1869.398764452029
2939.959,1818.3608477777288
2941.056,1772.6689909336442
2942.1523,1702.322631410657
2943.248,1630.7211889729613
2944.3431,1537.7140663615237
2945.4375,1445.8506500100993
2946.5313,1371.2803109753029
2947.6244,1274.4024058552423
2948.7169,1189.1662775352224
2949.8087,1075.7712561565256
2950.8999,989.6166599687706
2951.9904,923.2017964638645
2953.0803,843.8759632375484
2954.1696,792.888448653545
2955.2582,731.5885326368186
2956.3462,701.3754871834482
2957.4335,651.3985769736283
2958.5202,625.0070596737992
2959.6062,606.4001864364146
2960.6916,581.7272021638593
2961.7764,559.6373456945158
2962.8605,534.279850049496
2963.9439,535.7539426535378
2965.0267,536.4588455885817
2966.1089,522.2937755790289
2967.1905,520.0579439846924
2968.2714,526.4505569424481
2969.3516,524.3708153885929
2970.4312,523.717914994918
2971.5102,532.4910461895067
2972.5885,538.2893941632638
2973.6662,553.5621387821827
2974.7432,538.6084545293643
2975.8196,552.727510352287
2976.8954,550.718469812346
2977.9705,547.530490943661
2979.045,544.3127262731674
2980.1188,536.564322852496
2981.192,515.5344222901508
2982.2645,499.1221608289925
2983.3364,487.87666955653776
2984.4077,461.29707456908193
2985.4783,437.38249708415356
2986.5483,402.48205370631035
2987.6177,381.7448566662856
2988.6864,350.420014169992
2989.7545,322.4066306058941
2990.8219,302.1538068582562
2991.8887,274.0106405872767
2992.9548,247.07622643161625
2994.0204,211.74965628982926
2995.0852,193.4300195897083
2996.1495,175.01640364154986
2997.2131,144.20789382135024
2998.276,127.05357375494168
2999.3383,107.45252562607834
3000.4,86.45383034797823
3001.4611,80.35656775933484
3002.5215,59.609816834303444
3003.5812,51.462655743473874
3004.6404,34.314162061337925
3005.6989,35.71341284776088
3006.7567,23.259484819466422
3007.8139,15.90145433604431
3008.8705,8.088397524489665
3009.9264,0.6693903527828411
3010.9818,-0.7564912919793869
3012.0364,-2.990171529394104
3013.0905,-5.13256692171052
3014.1439,-3.734564159364311
3015.1966,-9.496998658448092
3016.2487,-7.37066852675855
3017.3002,-17.90627699707585
3018.3511,-10.75445366920178
3019.4013,-13.365649259231361
3020.4509,-6.2402070462678125
3021.4998,-7.228336786578495
3022.5481,-7.180185896762282
3023.5958,-2.0958295823340904
3024.6428,-0.12527131875157238
3025.6892,0.6815063558650536
3026.735,3.3245221548556287
3027.7802,5.753794784745196
3028.8247,11.669342918813982
3029.8685,11.621185172804417
3030.9118,21.659340045765475
3031.9544,19.38382592053489
3032.9963,18.844660963357
3034.0376,33.24186314663808
3035.0783,39.57545025433791
3036.1184,40.49543973799797
3037.1578,49.10184865340534
3038.1966,51.74469365139282
3039.2348,56.57399089177488
3040.2723,59.88975601691902
3041.3092,63.99200410345304
3042.3455,64.58074962910734
3043.3811,71.45600643169229
3044.4161,63.71778770321123
3045.4505,74.76610592110734
3046.4842,77.8509729256462
3047.5173,71.77239980943273
3048.5498,77.63039688656187
3049.5816,69.87497375340507
3050.6128,77.00613923002959
3051.6434,76.87390143775298
3052.6734,74.07826772783181
3053.7027,76.51924468278361
3054.7314,71.99683814434337
3055.7594,72.01105318905377
3056.7868,76.11189417348908
3057.8136,73.49936473411316
3058.8398,77.1234677462711
3059.8653,76.58420535031456
3060.8902,73.13157891536088
3061.9145,77.11558904468501
3062.9381,77.3362356102466
3063.9612,75.64351771284942
3064.9835,75.93743367993477
3066.0053,75.51798108250892
3067.0264,72.38515673220405
3068.0469,73.68895668547265
3069.0668,73.52937627491576
3070.086,66.90641009624522
3071.1046,73.12005200987886
3072.1226,61.42029520717074
3073.1399,59.05713214827466
3074.1567,55.83055467914156
3075.1727,53.49055405515111
3076.1882,44.337120973377466
3077.203,46.47024559598941
3078.2173,40.13991764178451
3079.2308,36.14612636485788
3080.2438,34.13886061790572
3081.2561,26.418108892162905
3082.2678,28.683859337475866
3083.2789,15.936099839510092
3084.2893,18.67481799709236
3085.2991,21.75000124968858
3086.3083,16.36163685001648
3087.3169,14.709711833293937
3088.3248,11.694213071122448
3089.3321,8.26512728800651
3090.3388,1.7724410915086821
3091.3449,3.7161410065403118
3092.3503,0.4962135402885224
3093.3551,3.2126451627791255
3094.3593,5.1154223390758204
3095.3629,5.554531502115935
3096.3658,0.979959033682718
3097.3681,0.6916912600141245
3098.3698,1.6897144975487208
3099.3708,-0.27598494419180497
3100.3713,0.14457922741723905
3101.3711,2.951396062089941
3102.3702,-2.2555468348060685
3103.3688,2.973738112582879
3104.3667,-0.6607389869766678
3105.364,1.1910319455445517
3106.3607,-1.970932410041769
3107.3568,-0.046615385834059
3108.3522,0.3140193756840688
3109.347,-1.838991302283489
3110.3412,-2.505613733586472
3111.3348,0.21420413944844086
3112.3277,-0.7794605944243926
3113.32,4.113467013649995
3114.3117,-3.506930300662191
3115.3028,3.6594301571707604
3116.2932,5.762666115914186
3117.2831,2.7028952677392795
3118.2723,5.980235247190507
3119.2608,2.894803661783527
3120.2488,3.896718059231631
3121.2361,4.986095958300211
3122.2229,3.8630548387875194
3123.209,5.327712130630971
3124.1944,3.8801852251375237
3125.1793,9.970591460337033
3126.1635,9.64904813545752
3127.1471,9.415672450021248
3128.1301,7.720581507059933
3129.1125,9.913892315448663
3130.0942,14.045721806856761
3131.0753,16.416186813814605
3132.0558,14.775404028395528
3133.0357,10.47348997851104
3134.015,13.660561044318612
3134.9936,15.036733501240903
3135.9716,11.852123488095089
3136.949,17.406846993331115
3137.9258,22.501019886877927
3138.902,18.184757864596094
3139.8775,17.308176397335828
3140.8524,19.32139077409994
3141.8267,21.424516110809392
3142.8004,22.417667330171327
3143.7735,24.900959140647714
3144.7459,28.12450602652396
3145.7178,25.188422223075932
3146.689,26.242821684334444
3147.6596,25.287818112446104
3148.6295,23.52352494712936
3149.5989,33.10005537522454
3150.5676,32.41752234833676
3151.5357,28.526038487070608
3152.5032,33.0257160878555
3153.4701,29.816667161860494
3154.4364,32.9990033899975
3155.402,31.972836155011805
3156.367,36.03827650965869
3157.3315,32.99543518696514
3158.2952,34.194422559575415
3159.2584,34.435348670179394
3160.221,38.718323219522816
3161.1829,41.59345556399792
3162.1442,43.36085467281377
3163.105,41.320629099244925
3164.065,41.12288696295736
3165.0245,40.317735970410844
3165.9834,43.205283416836274
3166.9416,41.93563619428728
3167.8993,43.508900762764654
3168.8563,40.67518316291289
3169.8127,45.78458900028749
3170.7684,46.93722347369218
3171.7236,50.1331913240848
3172.6782,46.82259682305103
3173.6321,49.40554374084463
3174.5854,49.232135379493435
3175.5381,48.30247454696986
3176.4902,53.466663558924985
3177.4417,56.87480424798515
3178.3926,57.876997912110106
3179.3428,58.72334528051157
3180.2924,56.763946503631345
3181.2415,54.348901144677804
3182.1899,57.22830819921985
3183.1377,59.95226611933745
3184.0848,58.77087278482746
3185.0314,58.684225475964055
3185.9773,61.19242088531279
3186.9227,57.64555511859688
3187.8674,62.893723669615405
3188.8115,64.6370214557119
3189.755,64.32554276529268
3190.6979,67.25938124039382
3191.6402,63.738629879796044
3192.5818,69.81338100968621
3193.5229,65.5837263188649
3194.4633,70.19975679799892
3195.4031,70.01156278191779
3196.3423,69.96923390345347
3197.2809,72.87285909532234
3198.2189,71.7725265905484
3199.1563,72.7183238934271
3200.0931,71.21033779052861
3201.0292,72.79865434123988
3201.9648,78.9333588928445
3202.8997,79.46453606463946
3203.834,78.74226968658823
3204.7677,82.36664279400888
3205.7008,78.5377376347968
3206.6333,81.75563563318093
3207.5652,82.17041742801285
3208.4964,84.7321628405878
3209.4271,81.0409508704968
3210.3571,84.79685967000927
3211.2865,87.09996658098511
3212.2154,84.10034809731562
3213.1436,86.49807984189243
3214.0712,90.89323659660369
3214.9982,90.93589227835675
3215.9246,88.97611989512656
3216.8503,91.31399154552919
3217.7755,90.89957843841947
3218.7001,95.98295086951228
3219.624,91.46417822552675
3220.5473,98.04332893335248
3221.4701,98.37047050523726
3222.3922,94.24566947299563
3223.3137,100.96899138473732
3224.2346,98.14050084611543
3225.1549,99.96026145309312
3226.0746,99.52833582022849
3226.9937,98.14478556247704
3227.9121,101.95967129951086
3228.83,100.47305266955422
3229.7473,106.68498829123462
3230.6639,105.74553577844898
3231.5799,105.95475167824438
3232.4954,106.36269148021248
3233.4102,107.66940961439738
3234.3244,107.07495944721629
3235.238,107.77939326839223
3236.151,113.38276229689866
3237.0634,112.38511667391509
3237.9752,108.58650540679338
3238.8864,113.83697637903418
3239.797,113.8865763882731
3240.7069,112.18535109377594
3241.6163,112.53334501594273
3242.5251,114.9806015533199
3243.4332,119.22716297912045
3244.3408,116.22307041675134
3245.2477,118.11836379734791
3246.154,116.66308188981469
3247.0598,124.1572622818726
3247.9649,123.80094139461175
3248.8694,121.9441544075496
3249.7733,123.93693526219414
3250.6766,126.3293166806118
3251.5793,121.32133014549966
3252.4814,128.46300587626152
3253.3829,127.30437287908788
3254.2838,125.54545887553914
3255.1841,124.73629031413194
3256.0838,125.97689238792827
3256.9829,125.71728904262719
3257.8814,132.5575029641588
3258.7792,132.34755558128023
3259.6765,132.03746699717354
3260.5731,133.8772559915452
3261.4692,133.266940023727
3262.3647,132.60653521427804
3263.2595,134.09605635108807
3264.1538,133.18551689598138
3265.0474,134.8249289698217
3265.9404,136.0643033616176
3266.8329,138.60364951212824
3267.7247,132.5929755014698
3268.616,131.38228802372186
3269.5066,135.6715924470343
3270.3966,135.06089282573387
3271.286,134.70019185743155
