RamanShift,CorrectedData
30.1047,162.0942135434408
32.3739,148.78881135308663
34.6426,137.8334075417903
36.9109,122.37799900072156
39.1787,113.27258124271604
41.4461,99.81714855682931
43.7131,88.81169409939112
45.9796,76.70621002855964
48.2456,64.60068761437608
50.5112,54.74511735981957
52.7764,43.38948912186227
55.0411,31.183792210025207
57.3054,19.628015499934488
59.5692,10.822147555378285
61.8326,-0.4838232561353841
64.0955,-11.989908675319969
66.3579,-22.34612043805068
68.6199,-32.952350501015076
70.8815,-36.65826758315758
73.1426,-38.11321120944109
75.4032,-26.666154688735404
77.6634,19.284309421069608
79.9231,143.9398549569694
82.1824,430.6021555631164
84.4412,911.5228834442647
86.6995,1558.0537064991463
88.9574,2202.746283511265
91.2148,2642.3522576835885
93.4717,2855.0232501916194
95.7282,2898.910855787339
97.9842,2904.516640672497
100.2398,2870.442142059733
102.4949,2823.9888681165226
104.7495,2787.4582983059163
107.0036,2755.5518838510798
109.2573,2701.421048100594
111.5105,2637.8171868475215
113.7632,2566.5416688707155
116.0154,2491.5958365708557
118.2672,2421.531006683207
120.5185,2344.0984710270754
122.7693,2280.249497206456
125.0197,2214.33532938436
127.2696,2165.357188921305
129.519,2127.516275034454
131.7679,2097.9637652873976
134.0163,2074.9008159685654
136.2642,2032.7785623867496
138.5117,2023.1481191017326
140.7587,2003.4605803455129
143.0052,1944.6670201186084
145.2512,1909.1684923869307
147.4967,1863.2160316697214
149.7417,1822.2106533945375
151.9863,1792.0033543567765
154.2304,1765.7451131297285
156.4739,1737.986890366651
158.717,1742.52962906335
160.9596,1731.7742548357626
163.2017,1717.5216758745314
165.4433,1718.1227830525552
167.6844,1696.0784500675163
169.925,1679.53953343587
172.1651,1632.5568727132859
174.4047,1587.2812906600407
176.6439,1540.4135937108395
178.8825,1511.3045724275776
181.1206,1496.155001968013
183.3582,1471.265642376858
185.5954,1447.2372387372766
187.832,1429.3205214197749
190.0681,1433.2162063224873
192.3037,1419.3749950503438
194.5388,1409.7475748761117
196.7734,1395.1346188788089
199.0075,1389.2367860399777
201.2411,1379.5547213898142
203.4742,1396.589056066147
205.7068,1394.3404074112586
207.9389,1381.859378801541
210.1704,1390.5465596699814
212.4015,1369.4025256309749
214.632,1379.7778383934497
216.862,1362.7730459723107
219.0915,1342.3386825846837
221.3205,1340.9752688199649
223.549,1332.6333118441648
225.777,1327.81330541354
228.0044,1307.565729958018
230.2314,1283.0410526293904
232.4578,1267.1897275037932
234.6837,1247.0621958269517
236.909,1226.5588861726953
239.1339,1212.0802146442325
241.3582,1199.0265850791818
243.582,1180.898389194361
245.8053,1175.2460067163227
248.0281,1161.8198055626353
250.2503,1159.220141898409
252.472,1153.4473602705552
254.6932,1141.101793633785
256.9139,1129.133763408336
259.134,1126.843579603427
261.3536,1125.681540936942
263.5727,1135.9979348583277
265.7912,1143.943037560217
268.0092,1177.5671138752632
270.2267,1190.9204171966899
272.4436,1206.4531891420502
274.6601,1225.9656594196938
276.8759,1230.958045673438
279.0913,1209.630553287446
281.3061,1215.9333753362994
283.5204,1209.9666927982755
285.7341,1212.1306744923183
287.9473,1205.9254771377045
290.16,1215.3512453324054
292.3721,1189.808111615138
294.5837,1148.996196371107
296.7947,1115.1156080874373
299.0052,1103.8164437612907
301.2152,1073.4987892386748
303.4246,1051.462719327433
305.6334,1035.20829810042
307.8418,1003.7855791158663
310.0495,983.0446055799177
312.2568,958.6354106608653
314.4635,921.3580176965556
316.6696,878.11244043848
318.8752,841.5486834245505
321.0802,815.2667424115559
323.2847,799.5166047407977
325.4887,785.4482496009114
327.692,790.561648185366
329.8949,807.25676383315
332.0972,828.6335519776353
334.2989,837.1919599796277
336.5001,819.1319269135972
338.7007,784.9033834820955
340.9008,756.9562521963558
343.1003,712.6904477185785
345.2992,687.1558771414022
347.4976,649.6524404305608
349.6955,605.2800306802303
351.8927,603.7385344880629
354.0895,565.8778323989111
356.2856,571.0977989202427
358.4812,549.1483029007475
360.6763,537.8792074781384
362.8707,519.7403702986455
365.0646,521.4816436297087
367.258,521.5028745413638
369.4508,518.9539048888303
371.643,516.9845713123
373.8346,524.2447052624252
376.0257,534.6341330200153
378.2162,555.6026756234317
380.4062,561.3501487646959
382.5956,543.6263625798028
384.7844,503.8811215912467
386.9726,463.714224885259
389.1603,437.3254665092611
391.3474,420.5646358735323
393.5339,415.4315180150984
395.7199,413.4758937653394
397.9052,436.54753980132
400.09,439.8962286653475
402.2743,461.0717285342546
404.4579,467.8738031859116
406.641,494.00221178747233
408.8235,514.8567088273539
411.0054,564.5370438539517
413.1868,620.3429612670946
415.3675,685.0741998212425
417.5477,686.2804920674257
419.7273,610.4615637059337
421.9064,506.2171335742505
424.0848,451.9969144052461
426.2627,417.7506138696199
428.4399,378.32793511810155
430.6166,336.2785771239164
432.7928,297.95223507701076
434.9683,267.99860080454596
437.1432,246.01736315416224
439.3176,221.35820829351314
441.4914,206.12081993007996
443.6645,206.50487955776293
445.8371,195.8600666092541
448.0091,189.83605845219677
450.1806,190.282530495635
452.3514,169.04915625025228
454.5216,165.98560732390843
456.6913,163.54155363397103
458.8603,168.96666343795323
461.0288,163.91060335795282
463.1967,154.9230383264021
465.3639,153.35363163662782
467.5306,142.55204503272694
469.6967,141.66793872526046
471.8622,126.30097149926996
474.0271,124.10080072311757
476.1914,114.26708250215574
478.3551,108.19947170072965
480.5182,103.04762204051349
482.6807,106.51118616118742
484.8426,124.28981567195683
487.0039,140.68316111691502
489.1647,176.19087179725807
491.3248,200.66259560735193
493.4843,195.04797867965453
495.6432,202.99666513999796
497.8015,173.10829716373587
499.9592,149.33251489625582
502.1163,108.0689567518641
504.2728,84.56725965154101
506.4287,68.1770594355794
508.5839,51.39799109859928
510.7386,47.42968895345143
512.8927,56.821786799007214
515.0461,55.87391795984195
517.199,61.23571519231314
519.3512,84.15681069403922
521.5029,125.93683605028218
523.6539,150.075422004737
525.8043,169.27219804173046
527.9541,134.32679214483596
530.1033,89.03883060490625
532.2519,55.757938369526755
534.3999,44.38373949589413
536.5472,36.56585748362818
538.694,38.653915388510086
540.8401,48.3971709734044
542.9856,58.69488161463778
545.1305,63.44630420456497
547.2748,77.1506950485932
549.4185,69.80730981766806
551.5615,76.21540341122818
553.704,93.12423003064009
555.8458,96.0830431151171
557.987,108.24109517263037
560.1276,124.39763775032202
562.2675,164.1519213129227
564.4069,198.05319508118828
566.5456,215.90070663435586
568.6837,207.14370157113194
570.8212,174.48142333121564
572.958,129.71311328287106
575.0942,101.03801104954914
577.2299,90.50535495756958
579.3648,56.51438232287387
581.4992,41.86432955634996
583.6329,52.40443250374278
585.766,54.23392659215415
587.8985,90.50204672464156
590.0304,110.60802726192492
592.1616,130.15110165970304
594.2922,125.13050226759515
596.4222,117.04546013370987
598.5515,70.09520505485216
600.6802,37.17896565737374
602.8083,15.495969866674159
604.9358,7.595445236363503
607.0626,7.776464515312227
609.1888,13.238024573892744
611.3144,32.729044595595724
613.4393,55.14831151604699
615.5636,92.29461194358123
617.6873,111.01673193505144
619.8103,126.56345662436524
621.9327,130.2335700352628
624.0544,115.4758549258504
626.1756,81.0390927519004
628.2961,45.07206381442643
630.4159,40.9735476040521
632.5351,45.29232316068101
634.6537,39.427169114480876
636.7716,28.6268636426978
638.8889,28.89018452830601
641.0056,44.865909268012956
643.1216,47.752815069623466
645.237,54.249678692284306
647.3518,47.55527641761455
649.4659,24.668383984738284
651.5793,23.43777665722564
653.6922,11.412229451964777
655.8043,2.590517151464155
657.9159,1.7214144241124814
660.0268,-4.896329940969736
662.137,-12.213984351592444
664.2466,0.5672316987702288
666.3556,-5.553779265653247
668.4639,-1.5781203872791139
670.5716,1.0431606737304264
672.6786,-8.040967977364971
674.785,-9.731538245736601
676.8907,-10.12950170728709
678.9958,-19.88571271985097
681.1002,-16.25092444754182
683.204,-17.77569139620323
685.3072,-6.410405724943303
687.4097,-4.45528201371576
689.5115,-7.11047080252024
691.6127,-4.726078123089792
693.7132,2.297861026444707
695.8131,-11.938641138526918
697.9123,2.614427574406818
700.0109,16.157198624682678
702.1089,19.689803445593952
704.2061,23.412373308861333
706.3028,35.9750392893086
708.3987,61.07793222763553
710.4941,62.421182604793785
712.5887,65.65492029095503
714.6827,66.27927453208076
716.7761,72.64437391758383
718.8688,67.40034637408439
720.9608,72.24731910176047
723.0522,76.08541862678612
725.1429,92.46477075286339
727.233,120.48550052284008
729.3224,161.2977320549171
731.4112,191.2515882624407
733.4993,203.4471904457796
735.5867,176.3346579927886
737.6735,137.41410825685057
739.7596,111.83565682800281
741.845,99.5494179221414
743.9298,104.75550463680634
746.014,117.80402907404391
748.0974,129.54510228834624
750.1802,136.12883415616534
752.2624,124.70533325850215
754.3439,114.27470681506975
756.4247,101.73706079852855
758.5048,99.09250003879242
760.5843,108.84112834840516
762.6631,127.03304854898579
764.7413,160.6183623737429
766.8188,197.39717028555447
768.8956,243.51957114111565
770.9718,280.88566182315094
773.0473,271.9455367791893
775.1221,251.24928764790388
777.1962,245.84700334851232
779.2697,281.98877028774064
781.3426,347.12467241384434
783.4147,386.1047908551918
785.4862,376.42920326890567
787.557,323.5479834510602
789.6271,255.61120143343828
791.6966,179.26892401234363
793.7654,120.92121542796826
795.8335,95.91813812781618
797.901,75.15975335017947
799.9678,73.34612137417025
802.0339,73.37730172730357
804.0993,81.55335320363281
806.1641,75.07433386343973
808.2282,62.84030095147216
810.2916,53.45131096173611
812.3544,52.10741975983399
814.4164,50.45868267685637
816.4778,53.65515452282011
818.5385,68.94688960315489
820.5986,80.4839416867394
822.658,114.31636385298407
824.7166,156.5942083764603
826.7747,206.06752638857665
828.832,258.08636745479964
830.8886,289.8007790799211
832.9446,305.0108061878701
834.9999,286.61649080456766
837.0545,248.86787190582754
839.1085,194.4149856012989
841.1618,152.4078655119531
843.2143,123.4965433146117
845.2662,101.08104916201842
847.3175,97.21141197195163
849.368,104.03765965138018
851.4179,92.75981913515864
853.467,91.77791631776654
855.5155,93.14197616608499
857.5633,90.75202272921615
859.6105,98.15807912484365
861.6569,89.11016756313029
863.7027,85.35830927265886
865.7478,80.10252459091168
867.7922,72.54283300178759
869.8359,64.47925318816078
871.8789,64.0118031074777
873.9212,67.29050007239164
875.9629,72.61536075543893
878.0039,81.53640115625092
880.0441,92.35363654830553
882.0837,100.31708138971715
884.1226,125.17674921506432
886.1609,137.68265255575454
888.1984,180.13480269142906
890.2352,195.93320952490285
892.2714,195.97788115764365
894.3069,194.01882373178682
896.3416,165.45604142969012
898.3757,143.0395364935232
900.4091,134.86930951089516
902.4418,132.24535963902133
904.4739,138.36768468642333
906.5052,155.3362811391704
908.5358,157.00114409965533
910.5658,132.71226711690815
912.595,119.91964216994745
914.6236,94.02325991067005
916.6515,80.22310979177621
918.6786,76.0191803257344
920.7051,72.01145922278215
922.7309,67.94993343296585
924.756,76.48458918621725
926.7804,82.61541203296963
928.8041,76.34238675881068
930.8272,95.86549732317405
932.8495,96.48472692207054
934.8711,99.45005779285589
936.892,112.2614712080391
938.9123,121.66894744562944
940.9318,140.52246566102156
942.9506,149.472003792921
944.9688,126.26753837480919
946.9862,121.30904444544774
949.003,104.24649578092351
951.019,94.47986494423367
953.0344,79.0091234559103
955.0491,83.83424189168716
957.063,75.90519003720715
959.0763,76.67193683977132
961.0888,69.08445048762917
963.1007,80.44269840231141
965.1119,64.996647314504
967.1223,71.0962631504666
969.1321,66.44151118649302
971.1412,69.58235598791453
973.1495,66.918761455648
975.1572,70.7006907947873
977.1641,69.428106541239
979.1704,61.900970523902515
981.1759,62.91924387739675
983.1808,59.08288711733121
985.1849,70.49186013012365
987.1884,61.946122211363104
989.1911,59.845631951720975
991.1932,68.79034732240768
993.1945,72.33022569617742
995.1951,69.51522375788136
997.1951,69.64529746906885
999.1943,57.12040209613701
1001.1928,67.59049220903046
1003.1906,64.45552180649008
1005.1877,88.3154442113522
1007.1841,108.37021210189778
1009.1798,115.81977727325432
1011.1748,95.86409043684716
1013.1691,88.95310114590404
1015.1627,70.53675799501218
1017.1556,48.31500868922774
1019.1477,42.18780022824035
1021.1392,30.60507912858941
1023.1299,26.516791484936903
1025.12,23.72288308589407
1027.1093,32.32329945490483
1029.0979,50.46798587818478
1031.0859,62.706887318717236
1033.0731,58.98994823480564
1035.0596,73.26711245768479
1037.0454,67.43832322869014
1039.0304,54.20352305648578
1041.0148,34.66265377535353
1042.9985,36.96565667753987
1044.9814,24.862472708665223
1046.9636,18.953042444693438
1048.9452,23.387306212963836
1050.926,34.96520415128646
1052.9061,43.63667616359828
1054.8855,48.40166180418419
1056.8642,46.76010019096259
1058.8421,53.26192995783606
1060.8194,45.35708927110636
1062.7959,45.59551576445688
1064.7717,47.62714661799987
1066.7469,52.40191855589296
1068.7213,47.469767826022235
1070.695,50.08063015225537
1072.6679,68.13444078376187
1074.6402,82.23113446890602
1076.6117,81.62064527470727
1078.5826,75.85290644587462
1080.5527,47.92785041091054
1082.5221,35.79540883978859
1084.4908,25.905512923204697
1086.4587,12.958093493900265
1088.426,7.653081125562494
1090.3925,9.890406262298029
1092.3584,18.469999271682923
1094.3235,13.84179042239009
1096.2879,26.755709798392104
1098.2515,43.061687345243854
1100.2145,61.80965274094399
1102.1767,78.34953523287402
1104.1382,101.13126345031947
1106.099,127.50476523907071
1108.0591,159.71996743360558
1110.0185,182.9267955933542
1111.9771,203.8751736805475
1113.9351,226.3150238281495
1115.8923,262.94626613037224
1117.8488,277.56881841827783
1119.8045,255.1325958934665
1121.7596,200.187510981851
1123.7139,135.93347355801825
1125.6675,102.62039149468023
1127.6204,113.5981713052148
1129.5726,120.31671847679604
1131.524,123.27593736061658
1133.4748,100.87573110470237
1135.4248,67.41600162432076
1137.3741,45.346649825981444
1139.3226,28.517575942034796
1141.2705,29.37867975136453
1143.2176,25.929860747679413
1145.164,41.771018130901666
1147.1097,37.852050841655
1149.0546,25.172857402853538
1150.9989,6.283335958890802
1152.9424,3.83338440243233
1154.8852,-5.127099436689605
1156.8272,-5.948217766976427
1158.7686,-7.380021577205525
1160.7092,-6.172502433460181
1162.6491,-7.42557817540785
1164.5883,9.710895020582484
1166.5267,14.937135159667946
1168.4644,29.35336014989707
1170.4014,46.609787749947145
1172.3377,75.25663542496227
1174.2732,91.99412017398924
1176.2081,146.1224582435084
1178.1421,212.99186496005927
1180.0755,277.1525541889572
1182.0082,310.25473766559935
1183.9401,300.7986243538571
1185.8713,240.28442011505524
1187.8017,168.71232780253217
1189.7315,117.83254786678265
1191.6605,73.59527907117854
1193.5888,49.60071900076662
1195.5163,34.549064504640455
1197.4432,26.09051193588698
1199.3693,22.675257302103432
1201.2947,1.753496349981333
1203.2193,6.875424599460075
1205.1432,0.3412375529444489
1207.0664,-0.8988693559153944
1208.9889,-2.394700696880932
1210.9106,-0.6460520600088557
1212.8316,-0.0026951122965783725
1214.7519,9.285604933318723
1216.6715,16.519082890824507
1218.5903,17.347973481352483
1220.5084,28.122511260843908
1222.4257,30.84293061176129
1224.3424,37.15946563534192
1226.2583,48.522350124394166
1228.1735,69.68181750013196
1230.0879,84.08810069854565
1232.0016,105.39143195880831
1233.9146,132.4920426792121
1235.8269,135.69016320413505
1237.7384,150.48602255303513
1239.6492,142.17984838846849
1241.5592,158.97186686813143
1243.4686,183.11230272792227
1245.3772,213.5013791140209
1247.285,265.63931734148423
1249.1922,301.87633659035555
1251.0986,353.56265338428534
1253.0042,377.94848122816086
1254.9092,432.18403009124313
1256.8134,478.86950616330864
1258.7169,527.2051113122934
1260.6196,546.6910426174388
1262.5216,543.677491885936
1264.4229,537.414645458065
1266.3234,528.6026842373324
1268.2232,493.29178375309755
1270.1223,467.9821142486942
1272.0207,444.57384103453785
1273.9183,428.8171247412232
1275.8151,439.66212155360677
1277.7113,452.8089833683738
1279.6067,505.0078576855884
1281.5014,590.0588874772255
1283.3953,682.612210665181
1285.2885,784.3679592707626
1287.181,855.8762584891556
1289.0727,880.1872256718656
1290.9637,862.0009696116367
1292.854,795.7175902993406
1294.7435,738.9871791058392
1296.6323,685.1098194448198
1298.5204,640.7355873400969
1300.4077,604.9145519643878
1302.2943,566.5967760830539
1304.1802,552.6823164123107
1306.0653,536.5212240024069
1307.9497,517.9135443767677
1309.8333,495.60931769360644
1311.7162,484.4085789320011
1313.5984,465.41135811493683
1315.4798,463.617680421313
1317.3605,458.2775663759161
1319.2405,463.7410318673558
1321.1197,443.6580882014665
1322.9982,423.4787420466723
1324.876,384.50299563481667
1326.753,332.6808469629554
1328.6293,284.1122901831149
1330.5048,244.89731612051332
1332.3796,208.83591275924647
1334.2537,179.2780656344366
1336.127,167.22375819284719
1337.9996,139.62297208846155
1339.8714,129.37568730302576
1341.7426,124.83188242205671
1343.6129,119.9915347373148
1345.4826,115.30462029224168
1347.3515,110.0211139303641
1349.2196,100.89098934216275
1351.087,90.86421911790757
1352.9537,99.34077483895857
1354.8197,102.27062717803398
1356.6849,105.65374581444405
1358.5493,117.19009940479327
1360.4131,123.97965554914884
1362.276,147.4223806756769
1364.1383,174.2682399727476
1365.9998,170.9671971545074
1367.8606,166.61921419242026
1369.7206,173.42425134827874
1371.5799,169.08226721768347
1373.4384,171.79321866199263
1375.2962,144.95706085174197
1377.1533,123.2237472395355
1379.0096,102.04322982840677
1380.8652,83.01545938915194
1382.7201,61.84038567213577
1384.5742,56.51795759756811
1386.4275,41.648123467255346
1388.2802,36.83083101782478
1390.132,28.216027569422465
1391.9832,23.50366007388635
1393.8336,27.293675200894313
1395.6832,18.38601938508765
1397.5322,12.130638788171154
1399.3803,15.577479387989854
1401.2278,7.726487041082123
1403.0745,3.627607448211961
1404.9204,3.3307862328783813
1406.7656,2.585968982304678
1408.6101,1.9931012504061414
1410.4538,-4.247871434761237
1412.2968,-1.9370035650720752
1414.139,1.7756928038343176
1415.9805,6.740224966983931
1417.8213,8.1566002016462
1419.6613,22.62482571768828
1421.5006,39.5449086434117
1423.3391,54.86685588087005
1425.1769,82.69067393666802
1427.0139,117.71636876874209
1428.8502,171.99394550812207
1430.6858,208.77340810867395
1432.5206,218.10475880432455
1434.3547,220.78799774126662
1436.188,210.573122884646
1438.0206,195.06012999172827
1439.8524,191.04901271404822
1441.6835,196.1397627525397
1443.5139,193.18236989764665
1445.3435,196.57682197841552
1447.1724,205.7231048920695
1449.0005,204.02120257006356
1450.8279,202.4210968866223
1452.6545,196.2227676757579
1454.4804,200.52619274727203
1456.3056,193.13134794873878
1458.13,192.83820712247058
1459.9536,175.74674217946654
1461.7766,159.7569231023441
1463.5987,142.2187181162534
1465.4202,119.23209384877555
1467.2409,98.44701550530453
1469.0608,86.36344709891404
1470.88,62.231351658207416
1472.6984,54.55069134815375
1474.5161,46.92142771140874
1476.3331,38.09352174512128
1478.1493,39.2669339772263
1479.9648,41.59162455472364
1481.7795,35.867553231943816
1483.5935,37.89467934730101
1485.4067,38.07296188053414
1487.2192,44.75235943243558
1489.031,45.53283022306829
1490.842,40.36433202497187
1492.6522,44.99682215535768
1494.4618,44.330257527794004
1496.2705,34.014594605881086
1498.0785,37.449789409916775
1499.8858,35.835797620053256
1501.6924,36.82257454194513
1503.4981,37.160075122888884
1505.3032,24.998253941955454
1507.1075,30.43706520661516
1508.911,31.32646287435597
1510.7138,30.21640059829531
1512.5159,21.70683171828597
1514.3172,18.197709272017164
1516.1178,20.238986080109726
1517.9176,12.53061478120776
1519.7166,13.822547811565471
1521.515,9.06473748213125
1523.3126,11.507135965628095
1525.1094,6.849695344131703
1526.9055,4.5423675846466836
1528.7008,7.835104585680597
1530.4954,12.177858200317758
1532.2893,1.0205802032914448
1534.0824,3.613222247556621
1535.8747,6.6557359758625125
1537.6663,3.4480729948264752
1539.4572,7.190184844508792
1541.2473,5.932023030489006
1543.0367,6.123538986445055
1544.8253,11.964684086734962
1546.6132,12.455409644481279
1548.4003,18.145666853159923
1550.1867,24.635406781692723
1551.9723,22.224580317545247
1553.7572,32.81313810182888
1555.5414,41.75103055340958
1557.3247,61.5882077630219
1559.1074,71.47461940389042
1560.8893,97.26021453335767
1562.6705,108.79494149402018
1564.4509,126.02874765587228
1566.2305,133.76157930095906
1568.0094,137.14338145103818
1569.7876,135.77409779025163
1571.565,134.25367063130778
1573.3417,139.23204092917405
1575.1176,137.3591482962815
1576.8928,144.03493095274086
1578.6672,158.5593257450716
1580.4409,169.23226807944394
1582.2138,187.95369177643494
1583.986,212.67352896429895
1585.7575,219.09170989175385
1587.5282,234.40816268078208
1589.2981,253.6228132624492
1591.0673,258.48558522373924
1592.8358,265.89639961540826
1594.6035,260.90517490335674
1596.3704,265.061826894521
1598.1366,247.81626878678622
1599.9021,239.16841112741935
1601.6668,226.9181619855246
1603.4308,220.06542703852216
1605.194,222.01010969465088
1606.9564,238.9521111614954
1608.7182,266.94133042653937
1610.4791,308.7776640877454
1612.2394,346.3110060736632
1613.9988,402.0912472250658
1615.7576,427.81827491961616
1617.5156,450.34197251406516
1619.2728,431.9622190869807
1621.0293,391.8288892135113
1622.785,341.1918531491833
1624.54,284.05097723123424
1626.2942,234.15612438498331
1628.0477,185.3071546952402
1629.8005,152.80392590525307
1631.5525,125.69629390519887
1633.3037,99.98411305721535
1635.0542,81.26723646647747
1636.804,72.54551623831915
1638.553,60.66880366540221
1640.3013,52.986949314933526
1642.0488,46.949803147431794
1643.7955,39.50721459354648
1645.5416,36.25903261442906
1647.2868,34.10510577615898
1649.0313,29.545282282225486
1650.7751,27.879409995066794
1652.5181,25.307336481668358
1654.2604,30.278909030221683
1656.0019,32.59397467584486
1657.7427,32.45238015086704
1659.4828,45.25397186167757
1661.222,61.44859589014223
1662.9606,73.23609786558706
1664.6984,92.51632280285213
1666.4354,95.78911498441687
1668.1717,86.50431776759746
1669.9072,72.31177355181902
1671.642,51.66132387146371
1673.3761,35.05280953779592
1675.1094,20.736070845466998
1676.8419,19.21094773860031
1678.5737,13.277279953958555
1680.3048,8.484907036195096
1682.0351,10.033668397190667
1683.7646,1.1234033639769905
1685.4934,5.803951163249138
1687.2215,2.4251510104681984
1688.9488,-0.663157936944117
1690.6754,1.3888634541822285
1692.4012,2.1810609419650575
1694.1263,1.5132802706336008
1695.8506,1.9353671626066955
1697.5742,-2.9528326748295513
1699.297,-2.7514735537426134
1701.0191,-1.7106802874017148
1702.7404,3.819449798144717
1704.461,1.0388364665440974
1706.1808,-1.752600556750508
1707.8999,2.2950584433256154
1709.6182,0.28175069031658495
1711.3358,-2.3925866151840296
1713.0527,-1.878016275399915
1714.7688,-4.324577190614775
1716.4841,2.017710500270482
1718.1987,2.3488698608807397
1719.9126,-4.781076065336009
1721.6257,4.47789574157963
1723.338,3.7758560645367254
1725.0496,2.9128756416656643
1726.7605,0.5890251733382286
1728.4706,2.7043753307976033
1730.18,2.0589967793968356
1731.8886,2.3529601574452954
1733.5964,2.886336082662467
1735.3036,6.109195149238275
1737.0099,4.321607922499254
1738.7156,6.773644906680175
1740.4204,8.565376562799685
1742.1246,11.496873284140179
1743.8279,7.318205378330191
1745.5306,7.7294430380297
1747.2325,7.080656382716768
1748.9336,13.571915454575077
1750.634,10.653290224981788
1752.3336,11.324850529595153
1754.0325,13.536666097540405
1755.7307,11.93880654469433
1757.4281,14.331341351567318
1759.1247,18.964339879281823
1760.8206,15.687871345646784
1762.5158,16.50200477882791
1764.2102,14.606809050112304
1765.9039,15.202352865767097
1767.5968,18.688704785991604
1769.289,17.515933218961635
1770.9804,12.834106385965981
1772.6711,17.54329233313416
1774.361,19.993558978254725
1776.0502,18.134974063683245
1777.7386,17.917605131839906
1779.4263,19.04151954379509
1781.1132,21.70678448144325
1782.7994,16.113466936263706
1784.4849,18.86163368266797
1786.1696,17.75135133393296
1787.8535,20.932686314719234
1789.5367,20.155704872174027
1791.2192,14.470473044117696
1792.9009,20.977056666813667
1794.5818,22.22552143182068
1796.2621,23.765932820926977
1797.9415,20.298356093665674
1799.6202,21.172856271910675
1801.2982,22.28949817455235
1802.9755,20.898346408752516
1804.6519,20.949465358778184
1806.3277,24.692919199912936
1808.0027,19.028771897945802
1809.6769,24.40708717173655
1811.3504,23.57792854985736
1813.0231,23.991359316809678
1814.6951,21.647442521315597
1816.3664,25.296240972183725
1818.0369,23.287817261748216
1819.7067,25.12223372938091
1821.3757,23.349552481575586
1823.044,26.969835373603715
1824.7115,23.333144027241318
1826.3783,23.839539794566036
1828.0443,24.689083794324247
1829.7096,27.331836906866855
1831.3741,23.017859765654052
1833.0379,28.097212730827607
1834.701,29.469955932350842
1836.3633,26.28614921921492
1838.0248,25.595852145711646
1839.6856,21.49912400327119
1841.3457,26.546023827365403
1843.005,26.58661043847492
1844.6636,28.220942391620156
1846.3214,23.849077975955453
1847.9785,25.171075198425854
1849.6349,26.786991827485622
1851.2904,31.096885379878415
1852.9453,28.150813104477848
1854.5994,33.098831939188784
1856.2528,30.640998540407992
1857.9054,29.027369233543922
1859.5572,26.658000037595187
1861.2083,29.082946681286643
1862.8587,29.352264626763244
1864.5084,30.466009045340513
1866.1572,30.524234814811408
1867.8054,24.42699650830879
1869.4528,28.224348393723304
1871.0994,32.51634449467561
1872.7453,28.103038552542856
1874.3905,26.98448398353888
1876.0349,30.660733922847115
1877.6786,29.881841235806192
1879.3215,28.99785848114749
1880.9637,28.15883791878393
1882.6051,30.06483151864994
1884.2458,27.965890969091546
1885.8858,31.06206765780648
1887.525,33.05341269283362
1889.1634,25.189976871591213
1890.8011,27.721810660963385
1892.4381,29.99896427593457
1894.0743,25.57148765427118
1895.7098,28.2394304337501
1897.3446,27.152841996433438
1898.9786,28.411771441988975
1900.6118,29.06626759855618
1902.2443,27.966379010156814
1903.8761,28.21215393015001
1905.5071,30.403640332231134
1907.1374,25.39088590797411
1908.7669,32.47393804491641
1910.3957,28.502843876686796
1912.0237,26.37765021217463
1913.651,30.798403575240954
1915.2776,26.565150225970285
1916.9034,25.527936116463223
1918.5285,25.3368069331689
1920.1528,24.9918081072571
1921.7764,26.19298481652956
1923.3992,26.840381988869908
1925.0213,26.53404429023199
1926.6427,28.27401611816589
1928.2633,25.51034160488129
1929.8832,31.49306459984777
1931.5023,25.072228697431513
1933.1207,29.34787717706807
1934.7383,27.120053067470735
1936.3552,27.238799103874072
1937.9714,29.154157750312095
1939.5868,25.816171198430894
1941.2015,28.72488134833496
1942.8154,24.780329841967202
1944.4286,25.98255803402168
1946.041,23.581607031389183
1947.6528,25.227517681135012
1949.2637,24.870330594508417
1950.8739,24.360086130483523
1952.4834,27.846824399331226
1954.0921,22.480585267721608
1955.7001,24.011408323856557
1957.3074,22.63933293113213
1958.9139,25.41439821283042
1960.5197,25.836643065840136
1962.1247,26.40610613290609
1963.729,23.02282579840677
1965.3325,25.73684018265959
1966.9353,27.498187175753728
1968.5374,23.106904410409967
1970.1387,26.963029244367306
1971.7393,23.01659880429571
1973.3392,26.16764994723492
1974.9383,23.86621930005873
1976.5366,23.26234322796448
1978.1342,23.356057857487343
1979.7311,20.0473990825391
1981.3273,21.936402563471034
1982.9227,21.873103760160447
1984.5173,27.70753791312066
1986.1112,25.139740044134
1987.7044,25.369744897907466
1989.2968,24.647586967750655
1990.8885,25.87330049327585
1992.4795,22.646919467619412
1994.0697,23.018477625184815
1995.6592,18.98800847390632
1997.2479,23.705545291533454
1998.8359,26.97112116593577
2000.4232,26.634768947927355
2002.0097,22.696521218611153
2003.5955,22.7564102927424
2005.1805,25.614468258111174
2006.7648,25.17072697494349
2008.3484,23.67521804732077
2009.9312,26.47797282761708
2011.5133,24.27902243145438
2013.0946,20.778397709674962
2014.6752,20.876129270330964
2016.2551,26.27224751369053
2017.8342,22.9667826312606
2019.4126,21.359764551825606
2020.9902,23.351222974502207
2022.5672,22.691187384809425
2024.1433,20.429687034754096
2025.7188,21.56675094943124
2027.2935,18.702407949639024
2028.8674,20.186686640508057
2030.4406,20.519615440144975
2032.0131,23.051222564789484
2033.5849,17.131536025485218
2035.1559,21.810583602763643
2036.7261,22.138392905840902
2038.2957,23.814991325827307
2039.8645,23.140406032449235
2041.4325,23.764663957283247
2042.9998,20.33779180050186
2044.5664,19.909816024631013
2046.1323,19.030762888818728
2047.6974,19.750658453114937
2049.2617,22.519528587261973
2050.8254,19.637398963495656
2052.3883,19.404295028856552
2053.9504,18.570242034011287
2055.5118,18.18526503558357
2057.0725,23.349388904494703
2058.6325,20.462638329813316
2060.1917,18.475037767114173
2061.7502,23.086611467345662
2063.3079,20.047383496705848
2064.8649,28.557377690526735
2066.4212,21.66661768366653
2067.9767,20.62512682540975
2069.5315,22.482928248374705
2071.0856,21.29004487892844
2072.6389,20.246499418608778
2074.1915,20.40231435605311
2075.7433,21.757511977433964
2077.2945,20.162114364900702
2078.8448,20.416143383027602
2080.3945,19.71962069476784
2081.9434,21.17256775891319
2083.4916,17.975005837059285
2085.039,24.47695597907611
2086.5857,18.828439055083606
2088.1317,21.979475690432224
2089.677,21.030086322187998
2091.2215,21.730291167622312
2092.7652,17.730110233705673
2094.3083,20.87956331010568
2095.8506,23.22867000918886
2097.3921,20.5774497345261
2098.933,17.32592165740165
2100.4731,22.724104743325327
2102.0124,19.072017784547754
2103.5511,17.869679346078556
2105.089,24.867107802207215
2106.6261,16.764321348526465
2108.1626,19.161337931958073
2109.6983,20.458175331780595
2111.2332,20.054851135659305
2112.7675,23.50138272667776
2114.301,17.99778728737104
2115.8337,23.144081765260466
2117.3657,18.690282927889456
2118.897,20.13640731136067
2120.4276,18.532471264874033
2121.9575,20.828490936265368
2123.4866,22.574482288045886
2125.0149,19.970461074441857
2126.5426,23.166442823934787
2128.0695,21.562442865301563
2129.5956,22.25847629565476
2131.1211,18.854557996482512
2132.6458,18.70070262668824
2134.1698,18.896924656629864
2135.693,20.09323836965831
2137.2155,20.98965786015536
2138.7373,21.236197021570362
2140.2584,20.682869537456227
2141.7787,17.12968887900388
2143.2983,22.12666831057558
2144.8171,18.22382092523678
2146.3353,20.571159594786195
2147.8527,14.568697008784454
2149.3693,20.716445651080562
2150.8853,20.764417859836627
2152.4005,18.212625766050323
2153.9149,15.311081293075134
2155.4287,14.709796182138334
2156.9417,22.80878202135645
2158.454,18.75805025174803
2159.9655,19.807612086243893
2161.4764,20.50747855019435
2162.9865,16.80766047087367
2164.4958,19.25816847048138
2166.0045,17.20901300314047
2167.5124,16.910204330392233
2169.0195,17.011752541687912
2170.526,17.81366755737666
2172.0317,17.51595912769018
2173.5367,17.818636824723555
2175.0409,20.121710045412257
2176.5445,18.125188008505475
2178.0473,18.37907973153537
2179.5494,16.183394050782212
2181.0507,14.338139618735525
2182.5513,18.793324926050914
2184.0512,17.398958320002578
2185.5504,20.655047959931537
2187.0488,16.461601831189242
2188.5465,19.868627712576725
2190.0435,18.92613321827905
2191.5397,19.984125763795035
2193.0353,17.992612575362173
2194.5301,16.6516006793767
2196.0241,19.31109692230882
2197.5175,18.02110798411273
2199.0101,20.23164035163174
2200.502,16.942700331498045
2201.9931,15.30429402802747
2203.4835,16.966427376108896
2204.9733,17.079106157588356
2206.4622,16.79233598464762
2207.9505,17.256122298677468
2209.438,13.470470373145318
2210.9248,16.38538530895748
2212.4109,13.900872072315536
2213.8962,14.566935465567298
2215.3809,15.833580152051852
2216.8648,15.850810649438998
2218.3479,10.418631317062832
2219.8304,14.337046355749365
2221.3121,15.806059862138284
2222.7931,16.325675789498888
2224.2733,10.695897933039902
2225.7529,14.916729924713323
2227.2317,14.638175289512176
2228.7098,16.4102374032622
2230.1872,10.882919495407492
2231.6638,13.806224631289723
2233.1397,15.23015576742145
2234.6149,9.254715722252968
2236.0894,12.02990716193301
2237.5632,9.30573266006327
2239.0362,13.832194669946361
2240.5085,12.709295551827594
2241.9801,9.48703752763042
2243.4509,10.815422692185336
2244.921,9.544453045452556
2246.3904,12.224130479238042
2247.8591,10.304456789903298
2249.3271,12.635433651568533
2250.7943,13.567062635309398
2252.2608,11.849345185847312
2253.7266,10.182282612233081
2255.1917,12.8658761050241
2256.656,9.850126752954935
2258.1197,8.235035516101476
2259.5826,7.9706032560383875
2261.0447,10.556830751989992
2262.5062,11.393718703474633
2263.9669,9.0312677044424
2265.4269,8.86947823490624
2266.8862,11.608350684566474
2268.3448,10.897885354428666
2269.8026,13.038082429414942
2271.2598,7.578941985468575
2272.7162,9.570463968152012
2274.1719,8.862648247238326
2275.6268,6.055494596795896
2277.0811,9.149002702266714
2278.5346,8.543172188537838
2279.9874,4.938002589006317
2281.4395,7.783493351637546
2282.8908,5.829643875016885
2284.3414,12.376453479894792
2285.7914,11.823921428725328
2287.2406,8.472046860198034
2288.689,10.020828794763318
2290.1368,10.770266168151096
2291.5838,12.420357815883122
2293.0302,9.521102465778398
2294.4758,7.372498721452416
2295.9206,9.074545091309645
2297.3648,8.577240010029627
2298.8082,10.730581821546508
2300.251,6.884568784022079
2301.693,8.73919904831233
2303.1343,6.794470696427595
2304.5748,10.100381722986228
2306.0147,8.956930054661896
2307.4538,6.614113517124437
2308.8922,7.071929846474433
2310.3299,6.130376712671449
2311.7669,8.289451714955703
2313.2031,8.349152391263758
2314.6387,10.509476196637692
2316.0735,4.17042050262809
2317.5076,9.93198257569081
2318.941,9.244159640577507
2320.3737,9.106948822720057
2321.8056,6.970347155108726
2323.2369,9.334351579664315
2324.6674,9.498958968604128
2326.0972,11.114166100801995
2327.5263,16.92996966014217
2328.9547,15.14636621936728
2330.3823,15.663352181920324
2331.8092,14.230923799780719
2333.2355,8.19907716829438
2334.661,8.417808240498061
2336.0858,8.587112887437812
2337.5098,9.456986895981636
2338.9332,7.677425967126474
2340.3558,4.748425707299411
2341.7778,8.869981646153285
2343.199,3.742089265856734
2344.6195,7.614743959878609
2346.0393,6.587941084266873
2347.4583,8.411675918922157
2348.8767,7.385943677865669
2350.2943,5.610739491001951
2351.7113,6.886058414376052
2353.1275,4.811895447925664
2354.543,5.938245522727868
2355.9578,7.165103521740832
2357.3718,5.692464268540306
2358.7852,2.6203225150509866
2360.1978,5.2486729562729195
2361.6098,4.477510261002941
2363.021,1.056829045551254
2364.4315,5.4866238814529
2365.8413,6.916889329674724
2367.2504,4.69761989631742
2368.6587,6.728810018312771
2370.0664,8.310454085616371
2371.4733,6.792546420895789
2372.8795,5.975081263713996
2374.285,6.458052785708581
2375.6899,5.391455098766372
2377.0939,5.525282250193634
2378.4973,5.60952823338215
2379.9,3.2941869864708906
2381.3019,8.129252391503506
2382.7032,3.2647182975818154
2384.1037,7.750578472515002
2385.5035,10.536826651464992
2386.9027,3.8734564920879038
2388.3011,6.460461546671617
2389.6987,7.847835328769477
2391.0957,2.1355712873302934
2392.492,4.273662792824531
2393.8876,-0.13789680563303364
2395.2824,1.7508857983357657
2396.6765,5.340005288698158
2398.07,1.8294563319125743
2399.4627,1.0692335410373914
2400.8547,5.759331510836475
2402.246,5.0997448253814
2403.6366,3.240468011150419
2405.0265,1.7314955436243977
2406.4156,5.722821865879531
2407.8041,4.51444140367709
2409.1918,1.906348525550122
2410.5789,2.5985375548872938
2411.9652,5.891002796013858
2413.3508,3.2837385272696906
2414.7358,1.226738968084689
2416.12,5.619998305051361
2417.5035,4.963510712494866
2418.8863,6.007270308540427
2420.2684,2.8512711616781488
2421.6497,1.0455072803255092
2423.0304,0.4899726443872865
2424.4104,4.784661223313222
2425.7896,0.8795669816533689
2427.1682,4.024683836111194
2428.546,4.620005694594539
2429.9232,1.665526424764451
2431.2996,1.7112398480819095
2432.6753,0.4071397693526748
2434.0503,2.303219976270171
2435.4246,1.0994742524564458
2436.7982,2.5458963585013734
2438.1711,1.1924800440001206
2439.5433,-0.16078096691108357
2440.9148,2.8361070379792324
2442.2856,1.483139377084349
2443.6557,2.480311340456545
2445.025,3.0276182033167487
2446.3937,2.425055216082775
2447.7617,-0.027382401103700715
2449.1289,3.570300547648472
2450.4955,1.1180995317806222
2451.8613,0.7160099850310999
2453.2265,3.6640273299573067
2454.5909,4.062146981956531
2455.9546,3.810364319785812
2457.3177,2.958674681580746
2458.68,2.2070733673732903
2460.0416,4.7055556476086835
2461.4025,3.0041167706614544
2462.7627,2.0527519378506085
2464.1222,2.7014563204539925
2465.4811,1.6002250692219775
2466.8392,0.5490533078903965
2468.1966,2.847936144192822
2469.5533,3.696868680372333
2470.9093,3.4458459901926233
2472.2645,4.744863110448769
2473.6191,2.9939150434773723
2474.973,0.9429967441664573
2476.3262,1.9421031374649118
2477.6787,3.841229138891677
2479.0305,1.3903696445446911
2480.3816,3.6895195121096336
2481.7319,3.9386735853685053
2483.0816,3.187826671208157
2484.4306,1.9369735371286794
2485.7789,5.636108918751958
2487.1264,3.4852275323301214
2488.4733,0.5843240377542855
2489.8195,7.53339306006329
2491.165,4.482429218452772
2492.5097,3.931427056784422
2493.8538,4.2803810740957005
2495.1972,1.0292857301098053
2496.5398,5.57813544174612
2497.8818,4.0769246156312064
2499.2231,2.6756476026102547
2500.5637,2.8242987127592514
2501.9035,3.3728722293977285
2503.2427,4.5713624076022725
2504.5812,2.4197634687207312
2505.919,2.1680695883873824
2507.256,1.8662749180388687
2508.5924,1.8643735874311602
2509.9281,2.3623597076575535
2511.2631,7.160227371167579
2512.5974,1.3079706467872043
2513.9309,3.105583531740173
2515.2638,4.603060010170509
2516.596,2.0503940351664696
2517.9275,5.297579513785699
2519.2583,3.8446103325819507
2520.5884,-0.4585196748668139
2521.9178,3.9881832865713065
2523.2465,3.1347175926396957
2524.5745,4.231081579199937
2525.9018,2.927273550766465
2527.2284,3.8232917695428768
2528.5543,5.269134468460088
2529.8796,3.2147998422160953
2531.2041,1.1602860328176021
2532.5279,1.4555911501233183
2533.851,7.3507132923891305
2535.1735,3.09565054331501
2536.4952,4.990400913093815
2537.8163,3.9349623809619487
2539.1366,4.129332876251802
2540.4562,5.923510288946154
2541.7752,3.267492467734435
2543.0935,4.961277202071024
2544.411,2.454862248735253
2545.7279,3.6482453148936926
2547.0441,3.8414240831642914
2548.3596,2.234396199682571
2549.6744,4.877159272169813
2550.9885,7.619710886003368
2552.3019,0.5620485777890352
2553.6146,3.55416980793548
2554.9266,4.09607203123096
2556.2379,1.8377526669219861
2557.5485,3.579209093294402
2558.8585,3.5204386702565174
2560.1677,3.71143872192458
2561.4762,3.202206537210472
2562.7841,6.542739367911722
2564.0913,5.783034433803834
2565.3977,3.7230888892349014
2566.7035,5.662899830722701
2568.0086,4.20246431755416
2569.313,3.741779352387219
2570.6167,3.5308418958551897
2571.9197,3.3696488711736023
2573.222,4.458197166249612
2574.5236,5.896483635293883
2575.8246,2.184505087935136
2577.1248,4.97225827483728
2578.4244,5.959739924819154
2579.7232,5.346946716977051
2581.0214,4.2838752708098795
2582.3189,4.5705221523471025
2583.6157,2.906883884779468
2584.9118,1.142956945592509
2586.2072,6.478737783202952
2587.5019,4.86422283459796
2588.7959,2.5994084719773483
2590.0893,4.034291018898699
2591.3819,3.11886677292555
2592.6739,7.553131991278519
2593.9652,7.437082899989591
2595.2557,4.570715649559439
2596.5456,3.1540263161179354
2597.8348,5.487010930087784
2599.1234,6.819665490351468
2600.4112,5.601985940921374
2601.6983,6.983968157613269
2602.9848,4.615607960223073
2604.2705,3.8969010987070476
2605.5556,3.4278432768653886
2606.84,5.758430159529254
2608.1237,3.5386573772514325
2609.4067,4.668520503000394
2610.689,4.998015074358044
2611.9707,6.227136582221114
2613.2516,3.305880467506192
2614.5319,9.784242108858514
2615.8115,6.912216851864507
2617.0903,4.839799944268208
2618.3685,7.816986564691476
2619.6461,4.593771843358219
2620.9229,4.420150832322463
2622.199,6.196118537700578
2623.4745,4.971669921407418
2624.7493,4.8467998833966845
2626.0234,5.921503273905394
2627.2968,2.645774894702619
2628.5695,8.019609488342404
2629.8415,5.793001770921059
2631.1128,5.515946378338839
2632.3835,1.6384378885659885
2633.6535,3.060470824413308
2634.9228,3.5320396923072437
2636.1914,2.8031389680695398
2637.4593,7.373763092201578
2638.7265,4.193906477173364
2639.9931,7.1135634617172805
2641.259,0.4827283426266895
2642.5242,5.601395345559311
2643.7887,3.519558691345601
2645.0525,8.087212544802107
2646.3156,1.454351035549788
2647.5781,5.120968212337512
2648.8398,5.237058109370665
2650.1009,6.7526147096449485
2651.3613,5.367631943785494
2652.6211,2.2321036748913166
2653.8801,5.296023712385125
2655.1385,0.8593858433686208
2656.3961,5.272183801983239
2657.6531,7.5344113137765945
2658.9094,2.846062051574478
2660.1651,2.8071296128585885
2661.42,4.017607566650035
2662.6743,4.277489453898653
2663.9279,7.436768775378223
2665.1808,4.9954389890876385
2666.433,4.003493478658108
2667.6846,4.560925577766493
2668.9354,6.417728580054721
2670.1856,5.5738957335554815
2671.4351,3.129420222124214
2672.6839,3.334295173877397
2673.9321,7.188513685637325
2675.1795,3.9920688208833646
2676.4263,8.294953571209764
2677.6724,5.697160888290096
2678.9179,7.398683640848432
2680.1626,4.799514640637227
2681.4067,3.299646625422131
2682.6501,7.949072284973639
2683.8928,5.39778427606581
2685.1348,4.645775175981996
2686.3761,5.343037508027727
2687.6168,2.889563749050808
2688.8568,8.23534632246869
2690.0961,5.380377622803195
2691.3348,4.174649962222691
2692.5727,6.018155599091806
2693.81,5.2108867500286635
2695.0466,4.952835571469851
2696.2826,4.693994167743117
2697.5178,5.284354593647837
2698.7524,3.873908857043478
2699.9863,6.262648912945963
2701.2195,5.950566677632128
2702.452,6.187654004752343
2703.6839,7.873902688451317
2704.9151,4.659304460997223
2706.1456,5.543850975919234
2707.3755,8.27753384015347
2708.6046,7.660344605197572
2709.8331,4.89227473977385
2711.0609,5.7733156360011755
2712.2881,9.103458637075683
2713.5145,5.632695028460365
2714.7403,7.211016004583641
2715.9654,9.138412703547012
2717.1899,9.014876191341816
2718.4136,9.49039744257528
2719.6367,8.214967341705897
2720.8591,5.388576678288199
2722.0809,11.261216159727052
2723.3019,9.782876439541585
2724.5223,12.403548058638748
2725.7421,11.123221460096776
2726.9611,12.64188696295843
2728.1795,10.509534775034265
2729.3972,7.576154977715991
2730.6142,9.591737547299974
2731.8306,8.856272384321034
2733.0462,9.619749293396623
2734.2612,6.182157990581498
2735.4756,9.243488095732918
2736.6892,8.903729166886585
2737.9022,7.562870669643335
2739.1145,3.5209019805667197
2740.3262,9.477812400591592
2741.5372,5.03359119544379
2742.7475,6.388227536071049
2743.9571,5.441710543085193
2745.1661,6.844029273215785
2746.3744,4.545172728775288
2747.582,4.445129843635883
2748.7889,3.4938895062180215
2749.9952,4.141440560490867
2751.2008,3.53777181548471
2752.4057,1.2328720388154082
2753.61,2.276729962721145
2754.8136,3.469334307111371
2756.0165,3.7106737691282454
2757.2188,2.300737011220601
2758.4204,1.3395126587305448
2759.6213,5.5269893139928215
2760.8215,4.263155565947066
2762.0211,2.547999948263037
2763.22,7.0815109519789345
2764.4182,0.6636770426529743
2765.6158,3.694486615028275
2766.8127,1.4239280572111994
2768.009,4.001989720363259
2769.2045,1.77865994140668
2770.3994,-0.046072982756179215
2771.5936,4.127779226990437
2772.7872,2.5502053100313837
2773.9801,-0.8788060355262637
2775.1723,2.490733862922518
2776.3639,2.5588224572550473
2777.5548,2.0754571744413184
2778.745,4.740635415863117
2779.9346,1.804354562147683
2781.1235,-0.9333880534840837
2782.3117,4.927404884145176
2783.4992,1.086740014759478
2784.6861,0.9946239288087853
2785.8723,2.9010632058756904
2787.0579,1.6560644155965534
2788.2428,-2.7903659014028754
2789.427,0.16177877894253356
2790.6106,-0.5374671435467597
2791.7935,2.7619307293319366
2792.9757,2.8600121650780537
2794.1573,2.306816903571736
2795.3382,3.7023846560930203
2796.5184,0.19675511085377906
2797.698,2.339967919042042
2798.8769,1.3320627298783023
2800.0551,2.373079169183395
2801.2327,2.113056849457532
2802.4096,4.852035359470129
2803.5859,3.840054266860051
2804.7615,2.57715309074581
2805.9364,2.763371311845397
2807.1106,4.198748385105283
2808.2842,0.8833237378382321
2809.4572,3.717136755369527
2810.6294,1.3002268141912197
2811.801,5.782633253624017
2812.972,4.914395399986347
2814.1423,6.445552521770299
2815.3119,4.626143838324033
2816.4808,5.756208504540197
2817.6491,7.585785629050008
2818.8167,6.464914262922605
2819.9837,15.093633381369298
2821.15,15.171981894952257
2822.3157,14.249998563297332
2823.4807,19.42772199431058
2824.645,24.50519065339808
2825.8086,26.582442811688693
2826.9716,30.009516495259387
2828.134,33.53644946436273
2829.2957,38.51327917915613
2830.4567,37.54004276443251
2831.617,39.966776959852005
2832.7767,40.04351812967432
2833.9358,40.37030223849143
2835.0941,42.947164850460126
2836.2519,37.32414112603418
2837.4089,40.60126579619573
2838.5653,38.1285732186855
2839.7211,33.956097345231555
2840.8761,37.38387174627623
2842.0306,32.56192965270089
2843.1843,32.7403039215482
2844.3374,34.0190270842415
2845.4899,36.048131344801156
2846.6417,31.277648567057252
2847.7928,35.85761025435857
2848.9433,33.7380475972774
2850.0931,34.71899142780997
2851.2422,37.00047224057201
2852.3907,40.23252018298936
2853.5385,39.865165032483176
2854.6857,35.79843616414941
2855.8323,39.18236255443236
2856.9781,36.866972821791975
2858.1233,41.002295192864636
2859.2679,39.738357525616934
2860.4118,44.97518726799257
2861.555,42.862811470551634
2862.6976,46.151256734102425
2863.8395,50.190549230825056
2864.9808,43.380714671387125
2866.1214,48.62177826455074
2867.2614,47.213764785270875
2868.4007,51.20669852228473
2869.5393,52.95060329219187
2870.6773,50.79550239952489
2871.8146,51.99141861931038
2872.9513,51.23837421861991
2874.0874,49.036390944610886
2875.2227,55.085490032056995
2876.3574,54.53569222536798
2877.4915,56.83701771809878
2878.6249,59.689486158447345
2879.7577,56.09311662624152
2880.8898,63.69792760441425
2882.0212,60.403937014967376
2883.152,60.16116214292343
2884.2821,63.31961966926561
2885.4116,60.87932567336556
2886.5405,64.64029560139862
2887.6686,68.35254429074699
2888.7962,62.16608593238993
2889.923,62.78093403378118
2891.0493,63.34710148071372
2892.1748,63.814600531171166
2893.2997,63.533442809666134
2894.424,63.203639302565236
2895.5476,62.62520036090072
2896.6706,61.09813570366836
2897.7929,61.07245442361201
2898.9145,62.598165002494135
2900.0355,61.62527531135271
2901.1559,66.40379259524406
2902.2756,65.63372348297175
2903.3946,66.46507393930149
2904.513,62.997849272661696
2905.6308,61.9820541268301
2906.7479,62.21769251560597
2907.8643,61.85476783296801
2908.9801,61.39328285071802
2910.0953,59.18323972211017
2911.2098,63.67463998646579
2912.3236,60.96748459127383
2913.4368,58.961773847276845
2914.5494,62.40750745554256
2915.6613,58.95468452752097
2916.7725,60.40330355058698
2917.8831,61.90336242256873
2918.9931,54.30485843726128
2920.1024,56.65778826942608
2921.211,55.56214805077603
2922.319,56.967933346446166
2923.4264,53.67513916595003
2924.5331,54.13375994912189
2925.6391,53.59378959904457
2926.7445,54.155221477463364
2927.8493,50.018048410185656
2928.9534,53.232262681466594
2930.0569,54.54785607538089
2931.1597,56.81481984368063
2932.2619,55.13314469263935
2933.3634,55.60282076038239
2934.4643,56.773837633703664
2935.5645,55.0961843433689
2936.6641,55.31984935240544
2937.763,58.9948205728788
2938.8613,57.971085363656044
2939.959,56.79863049365598
2941.056,54.127442152086616
2942.1523,54.257505960169624
2943.248,51.63880699785229
2944.3431,47.77132980250684
2945.4375,47.205058395117454
2946.5313,42.389976318954986
2947.6244,39.07606664523976
2948.7169,34.46331202129231
2949.8087,34.60169470367254
2950.8999,29.691196604307226
2951.9904,31.031799289106214
2953.0803,25.92348402706741
2954.1696,23.566231776870737
2955.2582,21.610023237961283
2956.3462,22.454838874121823
2957.4335,20.900658933034933
2958.5202,22.497463437834806
2959.6062,18.045232202649046
2960.6916,19.89394481663065
2961.7764,22.04358068848029
2962.8605,21.894119027959185
2963.9439,19.245538824392774
2965.0267,23.797818848165292
2966.1089,22.10093767720561
2967.1905,19.6548736514644
2968.2714,19.30960488988296
2969.3516,19.01510931485388
2970.4312,17.62136465567369
2971.5102,19.528348451487837
2972.5885,19.236038065228136
2973.6662,22.244410664542915
2974.7432,20.303443224720148
2975.8196,20.26311249860368
2976.8954,19.273395036002942
2977.9705,20.534267184096258
2979.045,22.095705097328008
2980.1188,23.30768472479988
2981.192,22.520181794656555
2982.2645,19.483171801965856
2983.3364,17.596630016593785
2984.4077,16.760531513574637
2985.4783,19.324851191976425
2986.5483,16.489563783261836
2987.6177,16.354643825645084
2988.6864,16.920065692444727
2989.7545,15.68580359343289
2990.8219,12.051831569181068
2991.8887,13.818123503402717
2992.9548,10.83465315929299
2994.0204,12.001394161865825
2995.0852,9.118320027788627
2996.1495,10.785404153714868
2997.2131,6.802619845114837
2998.276,7.369940299604782
2999.3383,3.7373386467747594
3000.4,2.804787942515432
3001.4611,2.972261205344074
3002.5215,5.189731425730109
3003.5812,4.107171564420332
3004.6404,4.324554530264235
3005.6989,4.691853191039613
3006.7567,2.2590403712787115
3007.8139,4.12608884859525
3008.8705,2.292971378012556
3009.9264,2.7596606732930784
3010.9818,-0.62387057473045
3012.0364,2.5423502971781016
3013.0905,3.9583021847218856
3014.1439,2.273963958180561
3015.1966,0.8893144482507758
3016.2487,1.4043324628895402
3017.3002,1.968996801160733
3018.3511,3.3332862480849137
3019.4013,2.3471795689926864
3020.4509,0.5106554958817959
3021.4998,3.023692737278205
3022.5481,1.1362699966013192
3023.5958,1.148365947033625
3024.6428,3.4099592503949214
3025.6892,-0.1289714429786475
3026.735,3.031552483149481
3027.7802,1.3415109334405795
3028.8247,4.600883782240405
3029.8685,-1.8403491095203854
3030.9118,-0.5322079269199644
3031.9544,1.625305530051092
3032.9963,0.7321947781593945
3034.0376,1.3384633179185066
3035.0783,2.844114642520056
3036.1184,2.1491522317710405
3037.1578,1.0035795370373215
3038.1966,2.657399988193239
3039.2348,1.860617005077346
3040.2723,4.663233980954205
3041.3092,3.7652542904822095
3042.3455,1.6666812616874243
3043.3811,0.7175181849433816
3044.4161,4.167768333956806
3045.4505,3.1674349752592352
3046.4842,3.716521333704538
3047.5173,3.0650306024722234
3048.5498,5.862965937576595
3049.5816,1.9103304643816514
3050.6128,5.007127249621739
3051.6434,1.503359340927899
3052.6734,2.6990297358599094
3053.7027,3.5941414169439483
3054.7314,4.638697339715909
3055.7594,2.4327004237702763
3056.7868,4.526153542314576
3057.8136,5.469059544229324
3058.8398,3.761421233133513
3059.8653,4.40324135795554
3060.8902,3.6445226300096003
3061.9145,3.435267716577467
3062.9381,5.1754792484957015
3063.9612,5.265159822248181
3064.9835,4.404311982564002
3066.0053,3.9929382215206637
3067.0264,6.931040987152555
3068.0469,8.918622687564683
3069.0668,5.255685661551663
3070.086,8.442232158721872
3071.1046,9.828264376126842
3072.1226,3.9137844263957877
3073.1399,6.798794323875278
3074.1567,5.38329604377404
3075.1727,4.217291493312864
3076.1882,5.500782525879577
3077.203,4.683770952689095
3078.2173,4.416258529948509
3079.2308,4.448246967027208
3080.2438,5.7297379291319945
3081.2561,1.310733036987207
3082.2678,3.0912338540198068
3083.2789,3.6212419305494246
3084.2893,2.450758785983365
3085.2991,6.479785903516514
3086.3083,2.908324741836174
3087.3169,4.086376694831799
3088.3248,7.163943127309598
3089.3321,4.841025363212018
3090.3388,2.3176246548420805
3091.3449,2.4437422060925593
3092.3503,4.119379197679985
3093.3551,3.4445367858834715
3094.3593,3.0692160857883426
3095.3629,5.943418178034559
3096.3658,4.867144112569923
3097.3681,2.4903948799080595
3098.3698,4.663171421891153
3099.3708,4.585474655457444
3100.3713,1.3073054509134616
3101.3711,3.32866463271099
3102.3702,6.499553012228764
3103.3688,1.669971367558869
3104.3667,3.789920411797863
3105.364,1.959400841342596
3106.3607,2.978413314690708
3107.3568,3.9969584707458417
3108.3522,5.815036918627503
3109.347,4.182649227485619
3110.3412,1.1997959083197491
3111.3348,3.6164774303029663
3112.3277,3.9326942506103855
3113.32,-0.20155320974764646
3114.3117,1.3137354309122795
3115.3028,1.9785625677901333
3116.2932,2.742930582948528
3117.2831,3.9068418386644606
3118.2723,1.0702986697856183
3119.2608,2.7833033720912734
3120.2488,3.695858230657718
3121.2361,2.657965502728209
3122.2229,4.969627408587428
3123.209,1.8808461419404043
3124.1944,3.5916238467958905
3125.1793,2.501962648354188
3126.1635,3.511864635899358
3127.1471,1.271331873695841
3128.1301,1.1303663908894297
3129.1125,0.18897020391260444
3130.0942,3.1971453178941855
3131.0753,3.354893736073291
3132.0558,3.9622174297175885
3133.0357,4.369118336545812
3134.015,3.0255983546545187
3134.9936,1.4316593384490846
3135.9716,2.037303112078905
3136.949,-0.35746851462321505
3137.9258,0.39734624780249916
3138.902,5.25175275992628
3139.8775,2.655756378344903
3140.8524,2.3093624071376198
3141.8267,0.8625761238261154
3142.8004,3.9154027828384574
3143.7735,3.86784762997695
3144.7459,3.219915871889873
3145.7178,5.221612676547027
3146.689,3.3729431797190594
3147.6596,3.273912464960491
3148.6295,3.9745255820964154
3149.5989,4.1747875482128
3150.5676,3.3247033406503608
3151.5357,3.274277895001937
3152.5032,3.77351611361334
3153.4701,0.2724228660876018
3154.4364,4.471002984292596
3155.402,4.069261297371968
3156.367,2.9172025897593366
3157.3315,5.064831605195708
3158.2952,3.4121530582500648
3159.2584,6.059171612843073
3160.221,1.5058918987738767
3161.1829,2.0523184852498986
3162.1442,6.348455926419646
3163.105,3.994308755908443
3164.065,2.4398814438570553
3165.0245,4.885178420463161
3165.9834,3.4802040915256263
3166.9416,1.024962813991534
3167.8993,2.4194589100059263
3168.8563,4.46369669146422
3169.8127,1.55768044606724
3170.7684,1.9514144168788503
3171.7236,1.6449028313861107
3172.6782,2.538149897561936
3173.6321,4.5311598069302175
3174.5854,1.9239367256333488
3175.5381,6.466484774502123
3176.4902,4.808808055127972
3177.4417,1.7009106044374773
3178.3926,3.0927964112691444
3179.3428,6.334469447452371
3180.2924,3.7759336538885933
3181.2415,1.117192908134554
3182.1899,3.808251049987659
3183.1377,2.499111908073385
3184.0848,2.9897792729346997
3185.0314,4.58025691012345
3185.9773,1.6205485552936918
3186.9227,6.360657898296913
3187.8674,3.800588612779115
3188.8115,3.3403443087797227
3189.755,1.779928558332274
3190.6979,3.469344900066867
3191.6402,4.058596854814313
3192.5818,-0.0023120912880194577
3193.5229,3.8866215073112658
3194.4633,4.775401119261359
3195.4031,1.7640301743452313
3196.3423,8.00251205459185
3197.2809,2.2408501243898784
3198.2189,4.079047668102858
3199.1563,4.1671079476858335
3200.0931,4.355034184303372
3201.0292,3.842829557448966
3201.9648,1.930497203065761
3202.8997,3.318040218668611
3203.834,6.255461682467398
3204.7677,2.642764639491599
3205.7008,1.8299520722160794
3206.6333,3.067026936688058
3207.5652,5.753992170655233
3208.4964,3.1908506811950352
3209.4271,4.877605317844971
3210.3571,1.5142588982340421
3211.2865,4.200814191215194
3212.2154,5.037273950498778
3213.1436,4.173640887787008
3214.0712,4.209917664409356
3214.9982,3.0461068999588856
3215.9246,3.032211171929485
3216.8503,2.418233027353974
3217.7755,3.4041749829430596
3218.7001,0.6400395312251204
3219.624,3.4258291306867834
3220.5473,4.661546233414283
3221.4701,1.54719325723556
3222.3922,4.282772573363094
3223.3137,2.6682865375374347
3224.2346,3.553737462671402
3225.1549,3.239127634994953
3226.0746,3.5744593052006706
3226.9937,4.65973469158986
3227.9121,3.594955976719235
3228.83,3.1301252965481616
3229.7473,7.115244751086446
3230.6639,1.1003164090426427
3231.5799,6.135342267972858
3232.4954,2.3703243144300337
3233.4102,4.005264473613691
3234.3244,6.440164647020106
3235.238,5.025026696092911
3236.151,8.109852417874091
3237.0634,3.9446435591553675
3237.9752,2.9294017856299326
3238.8864,3.9141287235445454
3239.797,1.2988259698519484
3240.7069,5.333495082363594
3241.6163,1.5681376059026777
3242.5251,5.85275503195744
3243.4332,6.287348836334752
3244.3408,3.921920436313927
3245.2477,6.256471186300794
3246.154,3.3410024014819752
3247.0598,5.225515334479383
3247.9649,3.3100112045049057
3248.8694,3.2444911785152755
3249.7733,3.4789563903671152
3250.6766,3.6634079414721334
3251.5793,2.397846898452476
3252.4814,6.882274291296208
3253.3829,2.266691126012927
3254.2838,4.851098339789486
3255.1841,4.485496847145824
3256.0838,5.819887514090901
3256.9829,6.254271161778707
3257.8814,1.9386485531643531
3258.7792,5.673020388660242
3259.6765,3.5073873492922902
3260.5731,2.4917500593562063
3261.4692,3.7261091080738282
3262.3647,4.810465059749491
3263.2595,5.094818441426439
3264.1538,5.879169732043263
3265.0474,4.1635193595903734
3265.9404,5.697867693266479
3266.8329,4.232215060635097
3267.7247,3.866561732281064
3268.616,6.300907936467068
3269.5066,2.1352538627901785
3270.3966,5.919599637838385
3271.286,4.603945366847137
