RamanShift,CorrectedData
30.1047,1252.6498599541806
32.3739,1160.7687387603855
34.6426,1070.2876050400916
36.9109,981.7064346591131
39.1787,890.2751927803876
41.4461,803.5438347497874
43.7131,714.9623070104333
45.9796,626.3805479700072
48.2456,537.1484888865676
50.5112,450.31605475436737
52.7764,361.0331651961742
55.0411,267.2997353315953
57.3054,184.01567666990587
59.5692,99.880898047384
61.8326,6.045306460150783
64.0955,-74.04119209448152
66.3579,-157.37869167965363
68.6199,-236.96654668699748
70.8815,-297.35253929501516
73.1426,-327.7320843864077
75.4032,-242.49762629200865
77.6634,121.06166470087135
79.9231,1100.4090408562076
82.1824,3394.4577532273597
84.4412,7700.271041863596
86.6995,13836.11211286961
88.9574,20059.544095347388
91.2148,24452.679980037785
93.4717,26592.182557086224
95.7282,27090.814372111327
97.9842,27059.88770480989
100.2398,26493.114563970572
102.4949,25821.75668778314
104.7495,24969.775549506234
107.0036,24059.532364180915
109.2573,23155.9880971505
111.5105,22252.403473162973
113.7632,21344.238985406446
116.0154,20539.954904545
118.2672,19942.461287800317
120.5185,19309.36798699454
122.7693,18741.234654525193
125.0197,18338.970749696127
127.2696,17956.73554439884
129.519,17754.288127135136
131.7679,17426.43740683945
134.0163,17246.54211490335
136.2642,16969.51080845402
138.5117,16724.951872153226
140.7587,16445.82352096764
143.0052,16193.583802614407
145.2512,15913.340600352441
147.4967,15610.751635504817
149.7417,15373.224470261215
151.9863,15152.86651070379
154.2304,14996.085009182454
156.4739,14750.187066518463
158.717,14587.879633572215
160.9596,14374.919513702249
163.2017,14028.0633643883
165.4433,13627.067699360909
167.6844,13185.93889207
169.925,12740.133179694803
172.1651,12265.25666755517
174.4047,11839.515333569616
176.6439,11442.665033004097
178.8825,11110.261502729412
181.1206,10869.660365189717
183.3582,10532.467131726546
185.5954,10302.337204984837
187.832,10116.375882284861
190.0681,10000.038357923513
192.3037,9894.079725033931
194.5388,9793.254976748874
196.7734,9749.2690072603
199.0075,9708.57661282762
201.2411,9724.932492217558
203.4742,9704.041247111076
205.7068,9757.657381939815
207.9389,9768.385304095
210.1704,9841.179323391292
212.4015,9898.243651959494
214.632,9981.132403518619
216.862,10099.999592805252
219.0915,10231.099134744647
221.3205,10438.734843262075
223.549,10642.360429971817
225.777,10940.279502100813
228.0044,11325.595560452395
230.2314,11831.711996427115
232.4578,12297.882088169563
234.6837,12658.508995507216
236.909,12838.795755288735
239.1339,12687.245277777696
241.3582,12330.960344849718
243.582,11825.093611507977
245.8053,11268.747609446042
248.0281,10782.624752106552
250.2503,10348.427340244682
252.472,10049.90756678935
254.6932,9823.317521185216
256.9139,9582.709192377853
259.134,9446.484471079675
261.3536,9278.345152176003
263.5727,9159.842936087307
265.7912,8893.629430450628
268.0092,8805.856151304562
270.2267,8596.074525751434
272.4436,8457.63589283499
274.6601,8339.491505638249
276.8759,8206.892532667875
279.0913,8156.840059035615
281.3061,8097.785087784304
283.5204,8162.928540388371
285.7341,8250.5212573444
287.9473,8381.9139975197
290.16,8631.707437276355
292.3721,8917.55216915733
294.5837,9396.948699388515
296.7947,9741.147445020275
299.0052,9886.5487291335
301.2152,9629.502777397605
303.4246,9141.20971661652
305.6334,8474.21957729916
307.8418,7824.03229854233
310.0495,7336.197734700656
312.2568,6967.9656618884455
314.4635,6662.535782858027
316.6696,6557.757730682077
318.8752,6496.381071807913
321.0802,6553.505307105288
323.2847,6608.4798724801385
325.4887,6623.254138303362
327.692,6501.127408861052
329.8949,6347.048922206774
332.0972,5978.167851382821
334.2989,5662.583305961009
336.5001,5266.244335731473
338.7007,4996.149933858522
340.9008,4832.349040844036
343.1003,4644.34054722839
345.2992,4581.123295228488
347.4976,4475.346080617817
349.6955,4436.057653358643
351.8927,4435.906718659775
354.0895,4401.341937369447
356.2856,4433.861925976835
358.4812,4353.115256957697
360.6763,4369.100458449178
362.8707,4297.96601505728
365.0646,4263.010367696999
367.258,4180.431914303685
369.4508,4160.479010182575
371.643,4171.149968834599
373.8346,4099.843062155895
376.0257,4026.8065203311126
378.2162,3883.2385325464766
380.4062,3731.2372477201534
382.5956,3545.2507759379223
384.7844,3365.5771899732026
386.9726,3205.9145271469024
389.1603,3124.360791124176
391.3474,3057.3139535110295
393.5339,3028.7219546698707
395.7199,2904.5327043899724
397.9052,2881.844082173391
400.09,2864.203938476863
402.2743,2872.060094938688
404.4579,2870.0103445551285
406.641,3012.6524516018562
408.8235,3206.8341516544424
411.0054,3535.403150161941
413.1868,4028.8571205050685
415.3675,4420.743700710518
417.5477,4654.210488516423
419.7273,4714.95503745347
421.9064,4507.074854510256
424.0848,4326.417399525826
426.2627,4047.23008726849
428.4399,3739.2602892423747
430.6166,3300.4053364793253
432.7928,2857.6125226185795
434.9683,2523.8791082953358
437.1432,2268.452325568671
439.3176,2047.6293812588701
441.4914,1918.7074595017039
443.6645,1847.433723956652
445.8371,1792.3553190961265
448.0091,1677.1193709182044
450.1806,1600.3729874974106
452.3514,1545.0132601370915
454.5216,1471.4872641368565
456.6913,1405.542059346195
458.8603,1396.3246908997298
461.0288,1437.8321898766644
463.1967,1461.4115733929611
465.3639,1598.209844186269
467.5306,1699.9239903801226
469.6967,1874.8009841159674
471.8622,2051.5877805360105
474.0271,2230.2313160344474
476.1914,2312.678506489605
478.3551,2258.476245477492
480.5182,2192.271403447334
482.6807,2110.3608282636087
484.8426,2152.9413458680774
487.0039,2401.2597610989014
489.1647,2810.6628572648333
491.3248,3267.147393662037
493.4843,3465.8101014800523
495.6432,3514.9476792369533
497.8015,3422.556790792718
499.9592,3416.234064857854
502.1163,3429.126095917305
504.2728,3204.879444293687
506.4287,2855.490636018354
508.5839,2394.156165073875
510.7386,1985.122496887916
512.8927,1744.3860729465923
515.0461,1543.0433148847933
517.199,1422.8406268935469
519.3512,1315.9743977334601
521.5029,1306.0910019367293
523.6539,1304.936800875821
525.8043,1305.8081428622882
527.9541,1356.2513631583297
530.1033,1401.112783968063
532.2519,1497.6387139331036
534.3999,1666.575447683941
536.5472,1997.719264874684
538.694,2586.0664284936884
540.8401,3274.563181552119
542.9856,3883.5557412004837
545.1305,4077.890291843669
547.2748,3914.1129790510004
549.4185,3461.6199076129087
551.5615,3016.907143178698
553.704,2806.9707167814686
555.8458,2667.206629285265
557.987,2617.6608534844218
560.1276,2481.229335501217
562.2675,2370.807995281317
564.4069,2212.342727958099
566.5456,2066.22940495687
568.6837,1919.6138755795055
570.8212,1672.2419684655943
572.958,1444.6094930585878
575.0942,1261.7122420795258
577.2299,1168.1459938033495
579.3648,1175.606513887884
581.4992,1284.4395563094986
583.6329,1563.540863288501
585.766,1842.8561642008153
587.8985,1981.881172786956
590.0304,1998.2115843588854
592.1616,1927.8930744097543
594.2922,1861.6212984506
596.4222,1697.39189271354
598.5515,1511.8004748144776
600.6802,1362.8426453954035
602.8083,1153.4139899803104
604.9358,1073.8100804647638
607.0626,995.0264772101964
609.1888,902.6087298399452
611.3144,769.602378027088
613.4393,598.95295241862
615.5636,433.8059759655134
617.6873,310.60696562922203
619.8103,266.25143403313814
621.9327,207.18489069460156
624.0544,213.10284246843366
626.1756,227.45079413762141
628.2961,187.3242483541253
630.4159,167.0687054953978
632.5351,131.6796640656612
634.6537,72.25262089844728
636.7716,42.33307151050576
638.8889,58.81651069606596
641.0056,80.24843282603433
643.1216,80.82433168315947
645.237,105.43970024770897
647.3518,107.7900306917054
649.4659,184.47081413277556
651.5793,204.47754061065098
653.6922,203.75569832035217
655.8043,165.50077341213546
657.9159,131.10824999870601
660.0268,82.62361053776476
662.137,-2.4076638240694592
664.2466,-23.240092766403905
666.3556,-33.128171916299834
668.4639,-30.32616473228518
670.5716,45.6119962775374
672.6786,141.6826815634504
674.785,241.83226111962722
676.8907,339.75710352341594
678.9958,451.00357493384035
681.1002,427.86803811236496
683.204,430.19685131042024
685.3072,342.13636850074545
687.4097,250.88293935413276
689.5115,224.28291012000045
691.6127,154.73262453894858
693.7132,66.27842410874655
695.8131,-19.33335122014796
697.9123,-35.45636216006642
700.0109,-50.7440762831593
702.1089,-91.24960695252776
704.2061,-104.57556059795934
706.3028,-28.32363206566697
708.3987,62.20552850797321
710.4941,147.411553939668
712.5887,379.5940764240713
714.6827,738.0027266817306
716.7761,1137.4871316372446
718.8688,1603.9469108352005
720.9608,1832.2816724453223
723.0522,1853.4410085978616
725.1429,1577.0244931002544
727.233,1153.981681225545
729.3224,798.6121124765214
731.4112,474.0153148161735
733.4993,270.3908082213602
735.5867,114.18810792880322
737.6735,52.95672647131505
739.7596,-2.753824760164207
741.845,11.705965095745341
743.9298,45.23563441112492
746.014,19.684721441004513
748.0974,51.95276398805436
750.1802,60.83929965810421
752.2624,85.64386553746408
754.3439,107.21599810403859
756.4247,170.90523297931213
758.5048,309.21110471261454
760.5843,501.133146144226
762.6631,786.1208870223254
764.7413,1181.8738520837596
766.8188,1774.0915582041744
768.8956,2295.6735104404797
770.9718,2655.319196108683
773.0473,2550.7280795680526
775.1221,2235.099598624669
777.1962,1838.383165577341
779.2697,1646.2281703738845
781.3426,1723.9339845782888
783.4147,2053.2999632922692
785.4862,2410.975444378204
787.557,2452.75974516548
789.6271,2122.652158873734
791.6966,1552.451954195003
793.7654,1035.1583785948096
795.8335,706.620664014159
797.901,494.03803204247924
799.9678,464.5096972029969
802.0339,511.1848690785555
804.0993,583.9627526069089
806.1641,591.5925476139764
808.2282,545.1234480860458
810.2916,446.65464209348283
812.3544,360.93531225541665
814.4164,282.91463672443933
816.4778,282.84179004379075
818.5385,263.6659439275736
820.5986,307.2862672614756
822.658,388.1019262945283
824.7166,425.96208420290895
826.7747,558.9159002817851
828.832,697.1625295667018
830.8886,791.8011215040551
832.9446,959.8808185686212
834.9999,1083.300755317181
837.0545,1193.6100567076974
839.1085,1264.2078368651364
841.1618,1311.5931979783709
843.2143,1322.5652295941964
845.2662,1271.9730081434882
847.3175,1235.2155968314728
849.368,1112.3420461436526
851.4179,1016.1013942133704
853.467,895.0426680505534
855.5155,779.2648845041131
857.5633,677.0170514725341
859.6105,553.9481690616612
861.6569,489.207230607175
863.7027,435.69322390527486
865.7478,433.30513186009375
867.7922,443.6919330188339
869.8359,524.702601595649
871.8789,686.6861073677774
873.9212,846.0414148654418
875.9629,1076.1174817519986
878.0039,1257.313257230393
880.0441,1380.627679742398
882.0837,1375.859675156662
884.1226,1272.5581555355548
886.1609,1115.8220191828523
888.1984,988.3001516767554
890.2352,916.3414274372462
892.2714,868.6447110013114
894.3069,843.9088577425255
896.3416,780.0827143480219
898.3757,780.4651190658533
900.4091,792.4049023432453
902.4418,829.9508868227786
904.4739,833.4518872229937
906.5052,858.5067099629214
908.5358,752.9641531270881
910.5658,579.5230062149503
912.595,448.5320511963246
914.6236,320.69006424579675
916.6515,319.39581705263754
918.6786,336.09807809921676
920.7051,399.04561267395366
922.7309,554.2371827042925
924.756,651.0715461272202
926.7804,743.39745533736
928.8041,704.06365621862
930.8272,780.5188872209401
932.8495,717.0118797536288
934.8711,620.741357420804
936.892,501.0560366564714
938.9123,324.55462768723373
940.9318,176.1858357291312
942.9506,52.49836275266807
944.9688,-26.05909103351314
946.9862,-45.93782594574441
949.003,-84.93888197004162
951.019,-61.962840173543555
953.0344,-9.809433083962176
955.0491,43.22222577975754
957.063,135.03312089490464
959.0763,230.7742363065463
961.0888,293.146554709424
963.1007,422.9510564905404
965.1119,451.63871910543185
967.1223,501.51051578013085
969.1321,541.7174152242833
971.1412,585.5603811324409
973.1495,638.2903717819809
975.1572,668.4083395946845
977.1641,725.0652306094307
979.1704,712.211984181019
981.1759,736.349532413602
983.1808,806.5288002892121
985.1849,936.5007054263888
987.1884,1142.9661573783906
989.1911,1368.276056333466
991.1932,1509.3812910502156
993.1945,1582.6827366044745
995.1951,1565.8812529782726
997.1951,1549.1776843268135
999.1943,1498.7228591464927
1001.1928,1426.5675904419286
1003.1906,1420.1626762305214
1005.1877,1473.6589002639967
1007.1841,1431.7070320924622
1009.1798,1318.0078265294296
1011.1748,1162.012024071354
1013.1691,952.6703520346064
1015.1627,753.2835261154423
1017.1556,572.5522524834169
1019.1477,482.92722977525045
1021.1392,444.9591509021484
1023.1299,432.7987039460486
1025.12,493.54657253930054
1027.1093,576.8034359862686
1029.0979,669.3199686558546
1031.0859,730.4468391489381
1033.0731,735.9347093731949
1035.0596,661.1342339318362
1037.0454,539.4960600687327
1039.0304,433.02082841641277
1041.0148,305.05917421244703
1042.9985,233.36172836420428
1044.9814,192.72911872846362
1046.9636,149.81197082838753
1048.9452,169.56090825985302
1050.926,187.5765531206216
1052.9061,169.359525812848
1054.8855,180.61044486292394
1056.8642,226.87992710365415
1058.8421,256.1685875617377
1060.8194,311.82703899508306
1062.7959,345.40589159991214
1064.7717,367.25575245417804
1066.7469,384.87722518178
1068.7213,359.2709097340603
1070.695,314.4874022135946
1072.6679,264.9772951302484
1074.6402,229.0411778490179
1076.6117,242.6296370851287
1078.5826,236.0932572633974
1080.5527,346.6326203823428
1082.5221,500.3983060795599
1084.4908,757.190890526319
1086.4587,1029.6609448899135
1088.426,1216.0090327657263
1090.3925,1224.9857074525398
1092.3584,1140.0915100890506
1094.3235,970.826969564102
1096.2879,875.19260336563
1098.2515,839.1389192732995
1100.2145,850.6664163148544
1102.1767,955.125585126646
1104.1382,1080.916907838372
1106.099,1318.1408570284693
1108.0591,1540.6478944662167
1110.0185,1696.1884687394877
1111.9771,1737.1130130296779
1113.9351,1501.4219435562982
1115.8923,1166.1156591677427
1117.8488,848.7445436981798
1119.8045,541.4589693206271
1121.7596,390.1592997206635
1123.7139,346.5958931692794
1125.6675,379.4691040358757
1127.6204,415.97928322389816
1129.5726,470.6267778421061
1131.524,511.46193083946946
1133.4748,572.5850804586935
1135.4248,642.2965598278679
1137.3741,678.2966963492345
1139.3226,678.8858110020756
1141.2705,646.5142179827062
1143.2176,577.5822246985917
1145.164,633.940132092057
1147.1097,679.6382353296058
1149.0546,682.1268232383436
1150.9989,571.5061778489971
1152.9424,412.72657437102316
1154.8852,208.43828229882274
1156.8272,85.74156699953164
1158.7686,-4.513308244091604
1160.7092,-21.626081006702407
1162.6491,20.853556224990825
1164.5883,79.3761270088271
1166.5267,169.9421546941103
1168.4644,334.0521618363882
1170.4014,509.8566692917957
1172.3377,759.1561945759431
1174.2732,978.8512501058804
1176.2081,1181.6423407070943
1178.1421,1364.8799614165619
1180.0755,1504.0645954548445
1182.0082,1531.3967123937045
1183.9401,1473.9267667642625
1185.8713,1277.70519778367
1187.8017,1040.8824299298176
1189.7315,765.5088749035458
1191.6605,537.2849339968689
1193.5888,366.4110008467205
1195.5163,243.18746371718862
1197.4432,134.8147072082511
1199.3693,106.84311348802203
1201.2947,57.9730633764666
1203.2193,65.75493662512508
1205.1432,91.38911240580364
1207.0664,183.2759692327636
1208.9889,265.7158847063765
1210.9106,363.05923459425594
1212.8316,469.8563920068591
1214.7519,557.8577264240503
1216.6715,612.5136026271321
1218.5903,596.8743798188316
1220.5084,568.740411076742
1222.4257,538.4620435097122
1224.3424,485.68961853919063
1226.2583,560.8734722020054
1228.1735,679.1139356780895
1230.0879,831.9613345386433
1232.0016,977.8159875637293
1233.9146,1040.078205213801
1235.8269,952.9482881711538
1237.7384,838.3265267172992
1239.6492,657.5132016042735
1241.5592,553.6085852008473
1243.4686,455.6129433006645
1245.3772,409.72653616128537
1247.285,375.2996194841435
1249.1922,345.9824448734071
1251.0986,356.7752601802513
1253.0042,380.1783097960315
1254.9092,436.0918345443506
1256.8134,553.7660714470276
1258.7169,723.6012531649676
1260.6196,894.747606821421
1262.5216,1080.2053523036266
1264.4229,1229.9747005513482
1266.3234,1387.4558517023006
1268.2232,1415.1489935944546
1270.1223,1427.8543001912258
1272.0207,1397.9719313045443
1273.9183,1371.2020324677978
1275.8151,1299.29473523466
1277.7113,1215.6001574467864
1279.6067,1085.2184039528875
1281.5014,933.699567445673
1283.3953,793.0437297656745
1285.2885,709.9509634164269
1287.181,645.8213329710334
1289.0727,652.3548959030859
1290.9637,718.7517032279684
1292.854,833.9617994375167
1294.7435,1009.5852218360524
1296.6323,1241.4219993882798
1298.5204,1542.2221509630508
1300.4077,1805.7356830149984
1302.2943,2017.7625865765358
1304.1802,2127.202834622728
1306.0653,2096.656379951015
1307.9497,1985.2231540868106
1309.8333,1927.9530675889682
1311.7162,1904.6960111641147
1313.5984,2029.6018562393447
1315.4798,2193.8204551947974
1317.3605,2365.7516401145904
1319.2405,2565.5452211446436
1321.1197,2639.2009847733643
1322.9982,2637.4186918337073
1324.876,2607.3480767666233
1326.753,2603.988847638876
1328.6293,2656.1906864437524
1330.5048,2671.953249134648
1332.3796,2668.6261651030563
1334.2537,2640.8590370209376
1336.127,2621.5014408739908
1337.9996,2586.652926239326
1339.8714,2544.0130164790417
1341.7426,2465.481209088709
1343.6129,2466.8569761237686
1345.4826,2371.9397649848534
1347.3515,2339.978998404027
1349.2196,2273.2240753939586
1351.087,2275.12437156753
1352.9537,2350.9792398053833
1354.8197,2494.988010236919
1356.6849,2650.7499894817447
1358.5493,2757.264459209592
1360.4131,2766.1806745826925
1362.276,2690.0478631906344
1364.1383,2561.9152249612025
1365.9998,2349.2319329217007
1367.8606,2081.6471344802867
1369.7206,1858.8599535527974
1371.5799,1709.6694932386026
1373.4384,1620.8248380484765
1375.2962,1525.0250553964997
1377.1533,1317.269196488509
1379.0096,1040.656297280093
1380.8652,780.7353805541516
1382.7201,572.7054586870199
1384.5742,409.91553624768494
1386.4275,284.66461207808334
1388.2802,166.95168092099357
1390.132,86.07573467255042
1391.9832,45.585763559375664
1393.8336,-4.769243052668571
1395.6832,-11.69029625357689
1397.5322,-19.728359488605747
1399.3803,-29.834279416952086
1401.2278,-35.05870561150641
1403.0745,-5.25198960070793
1404.9204,-2.2141326765249687
1406.7656,35.60491633644597
1408.6101,56.70523073279355
1410.4538,70.08688345105975
1412.2968,144.9499468627373
1414.139,213.39449263844836
1415.9805,305.9705909993231
1417.8213,412.27831003254414
1419.6613,573.3177147655947
1421.5006,794.9888661031773
1423.3391,1066.8418192168178
1425.1769,1467.4766213281582
1427.0139,1989.4933089904207
1428.8502,2617.641904082067
1430.6858,3259.1224085866293
1432.5206,3702.384798311223
1434.3547,4003.9290164717427
1436.188,4072.2049692602345
1438.0206,3993.76252282946
1439.8524,3891.751502610128
1441.6835,3798.3716940953254
1443.5139,3728.922843860626
1445.3435,3682.754660497887
1447.1724,3644.7168153097414
1449.0005,3579.6589427712765
1450.8279,3494.8806409104154
1452.6545,3491.9314719584904
1454.4804,3512.110963198035
1456.3056,3514.2686069922647
1458.13,3453.2538605832915
1459.9536,3226.4161460705423
1461.7766,2856.004851020907
1463.5987,2423.969330737118
1465.4202,2059.80891196186
1467.2409,1738.472897198124
1469.0608,1440.6105683508154
1470.88,1186.2711899401115
1472.6984,988.7540120800859
1474.5161,813.4582730221
1476.3331,674.4832011299764
1478.1493,580.3780166329557
1479.9648,480.3919330154499
1481.7795,395.52415795809475
1483.5935,328.37389433760654
1485.4067,282.24034107546186
1487.2192,243.67269380939933
1489.031,226.1701453547539
1490.842,219.83188609013587
1492.6522,171.55710413245743
1494.4618,175.54498540030954
1496.2705,167.29471409671123
1498.0785,145.2054726692304
1499.8858,136.97644189248967
1501.6924,134.60680108906308
1503.4981,124.29572821175998
1505.3032,121.192399867326
1507.1075,118.49599141955105
1508.911,126.9056770203033
1510.7138,100.62062963649032
1512.5159,76.09002096596532
1514.3172,46.76302170037752
1516.1178,25.038801770477676
1517.9176,15.41653063938793
1519.7166,-4.104622480153012
1521.515,-2.5754885295705208
1523.3126,-2.796857445112437
1525.1094,-5.91949343389706
1526.9055,-6.8941327624393125
1528.7008,-27.471452561517253
1530.4954,-27.852061089522067
1532.2893,-7.436292165036775
1534.0824,-26.9742013645523
1535.8747,-11.915769976003958
1537.6663,3.7392901849434566
1539.4572,-4.408613658832564
1541.2473,-4.409074321848948
1543.0367,-4.91164057656988
1544.8253,14.33418285118887
1546.6132,36.278940302902356
1548.4003,42.57317597670408
1550.1867,63.31743370793993
1551.9723,89.11225690622723
1553.7572,143.3581883480083
1555.5414,161.65576991860598
1557.3247,202.70554206976158
1559.1074,255.80804363666311
1560.8893,326.9138114274424
1562.6705,389.82337969215223
1564.4509,480.23727941170955
1566.2305,553.7560376687993
1568.0094,681.2301767437352
1569.7876,769.7102133792714
1571.565,833.0966575058628
1573.3417,917.5900113568609
1575.1176,933.6407688346549
1576.8928,923.6994146657348
1578.6672,850.8164242401863
1580.4409,753.2422637111035
1582.2138,632.1273907234181
1583.986,530.2222553896404
1585.7575,451.7773015010084
1587.5282,381.14296754654015
1589.2981,341.16968749748185
1591.0673,296.45789151365034
1592.8358,284.8080063431685
1594.6035,302.4204557695798
1596.3704,306.4456607283514
1598.1366,316.2840391307468
1599.9021,354.68600582357476
1601.6668,383.2519724908043
1603.4308,440.6323472695444
1605.194,521.7275344643881
1606.9564,603.9879339736049
1608.7182,729.3639404781893
1610.4791,866.6059426192583
1612.2394,1024.2143217442908
1613.9988,1210.8894505347052
1615.7576,1445.7316914297799
1617.5156,1703.6413947598953
1619.2728,1958.918896398121
1621.0293,2151.2145151811114
1622.785,2236.478550356334
1624.54,2207.361279659112
1626.2942,2089.662958459986
1628.0477,1852.5338200558854
1629.8005,1622.124076847113
1631.5525,1400.5839227086367
1633.3037,1198.6635352941826
1635.0542,1051.2130782516415
1636.804,922.932703242268
1638.553,826.2725514151875
1640.3013,790.6827546902009
1642.0488,763.2134367243843
1643.7955,764.2647132679886
1645.5416,791.2866924391292
1647.2868,851.9794747132769
1649.0313,945.9431526530357
1650.7751,1082.627810301215
1652.5181,1271.9335222411946
1654.2604,1534.9603522300768
1656.0019,1869.30835130563
1657.7427,2266.9275551560204
1659.4828,2606.667980776333
1661.222,2869.0296224923795
1662.9606,2909.71244856329
1664.6984,2767.8163985579013
1666.4354,2438.9913829479256
1668.1717,1999.4872845269147
1669.9072,1567.9539616985062
1671.642,1204.8912528714663
1673.3761,929.7489807750248
1675.1094,716.2769560894981
1676.8419,558.2749801977134
1678.5737,445.4928473197315
1680.3048,361.1303460928634
1682.0351,296.3372606994931
1683.7646,247.7633717107028
1685.4934,219.30845673420254
1687.2215,197.2722909000695
1688.9488,171.70464714529726
1690.6754,146.4052964341572
1692.4012,145.12400801387594
1694.1263,120.7605496676274
1695.8506,107.91468772734788
1697.5742,106.33618731736715
1699.297,94.77481248287086
1701.0191,81.13032620568401
1702.7404,67.35249051988467
1704.461,66.29106664824712
1706.1808,56.34581514002275
1707.8999,52.66649588155224
1709.6182,40.25286819572011
1711.3358,36.004690878746715
1713.0527,28.821722324325037
1714.7688,21.45372056610404
1716.4841,14.550443349515263
1718.1987,24.21164820545482
1719.9126,24.53709251931332
1721.6257,4.176533434367229
1723.338,17.629727848520815
1725.0496,6.996432617915616
1726.7605,0.8264044223956262
1728.4706,-10.580600128157585
1730.18,3.425175567874703
1731.8886,-6.856406187695029
1733.5964,1.9245168726956763
1735.3036,-3.8821244878927246
1737.0099,2.723600474354498
1738.7156,-6.908338714323236
1740.4204,1.32202744507822
1742.1246,11.264737465864982
1743.8279,4.169829848126938
1745.5306,3.187342979304958
1747.2325,-5.5826847948558225
1748.9336,4.009784839516897
1750.634,-4.035154032685341
1752.3336,5.382592633332479
1754.0325,9.463159193552656
1755.7307,10.156679950131547
1757.4281,13.463289110596406
1759.1247,13.683120780907984
1760.8206,1.2163089323939857
1762.5158,15.112987399552821
1764.2102,15.92329000472023
1765.9039,5.997350419103441
1767.5968,-6.664697845322507
1769.289,18.38727866344402
1770.9804,21.45347997773638
1772.6711,18.234105946017053
1774.361,17.97935620221324
1776.0502,21.58943019791218
1777.7386,15.514527204908973
1779.4263,17.954846279105368
1781.1132,27.360586321257415
1782.7994,23.93194605257554
1784.4849,26.01912392066515
1786.1696,9.57231813381236
1787.8535,34.241726640113484
1789.5367,31.777547291942255
1791.2192,27.92997759925538
1792.9009,23.699214754234617
1794.5818,36.035455669763905
1796.2621,25.838897021734738
1797.9415,22.559735125685393
1799.6202,38.448166038766885
1801.2982,27.70438559253148
1802.9755,39.778589234052106
1804.6519,38.97097213335837
1806.3277,39.6817290626941
1808.0027,31.911054404595234
1809.6769,38.95914214478012
1811.3504,33.626185949859746
1813.0231,43.91237909685151
1814.6951,46.517914526513096
1816.3664,44.292984740478005
1818.0369,52.18778177520085
1819.7067,56.50249722420767
1821.3757,50.23732215914606
1823.044,60.69244708663996
1824.7115,50.818062010939684
1826.3783,47.56435632937314
1828.0443,65.13151893108807
1829.7096,61.31973822959071
1831.3741,68.42920198707111
1833.0379,70.41009735252328
1834.701,63.41261079064975
1836.3633,72.83692806205158
1838.0248,67.78323429320494
1839.6856,71.85171388221761
1841.3457,72.89255054936552
1843.005,72.10592729640848
1844.6636,84.49202639618215
1846.3214,73.2510294004635
1847.9785,72.6331170161111
1849.6349,81.43846921747468
1851.2904,97.11726525257313
1852.9453,95.11968355504087
1854.5994,82.59590158734022
1856.2528,88.74609586073643
1857.9054,107.57044206053797
1859.5572,93.41911498459262
1861.2083,92.64228835504423
1862.8587,103.540134959846
1864.5084,92.66282666052894
1866.1572,90.6105342832243
1867.8054,91.4834277274349
1869.4528,94.43167598655918
1871.0994,97.10544713916238
1872.7453,97.104908319493
1874.3905,110.18022569074583
1876.0349,97.53156444506703
1877.6786,105.9590886728015
1879.3215,102.96296148897841
1880.9637,86.24334494903769
1882.6051,99.30040007879052
1884.2458,99.23428704161438
1885.8858,100.19516500788427
1887.525,106.98319215563288
1889.1634,102.548525660942
1890.8011,98.44132163006338
1892.4381,107.41173514376328
1894.0743,98.50992029839676
1895.7098,97.28603011620066
1897.3446,108.69021663431363
1898.9786,94.07263091701498
1900.6118,111.08342294168233
1902.2443,91.92274174496742
1903.8761,102.89073525268827
1905.5071,97.03755047143682
1907.1374,102.26333337889719
1908.7669,107.36822898237892
1910.3957,107.45238126655909
1912.0237,94.66593314243323
1913.651,107.40902644647349
1915.2776,109.53180206849379
1916.9034,96.73439982421723
1918.5285,103.76695843405082
1920.1528,106.57961565105802
1921.7764,99.62250819063297
1923.3992,104.34577170237571
1925.0213,89.64954083966086
1926.6427,75.18394921240679
1928.2633,90.94912953403764
1929.8832,101.14521376613743
1931.5023,88.07233296080017
1933.1207,98.08061715866916
1934.7383,80.37019551966478
1936.3552,100.1411962229015
1937.9714,87.24374664379275
1939.5868,97.77797315634143
1941.2015,96.09400126211244
1942.8154,79.84195548489151
1944.4286,73.12195938752507
1946.041,78.3841357344404
1947.6528,77.97860655884529
1949.2637,83.55549311010668
1950.8739,69.76491585780627
1952.4834,66.65699443597055
1954.0921,72.4818477809772
1955.7001,59.33959416263497
1957.3074,73.73035112593334
1958.9139,67.40423562246747
1960.5197,69.71136386652984
1962.1247,64.80185139837113
1963.729,62.02581306112825
1965.3325,59.033363049920126
1966.9353,61.074614939607955
1968.5374,65.64968171471992
1970.1387,60.258675749037366
1971.7393,67.85170875984613
1973.3392,50.12889186184475
1974.9383,53.14033549121541
1976.5366,49.08614958285216
1978.1342,68.36644354024679
1979.7311,64.48132627603013
1981.3273,60.030906019168924
1982.9227,61.76529035381736
1984.5173,59.23458626382103
1986.1112,56.48890011537378
1987.7044,59.078337682324445
1989.2968,54.80300417363287
1990.8885,58.21300420747684
1992.4795,57.25844185400433
1994.0697,66.28942060123495
1995.6592,46.656043364603875
1997.2479,60.25841239665215
1998.8359,64.44662948336031
2000.4232,59.77079580812642
2002.0097,57.731011909881545
2003.5955,61.62737772984906
2005.1805,54.909992631943624
2006.7648,48.728955363807245
2008.3484,59.484364123982004
2009.9312,66.72631662372214
2011.5133,55.45490997943921
2013.0946,49.77024064028183
2014.6752,62.222404500849734
2016.2551,63.01149695804179
2017.8342,54.03761278653383
2019.4126,60.300846130886384
2020.9902,56.351290595285946
2022.5672,65.18903918090928
2024.1433,54.96418432542123
2025.7188,55.37681781459651
2027.2935,56.77703088456906
2028.8674,52.61491421770506
2030.4406,56.69055792860104
2032.0131,56.80405160570467
2033.5849,56.20548427055928
2035.1559,53.94494437666776
2036.7261,52.322519815478245
2038.2957,58.4382979389909
2039.8645,58.592365575980466
2041.4325,62.58480897083996
2042.9998,55.76571378203903
2044.5664,62.385165042200015
2046.1323,58.09324722628844
2047.6974,60.84004418541895
2049.2617,52.32563918977485
2050.8254,48.700114901139614
2052.3883,65.46355345804045
2053.9504,44.06603651200453
2055.5118,49.25764505992311
2057.0725,57.58845965802789
2058.6325,52.05856036997466
2060.1917,55.11802668353471
2061.7502,56.51693756589566
2063.3079,61.95537143306433
2064.8649,58.33340613587916
2066.4212,52.65111890562571
2067.9767,55.90858639025532
2069.5315,45.40588471120873
2071.0856,45.643089430841655
2072.6389,52.1702756574507
2074.1915,46.43751804290264
2075.7433,39.89489071736193
2077.2945,47.54246734661842
2078.8448,30.680321197513422
2080.3945,32.95852506146389
2081.9434,34.82715142308416
2083.4916,35.386272437404386
2085.039,40.08595991118273
2086.5857,29.47628529731537
2088.1317,28.457319647839768
2089.677,31.529133720030813
2091.2215,37.54179798659152
2092.7652,27.845382604933093
2094.3083,42.03995735705075
2095.8506,44.07559174648463
2097.3921,46.15235485637754
2098.933,43.42031532911574
2100.4731,53.67954134556271
2102.0124,51.08010065238
2103.5511,50.922060459434306
2105.089,52.50548746579125
2106.6261,44.03044786129726
2108.1626,45.747007310744266
2109.6983,35.055231038619354
2111.2332,45.60518381194038
2112.7675,39.99693004717244
2114.301,46.08053370472953
2115.8337,44.706058345057045
2117.3657,44.223567067795216
2118.897,44.8331225255248
2120.4276,41.58478692859194
2121.9575,42.27862203901202
2123.4866,42.114689202952945
2125.0149,42.44304934379704
2126.5426,38.61376296377966
2128.0695,41.97689014070568
2129.5956,48.38249056624295
2131.1211,51.08062351229
2132.6458,42.97134776692087
2134.1698,45.954721607403144
2135.693,48.18080288129204
2137.2155,49.94964897659611
2138.7373,60.06131679951625
2140.2584,54.11586275675768
2141.7787,42.563342654412395
2143.2983,36.95381175741443
2144.8171,48.587324905064975
2146.3353,49.4639365671278
2147.8527,44.6837007274936
2149.3693,43.696670875414156
2150.8853,47.052900053304825
2152.4005,34.252440866614165
2153.9149,49.64534545026186
2155.4287,46.33166559664255
2156.9417,51.311452601698534
2158.454,48.484757298055456
2159.9655,49.75163000522548
2161.4764,41.6121205578728
2162.9865,38.7162782931465
2164.4958,46.66415213207404
2166.0045,41.35579060852103
2167.5124,44.34124178971183
2169.0195,51.320553329312816
2170.526,58.143772437578605
2172.0317,55.46094581155842
2173.5367,49.82211956686467
2175.0409,51.02733926450128
2176.5445,53.77664996725093
2178.0473,46.97009622762346
2179.5494,41.3577220603629
2181.0507,53.43957101051228
2182.5513,47.815686209537944
2184.0512,48.13611025451121
2185.5504,51.650885264346584
2187.0488,50.710052876597274
2188.5465,53.46365421230905
2190.0435,47.161729885426894
2191.5397,50.05431997525977
2193.0353,49.39146408950023
2194.5301,49.223201335297404
2196.0241,39.599570325886475
2197.5175,32.72060918227123
2199.0101,43.936355629460195
2200.502,42.5968470652565
2201.9931,40.90212044810005
2203.4835,48.202212310462414
2204.9733,38.547158775794856
2206.4622,43.486995485527245
2207.9505,39.57175769561809
2209.438,34.401480227157094
2210.9248,39.37619750551653
2212.4109,34.99594361205459
2213.8962,32.06075223436767
2215.3809,35.52065671009336
2216.8648,34.32569005626158
2218.3479,32.02588493469614
2219.8304,31.671273663964485
2221.3121,30.861888242375812
2222.7931,36.797760351526904
2224.2733,41.428921364395705
2225.7529,33.405402285982746
2227.2317,25.327233706999436
2228.7098,33.79444588410365
2230.1872,41.10706882068121
2231.6638,36.76513218217394
2233.1397,26.368665222953155
2234.6149,40.66769682973927
2236.0894,37.862255625566604
2237.5632,30.0523698267923
2239.0362,21.18806727115168
2240.5085,27.419375495856116
2241.9801,31.496321826237136
2243.4509,29.118933313432194
2244.921,30.08723669361666
2246.3904,28.151258411776553
2247.8591,22.56102461202636
2249.3271,29.166561156967305
2250.7943,27.41789368359173
2252.2608,27.715047537226383
2253.7266,25.75804778901977
2255.1917,28.496919232970527
2256.656,25.08168640549718
2258.1197,28.162373558049467
2259.5826,20.089004691260584
2261.0447,29.711603524140855
2262.5062,21.28019357481037
2263.9669,25.644798064274255
2265.4269,35.005440000735234
2266.8862,27.76214213594926
2268.3448,27.91492687161849
2269.8026,35.81381633182377
2271.2598,23.90883236149773
2272.7162,31.199996447434728
2274.1719,28.23732983734135
2275.6268,27.970853466924382
2277.0811,30.100587989517635
2278.5346,39.17655377874701
2279.9874,34.14877090723303
2281.4395,27.967259055830482
2282.8908,31.132037563907147
2284.3414,31.44312549115807
2285.7914,38.800541585958285
2287.2406,31.254304282251837
2288.689,35.30443162597817
2290.1368,33.90094135053391
2291.5838,41.29385083627176
2293.0302,33.83317712453527
2294.4758,31.468936843730035
2295.9206,32.75114628393044
2297.3648,38.92982142052165
2298.8082,29.35497790137765
2300.251,38.47663098507462
2301.693,25.344795636639105
2303.1343,39.909486436331804
2304.5748,35.170717710965505
2306.0147,33.578503388258696
2307.4538,25.982857044223124
2308.8922,37.083791919085456
2310.3299,24.531320993244208
2311.7669,32.425456876260114
2313.2031,31.316211932381066
2314.6387,29.853598201600448
2316.0735,33.08762741074975
2317.5076,33.168310988124745
2318.941,30.795660031145303
2320.3737,34.569685305548546
2321.8056,36.64039726911528
2323.2369,33.90780603392989
2324.6674,38.37192134567272
2326.0972,30.132752610946454
2327.5263,36.9903088526346
2328.9547,30.944598792293846
2330.3823,30.595630781578052
2331.8092,26.193412862695027
2333.2355,33.78795277189704
2334.661,42.929257983501884
2336.0858,38.06733563394789
2337.5098,39.55219243038164
2338.9332,35.13383469927578
2340.3558,39.21226837158201
2341.7778,40.08749902691318
2343.199,33.70953185275994
2344.6195,35.82837163573856
2346.0393,41.79402282536989
2347.4583,32.30648951289129
2348.8767,46.01577537160006
2350.2943,43.42188375172918
2351.7113,43.724817543353765
2353.1275,45.8245792023306
2354.543,45.821170747268525
2355.9578,42.16459373853104
2357.3718,47.854849278270194
2358.7852,49.24193804699257
2360.1978,45.525860246656634
2361.6098,54.25661558680167
2363.021,45.48420332170883
2364.4315,48.95862216309308
2365.8413,51.12987036782749
2367.2504,44.99794570319955
2368.6587,46.86284542519786
2370.0664,34.82456633983236
2371.4733,48.083104784484135
2372.8795,45.088456748289445
2374.285,41.140617739553704
2375.6899,39.18958281569837
2377.0939,44.18534662273919
2378.4973,41.87790341479615
2379.9,44.71724700413665
2381.3019,34.253370784249455
2382.7032,38.98626770145131
2384.1037,36.51593035952567
2385.5035,44.89235097239305
2386.9027,54.26552138881516
2388.3011,38.48543300863025
2389.6987,48.65207668902167
2391.0957,43.31544290231875
2392.492,38.175521634330266
2393.8876,36.03230243771077
2395.2824,41.78577448335977
2396.6765,28.885926581854505
2398.07,43.5327471259144
2399.4627,37.22622421940014
2400.8547,43.16634553084555
2402.246,37.15309835652192
2403.6366,35.386469561037416
2405.0265,35.31644563746977
2406.4156,43.89301272503144
2407.8041,43.916156609771406
2409.1918,40.93586263880843
2410.5789,39.70211572010055
2411.9652,38.96490035224713
2413.3508,43.67420063682653
2414.7358,46.98000028576814
2416.12,47.48228257426001
2417.5035,43.33103030769098
2418.8863,43.72622581662711
2420.2684,43.91785099832475
2421.6497,35.90588731277796
2423.0304,37.39031578080278
2424.4104,43.8711170641576
2425.7896,43.0482714506968
2427.1682,46.221758789564205
2428.546,44.79155849942083
2429.9232,48.05764953671064
2431.2996,51.570010409961924
2432.6753,47.42861914712694
2434.0503,49.083453260457645
2435.4246,46.28448978792028
2436.7982,42.08170527664686
2438.1711,50.42507581092423
2439.5433,52.014577054222855
2440.9148,38.95018416576215
2442.2856,45.23187178461649
2443.6557,43.95961416035834
2445.025,43.383385090242314
2446.3937,44.15315793192656
2447.7617,41.41890560923599
2449.1289,50.18060060446436
2450.4955,50.388214985716274
2451.8613,52.29172031929073
2453.2265,48.491087667604745
2454.5909,51.38628757015806
2455.9546,53.427290081540036
2457.3177,49.51406474247716
2458.68,54.64658055942385
2460.0416,56.27480604369316
2461.4025,55.34870916013324
2462.7627,62.01825731084426
2464.1222,54.33341734443974
2465.4811,57.39415548935057
2466.8392,54.05043743067375
2468.1966,57.70222827956536
2469.5533,61.49949260667711
2470.9093,65.74219440563854
2472.2645,64.28029705508482
2473.6191,67.8137632762294
2474.973,67.79255514748291
2476.3262,65.41663406911891
2477.6787,59.685960763485525
2479.0305,67.70049529876451
2480.3816,61.11019714627855
2481.7319,62.86502510034529
2483.0816,67.46493734418078
2484.4306,66.55989143235087
2485.7789,64.59984424477284
2487.1264,65.83475199576492
2488.4733,63.11457025364763
2489.8195,67.83925392839359
2491.165,66.4587572988305
2492.5097,63.973033965393256
2493.8538,62.58203686392915
2495.1972,58.03571829055551
2496.5398,64.88402991556933
2497.8818,73.57692282891071
2499.2231,60.61434747167948
2500.5637,70.74625354920647
2501.9035,57.722590160679374
2503.2427,65.84330569782333
2504.5812,67.70834797513766
2505.919,71.31766414868883
2507.256,69.62120069745976
2508.5924,63.81890338725714
2509.9281,75.76071728767556
2511.2631,66.04658683012116
2512.5974,70.17645568839299
2513.9309,66.35026687582445
2515.2638,67.91796270398464
2516.596,75.27948482094007
2517.9275,73.33477419557795
2519.2583,66.28377104399095
2520.5884,72.87641484892418
2521.9178,73.11264443028512
2523.2465,65.04239787921733
2524.5745,66.76561255573853
2525.9018,63.63222516944268
2527.2284,72.6421717622676
2528.5543,74.74538773982925
2529.8796,66.04180778132172
2531.2041,73.23136581848581
2532.5279,79.61399512264421
2533.851,78.18962823280583
2535.1735,75.05819689183988
2536.4952,79.56963206071947
2537.8163,64.87386394983588
2539.1366,71.62082197388446
2540.4562,73.26043489882193
2541.7752,78.09263077439715
2543.0935,79.96733691775484
2544.411,77.8844798651134
2545.7279,74.24398535301816
2547.0441,75.89577833916974
2548.3596,86.38978303882897
2549.6744,77.2759229082991
2550.9885,79.6541205399854
2552.3019,76.77429775353403
2553.6146,83.6363755720505
2554.9266,83.54027425089754
2556.2379,73.98591320907423
2557.5485,74.67321103017741
2558.8585,74.55208555794474
2560.1677,83.37245388938226
2561.4762,78.23423237597513
2562.7841,81.43733653548401
2564.0913,79.78168110332746
2565.3977,81.11718000055106
2566.7035,72.74374635038333
2568.0086,83.46129246488141
2569.313,83.61972992866481
2570.6167,78.86896949174007
2571.9197,83.15892106791682
2573.222,83.03949378231482
2574.5236,85.16059592846506
2575.8246,87.32213496950362
2577.1248,87.8740175169608
2578.4244,91.71614930914558
2579.7232,90.69843520562733
2581.0214,91.17077914881378
2582.3189,87.18308417412868
2583.6157,91.08525240528826
2584.9118,99.42718509417824
2586.2072,95.80878258183185
2587.5019,106.12994421501071
2588.7959,107.090568382389
2590.0893,105.59055241134138
2591.3819,111.52979255833708
2592.6739,107.90818402394007
2593.9652,122.32562089341616
2595.2557,119.78199617294968
2596.5456,120.72720164546877
2597.8348,119.9611278960815
2599.1234,117.23366430262428
2600.4112,124.34469904332224
2601.6983,131.54411912406403
2602.9848,117.08181030729139
2604.2705,127.45765704000536
2605.5556,129.37154259838877
2606.84,126.67334898404806
2608.1237,127.11295690487441
2609.4067,133.5402458020253
2610.689,129.20509384552912
2611.9707,126.65737787001189
2613.2516,133.89697341804884
2614.5319,124.57375476564181
2615.8115,119.83759484982284
2617.0903,123.1383653618866
2618.3685,127.22593679475182
2619.6461,136.35017840995374
2620.9229,119.61095819676831
2622.199,131.05814278096983
2623.4745,135.04159759222324
2624.7493,124.7111867496123
2626.0234,136.26677302180485
2627.2968,125.00821793035692
2628.5695,131.8853816341574
2629.8415,130.64812304201274
2631.1128,134.44629974387612
2632.3835,131.0797680232194
2633.6535,128.2483828190518
2634.9228,133.75199775958504
2636.1914,134.7404651905469
2637.4593,123.51363612014575
2638.7265,134.37136020918518
2639.9931,138.66348588333267
2641.259,133.0398602245424
2642.5242,132.70032892813384
2643.7887,132.29473635902798
2645.0525,128.12292555514261
2646.3156,129.83473823144845
2647.5781,125.08001482168726
2648.8398,128.70859446125348
2650.1009,120.97031503474159
2651.3613,119.01501313966014
2652.6211,123.84252416381486
2653.8801,130.15268230486117
2655.1385,126.39532052202958
2656.3961,126.67027047302406
2657.6531,132.0273625515951
2658.9094,123.51642588479075
2660.1651,129.9872882793856
2661.42,131.83977630699002
2662.6743,132.02371523934193
2663.9279,137.18892902978166
2665.1808,136.73524031141233
2666.433,136.56247034544805
2667.6846,139.12043902575033
2668.9354,141.55896488055652
2670.1856,140.8778650468995
2671.4351,152.9269552462228
2672.6839,154.90604979119132
2673.9321,156.46496146520042
2675.1795,151.05350150258522
2676.4263,158.37147957303154
2677.6724,161.91870383568994
2678.9179,162.1949808659964
2680.1626,152.15011562020004
2681.4067,165.53391143260012
2682.6501,156.44617011599496
2683.8928,155.43669182784384
2685.1348,153.90527516114446
2686.3761,155.90171715452783
2687.6168,154.37581330757217
2688.8568,150.47735756083893
2690.0961,143.10614231113124
2691.3348,141.51195845047914
2692.5727,139.89459543985106
2693.81,134.90384132509627
2695.0466,135.73948275311824
2696.2826,136.10130502178214
2697.5178,137.3390920715583
2698.7524,131.1526264819043
2699.9863,134.04168945888688
2701.2195,136.00606089704684
2702.452,134.64551935050804
2703.6839,142.90984201333407
2704.9151,154.14880473313332
2706.1456,156.86218192841568
2707.3755,161.4997464762032
2708.6046,166.41126968489624
2709.8331,170.24652124789776
2711.0609,184.7052691944981
2712.2881,186.53727985152267
2713.5145,198.59231769874424
2714.7403,201.67014535056285
2715.9654,217.07052343545564
2717.1899,227.7932105651986
2718.4136,236.48796318086255
2719.6367,248.2545354455866
2720.8591,256.0926791576302
2722.0809,270.4021436327075
2723.3019,281.7326756256066
2724.5223,290.83401918709393
2725.7421,290.65591555060956
2726.9611,289.5481030412537
2728.1795,282.9603170775676
2729.3972,289.7422901826115
2730.6142,261.29375204984257
2731.8306,253.86442947529514
2733.0462,242.15404664206648
2734.2612,224.81232519460923
2735.4756,202.38898435583616
2736.6892,189.7337411005371
2737.9022,176.74631037961194
2739.1145,160.37640524662362
2740.3262,145.07373698767162
2741.5372,128.03801528509166
2742.7475,121.21894837048222
2743.9571,112.86624319506171
2745.1661,96.47960549785898
2746.3744,97.50873988924099
2747.582,79.05335001477852
2748.7889,72.6131385449549
2749.9952,62.33780735972039
2751.2008,55.22705761289393
2752.4057,50.48058983491677
2753.61,44.098104003959406
2754.8136,48.07929959338719
2756.0165,46.123875635584454
2757.2188,38.23153068214282
2758.4204,32.85196282341542
2759.6213,36.684869767440375
2760.8215,38.37994889373641
2762.0211,32.73689721497374
2763.22,23.355411360023027
2764.4182,24.08518763038643
2765.6158,18.375922094012083
2766.8127,8.027310577996275
2768.009,14.039048725676537
2769.2045,2.0608321001168406
2770.3994,1.7423561239908167
2771.5936,-2.7666838006358603
2772.7872,-6.016592289121206
2773.9801,-12.307646317651972
2775.1723,-13.24006275665829
2776.3639,-24.013935523183534
2777.5548,-18.479226266044066
2778.745,-18.935656734840848
2779.9346,-17.282764071704605
2781.1235,-11.519896251555508
2782.3117,-17.04622859450103
2783.4992,-10.360821336885124
2784.6861,-4.162564423228218
2785.8723,-5.850244293445712
2787.0579,-7.622605803434283
2788.2428,13.271664634849628
2789.427,16.533956759281466
2790.6106,18.115660175020196
2791.7935,27.06816432188532
2792.9757,34.842858458540206
2794.1573,39.591131572966674
2795.3382,62.714372304718324
2796.5184,73.56396889743769
2797.698,88.09130896762349
2798.8769,99.19777939613465
2800.0551,117.08476618291758
2801.2327,137.15365433594116
2802.4096,149.55582769232745
2803.5859,166.59266871766113
2804.7615,192.4155583819694
2805.9364,214.7258759893527
2807.1106,234.8249989197564
2808.2842,267.01430240586717
2809.4572,288.04515933212195
2810.6294,325.66893991281506
2811.801,369.28701148178914
2812.972,407.6007381161974
2814.1423,453.2114802003238
2815.3119,490.470594042445
2816.4808,537.5294314187231
2817.6491,588.239339200614
2818.8167,635.2516588842807
2819.9837,679.167726083492
2821.15,729.6888700595003
2822.3157,769.1664132818815
2823.4807,807.7016709233225
2824.645,844.7459504648464
2825.8086,882.6005513104597
2826.9716,916.0667644167098
2828.134,969.4458719141385
2829.2957,991.8891467726203
2830.4567,1016.4978522675714
2831.617,1032.4232417555163
2832.7767,1033.0165584280014
2833.9358,1048.0790351523415
2835.0941,1033.5618944656853
2836.2519,1017.8163484243923
2837.4089,996.8435987492027
2838.5653,983.594836982694
2839.7211,988.671244699008
2840.8761,993.0239936363375
2842.0306,1007.9542456461642
2843.1843,1056.8131526497298
2844.3374,1088.7518564887337
2845.4899,1156.6214884367446
2846.6417,1231.2231688798122
2847.7928,1305.7580066377718
2848.9433,1381.077098218228
2850.0931,1462.9815270712047
2851.2422,1543.0723628359558
2852.3907,1613.0506605219193
2853.5385,1670.3674597078111
2854.6857,1724.4237838418394
2855.8323,1796.5206396685398
2856.9781,1832.2590166882092
2858.1233,1891.3398864359383
2859.2679,1935.3142021242284
2860.4118,1968.8828980521826
2861.555,2003.0468891657613
2862.6976,2044.4570707220978
2863.8395,2064.3143179478557
2864.9808,2084.519485625129
2866.1214,2116.973407892867
2867.2614,2116.4768980448266
2868.4007,2132.03074820503
2869.5393,2144.6857293327307
2870.6773,2143.7925910668755
2871.8146,2160.252061599554
2872.9513,2178.764847684931
2874.0874,2163.4816344746496
2875.2227,2155.553085332706
2876.3574,2142.6798419882793
2877.4915,2106.66252461502
2878.6249,2082.701731959778
2879.7577,2058.2980417027793
2880.8898,2044.4520106972334
2882.0212,2028.8641752133683
2883.152,2009.3850510768932
2884.2821,1991.765133824876
2885.4116,1998.1548989005346
2886.5405,1997.1048018294348
2887.6686,1988.3152781555941
2888.7962,2003.1367434519825
2889.923,2013.8195934084183
2891.0493,2033.2142036833518
2892.1748,2035.820929797038
2893.2997,2036.6901069375895
2894.424,2060.1720499349112
2895.5476,2066.2170532520076
2896.6706,2098.875390750161
2897.7929,2129.347315628486
2898.9145,2174.083060097342
2900.0355,2196.5328350736154
2901.1559,2209.746829733365
2902.2756,2248.2752112873177
2903.3946,2289.6681248487357
2904.513,2311.0256930481264
2905.6308,2339.54801561932
2906.7479,2375.585169185886
2907.8643,2401.2872069759164
2908.9801,2409.104158461652
2910.0953,2414.9360291024605
2911.2098,2417.28280026667
2912.3236,2414.1944291732475
2913.4368,2415.070848868334
2914.5494,2392.661968256123
2915.6613,2369.0676720901047
2916.7725,2340.5878211971462
2917.8831,2310.4722527134395
2918.9931,2289.5207803692997
2920.1024,2262.833194790318
2921.211,2244.159263706878
2922.319,2228.9487322210325
2923.4264,2202.4013229932416
2924.5331,2187.016736394477
2925.6391,2185.4946507717004
2926.7445,2171.9347226017026
2927.8493,2162.836586506331
2928.9534,2155.0998553880854
2930.0569,2147.124120521098
2931.1597,2154.258951628505
2932.2619,2133.8038969622016
2933.3634,2125.158483231491
2934.4643,2119.372215807641
2935.5645,2097.5945788103336
2936.6641,2054.3250351655274
2937.763,2044.1630268232368
2938.8613,1974.8579751902257
2939.959,1925.6092812316278
2941.056,1849.866326163998
2942.1523,1758.7284719477982
2943.248,1674.1950620448274
2944.3431,1594.8654223295998
2945.4375,1482.9888619346816
2946.5313,1375.8646740439822
2947.6244,1274.5921370115252
2948.7169,1191.720515432687
2949.8087,1096.0490611569226
2950.8999,993.3770141164823
2951.9904,914.8536032831271
2953.0803,840.1780476948474
2954.1696,776.6495572410984
2955.2582,726.2173334095552
2956.3462,688.9305699213978
2957.4335,646.4884532356334
2958.5202,625.3401629219637
2959.6062,580.0348720852056
2960.6916,564.7217475767754
2961.7764,556.3999504477404
2962.8605,535.3186361019508
2963.9439,534.6269543792578
2965.0267,521.8740497663268
2966.1089,514.659061403554
2967.1905,519.2811232125952
2968.2714,521.7893639685155
2969.3516,517.7829072535707
2970.4312,522.4108714321214
2971.5102,533.3723696907011
2972.5885,532.8165099917337
2973.6662,532.6423949639201
2974.7432,523.4991219077962
2975.8196,529.9857827974736
2976.8954,521.8014643720738
2977.9705,514.0452480708602
2979.045,506.61621011508225
2980.1188,495.91342158553664
2981.192,472.93594849685906
2982.2645,455.1328519045504
2983.3364,446.50318813475246
2984.4077,412.99600896227867
2985.4783,376.9103616969112
2986.5483,355.3952895184716
2987.6177,324.64983183767833
2988.6864,294.32302451129704
2989.7545,268.96390014959496
2990.8219,238.8714884196096
2991.8887,209.4448162987394
2992.9548,178.63290837566836
2994.0204,154.18478714463248
2995.0852,130.94947331353876
2996.1495,103.5759860484468
2997.2131,93.26334320592133
2998.276,77.96056160676767
2999.3383,59.11665713915767
3000.4,45.43064491165802
3001.4611,33.45153944166901
3002.5215,24.22835479228479
3003.5812,14.110104692084462
3004.6404,2.145802627363821
3005.6989,4.384461943317945
3006.7567,-8.574904036315786
3007.8139,-5.733282031644137
3008.8705,-8.591573099482673
3009.9264,-10.400621021159623
3010.9818,-11.061183748187773
3012.0364,-8.273915329876104
3013.0905,-15.389359314307967
3014.1439,-5.05797659315283
3015.1966,-4.580074318380923
3016.2487,6.794090887223433
3017.3002,5.064308155818253
3018.3511,6.330366551621012
3019.4013,8.192055088206189
3020.4509,13.799162715844773
3021.4998,17.95147830288755
3022.5481,26.09879057969357
3023.5958,24.74088809710713
3024.6428,37.87755914498479
3025.6892,41.708591765774315
3026.735,50.53377362314825
3027.7802,50.102891963693196
3028.8247,66.16573352865828
3029.8685,64.77208455826394
3030.9118,75.92173063107316
3031.9544,85.6644566779284
3032.9963,99.60004687045478
3034.0376,108.27828452363303
3035.0783,105.94895195644375
3036.1184,115.76183040508482
3037.1578,128.516700046265
3038.1966,123.41333989907451
3039.2348,137.6015276974369
3040.2723,149.13103994114255
3041.3092,146.25165175396666
3042.3455,141.66313676837433
3043.3811,145.56526715431426
3044.4161,138.30781366510416
3045.4505,139.14054559840878
3046.4842,139.6132308688152
3047.5173,141.52563599950497
3048.5498,128.7275261175272
3049.5816,136.2186649346752
3050.6128,127.14881487546694
3051.6434,124.41773700223393
3052.6734,115.12519110581991
3053.7027,120.72093573289118
3054.7314,114.8047282788624
3055.7594,116.07632493193904
3056.7868,115.93548073227936
3057.8136,113.93194955927868
3058.8398,111.41548413297744
3059.8653,108.78583603409683
3060.8902,107.64275572920329
3061.9145,106.58599259700495
3062.9381,100.36529493978242
3063.9612,96.58040999395641
3064.9835,95.83108399229491
3066.0053,93.96706220176162
3067.0264,88.13808893100989
3068.0469,86.94390754902236
3069.0668,81.83426054340097
3070.086,75.25888953230853
3071.1046,68.76753531556554
3072.1226,66.70993794040359
3073.1399,61.285836766379106
3074.1567,50.94497048594906
3075.1727,51.28707717871234
3076.1882,47.96189441481809
3077.203,34.8691592515448
3078.2173,36.35860826655207
3079.2308,29.279977688807975
3080.2438,27.68300338369454
3081.2561,22.417420923794253
3082.2678,17.882965604859606
3083.2789,8.929372498469093
3084.2893,10.656376497371582
3085.2991,7.963712405022278
3086.3083,8.801114918312663
3087.3169,3.3183186544972614
3088.3248,-1.4349418571806325
3089.3321,0.6910678793393572
3090.3388,2.0960966951865885
3091.3449,-7.320113482277748
3092.3503,-5.25782074665338
3093.3551,-4.817210063606495
3094.3593,-3.798413873174212
3095.3629,-7.051516491465065
3096.3658,-3.076564288433133
3097.3681,-4.8735331893829255
3098.3698,2.157631615258339
3099.3708,1.7670336216598628
3100.3713,-2.195223695585412
3101.3711,-3.3290368795547494
3102.3702,-2.434280543040842
3103.3688,4.139203958241936
3104.3667,2.5415995870417305
3105.364,0.3230892647147101
3106.3607,7.333855887201068
3107.3568,3.4740791227792585
3108.3522,13.593938566389227
3109.347,9.443613778230116
3110.3412,10.023284182561767
3111.3348,10.533129109207849
3112.3277,13.773327787759257
3113.32,12.79405934247562
3114.3117,12.6455027598834
3115.3028,14.377836898568447
3116.2932,19.791240490661664
3117.2831,16.335892124515695
3118.2723,21.211970190570838
3119.2608,18.46965291590857
3120.2488,21.559118315490664
3121.2361,20.53054421958248
3122.2229,23.734108242858184
3123.209,25.46998779468659
3124.1944,29.188360047095415
3125.1793,30.939401917412567
3126.1635,26.37329003108239
3127.1471,31.44020070415519
3128.1301,33.19030998894843
3129.1125,32.923793623377605
3130.0942,36.19082701345509
3131.0753,34.99158523595536
3132.0558,33.426243005744695
3133.0357,36.544974687773504
3134.015,40.59795431272983
3134.9936,37.885355545851986
3135.9716,40.157351646398766
3136.949,40.364115494775426
3137.9258,43.50581956981373
3138.902,42.03263594670437
3139.8775,45.04473626557978
3140.8524,43.9422917462461
3141.8267,46.67547315806209
3142.8004,46.944450830963646
3143.7735,51.79939462813196
3144.7459,51.14047394330369
3145.7178,49.51785765222157
3146.689,52.53171411922361
3147.6596,54.682211213469245
3148.6295,56.46951627880074
3149.5989,58.89379611223831
3150.5676,62.00521694610697
3151.5357,56.353944423793806
3152.5032,61.69014356863373
3153.4701,59.61397884042223
3154.4364,58.17561408205334
3155.402,63.52521254028136
3156.367,62.8129368801044
3157.3315,66.38894913126848
3158.2952,64.30341069539024
3159.2584,65.15648231019684
3160.221,67.74832407038132
3161.1829,67.5790954190719
3162.1442,68.9989551219136
3163.105,71.20806126876042
3164.065,73.95657125947683
3165.0245,72.89464178184672
3165.9834,71.77242878408822
3166.9416,75.99008748547305
3167.8993,71.59777238754864
3168.8563,77.54563723196154
3169.8127,78.38383504438053
3170.7684,78.41251807501808
3171.7236,85.38183779024826
3172.6782,85.7919448723199
3173.6321,83.79298914966357
3174.5854,80.63511959279026
3175.5381,86.11848433428113
3176.4902,87.24323070036614
3177.4417,86.70950515609034
3178.3926,88.46745329406652
3179.3428,92.81721983981235
3180.2924,91.25894863417099
3181.2415,91.59278258981337
3182.1899,90.56886370682089
3183.1377,93.7873330693471
3184.0848,94.6983308558569
3185.0314,97.15199630694185
3185.9773,99.24846771621019
3186.9227,99.38788240575013
3187.8674,101.3703767051652
3188.8115,100.9460859501801
3189.755,104.46514446281572
3190.6979,103.92768555563202
3191.6402,108.08384149653756
3192.5818,107.13374351416405
3193.5229,107.4775217563047
3194.4633,110.96530529941525
3195.4031,108.84722214517623
3196.3423,111.8233991856151
3197.2809,109.74396222428706
3198.2189,113.10903594651326
3199.1563,114.7687439401752
3200.0931,115.77320866206404
3201.0292,116.57255142128346
3201.9648,116.66689236920499
3202.8997,117.10635049147467
3203.834,120.04104360706954
3204.7677,118.92108836390312
3205.7008,120.14660020947845
3206.6333,120.76769340208762
3207.5652,122.83448099855667
3208.4964,119.34707484803471
3209.4271,123.20558557132595
3210.3571,126.01012259576389
3211.2865,124.21079411662606
3212.2154,129.6077070690888
3213.1436,129.65096714622047
3214.0712,131.8406787450122
3214.9982,130.07694496594561
3215.9246,134.2098675910953
3216.8503,132.3895471017665
3217.7755,135.71608263716564
3218.7001,135.48957201260362
3219.624,138.36011168623054
3220.5473,135.62779676130057
3221.4701,140.8927209574669
3222.3922,143.6549766381046
3223.3137,141.81465475766151
3224.2346,142.57184483403555
3225.1549,141.82663496697808
3226.0746,146.129111830522
3226.9937,144.87936068043376
3227.9121,142.97746531118875
3228.83,145.47350806846856
3229.7473,150.96756986818022
3230.6639,148.95973017149552
3231.5799,150.6000669299106
3232.4954,148.43865660532424
3233.4102,156.32557415363453
3234.3244,151.11089304635297
3235.238,152.34468519173535
3236.151,155.5270209869285
3237.0634,153.55796930563235
3237.9752,157.08759746627658
3238.8864,157.5159712517111
3239.797,159.04315487390977
3240.7069,162.7692109696867
3241.6163,160.99420058542447
3242.5251,162.56818313981336
3243.4332,160.54121644160168
3244.3408,163.71335667385574
3245.2477,164.38465841422976
3246.154,163.40517460324415
3247.0598,165.7749565375728
3247.9649,167.79405387983786
3248.8694,167.5625146349118
3249.7733,171.8303851297265
3250.6766,165.14771001558879
3251.5793,173.2145322255014
3252.4814,173.23089304098994
3253.3829,175.29683201143473
3254.2838,172.86238695390705
3255.1841,174.5275939325097
3256.0838,173.99248728272158
3256.9829,174.25709959474565
3257.8814,175.92146171885983
3258.7792,176.28560276277108
3259.6765,176.54955007497153
3260.5731,178.4133292410973
3261.4692,177.72696408128903
3262.3647,179.94047663155388
3263.2595,180.1538871506294
3264.1538,181.41721409784827
3265.0474,183.73047413100434
3265.9404,184.29368209371918
3266.8329,187.00685099230952
3267.7247,185.4199919901552
3268.616,186.08311438056757
3269.5066,184.94622560265785
3270.3966,186.759331234706
3271.286,186.12243500552978
