RamanShift,CorrectedData
30.1047,460.25720412550714
32.3739,423.9180300212933
34.6426,393.2788513145074
36.9109,358.48965916339705
39.1787,322.8504407934213
41.4461,290.41117984514227
43.7131,258.2718567306178
45.9796,224.28244895779363
48.2456,191.29293145189695
50.5112,156.95327689533033
52.7764,122.21345605756696
55.0411,89.27343813854722
57.3054,57.73319111607694
59.5692,27.642682075227512
61.8326,-3.6481224762615625
64.0955,-36.9892563070776
66.3579,-67.78075314942669
68.6199,-96.1222772128444
70.8815,-116.56281557714243
73.1426,-116.80039506058324
75.4032,-70.8318780189017
77.6634,103.29704002811388
79.9231,563.7913711711365
82.1824,1561.8061264678686
84.4412,3291.0963113381
86.6995,5636.466915583557
88.9574,7917.222896095009
91.2148,9512.219153398546
93.4717,10274.310508848042
95.7282,10421.70168867517
97.9842,10401.897316368499
100.2398,10202.501911199584
102.4949,10012.019888421011
104.7495,9837.655561260337
107.0036,9625.91314282493
109.2573,9408.346747845595
111.5105,9197.010394794013
113.7632,8838.008008058396
116.0154,8524.29342005685
118.2672,8177.520374827404
120.5185,7774.942531165149
122.7693,7397.563466089979
125.0197,7026.586678872359
127.2696,6717.365594807118
129.519,6504.053568923225
131.7679,6328.753889075984
134.0163,6206.169778080175
136.2642,6087.304395463029
138.5117,6036.560838690088
140.7587,5935.192144353845
143.0052,5823.65128868119
145.2512,5633.691188547088
147.4967,5407.164702589998
149.7417,5192.774633111461
151.9863,5018.373728341375
154.2304,4891.4146845818905
156.4739,4805.1501479514245
158.717,4816.032715654243
160.9596,4832.614936843114
163.2017,4907.09931251048
165.4433,4990.938295322632
167.6844,4963.68428887487
169.925,4886.2396468531115
172.1651,4650.30667330643
174.4047,4436.687623421504
176.6439,4258.834705881947
178.8825,4078.150085004494
181.1206,3998.735882517536
183.3582,3901.1441793679633
185.5954,3835.6770165153066
187.832,3780.186395907657
190.0681,3737.774281136335
192.3037,3694.0925979907997
194.5388,3657.2932348827644
196.7734,3665.1780432830174
199.0075,3677.948838089418
201.2411,3727.0073975480445
203.4742,3743.1054631254865
205.7068,3799.244739018263
207.9389,3825.026891991838
210.1704,3865.3035508192293
212.4015,3850.5263060231855
214.632,3855.1467094734217
216.862,3820.61627453439
219.0915,3810.5864760190775
221.3205,3820.35875053431
223.549,3831.484496581049
225.777,3828.0150744566727
228.0044,3769.4518061437134
230.2314,3742.2459753445564
232.4578,3645.698828067068
234.6837,3556.8615728966574
236.909,3472.8853819617443
239.1339,3409.3213918221395
241.3582,3367.170704308797
243.582,3277.7843871594614
245.8053,3285.813474440169
248.0281,3294.158967439115
250.2503,3278.8718345863617
252.472,3246.1030113703837
254.6932,3261.453400490936
256.9139,3227.1238721867467
259.134,3227.7152640820095
261.3536,3285.428381529682
263.5727,3347.163997605568
265.7912,3468.8728525311913
268.0092,3620.9556530564378
270.2267,3804.8630712424633
272.4436,3960.0457429408702
274.6601,4055.504265954632
276.8759,4127.639198486266
279.0913,4189.101058183247
281.3061,4215.090321416665
283.5204,4255.307422666594
285.7341,4333.00275426221
287.9473,4417.126665979616
290.16,4411.029464264884
292.3721,4245.161411392828
294.5837,4038.2727255279647
296.7947,3864.0635823832004
299.0052,3740.8341172887112
301.2152,3642.9844269340438
303.4246,3599.814570600403
305.6334,3539.774571139149
307.8418,3510.814415403501
310.0495,3428.734054848932
312.2568,3314.133405822772
314.4635,3135.6123503850135
316.6696,2957.670737454315
318.8752,2733.158384593212
321.0802,2602.2750797875347
323.2847,2522.020583691531
325.4887,2518.1446309367
327.692,2544.3969309343365
329.8949,2677.92716791429
332.0972,2824.0850006624455
334.2989,2987.2200611854164
336.5001,3024.9319532489676
338.7007,2943.7702507466684
340.9008,2738.784497322769
343.1003,2481.3742071838196
345.2992,2232.4388671485285
347.4976,2050.8779392218617
349.6955,1898.8408630843987
351.8927,1804.8270579079403
354.0895,1695.2859238758829
356.2856,1656.2168431233508
358.4812,1600.3191808326123
360.6763,1552.2422856237713
362.8707,1503.5854901137382
365.0646,1482.7981113970063
367.258,1489.0294515322157
369.4508,1530.828797750024
371.643,1616.1454223907945
373.8346,1695.4285824866065
376.0257,1820.127518908087
378.2162,1931.9414555715812
380.4062,2023.21959819216
382.5956,1943.1111331654793
384.7844,1799.6152266550034
386.9726,1623.7810253930857
389.1603,1460.4076581159306
391.3474,1355.9942373219374
393.5339,1325.939860905426
395.7199,1313.443613200779
397.9052,1405.6045652829803
400.09,1538.0717750925814
402.2743,1706.1942865140886
404.4579,1836.121128051292
406.641,1951.151311146043
408.8235,2102.5838288789814
411.0054,2236.267654819239
413.1868,2321.601741510108
415.3675,2350.1350191322094
417.5477,2287.7163946501482
419.7273,2220.944751527181
421.9064,2062.2689503494003
424.0848,1921.9378294934545
426.2627,1687.6502067133033
428.4399,1430.3548805435307
430.6166,1212.8506326422198
432.7928,1045.136230363907
434.9683,901.310428934627
437.1432,817.971973129052
439.3176,734.6195987087522
441.4914,654.7020332555785
443.6645,627.1679970051914
445.8371,614.7162036462273
448.0091,611.1953605956487
450.1806,596.0041691232541
452.3514,584.3413243868931
454.5216,581.855515584376
456.6913,584.8954260700989
458.8603,621.6097333799071
461.0288,628.9971092006931
463.1967,613.456219003252
465.3639,622.9357219684134
467.5306,573.0842711424452
469.6967,543.7005133422581
471.8622,530.6830896539245
474.0271,502.2306357265102
476.1914,484.89178190225266
478.3551,467.26515350108184
480.5182,462.99937099401086
482.6807,447.7930501794035
484.8426,518.5448022256346
487.0039,641.953233823147
489.1647,857.3169464769389
491.3248,1058.3845352724793
493.4843,1114.3045867220717
495.6432,1092.9256767541742
497.8015,981.3963701542002
499.9592,817.915220778314
502.1163,621.330772668713
504.2728,445.041561688447
506.4287,357.3461174872614
508.5839,287.492965264486
510.7386,240.18062664599302
512.8927,244.25762038272615
515.0461,261.02246282382566
517.199,309.0236678758565
519.3512,451.9097468351588
521.5029,687.0292079078376
523.6539,966.7305547809046
525.8043,1060.1122842710788
527.9541,862.0728835277787
530.1033,611.3108290993009
532.2519,391.07458891321494
534.3999,275.6126247839861
536.5472,244.2233946153333
538.694,242.20535355485026
540.8401,282.60695430789974
542.9856,356.57664715779174
545.1305,410.51287956176975
547.2748,469.46409541131334
549.4185,482.3287344927717
551.5615,505.25523189785554
553.704,559.6920178949904
555.8458,612.0875177000494
557.987,674.0901509319879
560.1276,804.4983310888879
562.2675,1062.810464927933
564.4069,1387.6749511613207
566.5456,1615.6901778731458
568.6837,1554.2545192707585
570.8212,1208.4663334046058
572.958,824.3739627825912
575.0942,550.7257378279564
577.2299,390.86998072020333
579.3648,314.8050081315787
581.4992,284.77913282563077
583.6329,310.14066441786144
585.766,418.38790967598015
587.8985,562.2191722662951
590.0304,766.8327516712357
592.1616,952.8769417510412
594.2922,1032.700028697623
596.4222,954.1002891741282
598.5515,736.3759895167027
600.6802,496.2253865204939
602.8083,315.34672961688784
604.9358,248.2882632750202
607.0626,208.34822881056016
609.1888,227.22486505629604
611.3144,296.26640876153533
613.4393,426.5710944033417
615.5636,655.1871534961124
617.6873,853.7628132885375
619.8103,1033.296294477439
621.9327,1052.6358092220094
624.0544,988.8795593484856
626.1756,764.6757361567475
628.2961,519.2225210578781
630.4159,362.91808781620875
632.5351,344.16060500384447
634.6537,347.1482375637115
636.7716,321.77914699713483
638.8889,304.75149133395826
641.0056,333.2134253862391
643.1216,394.31310091852083
645.237,450.9986663632135
647.3518,410.46826620959746
649.4659,286.77004043696616
651.5793,180.90212491992952
653.6922,156.9626526654015
655.8043,109.19975487127476
657.9159,47.861561165818785
660.0268,19.996200085306555
662.137,22.701799687397852
664.2466,42.326288267710424
666.3556,45.01736733088046
668.4639,19.422737958283506
670.5716,27.140100781125057
672.6786,0.8171562363813791
674.785,-41.04839551037048
676.8907,-48.45886245694419
678.9958,-20.46614252768859
681.1002,-44.07164954291602
683.204,-19.026592866176543
685.3072,-13.23174158524398
687.4097,-16.187674712231455
689.5115,-7.4948390741542426
691.6127,-15.553519783158208
693.7132,-27.013927077947756
695.8131,-14.82611581756737
697.9123,-2.9398709919287285
700.0109,2.395170521950604
702.1089,45.92937187645293
704.2061,95.21309620000739
706.3028,184.64670616175408
708.3987,289.4805634787026
710.4941,358.0650280213954
712.5887,398.50045676557147
714.6827,396.9372031063208
716.7761,356.97561645372934
718.8688,334.41604224851017
720.9608,316.70882236162333
723.0522,357.2542953198722
725.1429,406.0527964829689
727.233,526.154657638082
729.3224,732.8602065118585
731.4112,985.9697655693967
733.4993,1127.8336499471984
735.5867,1026.9021649220672
737.6735,751.8256044924692
739.7596,471.4542523878531
741.845,278.43838481940975
743.9298,210.37827328379262
746.014,174.8741864932731
748.0974,200.97639105633925
750.1802,208.68515183274167
752.2624,205.55073167246564
754.3439,224.37339133864816
756.4247,215.05338953892033
758.5048,267.2409827371803
760.5843,323.4864252467946
762.6631,437.73996870872224
764.7413,636.9018615290593
766.8188,948.4723477365046
768.8956,1323.9016649907403
770.9718,1608.9900414667236
773.0473,1620.3876921004007
775.1221,1450.9448157378174
777.1962,1343.3115950211436
779.2697,1553.4881980831046
781.3426,1968.7247796233096
783.4147,2347.821478806486
785.4862,2446.128415110118
787.557,2163.6956845334735
789.6271,1660.3733586145422
791.6966,1138.9614872543552
793.7654,729.4601037502152
795.8335,452.6692300098093
797.901,326.73888064622724
799.9678,250.46906574586865
802.0339,252.95979212774273
804.0993,281.51106410617194
806.1641,310.97288346588084
808.2282,263.4452491764837
810.2916,201.47815709786892
812.3544,140.02160045547498
814.4164,110.87557045995845
816.4778,117.09005692176379
818.5385,160.61504854258146
820.5986,270.1505328531998
822.658,471.0964957782626
824.7166,745.0029205409069
826.7747,1054.7197856533062
828.832,1377.6470621776061
830.8886,1609.9847106287557
832.9446,1759.8826777452346
834.9999,1736.7408941656777
837.0545,1504.7592729298945
839.1085,1163.1877097102847
841.1618,842.9760851316605
843.2143,615.2742681869545
845.2662,455.38211943933993
847.3175,387.34949329924984
849.368,352.52623962329744
851.4179,332.86220439460203
853.467,320.45723007102197
855.5155,372.76115578179633
857.5633,384.0738174515959
859.6105,392.3950472774791
861.6569,367.7246736157699
863.7027,304.5125208988434
865.7478,236.7584098818288
867.7922,205.56215827473034
869.8359,168.72358141996983
871.8789,147.74249260434772
873.9212,130.36870342743214
875.9629,163.35202401136712
878.0039,203.44226317460925
880.0441,272.1892281020987
882.0837,339.292723944352
884.1226,413.3525531299938
886.1609,563.768514694726
888.1984,759.0904035407243
890.2352,961.9680089324825
892.2714,1073.6011125435912
894.3069,1004.689486427963
896.3416,808.8828919035022
898.3757,609.7310802412198
900.4091,494.5837946232991
902.4418,502.94077213461696
904.4739,595.2517449142138
906.5052,709.2664400717244
908.5358,734.834578764267
910.5658,680.0058750562976
912.595,570.930035663926
914.6236,404.0567605032056
916.6515,283.9357437808908
918.6786,201.66667566317074
920.7051,180.4492434768781
922.7309,174.83313253218148
924.756,152.6180263347569
926.7804,189.65360664195123
928.8041,232.33955368493434
930.8272,337.7755457983408
932.8495,378.6112589934123
934.8711,388.44636590363643
936.892,435.2805353763906
938.9123,495.96343237458814
940.9318,623.1447175083408
942.9506,708.1240464281282
944.9688,718.1510685529825
946.9862,653.025426220695
949.003,535.7467545875488
951.019,422.9646822795753
953.0344,364.57883256534024
955.0491,304.8388244837629
957.063,260.64427342797535
959.0763,252.59479174272064
961.0888,252.23998916630126
963.1007,263.8794729110723
965.1119,229.36284766699237
967.1223,187.98971548522468
969.1321,176.70967612330605
971.1412,164.57232745887632
973.1495,149.57726560248148
975.1572,152.0240850189457
977.1641,173.81237867732307
979.1704,181.24173802642736
981.1759,180.56175277695093
983.1808,158.27201082716874
985.1849,118.87209826974095
987.1884,113.46159961460853
989.1911,126.24009818299146
991.1932,160.9571761614966
993.1945,203.91241447433094
995.1951,202.25539243613275
997.1951,204.9856873224162
999.1943,179.95287438614423
1001.1928,182.8065268304258
1003.1906,226.3462160588415
1005.1877,316.3715116469102
1007.1841,434.93198090668784
1009.1798,520.3771879865185
1011.1748,514.806692685429
1013.1691,434.07004959867527
1015.1627,301.31680817344704
1017.1556,183.89651351623434
1019.1477,95.2087077203596
1021.1392,55.0529310401821
1023.1299,18.97872277797387
1025.12,13.885621685478782
1027.1093,33.87316632465263
1029.0979,145.4408951185992
1031.0859,200.53834615168898
1033.0731,266.16505605388784
1035.0596,307.420559449778
1037.0454,282.00438830229405
1039.0304,258.21607150016507
1041.0148,174.755135112076
1042.9985,100.82110262455262
1044.9814,44.06349577657011
1046.9636,-1.018164701104979
1048.9452,40.82564148165966
1050.926,100.79443462518111
1052.9061,184.03773462152049
1054.8855,227.80506035479857
1056.8642,251.5959288687609
1058.8421,231.20985492910222
1060.8194,224.6963507855603
1062.7959,205.90492637577609
1064.7717,206.7850893904283
1066.7469,221.28634546114745
1068.7213,218.15819815171562
1070.695,258.40014881305024
1072.6679,330.4616966144886
1074.6402,459.8923381413679
1076.6117,539.4415666744103
1078.5826,531.9588708954143
1080.5527,374.1937340917657
1082.5221,220.44563423126283
1084.4908,111.464045539768
1086.4587,35.098440038687386
1088.426,6.498288634788878
1090.3925,-18.78693811614312
1092.3584,1.3922302766964094
1094.3235,37.885451985622694
1096.2879,105.29238516903024
1098.2515,175.01268760646053
1100.2145,291.04601602453477
1102.1767,397.94202539974503
1104.1382,552.4003677981273
1106.099,758.220691306296
1108.0591,975.1526384868653
1110.0185,1155.1958443202407
1111.9771,1294.1999340353054
1113.9351,1473.114521308984
1115.8923,1755.389206876203
1117.8488,1993.2235767407446
1119.8045,1938.4671993525008
1121.7596,1600.1696232291301
1123.7139,1137.1803775036174
1125.6675,821.498975307255
1127.6204,739.6749183995325
1129.5726,818.0077003249512
1131.524,889.8468072312639
1133.4748,783.7917170861488
1135.4248,559.391898958816
1137.3741,321.54681408055967
1139.3226,200.40591808875706
1141.2705,161.6186634053147
1143.2176,180.38450044808224
1145.164,257.05287801872237
1147.1097,289.27324311505436
1149.0546,247.14504016437013
1150.9989,159.0177107012305
1152.9424,57.990693788746285
1154.8852,-14.636573100147416
1156.8272,-44.8646530724227
1158.7686,-56.84396301568677
1160.7092,-51.224471619663746
1162.6491,-42.255579702886735
1164.5883,-6.286176351421091
1166.5267,49.985271481911695
1168.4644,129.11035964318808
1170.4014,248.54068347863358
1172.3377,391.9778370433705
1174.2732,571.9234119071166
1176.2081,814.7789957198115
1178.1421,1255.7461704121638
1180.0755,1811.7265097670906
1182.0082,2248.12157501005
1183.9401,2331.232909249235
1185.8713,2075.912033111625
1187.8017,1569.060443911871
1189.7315,1085.2296182055043
1191.6605,681.3210168574519
1193.5888,465.2860898803474
1195.5163,325.92628047361404
1197.4432,228.44302718381505
1199.3693,160.98776529825454
1201.2947,89.1119278198048
1203.2193,68.6169461414629
1205.1432,40.0042507651101
1207.0664,30.775271506457102
1208.9889,34.23143778117537
1210.9106,34.12417869718274
1212.8316,62.70492302008461
1214.7519,88.72509917424395
1216.6715,135.03613495697527
1218.5903,187.63945727834334
1220.5084,222.53649169805294
1222.4257,279.4786618994158
1224.3424,307.81738934038185
1226.2583,362.7540926841134
1228.1735,471.6901875156009
1230.0879,583.5770857922948
1232.0016,741.8161947547455
1233.9146,897.658915807734
1235.8269,968.3566429378811
1237.7384,982.1607611552199
1239.6492,977.9726457862184
1241.5592,1016.1436623357386
1243.4686,1117.7751665289175
1245.3772,1385.1685039294548
1247.285,1739.925008923301
1249.1922,2057.4460020447236
1251.0986,2356.532786428739
1253.0042,2588.136644635906
1254.9092,2903.208835661456
1256.8134,3275.8505926192543
1258.7169,3717.6131195910816
1260.6196,4072.647587900212
1262.5216,4319.105131693793
1264.4229,4408.736844392496
1266.3234,4324.793776225942
1268.2232,4086.076933336386
1270.1223,3811.887278618145
1272.0207,3638.025734104769
1273.9183,3513.9431837109346
1275.8151,3479.79047497106
1277.7113,3569.368420280136
1279.6067,3829.9277972352443
1281.5014,4332.819347739787
1283.3953,5062.143775397886
1285.2885,5934.451740485473
1287.181,6738.693852657039
1289.0727,7213.170662222565
1290.9637,7083.482652105089
1292.854,6600.330233095947
1294.7435,5960.6637451516435
1296.6323,5352.08346222539
1298.5204,4818.239598663755
1300.4077,4419.932315292475
1302.2943,4155.261724754894
1304.1802,3967.177895495031
1306.0653,3797.1308544042886
1307.9497,3686.4705887022938
1309.8333,3592.797047637366
1311.7162,3518.6101435931196
1313.5984,3416.9597530251995
1315.4798,3341.1957172031503
1317.3605,3361.8178432269183
1319.2405,3460.8259047844954
1321.1197,3528.7696419456943
1322.9982,3490.04876017207
1324.876,3344.6629296374826
1326.753,3013.6617856153025
1328.6293,2655.4449299322737
1330.5048,2245.3619342785237
1332.3796,1861.0123437897319
1334.2537,1545.5956811479587
1336.127,1338.9114504251438
1337.9996,1192.259140237271
1339.8714,1072.5882258112088
1341.7426,997.2481704512365
1343.6129,926.5384267357517
1345.4826,843.058437270669
1347.3515,785.7576353965201
1349.2196,722.3354460232536
1351.087,684.7412862032425
1352.9537,676.0245657655068
1354.8197,686.1846876916538
1356.6849,713.9210482030476
1358.5493,757.1830366592053
1360.4131,842.5700352804342
1362.276,976.1314187152134
1364.1383,1155.91655318632
1365.9998,1250.2747951552205
1367.8606,1234.2554895242156
1369.7206,1220.8079686928604
1371.5799,1228.8815527181569
1373.4384,1250.9255494490258
1375.2962,1164.8392544455742
1377.1533,966.0719507586546
1379.0096,794.5729097907274
1380.8652,652.1913932835337
1382.7201,542.6266550330879
1384.5742,452.0279423134907
1386.4275,335.0444969725768
1388.2802,268.12555633790225
1390.132,206.92035438658195
1391.9832,180.1781224144729
1393.8336,154.69808964823142
1395.6832,153.82948351273217
1397.5322,128.37152988587104
1399.3803,110.52345310725059
1401.2278,61.73447623275797
1403.0745,37.30382121304751
1404.9204,1.9307093814290965
1406.7656,-8.635638301824201
1408.6101,-30.596000895746556
1410.4538,-38.1510711893452
1412.2968,-34.1512363175807
1414.139,-11.196502286211853
1415.9805,3.8134660698513017
1417.8213,58.47911576875549
1419.6613,133.40089379051324
1421.5006,248.32924653034706
1423.3391,382.2646190494711
1425.1769,575.6074539258086
1427.0139,868.1081899146379
1428.8502,1239.5172600151639
1430.6858,1561.8350885455097
1432.5206,1717.3620874286282
1434.3547,1732.2986529691216
1436.188,1670.5451642979747
1438.0206,1586.0019832231849
1439.8524,1546.6194548473015
1441.6835,1530.3979084128534
1443.5139,1525.5876576961764
1445.3435,1562.3890011696274
1447.1724,1611.5522220496873
1449.0005,1596.8275879289477
1450.8279,1547.9153502844777
1452.6545,1559.3157446250727
1454.4804,1537.3289909803752
1456.3056,1516.155293786871
1458.13,1460.094842107756
1459.9536,1366.0478098446754
1461.7766,1251.064356298325
1463.5987,1093.6946271089237
1465.4202,956.4387554060484
1467.2409,813.54686338233
1469.0608,670.0690636660131
1470.88,556.6554607498729
1472.6984,447.4561524259948
1474.5161,343.52123091990893
1476.3331,266.20078398258465
1478.1493,245.1948959297788
1479.9648,232.05364841524374
1481.7795,223.07712064078328
1483.5935,232.6653894876647
1485.4067,227.31852960638594
1487.2192,259.93661332079114
1489.031,267.6197106815416
1490.842,282.6178891399327
1492.6522,287.3812134710647
1494.4618,279.95974562385777
1496.2705,273.853544673422
1498.0785,274.8626668952702
1499.8858,252.8871658263804
1501.6924,251.2770922551042
1503.4981,232.9324944409218
1505.3032,213.90341813054306
1507.1075,198.18990674135375
1508.911,173.49200155170593
1510.7138,169.40974185805294
1512.5159,143.89316522193076
1514.3172,129.84230751077803
1516.1178,105.55720315310282
1517.9176,92.93788527899119
1519.7166,70.43438596295869
1521.515,62.7967363501416
1523.3126,56.02496688133442
1525.1094,38.019107369364065
1526.9055,19.679187066808936
1528.7008,29.555234846058056
1530.4954,2.2972793827093483
1532.2893,-0.29465094319039054
1534.0824,-2.8705277745666535
1535.8747,23.96967724860292
1537.6663,14.776021162912002
1539.4572,20.24856076525907
1541.2473,29.237352704781642
1543.0367,26.79245342813215
1544.8253,42.61391908959081
1546.6132,67.85180557551394
1548.4003,80.40616834612024
1550.1867,121.52706218311005
1551.9723,172.61454106412316
1553.7572,205.2686577515292
1555.5414,268.3394632815532
1557.3247,370.0770066377331
1559.1074,513.2313341202139
1560.8893,689.6524883283698
1562.6705,867.0405067292631
1564.4509,1020.2954198934333
1566.2305,1088.4172497210136
1568.0094,1136.556007909184
1569.7876,1129.6116952709517
1571.565,1134.4843012537644
1573.3417,1145.9238040089538
1575.1176,1173.1301703430088
1576.8928,1231.253355603181
1578.6672,1319.7433034054209
1580.4409,1447.349945053147
1582.2138,1614.1231986523437
1583.986,1805.0129678354972
1585.7575,1999.1691400938626
1587.5282,2174.8915848685674
1589.2981,2308.480151609047
1591.0673,2391.9846680158234
1592.8358,2445.4549387046163
1594.6035,2451.9407443713
1596.3704,2419.2918412572
1598.1366,2324.407961084236
1599.9021,2238.0388113814083
1601.6668,2095.5340764336406
1603.4308,2003.7934181454684
1605.194,1949.666477466087
1606.9564,2029.9528753067586
1608.7182,2200.45221308208
1610.4791,2519.664071907122
1612.2394,2949.4880108924303
1613.9988,3454.723563951914
1615.7576,3945.9702355046
1617.5156,4237.377495422283
1619.2728,4278.894774117053
1621.0293,4021.6714596272277
1622.785,3569.45689720218
1624.54,3038.450391874563
1626.2942,2509.851212982468
1628.0477,2024.258599479479
1629.8005,1621.7717652206702
1631.5525,1308.9399038185302
1633.3037,1075.812192667831
1635.0542,893.6877960739453
1636.804,741.865867584125
1638.553,610.9455518087448
1640.3013,538.775985939521
1642.0488,464.00630105871505
1643.7955,411.68562286082897
1645.5416,350.5630724003031
1647.2868,319.38776661472093
1649.0313,288.6588189360375
1650.7751,257.17533960233004
1652.5181,265.03643596508846
1654.2604,260.89121280405016
1656.0019,281.88877224858834
1657.7427,306.4782138191656
1659.4828,383.1086342173562
1661.222,495.37912707995247
1662.9606,651.2387822126616
1664.6984,842.3866844673994
1666.4354,972.4219121836957
1668.1717,984.4935352772129
1669.9072,876.8506139393951
1671.642,693.6421985167515
1673.3761,499.2673305872861
1675.1094,342.02504479258073
1676.8419,236.86437078154427
1678.5737,155.48433478283687
1680.3048,125.28396065647439
1682.0351,86.21227070762984
1683.7646,61.768285988636535
1685.4934,44.65102668970576
1687.2215,42.509512383365745
1688.9488,38.99276219563558
1690.6754,33.44979482743952
1692.4012,27.379628589775166
1694.1263,23.981281459141655
1695.8506,19.653771138242973
1697.5742,10.696115089970135
1699.297,22.307330580677444
1701.0191,7.286434769758898
1702.7404,0.432444593534683
1704.461,-12.95562308453782
1706.1808,1.9212485946743527
1707.8999,-7.387794083022072
1709.6182,-2.8836048510315777
1711.3358,-6.71696363869637
1713.0527,-4.788621568146709
1714.7688,-13.149262659045917
1716.4841,-6.54952309272835
1718.1987,-8.239907689395295
1719.9126,-7.320855839513229
1721.6257,-2.44272461687126
1723.338,6.494202040091409
1725.0496,-8.610335404245575
1726.7605,-7.206596550444715
1728.4706,-8.894754981818323
1730.18,-15.774912287779557
1731.8886,1.7529188008597885
1733.5964,-2.8111168553381276
1735.3036,-1.2668744133408154
1737.0099,-4.2141809470591625
1738.7156,-2.4028508743289194
1740.4204,-0.3326565133187387
1742.1246,6.546653822281655
1743.8279,7.085335142020881
1745.5306,19.983642389981128
1747.2325,15.441830439391879
1748.9336,19.360153963646212
1750.634,10.78886748171908
1752.3336,20.978225318984073
1754.0325,15.17848169292779
1755.7307,25.939890611255123
1757.4281,35.06270592988665
1759.1247,27.14718124534454
1760.8206,35.24356980352468
1762.5158,36.752124578851635
1764.2102,28.523098193315036
1765.9039,30.55674290138313
1767.5968,33.35331067229458
1769.289,35.06305316972066
1770.9804,32.43622172380071
1772.6711,44.37306731404351
1774.361,37.02384059559631
1776.0502,45.038791779875964
1777.7386,44.66817070806076
1779.4263,45.41222677094231
1781.1132,49.57120891263014
1782.7994,56.64536562311241
1784.4849,55.28494489666514
1786.1696,57.84019416111141
1787.8535,57.5613602914251
1789.5367,54.648689584178896
1791.2192,64.15242776033188
1792.9009,60.022819994356496
1794.5818,60.210110819201304
1796.2621,61.31454416758709
1797.9415,59.13636337013338
1799.6202,57.12581114431521
1801.2982,64.18312961624383
1802.9755,66.9585603407728
1804.6519,59.35234423092459
1806.3277,58.064721530136694
1808.0027,63.49593188832341
1809.6769,69.84621437475289
1811.3504,69.61580742373405
1813.0231,69.60494877111398
1814.6951,76.86387545658249
1816.3664,85.69282382378026
1818.0369,78.64202944770955
1819.7067,78.9617270464446
1821.3757,83.2021505516401
1823.044,73.8635331053332
1824.7115,85.79610701754052
1826.3783,86.8501038596429
1828.0443,82.5257543450615
1829.7096,78.42328831871635
1831.3741,87.94293480027068
1833.0379,94.68492202515506
1834.701,89.849477349371
1836.3633,91.6868271820714
1838.0248,92.34719703391465
1839.6856,83.88081149869095
1841.3457,98.1378942467187
1843.005,97.36866810950858
1844.6636,100.12335493719263
1846.3214,101.40217560621636
1847.9785,110.25534999179251
1849.6349,99.63309695511214
1851.2904,104.83563425481361
1852.9453,95.71317865320418
1854.5994,105.66594586423503
1856.2528,115.09415064472603
1857.9054,107.89800669483782
1859.5572,106.92772656378997
1861.2083,108.78352172182235
1862.8587,109.4656025698979
1864.5084,118.22417842114453
1866.1572,108.85945749403481
1867.8054,102.42164682479972
1869.4528,108.01095236107597
1871.0994,107.92757902628455
1872.7453,107.92173066373687
1874.3905,115.59361003746915
1876.0349,111.49341883230022
1877.6786,123.62135757711303
1879.3215,125.47762568585699
1880.9637,119.16242133626804
1882.6051,120.67594145130602
1884.2458,127.7183817623071
1885.8858,121.83993679384832
1887.525,118.84079979332296
1889.1634,119.97116278972555
1890.8011,119.93121662364229
1892.4381,121.62115093594832
1894.0743,117.4411541682066
1895.7098,122.49141354576886
1897.3446,116.47211511957505
1898.9786,130.98344371565122
1900.6118,123.6255829953028
1902.2443,117.44871531000058
1903.8761,123.45302177496012
1905.5071,116.98868233091002
1907.1374,112.45587568404903
1908.7669,118.95477937068915
1910.3957,118.03556980258418
1912.0237,114.8984222019401
1913.651,112.99351061060781
1915.2776,120.97100792145409
1916.9034,115.38108589741114
1918.5285,115.92391509170125
1920.1528,117.34966490373631
1921.7764,118.90850357368925
1923.3992,109.5005981682367
1925.0213,107.92611456497036
1926.6427,113.53521754647636
1928.2633,107.27807081608046
1929.8832,113.75483694175625
1931.5023,110.21567741869717
1933.1207,117.06075260454861
1934.7383,113.04022175479895
1936.3552,104.95424295432974
1937.9714,111.60297315762045
1939.5868,109.48656826960882
1941.2015,108.10518307920279
1942.8154,110.15897128044526
1944.4286,111.34808548632759
1946.041,112.37267720825139
1947.6528,104.93289684413753
1949.2637,99.17889366818031
1950.8739,100.01081590524518
1952.4834,109.57881078840921
1954.0921,103.93302455064133
1955.7001,108.52360232912224
1957.3074,96.8506882217032
1958.9139,102.26442524099912
1960.5197,103.4649554311186
1962.1247,105.90241981352654
1963.729,94.02695837503836
1965.3325,89.5887100434453
1966.9353,105.18781280626956
1968.5374,97.8244037551458
1970.1387,87.09861892983156
1971.7393,97.16059339184005
1973.3392,95.21046133169853
1974.9383,95.64835596832881
1976.5366,100.42440956854819
1978.1342,89.13875344269104
1979.7311,98.49151789684765
1981.3273,94.08283234572116
1982.9227,96.86282521909914
1984.5173,94.33162400594188
1986.1112,89.08935522658089
1987.7044,95.73614445803184
1989.2968,96.52211638641688
1990.8885,100.29739474049757
1992.4795,94.21210228381426
1994.0697,85.41636077693386
1995.6592,100.81029103830235
1997.2479,86.99401303220225
1998.8359,90.51764571481385
2000.4232,87.1313071723772
2002.0097,94.73511458595635
2003.5955,83.62918426530177
2005.1805,85.2136315728136
2006.7648,88.18857103460005
2008.3484,87.4541163246331
2009.9312,93.31038023499957
2011.5133,86.05747468324557
2013.0946,83.54551065381327
2014.6752,88.57459827057028
2016.2551,90.1448468219291
2017.8342,88.70636471055656
2019.4126,87.80925943767176
2020.9902,79.40363761742958
2022.5672,86.38960498589284
2024.1433,85.16726648508836
2025.7188,87.13672619314724
2027.2935,83.49808733652827
2028.8674,85.95145227032299
2030.4406,83.49692251464256
2032.0131,79.93459873008362
2033.5849,79.46458074227394
2035.1559,83.7369675774953
2036.7261,84.05185746738397
2038.2957,86.90934780620643
2039.8645,77.80953514771079
2041.4325,83.65251517655196
2042.9998,80.48838279928981
2044.5664,84.8172320859594
2046.1323,80.28915630171252
2047.6974,75.90424786352833
2049.2617,79.0125983854951
2050.8254,81.01429872265902
2052.3883,80.2594389399402
2053.9504,81.09810829211591
2055.5118,82.28039523136937
2057.0725,77.00638739890309
2058.6325,82.52617161311571
2060.1917,80.53983392234227
2061.7502,77.84745954965604
2063.3079,76.4991329127323
2064.8649,73.04493765077194
2066.4212,74.3849566379846
2067.9767,76.51927201813061
2069.5315,69.19796519112089
2071.0856,75.62111679167401
2072.6389,74.03880676252885
2074.1915,75.30111429021332
2075.7433,68.30811782086761
2077.2945,66.50989504762089
2078.8448,64.70652298052107
2080.3945,72.04807796451757
2081.9434,70.43463569749446
2083.4916,66.36627115685559
2085.039,61.14305861565839
2086.5857,68.81507168329796
2088.1317,69.03238335773904
2089.677,67.54506594879587
2091.2215,58.80319107595892
2092.7652,75.1568296832682
2094.3083,63.006052126731674
2095.8506,66.15092801078953
2097.3921,70.19152630982143
2098.933,67.37791533669815
2100.4731,74.61016270237513
2102.0124,66.23833534402905
2103.5511,71.8124994527351
2105.089,65.38272055718556
2106.6261,66.24906346794768
2108.1626,69.41159234176166
2109.6983,69.62037067287741
2111.2332,72.27546126142914
2112.7675,73.12692621134767
2114.301,64.57482690380914
2115.8337,68.96922398872056
2117.3657,69.36017747024067
2118.897,65.6977466628365
2120.4276,67.98199018737336
2121.9575,63.81296600773942
2123.4866,62.89073140800309
2125.0149,62.165343034103785
2126.5426,61.7868569030739
2128.0695,60.70532841029279
2129.5956,63.02081233327152
2131.1211,60.53336284246785
2132.6458,68.04303347813163
2134.1698,60.8498771751793
2135.693,53.30394618809743
2137.2155,62.905292162873934
2138.7373,52.5039662124575
2140.2584,59.00001882074406
2141.7787,61.69349994659029
2143.2983,55.18445895885259
2144.8171,59.4229446094526
2146.3353,59.20900509846746
2147.8527,51.392688031745024
2149.3693,59.02404042304329
2150.8853,57.90310877219383
2152.4005,54.22993898878775
2153.9149,52.30457640338528
2155.4287,57.97706580424767
2156.9417,54.99745145659034
2158.454,55.46577704585843
2159.9655,56.93208570752313
2161.4764,54.746420022397956
2162.9865,56.708822001975705
2164.4958,50.01933311028523
2166.0045,53.32799424426719
2167.5124,52.38484580066938
2169.0195,50.03992764295958
2170.526,50.04327911075745
2172.0317,54.044939043283534
2173.5367,50.24494577932575
2175.0409,48.89333711722304
2176.5445,54.790150352865
2178.0473,49.33542229320824
2179.5494,52.679189197308006
2181.0507,53.42148683086555
2182.5513,55.71235043279029
2184.0512,52.001814707777214
2185.5504,47.28991380339801
2187.0488,41.976681347206295
2188.5465,56.262150493856836
2190.0435,46.34635397823763
2191.5397,46.27932397261577
2193.0353,47.561092185794735
2194.5301,50.1916898637856
2196.0241,48.821147776988255
2197.5175,45.99949619388599
2199.0101,46.37676489475058
2200.502,49.70298319985909
2201.9931,48.52817996572139
2203.4835,39.852383551817525
2204.9733,49.02562183234568
2206.4622,44.897922282980346
2207.9505,43.21931188913999
2209.438,45.289817187263566
2210.9248,41.80946428159746
2212.4109,36.42827882348996
2213.8962,32.1462860461948
2215.3809,37.61351081868327
2216.8648,37.17997768846419
2218.3479,36.795710826911716
2219.8304,34.21073403359969
2221.3121,38.62507074014553
2222.7931,35.63874403605939
2224.2733,42.9517766246006
2225.7529,26.364190852641514
2227.2317,26.676008637536256
2228.7098,34.537251632997425
2230.1872,28.797941225977127
2231.6638,31.658098458055406
2233.1397,32.417744082832826
2234.6149,31.776898537329544
2236.0894,26.885581934388767
2237.5632,33.64381406908467
2239.0362,29.55161446763549
2240.5085,24.65900231982215
2241.9801,25.51599651990938
2243.4509,28.12261571557258
2244.921,30.578878299327187
2246.3904,24.234802382462703
2247.8591,21.39040577047996
2249.3271,29.74570602653148
2250.7943,23.05072049986586
2252.2608,26.505466242274736
2253.7266,28.359960075042864
2255.1917,15.61421855440085
2256.656,16.218257952979855
2258.1197,17.222094387269124
2259.5826,21.475743811575626
2261.0447,22.429222007984947
2262.5062,16.03254454382551
2263.9669,24.98572676213331
2265.4269,22.93878384561907
2266.8862,17.89173072713635
2268.3448,27.694582110151202
2269.8026,21.747352519212598
2271.2598,13.550056201923894
2272.7162,25.102707188415536
2274.1719,15.755319373317263
2275.6268,19.657906400232264
2277.0811,19.31048175521107
2278.5346,19.263058727724797
2279.9874,15.71565041414027
2281.4395,20.318269718193903
2282.8908,12.820929386466446
2284.3414,18.123641962355578
2285.7914,16.32641986105017
2287.2406,15.229275316502765
2288.689,19.332220399401706
2290.1368,19.585267028142766
2291.5838,21.08842692779956
2293.0302,18.79171162759303
2294.4758,20.195132445859997
2295.9206,13.548700513020549
2297.3648,19.0524267575434
2298.8082,16.456321972410592
2300.251,21.610396760079936
2301.693,17.26466155844639
2303.1343,20.919126589300845
2304.5748,15.673801901788124
2306.0147,18.128697335861887
2307.4538,18.18382257473786
2308.8922,15.039187120344877
2310.3299,15.194800292773493
2311.7669,10.750671261722573
2313.2031,17.006809044943225
2314.6387,12.813222552679917
2316.0735,17.76992052510917
2317.5076,15.676911574275437
2318.941,13.784204134523861
2320.3737,9.841806483430673
2321.8056,9.549726760730152
2323.2369,9.807973007738838
2324.6674,14.566553170275881
2326.0972,14.575475096080709
2327.5263,20.98474648722771
2328.9547,14.644374900036496
2330.3823,13.854367680979408
2331.8092,22.014732030085213
2333.2355,16.07547500883919
2334.661,14.986603458579282
2336.0858,14.798124059889062
2337.5098,6.010043343486188
2338.9332,10.372367692107161
2340.3558,10.435103428388288
2341.7778,8.748256771242552
2343.199,12.31183383523205
2344.6195,8.075840647436564
2346.0393,9.840283111818053
2347.4583,11.055167051580042
2348.8767,6.320498191523541
2350.2943,9.83628214589794
2351.7113,19.152524465747717
2353.1275,11.119230603755
2354.543,10.986405821076858
2355.9578,9.804055267677938
2357.3718,12.52218398365909
2358.7852,11.590796911080645
2360.1978,10.859898866781464
2361.6098,12.479494551692255
2363.021,14.399588558144899
2364.4315,9.720185353676527
2365.8413,13.141289261828376
2367.2504,14.31290450894005
2368.6587,10.785035189938185
2370.0664,8.60768525662047
2371.4733,9.480858552934308
2372.8795,13.904558836750653
2374.285,18.078789771131596
2375.6899,13.803554880094225
2377.0939,12.228857506867655
2378.4973,15.554700856645809
2379.9,11.981088012333885
2381.3019,15.25802190129042
2382.7032,10.235505331063052
2384.1037,8.463540956619397
2385.5035,15.642131330572056
2386.9027,12.17127892089843
2388.3011,9.850986039154634
2389.6987,5.881254875184254
2391.0957,2.7120875203209494
2392.492,7.443486007086108
2393.8876,8.875452340880315
2395.2824,6.057988452669463
2396.6765,6.041096184665037
2398.07,2.524777318498707
2399.4627,12.059033575391254
2400.8547,1.943866651316057
2402.246,6.829278121655932
2403.6366,2.2652501425660603
2405.0265,3.3017648019088597
2406.4156,7.388804164894623
2407.8041,1.8263502637160514
2409.1918,7.814385056678077
2410.5789,3.7528904838222275
2411.9652,5.4918484070464615
2413.3508,5.681240650719644
2414.7358,1.721048984292679
2416.12,2.261255120403746
2417.5035,2.3518407544810884
2418.8863,0.5927875593402518
2420.2684,5.684077184278749
2421.6497,4.875685356646159
2423.0304,3.1175877469514717
2424.4104,3.0097599769470094
2425.7896,6.352177637209081
2427.1682,3.9448162882168276
2428.546,3.9376514269276868
2429.9232,2.080658510850924
2431.2996,4.8238129581196745
2432.6753,4.36709016606045
2434.0503,3.2604654837620046
2435.4246,2.753914216642272
2436.7982,3.697411637514847
2438.1711,4.590932991654256
2439.5433,2.5344534873613043
2440.9148,-0.2720517129725408
2442.2856,4.9713925276999475
2443.6557,1.1147640642224133
2445.025,3.5080407017247808
2446.3937,9.501200234189639
2447.7617,2.4942204205190706
2449.1289,1.5870789246035883
2450.4955,5.079753385391314
2451.8613,4.1222214259599355
2453.2265,-0.8855393814104673
2454.5909,4.05644849433844
2455.9546,6.148171430803131
2457.3177,3.5896157650158216
2458.68,3.630767772527122
2460.0416,4.5716136929916615
2461.4025,3.1121397297565068
2462.7627,3.5023320404525293
2464.1222,6.792176751589409
2465.4811,6.981659954653537
2466.8392,4.720767673209878
2468.1966,6.359485861006647
2469.5533,11.89780042458466
2470.9093,6.485697206889938
2472.2645,12.973161931890616
2473.6191,7.810180258697812
2474.973,11.796737716691325
2476.3262,8.282819757149298
2477.6787,9.318411713382716
2479.0305,2.1534988358742453
2480.3816,10.888066281922761
2481.7319,11.82209918729194
2483.0816,10.505582578865074
2484.4306,10.788501365304569
2485.7789,14.620840350217065
2487.1264,16.752584229324043
2488.4733,8.93371755213903
2489.8195,11.114224700649487
2491.165,11.44408996750613
2492.5097,11.473297534217522
2493.8538,11.001831467851446
2495.1972,11.979675720742762
2496.5398,13.356814135208197
2497.8818,11.833230433767909
2499.2231,10.758908205374041
2500.5637,14.63383092064663
2501.9035,16.00798194261654
2503.2427,11.381344487976634
2504.5812,10.603901613340184
2505.919,15.375636261507026
2507.256,21.646531269238125
2508.5924,11.81656931953819
2509.9281,12.835732878946828
2511.2631,15.454004295838018
2512.5974,12.321365790228668
2513.9309,10.337799427595627
2515.2638,16.853287150202334
2516.596,16.41781079693439
2517.9275,12.631352038144428
2519.2583,14.993892380007168
2520.5884,6.605413202383886
2521.9178,9.665895735197125
2523.2465,13.425321142315397
2524.5745,12.983670490948356
2525.9018,12.340924714052392
2527.2284,18.047064614747512
2528.5543,17.60207087274452
2529.8796,18.355923987283717
2531.2041,16.20860428158494
2532.5279,14.16009189530891
2533.851,18.11036680603047
2535.1735,12.459408849723644
2536.4952,18.557197681258884
2537.8163,15.953712830912593
2539.1366,12.798933643389319
2540.4562,18.692839303856488
2541.7752,16.58540886949234
2543.0935,16.176621210546728
2544.411,14.966455031415705
2545.7279,18.854888874729056
2547.0441,18.64190113345228
2548.3596,16.2274700120021
2549.6744,16.311573528376385
2550.9885,19.444189538298417
2552.3019,13.625295734375896
2553.6146,15.504869614774776
2554.9266,17.332888541408096
2556.2379,10.909329721140239
2557.5485,14.634170187506754
2558.8585,15.157386864949899
2560.1677,15.77895653157043
2561.4762,11.748855813895176
2562.7841,16.867061180661523
2564.0913,18.883548983118345
2565.3977,23.398295403843974
2566.7035,17.611276436581363
2568.0086,24.122467841090554
2569.313,22.231845201018757
2570.6167,20.58938385878872
2571.9197,17.645058934504817
2573.222,22.148845342377626
2574.5236,25.500717820167353
2575.8246,19.750650884145614
2577.1248,23.048618795577056
2578.4244,20.39459561821988
2579.7232,28.2385551853462
2581.0214,20.580471126282276
2582.3189,25.97031678796901
2583.6157,27.00806531154271
2584.9118,28.543689578436613
2586.2072,23.627162200003397
2587.5019,30.308455502159006
2588.7959,25.68754157454771
2590.0893,25.71439220372943
2591.3819,30.888978919388762
2592.6739,26.16127299406631
2593.9652,32.531245391412995
2595.2557,30.998866813467004
2596.5456,32.21410763695417
2597.8348,37.676937928611835
2599.1234,36.58732743303639
2600.4112,37.795245518054884
2601.6983,38.2006611856213
2602.9848,39.853543059737234
2604.2705,42.75385938239796
2605.5556,43.70157799706331
2606.84,36.99666631965471
2608.1237,38.139091329077786
2609.4067,35.978819634271645
2610.689,41.31581746278445
2611.9707,38.55005068237631
2613.2516,34.33148474764917
2614.5319,39.560084727704606
2615.8115,35.78581534832938
2617.0903,37.608640939709545
2618.3685,36.8785254741731
2619.6461,37.995432547961684
2620.9229,30.609325388531687
2622.199,31.920166843385203
2623.4745,36.07791945393129
2624.7493,35.78254544237734
2626.0234,34.284006670151655
2627.2968,37.58226464085726
2628.5695,33.8772805152571
2629.8415,37.96901507829162
2631.1128,35.0574287761286
2632.3835,33.542481675245824
2633.6535,38.77413349154665
2634.9228,36.652343605509856
2636.1914,32.627071009872935
2637.4593,39.34827433084999
2638.7265,37.9159118683846
2639.9931,33.52994152893774
2641.259,39.09032083981131
2642.5242,38.09700699300791
2643.7887,36.499956789626964
2645.0525,37.649126649797864
2646.3156,36.34447262865058
2647.5781,37.035950404823836
2648.8398,35.67351529351171
2650.1009,28.957122239548795
2651.3613,32.33672583103464
2652.6211,30.762280366497578
2653.8801,35.483739821098794
2655.1385,31.401057862376746
2656.3961,32.96418780303247
2657.6531,31.423082641756736
2658.9094,30.227695047598473
2660.1651,29.027977375375997
2661.42,30.223881677630686
2662.6743,31.915359716624266
2663.9279,34.90236295237975
2665.1808,33.68484252576664
2666.433,40.26274922863092
2667.6846,37.08603351597026
2668.9354,40.254645440154945
2670.1856,41.56853468269503
2671.4351,41.07765052255411
2672.6839,41.88194182301066
2673.9321,44.131357036566726
2675.1795,46.62584419690498
2676.4263,47.765350896394665
2677.6724,48.699824261146716
2678.9179,52.4292109396186
2680.1626,49.8534570932697
2681.4067,46.87250835926733
2682.6501,46.436309876244394
2683.8928,46.94480631410872
2685.1348,43.747941878405214
2686.3761,39.945660305230746
2687.6168,41.6879048932029
2688.8568,36.4746185414827
2690.0961,31.705743732352175
2691.3348,37.631222583347125
2692.5727,37.65099689494616
2693.81,32.21500809131564
2695.0466,33.52319722011205
2696.2826,30.475505006841956
2697.5178,34.42187184178002
2698.7524,34.7122378104458
2699.9863,36.096542654140364
2701.2195,37.52472576704238
2702.452,37.44672618236518
2703.6839,41.26248255807488
2704.9151,34.87193317767034
2706.1456,44.87501591202579
2707.3755,46.871668283296174
2708.6046,45.06182736488651
2709.8331,48.99542976148521
2711.0609,49.17241162716249
2712.2881,53.99270862603444
2713.5145,54.956255930493114
2714.7403,54.71298817300348
2715.9654,61.76283943646803
2717.1899,66.10574325665948
2718.4136,63.69163255172228
2719.6367,76.17043957874338
2720.8591,80.6420959578937
2722.0809,80.60653254763963
2723.3019,83.86367940002688
2724.5223,88.1134657610358
2725.7421,88.50582003800997
2726.9611,84.6906697571585
2728.1795,83.71794155963241
2729.3972,78.73756123967595
2730.6142,69.44945375435415
2731.8306,65.30354327335641
2733.0462,52.499753271877694
2734.2612,56.488006572077694
2735.4756,48.51822547111857
2736.6892,52.09033170128254
2737.9022,49.254246509669656
2739.1145,50.50989062247669
2740.3262,46.757184273358064
2741.5372,42.84604719086926
2742.7475,32.97639863599406
2743.9571,33.348157441255864
2745.1661,27.76124210941404
2746.3744,28.465570809746538
2747.582,26.21106143391893
2748.7889,27.347631588941255
2749.9952,20.025198619713024
2751.2008,21.793679597657587
2752.4057,16.752991393946274
2753.61,15.70305066181379
2754.8136,13.043773886964857
2756.0165,16.175077398073824
2757.2188,12.34687739337727
2758.4204,13.559089909361234
2759.6213,18.311630859043078
2760.8215,15.004416019849174
2762.0211,15.937360986089828
2763.22,14.760381202031141
2764.4182,12.92339195256585
2765.6158,11.476308374982892
2766.8127,6.569045477337397
2768.009,9.50151815292142
2769.2045,8.573641229336687
2770.3994,6.485329439169789
2771.5936,3.2364974292708837
2772.7872,3.027059781637007
2773.9801,5.806931045900114
2775.1723,2.7760257414217335
2776.3639,-0.7657416705057187
2777.5548,-7.218456756350093
2778.745,-0.882197432819936
2779.9346,-2.556969504240982
2781.1235,-5.592769961786615
2782.3117,-5.38957025250491
2783.4992,-0.4972859516720689
2784.6861,-3.11577879275751
2785.8723,-1.29490554134415
2787.0579,-2.1344918363847114
2788.2428,-3.234350380725715
2789.427,-5.34427255364028
2790.6106,-1.6140174232413074
2791.7935,-1.6932906683589977
2792.9757,1.6182181562105882
2794.1573,0.770836411645007
2795.3382,-2.8851085570602493
2796.5184,1.2007105873819626
2797.698,0.6286500044931245
2798.8769,1.7490658417875977
2800.0551,2.0123142404934526
2801.2327,1.9687513243482044
2802.4096,1.5187331969663092
2803.5859,2.762615942274806
2804.7615,11.45075562901323
2805.9364,7.183508298295266
2807.1106,10.961229876726975
2808.2842,13.084276219079499
2809.4572,15.4030030705118
2810.6294,14.917766045340187
2811.801,27.57892060385103
2812.972,29.386822057153296
2814.1423,38.841825440566595
2815.3119,40.6942854955426
2816.4808,57.09455657511472
2817.6491,67.09299262537365
2818.8167,80.13994702146462
2819.9837,92.83577246760294
2821.15,113.98082086660474
2822.3157,140.87544319292834
2823.4807,170.369989281224
2824.645,203.5648075573875
2825.8086,234.86024474361483
2826.9716,270.75664552645395
2828.134,307.90435224385055
2829.2957,335.9537045261839
2830.4567,350.70503892478985
2831.617,380.55868863146736
2832.7767,383.0649833309649
2833.9358,389.6242489024444
2835.0941,387.33680739441786
2836.2519,370.6529769591548
2837.4089,358.023071875557
2838.5653,344.4974027159962
2839.7211,331.02627647261386
2840.8761,305.9099966925772
2842.0306,311.0488636127909
2843.1843,301.9931744110597
2844.3374,310.44322315470015
2845.4899,319.0993008910965
2846.6417,326.41169556320136
2847.7928,331.88069192297394
2848.9433,339.05657145825694
2850.0931,345.3396123380861
2851.2422,341.73008934093116
2852.3907,347.8282737918665
2853.5385,346.18443359866524
2854.6857,349.4988331908181
2855.8323,361.2217335359714
2856.9781,364.3533921067832
2858.1233,371.29406276369446
2859.2679,383.6439957236122
2860.4118,403.65343749050277
2861.555,417.4226307318929
2862.6976,437.1518140787748
2863.8395,445.1412219879145
2864.9808,459.49108454456007
2866.1214,460.4516273825474
2867.2614,469.8230715408017
2868.4007,474.555633453732
2869.5393,496.5995248575167
2870.6773,492.30495274277763
2871.8146,499.52211913414203
2872.9513,516.5512211331871
2874.0874,521.3424508462696
2875.2227,533.8959952142336
2876.3574,549.412035964499
2877.4915,550.6407494855256
2878.6249,565.3823066716533
2879.7577,579.1368729108142
2880.8898,576.1046079371173
2882.0212,591.2356656933031
2883.152,600.1301943610662
2884.2821,611.6383362097447
2885.4116,621.4102275073748
2886.5405,637.995998405609
2887.6686,644.9957728419984
2888.7962,647.5096683741335
2889.923,643.0377961096472
2891.0493,639.6302606810762
2892.1748,634.037160290579
2893.2997,631.4585867440115
2894.424,636.5946255068584
2895.5476,631.8453557300185
2896.6706,636.6608501984441
2897.7929,646.2911753786344
2898.9145,635.1363913704802
2900.0355,628.2965518109602
2901.1559,630.4717039856902
2902.2756,628.8618888973197
2903.3946,621.6171412437816
2904.513,610.3374894343899
2905.6308,612.9729556622875
2906.7479,610.5735560172423
2907.8643,604.1893004592926
2908.9801,608.9201928427415
2910.0953,596.9162309799991
2911.2098,595.5274065942737
2912.3236,599.353705439611
2913.4368,600.8451073147831
2914.5494,595.5015860250251
2915.6613,590.4231093671207
2916.7725,582.1096391828387
2917.8831,569.9611314097161
2918.9931,557.1275361641943
2920.1024,542.658797863103
2921.211,540.1048553519968
2922.319,531.0156420498424
2923.4264,516.6410859745583
2924.5331,522.7311098339063
2925.6391,511.08563116923773
2926.7445,506.75456229459303
2927.8493,514.787810413156
2928.9534,515.8352776605655
2930.0569,519.8968610245814
2931.1597,523.172452334612
2932.2619,537.4119382210965
2933.3634,541.7652000827496
2934.4643,551.2821139441669
2935.5645,556.1625504122919
2936.6641,561.9063745812473
2937.763,572.9634459835302
2938.8613,573.0336185325737
2939.959,568.5167404121771
2941.056,562.4626540758034
2942.1523,532.321196291748
2943.248,504.2421982036807
2944.3431,466.3754856320585
2945.4375,444.220879354917
2946.5313,415.57819548653686
2947.6244,379.3472456989903
2948.7169,341.5778375085672
2949.8087,326.4697746380852
2950.8999,293.32285739458376
2951.9904,271.8868828204047
2953.0803,250.1116450246613
2954.1696,229.196935397598
2955.2582,217.14254282834284
2956.3462,208.34825391405468
2957.4335,204.6138530804668
2958.5202,202.23912266983024
2959.6062,205.57384297825735
2960.6916,204.36779227946948
2961.7764,201.77074679144968
2962.8605,205.18248068850303
2963.9439,207.05276612722727
2965.0267,206.98137321239537
2966.1089,203.16806997825284
2967.1905,200.6626223892315
2968.2714,193.11479437808248
2969.3516,189.47434787093079
2970.4312,187.89104286275364
2971.5102,188.4146374537848
2972.5885,191.84488786534783
2973.6662,189.58154843461983
2974.7432,190.9243715803291
2975.8196,198.17310782538848
2976.8954,197.4275057834674
2977.9705,198.13731208650418
2979.045,198.30227139216217
2980.1188,201.02212637673173
2981.192,198.74661773348055
2982.2645,185.87548414545512
2983.3364,188.80846230823582
2984.4077,177.2952870586483
2985.4783,171.68569134543367
2986.5483,153.37940634438024
2987.6177,149.22616151441935
2988.6864,145.67568478068858
2989.7545,137.02770257606383
2990.8219,129.23193987666417
2991.8887,120.03812028833178
2992.9548,116.29596612458946
2994.0204,94.30519849857882
2995.0852,87.26553736048191
2996.1495,79.12670171742894
2997.2131,72.08840970389465
2998.276,60.00037866308702
2999.3383,48.262325217329845
3000.4,46.12396538894325
3001.4611,34.335014717624176
3002.5215,32.79518828183001
3003.5812,28.104200816667998
3004.6404,23.761766729293655
3005.6989,15.867600145820447
3006.7567,16.421414954744264
3007.8139,12.172924885884967
3008.8705,6.321843504848317
3009.9264,10.817884255510947
3010.9818,3.3607605185310945
3012.0364,3.250185566388282
3013.0905,-0.06412736204551095
3014.1439,-0.9824650604001164
3015.1966,-1.2551136816730804
3016.2487,-3.8323495640360363
3017.3002,1.7355634929250527
3018.3511,-0.6516000252037628
3019.4013,-2.6440656501919477
3020.4509,-4.942052404324812
3021.4998,-0.3457528956718363
3022.5481,-0.5053103611989229
3023.5958,-4.620864583800682
3024.6428,-5.192550298321208
3025.6892,-1.4204560771674863
3026.735,-2.3546186191690595
3027.7802,-0.4950604327993773
3028.8247,-4.141780503891852
3029.8685,5.655227127373749
3030.9118,6.0460097972048175
3031.9544,6.18061478525658
3032.9963,2.709089310724238
3034.0376,5.38148053099691
3035.0783,8.047835576372819
3036.1184,4.258201523335444
3037.1578,6.762625367889925
3038.1966,8.311154063459384
3039.2348,7.503834495840664
3040.2723,12.690713467719192
3041.3092,9.071837706742087
3042.3455,13.747253813649323
3043.3811,17.91700829846262
3044.4161,13.331147533731254
3045.4505,10.589717712834371
3046.4842,13.892764895839775
3047.5173,16.990335036918125
3048.5498,21.032473951312525
3049.5816,19.46922728436273
3050.6128,22.90064047108386
3051.6434,26.476758751798698
3052.6734,22.847627137823807
3053.7027,27.263290375708067
3054.7314,28.12379298352424
3055.7594,25.929179206712163
3056.7868,26.779493009473796
3057.8136,27.624778096719396
3058.8398,29.515077905564254
3059.8653,31.60043559687601
3060.8902,34.53089403637148
3061.9145,34.556495773763274
3062.9381,33.827283013455
3063.9612,45.24329761428544
3064.9835,40.45458109682053
3066.0053,46.16117452919333
3067.0264,43.413118574991046
3068.0469,49.81045343618926
3069.0668,45.45321888063235
3070.086,43.691454178060255
3071.1046,43.12519814368068
3072.1226,45.05448915578688
3073.1399,35.57936516142016
3074.1567,38.0498636570769
3075.1727,41.316021783459874
3076.1882,36.12787630077321
3077.203,34.28546355606092
3078.2173,38.538819535088294
3079.2308,32.73797988076598
3080.2438,32.732979850616445
3081.2561,24.5738543747824
3082.2678,25.010638056076786
3083.2789,22.29336525157406
3084.2893,19.9220700682423
3085.2991,20.24678639011598
3086.3083,21.417547902008863
3087.3169,21.234388086266925
3088.3248,20.247340211060674
3089.3321,20.006437332216784
3090.3388,17.711712303088532
3091.3449,13.463197776964904
3092.3503,18.360926230017775
3093.3551,17.254930003787088
3094.3593,17.695241256203566
3095.3629,15.831891972648592
3096.3658,15.064913961551191
3097.3681,16.444338873021515
3098.3698,18.070198206520566
3099.3708,11.492523297065993
3100.3713,14.061345298973471
3101.3711,13.626695251633429
3102.3702,10.938604053822871
3103.3688,14.047102468051875
3104.3667,15.352221147444517
3105.364,11.303990604653876
3106.3607,11.902441198810827
3107.3568,13.397603176006399
3108.3522,8.389506663307188
3109.347,8.428181653803797
3110.3412,11.013658056691796
3111.3348,11.245965696884959
3112.3277,12.775134289160476
3113.32,11.201193435835926
3114.3117,9.87417261147754
3115.3028,13.294101178639643
3116.2932,10.461008401134869
3117.2831,8.824923409834845
3118.2723,10.635875231001123
3119.2608,8.393892802646029
3120.2488,11.199004956423153
3121.2361,8.351240440047185
3122.2229,7.0006278892427645
3123.209,8.497195856222163
3124.1944,6.590972823191393
3125.1793,7.431987187384522
3126.1635,6.42026728012592
3127.1471,7.955841358420081
3128.1301,4.438737615068838
3129.1125,7.268984163315636
3130.0942,7.3966090720165525
3131.0753,11.17164033733787
3132.0558,8.594105881479756
3133.0357,8.064033514926017
3134.015,6.881450962219404
3134.9936,4.046385867262337
3135.9716,9.708865805142757
3136.949,8.068918310484776
3137.9258,9.576570820823832
3138.902,9.131850693006243
3139.8775,7.334785188112598
3140.8524,7.035401475905012
3141.8267,10.433726652797766
3142.8004,7.779787744851152
3143.7735,11.123611673788176
3144.7459,6.915225283534028
3145.7178,8.80465530677779
3146.689,12.041928407056304
3147.6596,9.127071159859852
3148.6295,9.810110020259472
3149.5989,9.041071352055482
3150.5676,8.869981420947123
3151.5357,10.89686640222294
3152.5032,9.321752382471676
3153.4701,9.44466533931341
3154.4364,7.715631157150703
3155.402,9.034675625939482
3156.367,7.351824458479381
3157.3315,7.517103277223292
3158.2952,12.83053763110588
3159.2584,10.892152993890775
3160.221,14.051974711036234
3161.1829,11.610028019079
3162.1442,11.566338014036056
3163.105,10.37092967582413
3164.065,11.723827868696581
3165.0245,9.125057353197473
3165.9834,9.274642772632596
3166.9416,10.522608679057171
3167.8993,10.518979531780015
3168.8563,13.863779684883841
3169.8127,14.107033387261609
3170.7684,14.048764749168477
3171.7236,12.988997739789294
3172.6782,12.727756187821242
3173.6321,13.765063792071551
3174.5854,15.050944124069883
3175.5381,11.93542061769529
3176.4902,7.7185165563173825
3177.4417,12.450255103951587
3178.3926,13.230659347428155
3179.3428,14.409752249074817
3180.2924,13.837556638912709
3181.2415,13.714095202865456
3182.1899,14.239390488481137
3183.1377,13.96346490616688
3184.0848,15.286340723935913
3185.0314,13.508040070166823
3185.9773,13.878584920374797
3186.9227,14.647997114994627
3187.8674,15.066298355675265
3188.8115,15.28351019758569
3189.755,16.69965404523191
3190.6979,16.064751150284813
3191.6402,16.378822597418765
3192.5818,15.141889310660613
3193.5229,18.203972050248968
3194.4633,16.215091425003564
3195.4031,17.47526786170442
3196.3423,15.084521624980631
3197.2809,20.342872804708634
3198.2189,19.40034133991966
3199.1563,19.306946966216206
3200.0931,16.912709225197368
3201.0292,19.617647465392785
3201.9648,15.321780866205005
3202.8997,18.475128410860123
3203.834,16.777708929366415
3204.7677,18.7795410669809
3205.7008,18.7306433011835
3206.6333,18.281033921658725
3207.5652,19.830731030784662
3208.4964,19.179752548129052
3209.4271,18.52811619495231
3210.3571,19.02583950071736
3211.2865,17.722939809605947
3212.2154,18.869434275541437
3213.1436,20.565339875217802
3214.0712,21.360673396634667
3214.9982,18.755451422138275
3215.9246,19.249690320468115
3216.8503,21.993406272809178
3217.7755,21.586615267849545
3218.7001,21.529333074343235
3219.624,21.171575245178143
3220.5473,22.16335711794882
3221.4701,24.254693818534065
3222.3922,21.54560025117912
3223.3137,22.48609107758229
3224.2346,20.92618074398587
3225.1549,22.26588347177125
3226.0746,23.305213273058005
3226.9937,21.794183937306872
3227.9121,25.73280902092646
3228.83,25.421101862383534
3229.7473,23.90907554281676
3230.6639,24.946742889153786
3231.5799,24.484116489231496
3232.4954,24.271208681419346
3233.4102,27.35803155924563
3234.3244,24.694596973526565
3235.238,22.53091650149802
3236.151,23.0670014734499
3237.0634,23.952862994362935
3237.9752,27.388511938547843
3238.8864,25.773958940786724
3239.797,25.15921436197653
3240.7069,28.794288305274648
3241.6163,27.379190622246306
3242.5251,26.863930876513834
3243.4332,22.99851835790767
3244.3408,26.98296208761893
3245.2477,25.66727085685354
3246.154,29.001453186987796
3247.0598,27.48551734272528
3247.9649,27.719471298755053
3248.8694,23.90332275491098
3249.7733,25.637079133832234
3250.6766,26.520747619124727
3251.5793,27.90433513802358
3252.4814,27.28784835255645
3253.3829,27.371293645707617
3254.2838,26.804677127582906
3255.1841,29.03800463457516
3256.0838,31.77128173503047
3256.9829,29.304513706914868
3257.8814,29.637705510481567
3258.7792,29.37086181293865
3259.6765,29.75398698511713
3260.5731,26.337085104139394
3261.4692,29.270159949587956
3262.3647,26.153215037674492
3263.2595,27.23625359190904
3264.1538,29.0192785742695
3265.0474,27.552292674371216
3265.9404,28.78529829163675
3266.8329,33.71829754996572
3267.7247,30.20129228540476
3268.616,27.884283996817533
3269.5066,31.167273881054758
3270.3966,30.350262856124324
3271.286,30.28325152836137
