RamanShift,CorrectedData
30.1047,2022.2806690587336
32.3739,1886.8024808216142
34.6426,1747.8742723616874
36.9109,1609.7960045881225
39.1787,1475.9176209313443
41.4461,1336.5890487238185
43.7131,1202.8102005388328
45.9796,1065.5309755837845
48.2456,931.3012610379677
50.5112,801.7209334253656
52.7764,664.0898599569495
55.0411,525.2078998264799
57.3054,392.574905586819
59.5692,261.7907245387497
61.8326,128.15520005730582
64.0955,-1.9318271003863856
66.3579,-130.6705174587523
68.6199,-254.66101224326485
70.8815,-362.85214728092757
73.1426,-419.990214335232
75.4032,-347.7678802767184
77.6634,44.876383726313406
79.9231,1170.0075807066878
82.1824,3790.1907132484653
84.4412,8631.64077223563
86.6995,15413.37271065026
88.9574,22059.751395158033
91.2148,26614.691538290885
93.4717,28674.50763198326
95.7282,29139.263902022663
97.9842,28956.074287451545
100.2398,28323.70243591971
102.4949,27614.511705516223
104.7495,26728.865171093123
107.0036,25749.925631357335
109.2573,24932.45561772713
111.5105,24067.067404121528
113.7632,23228.373015134992
116.0154,22546.784234691313
118.2672,21990.16261443056
120.5185,21410.269480524945
122.7693,20958.31593924507
125.0197,20606.762882758845
127.2696,20164.670993651016
129.519,19917.750748438702
131.7679,19564.062421992316
134.0163,19307.666090004772
136.2642,18971.621632528346
138.5117,18642.13873653868
140.7587,18316.376899295185
143.0052,17985.895431635887
145.2512,17619.253461235057
147.4967,17240.909935908006
149.7417,16954.723627277508
151.9863,16728.753134557242
154.2304,16555.60688741366
156.4739,16276.543148225675
158.717,16124.470013816146
160.9596,15824.345418242494
163.2017,15465.027134317446
165.4433,15059.82277661028
167.6844,14616.08980504
169.925,14207.685528927388
172.1651,13704.117111432326
174.4047,13343.291573637842
176.6439,12929.2157995858
178.8825,12606.846539885144
181.1206,12336.54041585268
183.3582,12067.953922736739
185.5954,11834.043432420245
187.832,11644.015196106588
190.0681,11537.675346658736
192.3037,11369.729900499497
194.5388,11270.084758674933
196.7734,11200.04570853382
199.0075,11223.268424724078
201.2411,11293.058469893176
203.4742,11245.121294455901
205.7068,11318.962235896459
207.9389,11298.93651924786
210.1704,11374.44925635348
212.4015,11347.105446067346
214.632,11451.809973498981
216.862,11551.167610286871
219.0915,11596.7330135514
221.3205,11706.910724901281
223.549,11827.0051699779
225.777,12035.47065735354
228.0044,12281.211377330439
230.2314,12618.481399856122
232.4578,12920.58467206601
234.6837,13179.425014910717
236.909,13258.406120135007
239.1339,13145.431547689406
241.3582,12864.154724940385
243.582,12414.828947800104
245.8053,12026.557383539179
248.0281,11610.643075279942
250.2503,11313.738945879153
252.472,11095.697802087156
254.6932,11003.2723375169
256.9139,10805.465134824371
259.134,10722.378666632849
261.3536,10653.015297510952
263.5727,10701.827284803518
265.7912,10546.816779325238
268.0092,10523.78582487253
270.2267,10428.53635977365
272.4436,10334.220217119004
274.6601,10164.48912571363
276.8759,9995.394711020377
279.0913,9873.538496857202
281.3061,9731.571907088133
283.5204,9733.796266841813
285.7341,9722.312803931174
287.9473,9810.672648831183
290.16,9917.776834793702
292.3721,10140.876296963857
294.5837,10458.621871309033
296.7947,10720.714292387838
299.0052,10826.304190172677
301.2152,10612.642087428807
303.4246,10235.628398658451
305.6334,9634.963432237422
307.8418,9060.247394185259
310.0495,8546.080394171877
312.2568,8155.612451264713
314.4635,7845.593499070423
316.6696,7663.97338963953
318.8752,7534.55189656664
321.0802,7531.378716806632
323.2847,7535.603471968872
325.4887,7500.775708348943
327.692,7356.5448968863875
329.8949,7207.1604335130105
332.0972,6861.421640595156
334.2989,6551.477768427583
336.5001,6193.427998690848
338.7007,5939.071447550716
340.9008,5789.25716923869
343.1003,5622.434158595561
345.2992,5518.951352569557
347.4976,5391.057631884571
349.6955,5329.451822074987
351.8927,5354.232694764614
354.0895,5231.1989682827625
356.2856,5259.049307416417
358.4812,5155.282324640581
360.6763,5172.74657983977
362.8707,5078.540581345691
365.0646,5063.762785762599
367.258,4990.161598909355
369.4508,4946.68537596719
371.643,4993.882422215735
373.8346,4905.60099346776
376.0257,4867.339295597225
378.2162,4737.395485422074
380.4062,4590.517671086865
382.5956,4395.05391336221
384.7844,4255.852227113563
386.9726,4111.860583255851
389.1603,3996.7269101454913
391.3474,3885.149095020297
393.5339,3829.9749851508204
395.7199,3716.6023889561293
397.9052,3714.77907655554
400.09,3636.9527809023457
402.2743,3677.7211978020714
404.4579,3726.8819866907106
406.641,3847.1827702270493
408.8235,4013.5211338010595
411.0054,4237.694624330885
413.1868,4648.550748599475
415.3675,4891.036971012836
417.5477,5056.800709491465
419.7273,5024.339333045507
421.9064,4850.100160117108
424.0848,4678.980458905025
426.2627,4430.277449107012
428.4399,4101.588303631026
430.6166,3692.0601510822744
432.7928,3265.8400790500928
434.9683,2942.7251382032227
437.1432,2705.6123465520104
439.3176,2488.248692679561
441.4914,2330.4311381128573
443.6645,2304.106619496404
445.8371,2185.922050170393
448.0091,2054.0243204339567
450.1806,1986.5602987270067
452.3514,1858.5268329492355
454.5216,1847.8707511347238
456.6913,1735.1888627322915
458.8603,1738.4779587120538
461.0288,1757.7348126922334
463.1967,1750.1561809062914
465.3639,1842.8388020103412
467.5306,1869.279397158938
469.6967,2014.924669078253
471.8622,2114.7213018016846
474.0271,2197.365959213399
476.1914,2229.9052840503573
478.3551,2200.7358970758614
480.5182,2190.2543967541715
482.6807,2159.507359542218
484.8426,2270.3413399943674
487.0039,2570.952871069945
489.1647,2939.938463024868
491.3248,3345.544600405534
493.4843,3470.417738358974
495.6432,3448.1542985767665
497.8015,3288.3506680463433
499.9592,3298.753199273582
502.1163,3167.1082118808736
504.2728,2921.511992503085
506.4287,2610.760796104005
508.5839,2210.300848432311
510.7386,1849.378349129085
512.8927,1663.739475732411
515.0461,1523.4303872865785
517.199,1499.0472261985087
519.3512,1491.4361196408026
521.5029,1586.3431797956182
523.6539,1628.1645039307405
525.8043,1686.3961734505247
527.9541,1678.484253477709
530.1033,1631.4247922710565
532.2519,1635.8138213045058
534.3999,1708.3973557377758
536.5472,1960.1213943724433
538.694,2402.0819189261274
540.8401,2943.474891515227
542.9856,3391.046250235355
545.1305,3499.441903747371
547.2748,3401.6577268016954
549.4185,3008.289559154324
551.5615,2650.833206544692
553.704,2530.6844446293435
555.8458,2494.8390225565054
557.987,2536.892664167546
560.1276,2513.9910683554735
562.2675,2542.079908644373
564.4069,2611.6048334184234
566.5456,2648.8114656410216
568.6837,2590.3954021595346
570.8212,2233.502213333213
572.958,1874.8274436173633
575.0942,1582.3166151322912
577.2299,1358.7152312500293
579.3648,1297.9187795194703
581.4992,1314.3727339023317
583.6329,1505.4725553811732
585.766,1714.8636917948243
587.8985,1829.441575927398
590.0304,1809.8516234143754
592.1616,1733.1892315968253
594.2922,1632.2497797173019
596.4222,1438.3286296864717
598.5515,1269.5711270925203
600.6802,1115.4226031403487
602.8083,938.228376339157
604.9358,861.6837540439265
607.0626,843.7340342273747
609.1888,760.2245062453694
611.3144,731.6004510164785
613.4393,652.6071418570173
615.5636,549.2898447673288
617.6873,470.29381922169705
619.8103,458.91431920150353
621.9327,343.94659398521617
624.0544,306.9858882621629
626.1756,253.47744328222325
628.2961,193.66649722541115
630.4159,131.14828573699924
632.5351,114.96804252559741
634.6537,82.07099998832928
636.7716,84.30238937265676
638.8889,66.35744110531232
641.0056,119.53138477003813
643.1216,99.0694492869734
645.237,143.11686238099355
647.3518,104.26885078626219
649.4659,142.42063980580133
651.5793,117.61745369996788
653.6922,68.85451530492719
655.8043,82.52704628068022
657.9159,104.88026759867716
660.0268,1.8093994051159825
662.137,-31.140339202600444
664.2466,-40.52374720297303
666.3556,-29.34531248251733
668.4639,-90.55911809551617
670.5716,-38.46895393658997
672.6786,46.87229478522204
674.785,101.96212716571608
676.8907,124.94804183198721
678.9958,225.5275363915316
681.1002,177.04810720237947
683.204,169.90724836727895
685.3072,128.4024522185391
687.4097,33.68120938937136
689.5115,38.04100922897851
691.6127,24.87934074975783
693.7132,-47.056307416300115
695.8131,-31.018446885980666
697.9123,-42.40911918358688
700.0109,-54.5800559591371
702.1089,-72.53256519555725
704.2061,-62.66740962101903
706.3028,-27.384627363371692
708.3987,9.066369496948028
710.4941,114.33644245190953
712.5887,285.82636242042645
714.6827,576.1368991780655
716.7761,869.868819642139
718.8688,1241.922884968597
720.9608,1433.0998476146997
723.0522,1494.950447618492
725.1429,1360.0254106870198
727.233,1120.3254475778522
729.3224,930.6512554482797
731.4112,655.1535202523446
733.4993,462.1329186375806
735.5867,300.0401206999959
737.6735,181.07579191429613
739.7596,137.29059475479517
741.845,72.28518988504948
743.9298,43.110236595712195
746.014,35.81639345459553
748.0974,26.45431859841119
750.1802,24.174669805710437
752.2624,88.37784057638419
754.3439,52.91398290534562
756.4247,148.03324790374973
758.5048,261.53578615360675
760.5843,492.07174675661736
762.6631,826.9412761991371
764.7413,1265.9945160468233
766.8188,1897.3815995959194
768.8956,2300.602647482734
770.9718,2629.557761369757
773.0473,2478.747019913484
775.1221,2179.4204754748134
777.1962,1814.5281556271948
779.2697,1617.6200661498624
781.3426,1641.04619467679
783.4147,1907.6565126657588
785.4862,2202.000975164079
787.557,2200.8295181425383
789.6271,1893.44205555191
791.6966,1347.6884793347017
793.7654,793.1186624990005
795.8335,548.6324645760105
797.901,342.0297371657689
799.9678,276.36032638199686
802.0339,287.62407491814156
804.0993,343.77082270406027
806.1641,313.0004067933696
808.2282,250.71266080199348
810.2916,193.30741521586242
812.3544,109.43449801379029
814.4164,59.04373524152106
816.4778,65.98495185046704
818.5385,50.70797220160239
820.5986,178.31261999605704
822.658,294.7487184279089
824.7166,399.9160889081104
826.7747,689.8145499001366
828.832,914.9939158683119
830.8886,1114.5539943788208
832.9446,1230.8445838479238
834.9999,1243.615471546349
837.0545,1272.9164324363992
839.1085,1244.647229044218
841.1618,1170.9576111668102
843.2143,1122.1973161547248
845.2662,1039.116069648957
847.3175,987.413586068531
849.368,902.6895694413251
851.4179,820.743713921107
853.467,658.7757046347433
855.5155,577.5352185016927
857.5633,497.62192585364755
859.6105,390.7854912469775
861.6569,396.9255742618152
863.7027,308.8918305704574
865.7478,303.833911875965
867.7922,325.7014667924741
869.8359,433.19414089580823
871.8789,536.0115765047922
873.9212,696.9534116063078
875.9629,842.9192788271539
878.0039,984.7088038246002
880.0441,1153.521603826728
882.0837,1141.8072862145527
884.1226,1124.8154468338726
886.1609,1052.445670112429
888.1984,1007.897529229831
890.2352,1047.3705868412253
892.2714,980.1143955228181
894.3069,1024.1284973771071
896.3416,945.662424705446
898.3757,939.1156995679194
900.4091,934.8878345680059
902.4418,949.1783329180143
904.4739,975.5366884814066
906.5052,990.2623856298596
908.5358,896.4548989796858
910.5658,794.4136932445872
912.595,673.838224173749
914.6236,489.92793957221147
916.6515,432.0822805066455
918.6786,412.8506831444611
920.7051,485.88257933226123
922.7309,688.8273967881432
924.756,743.9345583713875
926.7804,828.8534800530106
928.8041,739.333570364699
930.8272,820.1242295496268
932.8495,732.1748504576317
934.8711,727.7848177373162
936.892,593.8535087155615
938.9123,464.28029344140305
940.9318,325.364536025354
942.9506,261.00559593511935
944.9688,175.2028293847834
946.9862,112.20558997837725
949.003,50.463229567911185
951.019,68.9250988833519
953.0344,74.69054815005074
955.0491,99.4089269041142
957.063,213.4795839347571
959.0763,384.3518670371086
961.0888,415.2251218715028
963.1007,524.0486902547782
965.1119,618.6219098515285
967.1223,640.0941130858664
969.1321,675.1646261956812
971.1412,726.982769017919
973.1495,704.7478546378989
975.1572,776.0591888711278
977.1641,835.5160704856316
979.1704,792.217790488874
981.1759,794.7636315331438
983.1808,912.8528683485747
985.1849,953.0347677176796
987.1884,1153.0585872944357
989.1911,1329.923575202487
991.1932,1442.6789680348957
993.1945,1454.023989085501
995.1951,1436.0078472213645
997.1951,1412.1297367693005
999.1943,1325.038837696069
1001.1928,1278.7843158471187
1003.1906,1274.1653238175495
1005.1877,1370.1310014146184
1007.1841,1383.0304757039594
1009.1798,1282.9628600499163
1011.1748,1102.927253986527
1013.1691,910.572744218196
1015.1627,725.5484064200791
1017.1556,489.1533071616104
1019.1477,428.83650575674983
1021.1392,310.4470566279415
1023.1299,316.48400990926166
1025.12,327.59641263034064
1027.1093,370.93330865596727
1029.0979,511.39373857499595
1031.0859,582.7267392669382
1033.0731,533.981342497369
1035.0596,475.6065742046194
1037.0454,317.3014549872023
1039.0304,235.2650006875847
1041.0148,75.94622397522107
1042.9985,17.84413516692439
1044.9814,-8.642256179955439
1046.9636,-42.31394068649024
1048.9452,-119.37182263765862
1050.926,-17.416383602168935
1052.9061,-9.946912624232937
1054.8855,-8.962524758411746
1056.8642,56.4377643103835
1058.8421,123.40502843285867
1060.8194,146.1403408953447
1062.7959,204.29477375014176
1064.7717,217.7193975881455
1066.7469,261.51528095732647
1068.7213,268.08349022848415
1070.695,303.82508915726066
1072.6679,254.0411388184839
1074.6402,237.73269724873535
1076.6117,211.2008199441916
1078.5826,226.7965600237112
1080.5527,260.220968494159
1082.5221,352.3750940944483
1084.4908,524.6099829612831
1086.4587,654.976677707622
1088.426,808.576215700341
1090.3925,775.3096277565528
1092.3584,798.9779366076255
1094.3235,675.4321572318331
1096.2879,593.3732966176831
1098.2515,632.1023549993552
1100.2145,781.6203266773191
1102.1767,876.9281996309983
1104.1382,1010.3769540236281
1106.099,1198.5675612491832
1108.0591,1452.050982597866
1110.0185,1605.6281673742087
1111.9771,1652.3000503622607
1113.9351,1432.767550289791
1115.8923,1195.031569361574
1117.8488,953.2929954547217
1119.8045,651.7027044960378
1121.7596,540.0615628794221
1123.7139,497.07043048175547
1125.6675,505.3801617793033
1127.6204,607.2416062776465
1129.5726,580.3056084285708
1131.524,613.7730066114636
1133.4748,594.9446334026543
1135.4248,557.5713152407552
1137.3741,559.1038726149563
1139.3226,518.9431204387474
1141.2705,481.7398680345832
1143.2176,404.6949195354937
1145.164,422.0590742571185
1147.1097,432.6331274681688
1149.0546,436.717870216773
1150.9989,388.4640892247262
1152.9424,270.57256684665845
1154.8852,137.04408155257988
1156.8272,79.57940910675097
1158.7686,55.07932390299902
1160.7092,63.54459953936748
1162.6491,13.876009063111269
1164.5883,136.22432488604318
1166.5267,228.39031928123586
1168.4644,402.92476315953536
1170.4014,595.9784251478886
1172.3377,885.7020698439883
1174.2732,1118.3464558857631
1176.2081,1411.4123330541115
1178.1421,1661.400439946483
1180.0755,1952.0615010462316
1182.0082,2026.2462242226866
1183.9401,2099.855297824586
1185.8713,1935.9393899381976
1187.8017,1745.299147651258
1189.7315,1533.0851986920934
1191.6605,1159.9981533360733
1193.5888,964.3886065277147
1195.5163,884.707141611565
1197.4432,784.6543322882899
1199.3693,812.5807434115013
1201.2947,741.4369319882644
1203.2193,717.5234468998678
1205.1432,769.5908296132293
1207.0664,752.7396144200429
1208.9889,779.6203279161127
1210.9106,815.0334891698658
1212.8316,897.1796094535312
1214.7519,972.8091918890277
1216.6715,971.6727306264802
1218.5903,1014.8207100879117
1220.5084,1007.2536049786395
1222.4257,1021.4718798558024
1224.3424,992.1759892039954
1226.2583,1056.2663772931228
1228.1735,1153.2434784713187
1230.0879,1265.2077165240735
1232.0016,1405.0595037044368
1233.9146,1433.549239613385
1235.8269,1349.6273098013116
1237.7384,1284.4940854831257
1239.6492,1122.349924377464
1241.5592,1020.5951713580325
1243.4686,935.8801600750594
1245.3772,976.7052139728257
1247.285,973.2206471368299
1249.1922,964.7267638855228
1251.0986,1007.8738588051638
1253.0042,1002.9122168347276
1254.9092,1074.9921128344868
1256.8134,1172.7638116355774
1258.7169,1372.8275673192402
1260.6196,1517.5836222390753
1262.5216,1725.8822050204071
1264.4229,1887.5235291127392
1266.3234,2104.1077907067556
1268.2232,2159.235167117935
1270.1223,2192.6558146206735
1272.0207,2232.669867897035
1273.9183,2182.327439702527
1275.8151,2181.328620465989
1277.7113,2126.4734787929847
1279.6067,2013.1120614758001
1281.5014,1923.7943940419864
1283.3953,1961.4204818880098
1285.2885,2061.940311172377
1287.181,2145.653848439404
1289.0727,2366.2110396140124
1290.9637,2468.311809164592
1292.854,2628.3560578974284
1294.7435,2706.2936619356988
1296.6323,2882.7244711190397
1298.5204,3128.948308224157
1300.4077,3295.614967200505
1302.2943,3425.8742107080507
1304.1802,3479.725768450644
1306.0653,3326.5693358733843
1307.9497,3103.3545736241285
1309.8333,3005.9311090850606
1311.7162,2906.098538604827
1313.5984,2928.006428472774
1315.4798,2953.5043159172783
1317.3605,3032.4417088866576
1319.2405,3101.568085794195
1321.1197,3066.3828947287657
1322.9982,2906.1855527635707
1324.876,2844.1254463079895
1326.753,2781.6519327095266
1328.6293,2787.064340874458
1330.5048,2814.461971892546
1332.3796,2745.4940989829047
1334.2537,2722.9599672200457
1336.127,2672.8087942235215
1337.9996,2692.689770383302
1339.8714,2696.802059361278
1341.7426,2650.7947978924494
1343.6129,2685.3670957438117
1345.4826,2655.6180361744227
1347.3515,2659.496675589675
1349.2196,2640.202043838777
1351.087,2693.233144175978
1352.9537,2768.6389534535338
1354.8197,2939.6184215913418
1356.6849,3095.9704708229365
1358.5493,3206.443993985664
1360.4131,3280.7878529571863
1362.276,3277.350877550729
1364.1383,3140.3318647716424
1365.9998,2922.479578851773
1367.8606,2648.1427526196603
1369.7206,2364.6200896790524
1371.5799,2122.010267152278
1373.4384,1987.0619385154769
1375.2962,1838.9737360246872
1377.1533,1583.9442720653315
1379.0096,1265.4221406331108
1380.8652,1025.4559198842653
1382.7201,817.7441753208477
1384.5742,558.2354621903432
1386.4275,379.4283275628113
1388.2802,283.7713129259664
1390.132,186.31295597323697
1391.9832,165.15179156036174
1393.8336,62.13635267994141
1395.6832,33.26517067305758
1397.5322,13.836776259442559
1399.3803,0.4496998261765839
1401.2278,-26.34752837801716
1403.0745,-8.206378108905483
1404.9204,-4.07805591045144
1406.7656,42.536313655105914
1408.6101,46.63564676529495
1410.4538,83.31885917228465
1412.2968,121.68486616191149
1414.139,171.38258218681585
1415.9805,280.66092048280007
1417.8213,361.26879257185465
1419.6613,496.3551071693619
1421.5006,701.8187693780346
1423.3391,974.7586793370356
1425.1769,1289.7237301673485
1427.0139,1792.2128052424014
1428.8502,2380.1247750383845
1430.6858,2960.4584921093665
1432.5206,3338.9627852081667
1434.3547,3585.1864534830183
1436.188,3657.428262692538
1438.0206,3606.086942743481
1439.8524,3440.411186968331
1441.6835,3386.249652638702
1443.5139,3300.700962622115
1445.3435,3246.1637059235836
1447.1724,3237.886438541149
1449.0005,3177.6676840112086
1450.8279,3127.0059334913094
1452.6545,3123.69964636234
1454.4804,3193.3972507351355
1456.3056,3193.197143483534
1458.13,3113.997689547419
1459.9536,2971.2472219347055
1461.7766,2611.694042513338
1463.5987,2257.086423438808
1465.4202,1898.8226107496685
1467.2409,1570.9008279136106
1469.0608,1373.969279410112
1470.88,1115.7761540096508
1472.6984,908.1696267430125
1474.5161,697.0478614832246
1476.3331,595.3090130216242
1478.1493,498.7512291790772
1479.9648,472.6726518233627
1481.7795,356.3714178347418
1483.5935,333.99565936674844
1485.4067,267.64350500920955
1487.2192,246.9130800120147
1489.031,238.15250694861606
1490.842,238.6599059233522
1492.6522,221.43339465904864
1494.4618,197.27108849193428
1496.2705,216.2211005439185
1498.0785,192.081541964204
1499.8858,187.80052173979675
1501.6924,186.5761469368881
1503.4981,181.2565227436662
1505.3032,193.0897524825741
1507.1075,186.87393766348941
1508.911,168.8071778654048
1510.7138,159.03757079857678
1512.5159,90.76321248517888
1514.3172,107.23219735703242
1516.1178,54.292618938330634
1517.9176,43.64256968096015
1519.7166,40.580141493885094
1521.515,35.50342584964892
1523.3126,8.660513815015292
1525.1094,-13.150503898295938
1526.9055,16.118463334849366
1528.7008,17.315637513103866
1530.4954,-33.36075952605279
1532.2893,-18.61250611829746
1534.0824,-54.14104732531996
1535.8747,-42.49764226989282
1537.6663,-17.883009205723283
1539.4572,1.5525581649144442
1541.2473,24.85894479100898
1543.0367,10.53603560601914
1544.8253,34.13371529482902
1546.6132,49.40186843696574
1548.4003,19.790379270623816
1550.1867,83.94913153998641
1551.9723,127.87800879134375
1553.7572,209.62689373149806
1555.5414,288.69566778848093
1557.3247,379.53421029405763
1559.1074,462.54239769304695
1560.8893,525.9201026349256
1562.6705,634.0171931437526
1564.4509,746.4835319843987
1566.2305,846.2689755815736
1568.0094,958.8233728951618
1569.7876,977.9465644223728
1571.565,1041.7383810721858
1573.3417,1042.4986439741187
1575.1176,1064.7271638403163
1576.8928,1042.2237409579393
1578.6672,959.488164966886
1580.4409,897.4202150848159
1582.2138,860.9696609345247
1583.986,760.1362631646098
1585.7575,737.8697738139799
1587.5282,688.1199373201925
1589.2981,689.3364907421128
1591.0673,707.4191642574151
1592.8358,721.117681150421
1594.6035,789.1817576312587
1596.3704,821.6611026988794
1598.1366,862.9054174604298
1599.9021,944.61439480644
1601.6668,956.5377189983956
1603.4308,1077.5750648516369
1605.194,1240.426097616144
1606.9564,1382.340471766147
1608.7182,1574.1178293716293
1610.4791,1755.0077986791766
1612.2394,1939.309992194194
1613.9988,2123.8740048720156
1615.7576,2383.249412274872
1617.5156,2603.8357687262633
1619.2728,2804.082604717194
1621.0293,2916.6894247003183
1622.785,2935.155705087458
1624.54,2856.5808931235515
1626.2942,2720.064406701991
1628.0477,2468.5056351503717
1629.8005,2218.703940595642
1631.5525,2058.508660479698
1633.3037,1888.4691100573982
1635.0542,1784.6845839985199
1636.804,1684.9543580881527
1638.553,1630.1776902645524
1640.3013,1630.4038216164336
1642.0488,1620.931976930733
1643.7955,1701.0113646903646
1645.5416,1800.5911771689134
1647.2868,1874.720589629862
1649.0313,1962.3487593307764
1650.7751,2172.024824782022
1652.5181,2339.4479048704943
1654.2604,2542.8670967628314
1656.0019,2801.9814742311937
1657.7427,3134.0900856190656
1659.4828,3468.7919512501066
1661.222,3672.4360601070875
1662.9606,3650.171366484854
1664.6984,3465.246787953909
1666.4354,3079.911205583041
1668.1717,2575.8634657885796
1669.9072,2096.8023841877402
1671.642,1698.97675063912
1673.3761,1333.285334033293
1675.1094,1120.1268862710713
1676.8419,890.2501459204141
1678.5737,732.003840348023
1680.3048,634.4866880181035
1682.0351,533.3974000748167
1683.7646,454.5346813174692
1685.4934,403.79723121138886
1687.2215,339.08374467656904
1688.9488,273.8429125950279
1690.6754,235.7734224579508
1692.4012,251.97395901809796
1694.1263,212.19320467050056
1695.8506,223.07983929044713
1697.5742,212.63254063130626
1699.297,171.6499842156445
1701.0191,153.9808434397146
1702.7404,128.77378998327367
1704.461,100.57749398627493
1706.1808,73.09062430095037
1707.8999,66.71184877375708
1709.6182,57.38983452026332
1711.3358,69.42324798891423
1713.0527,51.91075505427216
1714.7688,11.501020896663249
1716.4841,-8.907289822684106
1718.1987,40.58448744245652
1719.9126,42.42510622211921
1721.6257,12.113319640498958
1723.338,24.69788039755258
1725.0496,12.127541072106396
1726.7605,16.101053996009796
1728.4706,16.717171379841602
1730.18,-25.125354726827936
1731.8886,-0.8277724415856937
1733.5964,16.908921120259038
1735.3036,22.283737112835297
1737.0099,6.195686521185053
1738.7156,13.293780107522252
1740.4204,-3.822971427891389
1742.1246,19.69444248227046
1743.8279,-16.704929403187634
1745.5306,25.227961477605277
1747.2325,0.6423305687530956
1748.9336,-36.11260693791519
1750.634,-47.48763585699453
1752.3336,-29.133180238139175
1754.0325,-18.749189729518548
1755.7307,15.964677061150724
1757.4281,20.758948830558438
1759.1247,31.484154115752972
1760.8206,9.14082124619199
1762.5158,40.82947823650102
1764.2102,36.75065300989627
1765.9039,20.904873081308324
1767.5968,25.692665598158783
1769.289,-4.485442501176294
1770.9804,30.42107546477564
1772.6711,55.8627909870429
1774.361,37.39027525245183
1776.0502,51.154098889199304
1777.7386,52.254832151584196
1779.4263,74.79304478237464
1781.1132,62.11930600179221
1782.7994,62.63418428213299
1784.4849,79.58824747450126
1786.1696,95.6320628036674
1787.8535,81.11619669852371
1789.5367,98.59121463164593
1791.2192,109.40768126446255
1792.9009,58.01616027248838
1794.5818,99.96721423716735
1796.2621,100.66140515978441
1797.9415,87.54929404195627
1799.6202,86.3314408786855
1801.2982,123.95840478948503
1802.9755,126.38074403055452
1804.6519,141.0490156185224
1806.3277,117.16377530620866
1808.0027,117.97557743595462
1809.6769,128.43497517846845
1811.3504,126.5425205247011
1813.0231,129.7987641812615
1814.6951,159.15425558932566
1816.3664,195.0595428920942
1818.0369,187.9151726412165
1819.7067,177.67168943775323
1821.3757,181.6296360036149
1823.044,176.18955328399625
1824.7115,205.4019804078007
1826.3783,171.9174547420398
1828.0443,174.0865115997076
1829.7096,166.60968457462877
1831.3741,209.13750551976682
1833.0379,197.12050462199022
1834.701,175.8592099767966
1836.3633,186.95414770848402
1838.0248,202.20584218275872
1839.6856,201.0148158957927
1841.3457,234.33158932170227
1843.005,222.05668092446194
1844.6636,243.99060682472555
1846.3214,226.8838809225872
1847.9785,278.7370146782314
1849.6349,265.65051728301205
1851.2904,270.9748951409165
1852.9453,268.9106519994275
1854.5994,261.25828889628065
1856.2528,287.7683041801092
1857.9054,309.64119358696644
1859.5572,316.2274499752202
1861.2083,305.52756310683344
1862.8587,332.0920195814897
1864.5084,328.1213029435967
1866.1572,330.11589341664785
1867.8054,307.57626794292355
1869.4528,317.5529001635514
1871.0994,306.7462606439012
1872.7453,311.35681677381945
1874.3905,322.0350328756931
1876.0349,327.631370158344
1877.6786,341.39628661024835
1879.3215,351.4802369435711
1880.9637,341.4836724565175
1882.6051,320.0070409324944
1884.2458,358.50078674007636
1885.8858,343.26535104776485
1887.525,348.801171439055
1889.1634,342.358682064787
1890.8011,345.038313587791
1892.4381,346.2904932473075
1894.0743,360.56564483220427
1895.7098,357.56418866844524
1897.3446,366.83654147634115
1898.9786,347.0831164005631
1900.6118,377.15432291742127
1902.2443,351.90056703240043
1903.8761,363.07225097944865
1905.5071,315.71977347351003
1907.1374,350.5935295988138
1908.7669,338.6939112823911
1910.3957,344.1713069453426
1912.0237,341.67610162183246
1913.651,324.40867690431696
1915.2776,320.0194109684926
1916.9034,341.8586787459735
1918.5285,302.4768519681793
1920.1528,297.8242989479486
1921.7764,313.4013849733519
1923.3992,303.1584723542219
1925.0213,263.84592026638074
1926.6427,270.914084854071
1928.2633,259.06331962307377
1929.8832,291.6939753700335
1931.5023,263.80640030095583
1933.1207,282.6009397049138
1934.7383,295.42793623291436
1936.3552,289.3377297099587
1937.9714,292.6306570067791
1939.5868,259.3570521007314
1941.2015,260.0172460428721
1942.8154,228.96156729068935
1944.4286,261.74034170149935
1946.041,230.4038928430009
1947.6528,207.15254166549948
1949.2637,220.5366068152598
1950.8739,207.20640486701905
1952.4834,227.11225019016
1954.0921,237.2544550820012
1955.7001,217.18332956874565
1957.3074,216.39918130405295
1958.9139,212.35231576975366
1960.5197,195.79303628369144
1962.1247,181.37164404018404
1963.729,186.4884382756254
1965.3325,144.1437164126919
1966.9353,169.08777400917643
1968.5374,162.87090518143486
1970.1387,174.84340235494892
1971.7393,167.30555632648702
1973.3392,154.95765614439188
1974.9383,155.19998918394958
1976.5366,148.68284127087554
1978.1342,124.35649667889174
1979.7311,149.72123819489207
1981.3273,169.3773473622132
1982.9227,144.7751042269765
1984.5173,168.16478714153527
1986.1112,133.79667301049722
1987.7044,126.62103705682148
1989.2968,145.7881531655048
1990.8885,168.69829395533816
1992.4795,158.95173058723412
1994.0697,128.64873253511905
1995.6592,139.08956768340977
1997.2479,136.17450263003502
1998.8359,142.40380258202913
2000.4232,136.27773138468365
2002.0097,112.99655145925408
2003.5955,115.01052386421907
2005.1805,146.01990852809558
2006.7648,146.3749642292978
2008.3484,155.57594828604215
2009.9312,153.92311655279627
2011.5133,143.96672332827438
2013.0946,127.50702137195458
2014.6752,139.7442620036527
2016.2551,132.9786952681152
2017.8342,127.11056981264846
2019.4126,97.49013295477744
2020.9902,106.21763074092632
2022.5672,140.19330824261579
2024.1433,111.71740946919908
2025.7188,124.44017702809651
2027.2935,110.76185240955783
2028.8674,124.93267585943613
2030.4406,114.40288651596347
2032.0131,109.07272226804889
2033.5849,92.59241986057532
2035.1559,104.5122149477047
2036.7261,112.63234225767519
2038.2957,118.10303547360763
2039.8645,122.17452715230229
2041.4325,131.3470486695287
2042.9998,122.77083017931818
2044.5664,133.34610052223434
2046.1323,118.82308731113244
2047.6974,138.50201682541046
2049.2617,125.63311415623775
2050.8254,130.0166030097662
2052.3883,152.6027058358177
2053.9504,134.49164378405203
2055.5118,124.58363647810074
2057.0725,134.9789021966899
2058.6325,142.52765797270513
2060.1917,133.9801194892516
2061.7502,134.68650100415744
2063.3079,131.09701543545452
2064.8649,131.01187435431257
2066.4212,139.88128802092706
2067.9767,124.10546538537801
2069.5315,133.0846139989344
2071.0856,109.41894017180948
2072.6389,111.95864888337655
2074.1915,97.55394401882586
2075.7433,84.4550283437593
2077.2945,99.16210364824565
2078.8448,81.1753708778042
2080.3945,88.99502998633398
2081.9434,120.02128011598597
2083.4916,94.70431951895989
2085.039,79.79434524724729
2086.5857,79.49155340580091
2088.1317,107.0961393016305
2089.677,101.50829744683597
2091.2215,106.32822128255975
2092.7652,94.10610323486162
2094.3083,78.79213466652618
2095.8506,73.13650599927587
2097.3921,102.13940686691603
2098.933,101.45102617188695
2100.4731,102.97155179523816
2102.0124,99.70117060350913
2103.5511,97.99006843352709
2105.089,110.98843012510861
2106.6261,126.59643953817067
2108.1626,118.86427942275259
2109.6983,107.19213126292561
2111.2332,126.68017535411946
2112.7675,110.47859091984265
2114.301,120.5375559168042
2115.8337,133.20724719693044
2117.3657,112.18784040677474
2118.897,137.82950986082506
2120.4276,145.03242875169053
2121.9575,116.29676889368966
2123.4866,117.97270065081739
2125.0149,113.96039322410161
2126.5426,96.810014634847
2128.0695,109.17173176475535
2129.5956,88.74571052742704
2131.1211,124.58211574475172
2132.6458,121.2811113511616
2134.1698,103.54286003527159
2135.693,127.21752327288687
2137.2155,125.85526150438636
2138.7373,127.85623389797729
2140.2584,131.52059836331136
2141.7787,127.1485115314822
2143.2983,109.04012871837767
2144.8171,95.9956039684048
2146.3353,109.76509023557037
2147.8527,118.2987395139271
2149.3693,105.69670269988274
2150.8853,111.75912950685733
2152.4005,99.73616859130834
2153.9149,106.52796749210165
2155.4287,107.98467275074472
2156.9417,104.80642984346605
2158.454,109.89338316665271
2159.9655,104.19567606862711
2161.4764,106.86345079877901
2162.9865,114.39684856454505
2164.4958,116.44600950472795
2166.0045,116.11107261416419
2167.5124,127.14217572323287
2169.0195,115.48945550120607
2170.526,117.70304734593174
2172.0317,113.08308550036872
2173.5367,108.32970303044567
2175.0409,117.94303187126297
2176.5445,126.9732028746239
2178.0473,118.32034571290569
2179.5494,106.58458878875535
2181.0507,105.7660593216192
2182.5513,105.16488346509777
2184.0512,116.88118631513407
2185.5504,108.46509191602172
2187.0488,92.2167231432486
2188.5465,96.18620178764877
2190.0435,97.92364871789141
2191.5397,92.57918384078403
2193.0353,118.40292608389882
2194.5301,100.39499344901833
2196.0241,94.95550275389724
2197.5175,90.43456981233749
2199.0101,60.73230948859282
2200.502,89.59883574256946
2201.9931,79.78426192685447
2203.4835,76.98870049804736
2204.9733,91.66226311490664
2206.4622,99.90506066630451
2207.9505,95.66720312449434
2209.438,74.54879946268056
2210.9248,74.3999576973938
2212.4109,67.37078509968251
2213.8962,51.41138819659591
2215.3809,74.12187284147558
2216.8648,75.30234437354875
2218.3479,78.70290739082748
2219.8304,75.77366573830113
2221.3121,82.96472247393058
2222.7931,65.77617989794271
2224.2733,57.558139480919635
2225.7529,54.51070203568497
2227.2317,73.33396779948134
2228.7098,75.77803646444863
2230.1872,55.29300698938823
2231.6638,67.22897757532337
2233.1397,55.93604587034997
2234.6149,64.31430885027521
2236.0894,57.81386293154628
2237.5632,62.53480388746857
2239.0362,48.67722691321251
2240.5085,46.39122657860162
2241.9801,36.576896966686945
2243.4509,36.88433169660766
2244.921,48.76362402173754
2246.3904,49.26486682660743
2247.8591,57.988152508116855
2249.3271,30.833572970516798
2250.7943,43.85121953818225
2252.2608,48.391183227153306
2253.7266,32.00355461495792
2255.1917,41.688423795216295
2256.656,24.74588054151036
2258.1197,30.926014210538142
2259.5826,26.178913911540803
2261.0447,51.30466844449893
2262.5062,56.10336634760506
2263.9669,57.92509564600414
2265.4269,60.419943803809474
2266.8862,49.83799770588257
2268.3448,50.42934363288987
2269.8026,54.19406736711835
2271.2598,49.88225418656293
2272.7162,38.69398882727819
2274.1719,41.87935552649742
2275.6268,57.138438134516946
2277.0811,48.27132008283843
2278.5346,55.42808423158067
2279.9874,67.70881295815252
2281.4395,66.06358808567848
2282.8908,55.0424907601996
2284.3414,57.74560146712065
2285.7914,58.42300014142256
2287.2406,47.62476614063007
2288.689,53.35097823803699
2290.1368,45.10171473069158
2291.5838,54.927053382134545
2293.0302,76.7270715048935
2294.4758,60.45184586222604
2295.9206,55.15145245011945
2297.3648,69.67596666004556
2298.8082,56.8754633319636
2300.251,52.75001660907901
2301.693,59.199700065842535
2303.1343,71.37458674920617
2304.5748,62.57474911412464
2306.0147,60.700258901808866
2307.4538,77.40118722772058
2308.8922,54.3276046003175
2310.3299,79.47958075404995
2311.7669,64.4071848800927
2313.2031,75.51048537482347
2314.6387,59.43954999055268
2316.0735,62.79444572448665
2317.5076,65.7252389794362
2318.941,65.48199553027007
2320.3737,60.06478049460384
2321.8056,63.77365833523345
2323.2369,63.25869291430854
2324.6674,62.51994745624461
2326.0972,48.157484552870756
2327.5263,65.92136617081815
2328.9547,69.61165379514432
2330.3823,59.778408251693236
2331.8092,71.77168967019452
2333.2355,61.54155758259594
2334.661,68.83807080312727
2336.0858,76.36128753060439
2337.5098,57.061265275461665
2338.9332,76.43806078452326
2340.3558,68.79173023400062
2341.7778,57.972329035723305
2343.199,66.17991191360579
2344.6195,82.31453301184183
2346.0393,76.17624581282553
2347.4583,57.56510297580553
2348.8767,72.7811563982691
2350.2943,63.724457402051485
2351.7113,99.34505658118042
2353.1275,77.04300389244054
2354.543,83.1683482991657
2355.9578,84.02113799426115
2357.3718,75.95142033894945
2358.7852,67.15924185424228
2360.1978,65.94464830163815
2361.6098,61.85768477104284
2363.021,77.69839569291935
2364.4315,82.9668248791545
2365.8413,89.9130153646538
2367.2504,78.03700935465577
2368.6587,66.73884815527208
2370.0664,52.36857229224552
2371.4733,73.97622162393145
2372.8795,62.16183548500112
2374.285,67.77545247036869
2375.6899,52.11711055333171
2377.0939,64.4868470294341
2378.4973,59.93469867305157
2379.9,49.86070161369162
2381.3019,74.81489138151574
2382.7032,67.54730300807796
2384.1037,53.10797077678535
2385.5035,67.04692829557189
2386.9027,64.01420864129477
2388.3011,60.509844220342984
2389.6987,65.18386679896048
2391.0957,49.73630753829366
2392.492,46.71719694764988
2393.8876,43.876565038974604
2395.2824,41.064441357038504
2396.6765,49.78085500785164
2398.07,41.625834686778035
2399.4627,44.74940859137632
2400.8547,35.351604502945065
2402.246,51.88244975529142
2403.6366,53.74197132870722
2405.0265,41.330195684659884
2406.4156,34.697148747196024
2407.8041,36.5928560270645
2409.1918,44.46734268804266
2410.5789,41.02063352798132
2411.9652,50.85275290006439
2413.3508,26.563724747270044
2414.7358,48.95357250405186
2416.12,34.772319339225305
2417.5035,42.96998793206967
2418.8863,43.69660061414697
2420.2684,42.402179287319086
2421.6497,29.236745416483245
2423.0304,31.20032004251516
2424.4104,33.84292391391773
2425.7896,41.41457746718879
2427.1682,33.86530080039802
2428.546,37.99511359746748
2429.9232,38.854035203668445
2431.2996,37.59208458432295
2432.6753,39.3592803162137
2434.0503,45.9556406002057
2435.4246,37.18118324357238
2436.7982,31.93592559403305
2438.1711,39.21988462749505
2439.5433,45.58307700050818
2440.9148,26.175518977424872
2442.2856,34.947226366766245
2443.6557,43.29821471529863
2445.025,28.1784992203186
2446.3937,38.2880946461396
2447.7617,39.67701547529259
2449.1289,34.14527580742674
2450.4955,30.042889345422964
2451.8613,49.16986945071176
2453.2265,41.12622918429611
2454.5909,43.111981115481285
2455.9546,37.277137402312064
2457.3177,41.97170977171572
2458.68,43.795709577846765
2460.0416,40.549147755144986
2461.4025,51.73203480009306
2462.7627,57.89438080368268
2464.1222,56.33619533958654
2465.4811,54.2574874025338
2466.8392,51.208265423892044
2468.1966,62.2885372924552
2469.5533,58.9483103849368
2470.9093,71.28759145516483
2472.2645,66.05638666748541
2473.6191,67.4547014733696
2474.973,56.2325406637251
2476.3262,62.83990835491363
2477.6787,57.176808100972494
2479.0305,65.89324282753978
2480.3816,57.83921488848796
2481.7319,69.1647259787569
2483.0816,61.31977721489511
2484.4306,67.00436902180468
2485.7789,59.86850121119096
2487.1264,53.4621729247167
2488.4733,43.88538270536105
2489.8195,49.43812856148247
2491.165,51.02040806258742
2492.5097,49.23221828380224
2493.8538,51.973555790049886
2495.1972,36.04441665393256
2496.5398,38.59479642831866
2497.8818,48.42469030563211
2499.2231,51.08409309234867
2500.5637,39.47299911069854
2501.9035,52.341402172072094
2503.2427,47.68929569312991
2504.5812,51.9666725671193
2505.919,47.723525210394655
2507.256,51.60984551964566
2508.5924,48.575624914326
2509.9281,50.72085429779145
2511.2631,60.695524087641616
2512.5974,52.799624194268745
2513.9309,53.03314392110951
2515.2638,41.39607204360618
2516.596,70.53839680686906
2517.9275,50.06010604204812
2519.2583,47.411186874908935
2520.5884,47.34162593061751
2521.9178,50.651409360229536
2523.2465,56.29052284138561
2524.5745,45.80895154521227
2525.9018,47.50668007993181
2527.2284,46.133692595677985
2528.5543,56.13997276751752
2529.8796,59.92550380918283
2531.2041,59.290268373006484
2532.5279,57.88424851206719
2533.851,63.50742568654164
2535.1735,69.10978077776554
2536.4952,63.391294032000815
2537.8163,70.95194500441175
2539.1366,63.04171261625061
2540.4562,61.41057507925029
2541.7752,70.10850997472767
2543.0935,75.53549426989389
2544.411,73.99150423087644
2545.7279,79.77651536844792
2547.0441,73.74050245346712
2548.3596,87.08343945902789
2549.6744,87.15529962082019
2550.9885,72.90605530369953
2552.3019,73.03567800097107
2553.6146,84.29413847687852
2554.9266,82.73140676531102
2556.2379,82.99745205721729
2557.5485,84.19224271623261
2558.8585,82.1657462760179
2560.1677,75.41792942831194
2561.4762,86.09875804319836
2562.7841,82.60819723658187
2564.0913,76.29621126338088
2565.3977,87.31276355243222
2566.7035,76.10781676961165
2568.0086,96.38133270766707
2569.313,90.08327239826849
2570.6167,98.16359590927345
2571.9197,101.8722624077061
2573.222,100.85923007895508
2574.5236,112.6744560896866
2575.8246,110.01789659797555
2577.1248,102.08950663515225
2578.4244,105.38924013236942
2579.7232,113.36704999988478
2581.0214,111.47288809406382
2582.3189,113.65670513760142
2583.6157,117.16845073846525
2584.9118,115.00807336805565
2586.2072,114.32552032608896
2587.5019,122.67073776220263
2588.7959,126.04367068277838
2590.0893,133.49426286749213
2591.3819,139.27245683558203
2592.6739,126.6281937713461
2593.9652,134.96141346635773
2595.2557,143.8720544459095
2596.5456,140.26005388568
2597.8348,137.57534752262814
2599.1234,148.51786969111254
2600.4112,144.93755334973935
2601.6983,142.8843299719365
2602.9848,129.10812958175757
2604.2705,131.20888077441373
2605.5556,147.5865108540354
2606.84,141.29094581266554
2608.1237,131.5221101664822
2609.4067,142.329927018754
2610.689,145.46431815753044
2611.9707,141.1752039475616
2613.2516,136.86250329895506
2614.5319,139.92613371006723
2615.8115,127.81601131063098
2617.0903,138.23205083111702
2618.3685,131.6741657238365
2619.6461,128.49226805878106
2620.9229,138.88626858920065
2622.199,136.25607678342317
2623.4745,143.45160072091517
2624.7493,139.82274711858304
2626.0234,141.6194212588175
2627.2968,135.54152702578244
2628.5695,133.33896688744903
2629.8415,127.76164195637216
2631.1128,119.5094520117193
2632.3835,127.43229555504126
2633.6535,127.88006989279552
2634.9228,124.8526710571166
2636.1914,133.49999380134
2637.4593,134.32193163027387
2638.7265,137.9683767137269
2639.9931,138.13921987828826
2641.259,139.98435057086385
2642.5242,129.40365685696815
2643.7887,128.64702540227222
2645.0525,131.21434157841213
2646.3156,136.30548947055354
2647.5781,124.9703518517199
2648.8398,122.30881013187968
2650.1009,130.12074447129748
2651.3613,136.3060338071507
2652.6211,129.6145557754096
2653.8801,126.54618664898499
2655.1385,119.85080140464243
2656.3961,122.62827375368488
2657.6531,131.27847620890907
2658.9094,131.50128005682882
2660.1651,117.94655527117402
2661.42,127.76417051066164
2662.6743,139.75399325454555
2663.9279,140.7658897044371
2665.1808,132.44972466440868
2666.433,129.6553615308735
2667.6846,149.4326623757488
2668.9354,147.3314879743973
2670.1856,152.3016976078568
2671.4351,159.09314908385
2672.6839,153.60569868708353
2673.9321,156.08920111133284
2675.1795,167.04350951431798
2676.4263,160.1184754928663
2677.6724,163.96394897337086
2678.9179,165.77977828104122
2680.1626,159.11581010144755
2681.4067,172.57188946236306
2682.6501,162.54785980040288
2683.8928,161.79356282646495
2685.1348,162.10883862596847
2686.3761,156.0435256663975
2687.6168,152.097460794148
2688.8568,154.57047929518126
2690.0961,149.9624149344843
2691.3348,145.47309993133945
2692.5727,139.90236500540504
2693.81,139.4500394216093
2695.0466,140.31595104585608
2696.2826,141.29992634955056
2697.5178,139.25179040093917
2698.7524,135.87136685526912
2699.9863,146.00847797527058
2701.2195,143.41294466496015
2702.452,149.78458636827054
2703.6839,155.3732210950045
2704.9151,166.128665357121
2706.1456,156.75073411284689
2707.3755,153.83924065912265
2708.6046,166.8939967253823
2709.8331,174.41481250266895
2711.0609,183.40149651308604
2712.2881,190.4038555345894
2713.5145,201.9216945111209
2714.7403,207.05481648258387
2715.9654,215.30302246966517
2717.1899,216.36611142250308
2718.4136,244.49388013820726
2719.6367,240.58612325022534
2720.8591,257.59263294706795
2722.0809,267.96319901138384
2723.3019,277.7976086498959
2724.5223,285.4956463896949
2725.7421,276.0570939798971
2726.9611,287.8817303146616
2728.1795,286.9193315275779
2729.3972,277.0196708734188
2730.6142,264.98251873776485
2731.8306,242.15764273599984
2733.0462,234.0948078336836
2734.2612,211.39377657479895
2735.4756,196.65430916238222
2736.6892,185.67616368553104
2737.9022,165.90909626680104
2739.1145,155.90286117198696
2740.3262,135.30721100779294
2741.5372,123.72189682189514
2742.7475,113.09666830889728
2743.9571,112.58127392618485
2745.1661,88.72546100017632
2746.3744,82.07897573147852
2747.582,72.64156343344325
2748.7889,69.56296859863414
2749.9952,64.19293499319838
2751.2008,52.83120568765503
2752.4057,56.72752311059401
2753.61,46.08162916229355
2754.8136,37.39326517575773
2756.0165,33.96217202317462
2757.2188,37.588090202800004
2758.4204,33.92075987326848
2759.6213,43.50992081733466
2760.8215,40.80531247854606
2762.0211,24.856673865351922
2763.22,25.563743578149342
2764.4182,23.926259968768363
2765.6158,16.79396113340249
2766.8127,17.816584928982934
2768.009,9.54386904450132
2769.2045,6.875550990783836
2770.3994,5.861368183217792
2771.5936,5.4010579684357936
2772.7872,-2.705642365542758
2773.9801,-15.308995584708214
2775.1723,-19.909237425684182
2776.3639,-6.1564506882288015
2777.5548,-7.550519278818911
2778.745,-23.09126560099014
2779.9346,-19.978436628591
2781.1235,-14.561548653727073
2782.3117,-10.039918383922213
2783.4992,-17.61271705682998
2784.6861,-9.179015611319187
2785.8723,-0.48770903521563014
2787.0579,-11.03760061797982
2788.2428,-1.4774887768589906
2789.427,-0.9060616634706093
2790.6106,13.278007330680339
2791.7935,16.576053865644326
2792.9757,15.189413468691782
2794.1573,32.119421501333704
2795.3382,37.66741317318656
2796.5184,61.234723372674125
2797.698,57.222686611546806
2798.8769,66.73263678920762
2800.0551,83.41590723283218
2801.2327,96.3238306022705
2802.4096,122.8077387232156
2803.5859,130.0689624581214
2804.7615,141.55883144136374
2805.9364,174.3786740066272
2807.1106,192.17981707200943
2808.2842,219.6635858118209
2809.4572,243.33130347857457
2810.6294,278.93429112814806
2811.801,308.07386738310606
2812.972,346.70134807667057
2814.1423,385.5180459613249
2815.3119,433.725270322539
2816.4808,472.27432659060344
2817.6491,521.716515858556
2818.8167,576.3531344966921
2819.9837,609.8354736581426
2821.15,669.0648187325073
2822.3157,711.0424490110314
2823.4807,756.6696370943129
2824.645,803.4476484725252
2825.8086,845.8277410691454
2826.9716,877.4111647731754
2828.134,933.8491610153401
2829.2957,976.092962452253
2830.4567,988.3437924020373
2831.617,1012.8028644218855
2832.7767,1026.9213821855542
2833.9358,1014.700539238771
2835.0941,998.14151885805
2836.2519,986.7454941729014
2837.4089,985.5136283314201
2838.5653,973.297074614247
2839.7211,976.3469764468864
2840.8761,973.1144675218734
2842.0306,991.5006717682741
2843.1843,1022.0567033840096
2844.3374,1077.4336666519953
2845.4899,1123.6326556345794
2846.6417,1187.1047536197725
2847.7928,1254.7510326592612
2848.9433,1330.9225529336818
2850.0931,1402.4203620761614
2851.2422,1465.3454944106027
2852.3907,1532.1489702367057
2853.5385,1592.1317952007155
2854.6857,1642.544959627388
2855.8323,1705.9394379201613
2856.9781,1742.1161880570244
2858.1233,1799.5761509565714
2859.2679,1833.070250116236
2860.4118,1900.2493910376884
2861.555,1933.6644608918996
2862.6976,1968.5663278473457
2863.8395,1988.15584073586
2864.9808,2006.083828703614
2866.1214,2023.5511010152204
2867.2614,2023.4584468744542
2868.4007,2059.45663524958
2869.5393,2063.7464148742797
2870.6773,2065.1785138876685
2871.8146,2100.0536397913966
2872.9513,2084.522479435332
2874.0874,2086.4356986688044
2875.2227,2068.79394249592
2876.3574,2041.547835056428
2877.4915,2025.9479798021393
2878.6249,2013.4449597693852
2879.7577,1980.18933773502
2880.8898,1950.4816563414454
2882.0212,1933.4224384291717
2883.152,1912.3621873338927
2884.2821,1919.951387057077
2885.4116,1907.6905024765722
2886.5405,1896.0799792707123
2887.6686,1915.5202440409257
2888.7962,1912.0617044278426
2889.923,1935.254748916891
2891.0493,1950.8497468728829
2892.1748,1938.9470483080809
2893.2997,1951.396983726254
2894.424,1965.4998642416972
2895.5476,1993.3059814547391
2896.6706,2006.5656073107089
2897.7929,2049.678993821877
2898.9145,2064.3463729348578
2900.0355,2086.467956099477
2901.1559,2129.943934122096
2902.2756,2158.1244769443983
2903.3946,2191.0597332086268
2904.513,2218.299829975781
2905.6308,2251.894872396263
2906.7479,2257.7949434374773
2907.8643,2303.25010354788
2908.9801,2315.610390597978
2910.0953,2308.7758194257794
2911.2098,2304.3463817131865
2912.3236,2300.5720460543453
2913.4368,2301.752757999938
2914.5494,2280.588440094928
2915.6613,2253.978991866752
2916.7725,2224.3242900369614
2917.8831,2197.1741887873195
2918.9931,2183.178520056347
2920.1024,2161.637093810825
2921.211,2150.6496981857463
2922.319,2122.4660996997377
2923.4264,2102.3360433649264
2924.5331,2084.30925296878
2925.6391,2082.985431275406
2926.7445,2071.6142602058208
2927.8493,2064.5954008511844
2928.9534,2069.1284935865156
2930.0569,2042.5631581408802
2931.1597,2057.4489935520587
2932.2619,2055.1355784322004
2933.3634,2060.8724708189657
2934.4643,2050.1092081986594
2935.5645,2040.195307448861
2936.6641,1997.0802649460584
2937.763,1951.1635566647878
2938.8613,1927.9946386087813
2939.959,1870.022947270138
2941.056,1786.4978998610093
2942.1523,1722.0188948933187
2943.248,1621.1853130140103
2944.3431,1541.49651764984
2945.4375,1436.2018560157107
2946.5313,1348.8506599115606
2947.6244,1253.5422467753096
2948.7169,1153.7759205563711
2949.8087,1062.200972668737
2950.8999,983.2666829886393
2951.9904,898.272320770301
2953.0803,834.7671454352792
2954.1696,767.2004074224083
2955.2582,722.7213488228515
2956.3462,677.879204055768
2957.4335,648.5732003131042
2958.5202,613.4025580080142
2959.6062,592.3664910679202
2960.6916,567.7142072862189
2961.7764,537.094908532643
2962.8605,540.6077909997836
2963.9439,533.202045509283
2965.0267,523.6768574767066
2966.1089,517.7314069855983
2967.1905,524.4648688827351
2968.2714,520.92641283758
2969.3516,515.815203274947
2970.4312,522.8803994103861
2971.5102,525.4211553012967
2972.5885,537.3366197762748
2973.6662,540.2259364097049
2974.7432,537.8882434026061
2975.8196,534.6226735537387
2976.8954,524.1783542829802
2977.9705,510.50440766398174
2979.045,503.3999505286117
2980.1188,494.7640946036954
2981.192,486.44594658205847
2982.2645,463.5946082088859
2983.3364,441.6091763649031
2984.4077,428.08874329488947
2985.4783,398.682396827533
2986.5483,360.1392205106347
2987.6177,344.2582939051712
2988.6864,302.3386929707277
2989.7545,276.72949022430737
2990.8219,250.9797551595267
2991.8887,218.0885545027079
2992.9548,187.20495247037638
2994.0204,171.22801109817237
2995.0852,136.80679054968766
2996.1495,114.04034927623354
2997.2131,104.62774436105451
2998.276,88.21803174699141
2999.3383,65.11026633060749
3000.4,55.10350212628589
3001.4611,45.096792497307774
3002.5215,38.139190255920084
3003.5812,17.62974776340195
3004.6404,15.117516999641452
3005.6989,0.5515497682293926
3006.7567,-4.8691022784183815
3007.8139,2.404612506599051
3008.8705,-6.078205587486082
3009.9264,-7.7684562954882495
3010.9818,-5.716978630947665
3012.0364,-13.67453400052716
3013.0905,-9.34182669827237
3014.1439,-12.96942440963494
3015.1966,-5.657801495217882
3016.2487,-11.857302751074599
3017.3002,-4.418216451821991
3018.3511,1.6592875823773738
3019.4013,-2.574916330656947
3020.4509,3.179046110301215
3021.4998,9.521074929892166
3022.5481,14.651070120965642
3023.5958,11.56893158116145
3024.6428,19.42455906160785
3025.6892,22.467852197744378
3026.735,26.94871043076489
3027.7802,35.967032977184886
3028.8247,36.372718784033054
3029.8685,50.41566643866838
3030.9118,52.495774164723116
3031.9544,60.31293968167279
3032.9963,65.11706018403561
3034.0376,78.85803226320081
3035.0783,78.48575185938762
3036.1184,79.90011412423462
3037.1578,96.50101342452302
3038.1966,101.88834332803378
3039.2348,104.61199643753758
3040.2723,109.47186433692218
3041.3092,114.76783756395531
3042.3455,118.89980556168638
3043.3811,115.51765662548695
3044.4161,117.12127786173085
3045.4505,114.4605552216155
3046.4842,115.48537348512582
3047.5173,108.44561628764137
3048.5498,105.09116610968806
3049.5816,104.02190434733603
3050.6128,102.78771134574447
3051.6434,102.53846640985347
3052.6734,97.67404781672656
3053.7027,101.09433281804274
3054.7314,96.39919768874086
3055.7594,91.78851769281658
3056.7868,98.66216713027438
3057.8136,102.57001938323344
3058.8398,86.5119468471915
3059.8653,94.5878208919462
3060.8902,93.84751202217586
3061.9145,92.69088979668089
3062.9381,93.51782283578649
3063.9612,83.82817883290937
3064.9835,86.22182454628768
3066.0053,78.19862589587791
3067.0264,87.85844793941862
3068.0469,73.8011549526621
3069.0668,85.6266103327763
3070.086,71.58467673891766
3071.1046,74.67521597397689
3072.1226,68.69808912499792
3073.1399,56.553156532272624
3074.1567,49.84027784911251
3075.1727,46.55931216329725
3076.1882,44.76011806420405
3077.203,35.292553675617285
3078.2173,28.85647667372018
3079.2308,36.351744381770686
3080.2438,25.028213834461837
3081.2561,22.335741702969415
3082.2678,15.574184408187364
3083.2789,18.593398147652238
3084.2893,14.843238963158967
3085.2991,9.573562710568524
3086.3083,8.034225097309786
3087.3169,4.625081735076492
3088.3248,7.145988155219925
3089.3321,2.5967998428408237
3090.3388,1.8773722115799956
3091.3449,-5.412439350889656
3092.3503,-2.872779475668608
3093.3551,0.44626127641163293
3094.3593,-0.6053789564136878
3095.3629,-1.9277664940596537
3096.3658,-4.620961608705784
3097.3681,0.8149946858557655
3098.3698,1.0801075392390658
3099.3708,-1.8256179070916687
3100.3713,-1.452176522473394
3101.3711,-4.449544938320116
3102.3702,-8.717685278802719
3103.3688,1.1934847828617876
3104.3667,-0.1158653368678415
3105.364,2.1544337665327475
3106.3607,2.3045526550823467
3107.3568,2.984661869255774
3108.3522,1.5949319264826727
3109.347,2.0355333143460825
3110.3412,2.656636504479934
3111.3348,6.958411948163018
3112.3277,4.591030070107763
3113.32,6.654661225442794
3114.3117,11.649475723386587
3115.3028,8.625643806611123
3116.2932,12.733335601293703
3117.2831,13.872721147355406
3118.2723,14.843970357384023
3119.2608,11.847253005240304
3120.2488,12.982738716345523
3121.2361,18.20059699764863
3122.2229,17.650997226271215
3123.209,20.48410859732911
3124.1944,17.150100129428182
3125.1793,21.499140636333408
3126.1635,17.53139876030889
3127.1471,26.297042928627377
3128.1301,21.79624139324784
3129.1125,24.82916214315881
3130.0942,22.245972949386527
3131.0753,25.0468413346658
3132.0558,30.681934599271955
3133.0357,23.951419793011837
3134.015,32.45546365887304
3134.9936,30.444232700329138
3135.9716,32.317893096298945
3136.949,28.62661072125914
3137.9258,34.37055112650762
3138.902,39.69987957707636
3139.8775,38.46476099429188
3140.8524,37.36535990248211
3141.8267,42.6018404413274
3142.8004,41.12436637685457
3143.7735,43.03310104907209
3144.7459,43.27820738674487
3145.7178,46.60984788830686
3146.689,42.47818461941006
3147.6596,45.8333791796081
3148.6295,43.67559274367278
3149.5989,47.55498602804215
3150.5676,50.52171931239843
3151.5357,56.625952400873985
3152.5032,49.31784459238415
3153.4701,51.2975546195847
3154.4364,52.31524072195329
3155.402,53.87106062599196
3156.367,50.665171535050504
3157.3315,56.84773011376808
3158.2952,56.318892520132195
3159.2584,57.12881434365316
3160.221,63.42765061065232
3161.1829,54.315555776162995
3162.1442,62.492683660942006
3163.105,63.20918754259077
3164.065,62.96522007378388
3165.0245,62.810933275104105
3165.9834,65.19647853748207
3166.9416,69.17200662373911
3167.8993,71.5876676447318
3168.8563,69.99361101959667
3169.8127,69.13998545159366
3170.7684,69.97693894404661
3171.7236,77.35461880887964
3172.6782,72.52317165824748
3173.6321,76.08274333075866
3174.5854,72.58347893979011
3175.5381,76.27552283789129
3176.4902,76.65901865177696
3177.4417,76.3841092454067
3178.3926,80.85093671614992
3179.3428,81.55964239753504
3180.2924,81.51036681458108
3181.2415,87.00324967671061
3182.1899,84.48842987824267
3183.1377,82.81604544346365
3184.0848,90.08623355177578
3185.0314,85.4491305544208
3185.9773,93.35487190177808
3186.9227,90.65359218973589
3187.8674,90.19542508063364
3188.8115,93.68050333027492
3189.755,95.20895879250901
3190.6979,98.88092238438028
3191.6402,98.04652407084342
3192.5818,101.90589282804396
3193.5229,101.90915665166219
3194.4633,101.40644251831952
3195.4031,99.64787638554584
3196.3423,103.08358319680656
3197.2809,102.91368689908842
3198.2189,106.48831040854233
3199.1563,105.50757561218231
3200.0931,107.47160333213934
3201.0292,106.33051333546858
3201.9648,108.33442431450928
3202.8997,108.83345389829543
3203.834,110.77771863251692
3204.7677,116.11733397452903
3205.7008,112.75241427390986
3206.6333,115.3830727190642
3207.5652,114.10942137087268
3208.4964,115.13157113638525
3209.4271,113.44963178155754
3210.3571,120.76371192102964
3211.2865,122.7239190349452
3212.2154,122.93035939581075
3213.1436,124.1331380488937
3214.0712,123.43235881015781
3214.9982,127.07812425423546
3215.9246,126.82053572143546
3216.8503,128.60969328128536
3217.7755,129.29569573510733
3218.7001,131.92864059812666
3219.624,132.20862409261164
3220.5473,136.18574112154414
3221.4701,137.01008526581984
3222.3922,137.13174874447697
3223.3137,136.85082240645286
3224.2346,135.36739572936744
3225.1549,139.58155682233235
3226.0746,136.49339244078524
3226.9937,138.70298794434828
3227.9121,141.1104273277096
3228.83,143.76579319852746
3229.7473,147.11916675335587
3230.6639,143.17062775109088
3231.5799,151.77025447943686
3232.4954,150.1181237943919
3233.4102,150.26431103425148
3234.3244,155.5588900361298
3235.238,150.901933134498
3236.151,156.14351110823827
3237.0634,154.38369322721343
3237.9752,158.67254719985124
3238.8864,154.01013919074245
3239.797,159.0465337777524
3240.7069,160.43179399864488
3241.6163,161.7159813007185
3242.5251,163.34915552695375
3243.4332,160.98137490317134
3244.3408,165.6626960217004
3245.2477,165.6931738650562
3246.154,166.9728617591271
3247.0598,163.70181137286963
3247.9649,169.58007270551172
3248.8694,169.40769411926317
3249.7733,168.33472228053287
3250.6766,173.46120216165286
3251.5793,173.38717705160792
3252.4814,173.36268850477063
3253.3829,173.43777634164186
3254.2838,174.86247864909552
3255.1841,175.4868317796278
3256.0838,174.51087033710994
3256.9829,177.58462717054488
3257.8814,179.45813338382675
3258.7792,176.83141830500344
3259.6765,179.15450946754135
3260.5731,184.07743263659268
3261.4692,184.55021178576462
3262.3647,184.0228690478899
3263.2595,182.69542471029922
3264.1538,181.4178972200944
3265.0474,186.24030319742315
3265.9404,182.76265744825406
3266.8329,188.28497291615275
3267.7247,183.75726071705827
3268.616,185.07953008405974
3269.5066,187.50178841267373
3270.3966,184.57404124762155
3271.286,182.39629225860642
