RamanShift,CorrectedData
30.1047,252.49745982187042
32.3739,236.7350251236726
34.6426,217.12258790050018
36.9109,195.3101432600283
39.1787,176.39768413870615
41.4461,161.83520151988154
43.7131,141.47268462292524
45.9796,122.91012104885604
48.2456,101.94749698396575
50.5112,84.53479738544483
52.7764,66.87200619100878
55.0411,48.359106493025116
57.3054,27.99608071514122
59.5692,11.482910797413417
61.8326,-8.680421600062783
64.0955,-23.64393493202098
66.3579,-40.40756093578304
68.6199,-56.17099514576085
70.8815,-63.73352942483258
73.1426,-64.14389448763504
75.4032,-29.15018435084602
77.6634,86.70014776636239
79.9231,381.2099398551598
82.1824,1019.9320290397145
84.4412,2080.319248632096
86.6995,3452.724421745051
88.9574,4769.150350688138
91.2148,5647.999803243669
93.4717,6046.67549950245
95.7282,6106.530103075295
97.9842,6056.61621710626
100.2398,5922.436383674098
102.4949,5785.643084291404
104.7495,5687.988741246406
107.0036,5577.025718970905
109.2573,5421.35632501681
111.5105,5255.182811165778
113.7632,5054.557374985898
116.0154,4855.0321614934355
118.2672,4604.709265159079
120.5185,4367.590731903198
122.7693,4146.528561599067
125.0197,3932.0247104440587
127.2696,3748.1310931702537
129.519,3615.849585189491
131.7679,3516.0820244322977
134.0163,3441.480212670704
136.2642,3397.7459165159225
138.5117,3355.4808681643635
140.7587,3288.086765834976
143.0052,3209.1152741919036
145.2512,3101.21802501842
147.4967,2952.2966180066487
149.7417,2806.752621836532
151.9863,2731.137575665045
154.2304,2676.75299058164
156.4739,2631.200350364391
158.717,2636.781112023844
160.9596,2663.8467062585423
163.2017,2716.948537399218
165.4433,2754.887983138138
167.6844,2716.9163939980826
169.925,2638.2850929529536
172.1651,2517.2453758074903
174.4047,2387.0985119835796
176.6439,2276.5457457306566
178.8825,2183.73829742717
181.1206,2129.2773646861133
183.3582,2084.414123283098
185.5954,2057.7497277009606
187.832,2018.5353115783998
190.0681,1993.3219879766157
192.3037,1984.4108497714572
194.5388,1986.5529699055537
196.7734,1985.4994014774268
199.0075,2004.3511777200697
201.2411,2033.5093120114816
203.4742,2056.1747976861507
205.7068,2093.348607743472
207.9389,2124.431694621094
210.1704,2140.3249898231797
212.4015,2126.229403609575
214.632,2127.095824836879
216.862,2101.675121099396
219.0915,2105.3681387204733
221.3205,2131.925703006707
223.549,2127.2986182110144
225.777,2126.887667267056
228.0044,2117.6436118355077
230.2314,2070.7671923081684
232.4578,2035.809127900401
234.6837,1971.4201171198993
236.909,1927.9008381162637
239.1339,1878.2519493248951
241.3582,1845.774089902187
243.582,1809.3678802220127
245.8053,1821.0339222005066
248.0281,1828.3727996601237
250.2503,1823.8850782129816
252.472,1830.6213051874693
254.6932,1815.3820096731254
256.9139,1793.8177024532777
259.134,1810.278876157433
261.3536,1851.116005476922
263.5727,1900.8295470002888
265.7912,1983.6699388049174
268.0092,2106.7875999598964
270.2267,2220.6829296976175
272.4436,2317.006306182598
274.6601,2358.9580853725256
276.8759,2404.488600055027
279.0913,2451.0981594281484
281.3061,2461.887048645049
283.5204,2511.905528347911
285.7341,2540.2538345600424
287.9473,2582.9321781857006
290.16,2568.290744726602
292.3721,2476.8296938551457
294.5837,2380.6991595608224
296.7947,2269.8492510648302
299.0052,2210.430053781373
301.2152,2155.0916304261636
303.4246,2120.584021610616
305.6334,2103.8072463952285
307.8418,2067.4613026346588
310.0495,2000.8961671454933
312.2568,1922.7617960697069
314.4635,1812.6581255403128
316.6696,1704.4850724627074
318.8752,1588.1925356157076
321.0802,1519.6803967332798
323.2847,1477.1485216674678
325.4887,1480.8967610735112
327.692,1499.0249508351658
329.8949,1588.532912027219
332.0972,1682.0704507342105
334.2989,1755.9873571553494
336.5001,1764.28340466914
338.7007,1696.4083490942155
340.9008,1574.061928606376
343.1003,1438.9938644173385
345.2992,1309.9038619982027
347.4976,1188.341612430129
349.6955,1114.8567936952422
351.8927,1066.1490718922496
354.0895,995.3681019712933
356.2856,975.2135282210265
358.4812,940.33498497642
360.6763,930.0820968203116
362.8707,901.3544789321877
365.0646,895.6017371907164
367.258,899.2734684610218
369.4508,913.669260652211
371.643,973.9386926806583
373.8346,1031.2813343260445
376.0257,1099.5967456286653
378.2162,1162.334476316002
380.4062,1190.5440651195722
382.5956,1141.1250391475473
384.7844,1065.9269136026583
386.9726,960.2991922763886
389.1603,877.6413683009496
391.3474,812.002925205566
393.5339,808.8833377430497
395.7199,823.1820725461844
397.9052,879.0985881589204
400.09,959.6323348933893
402.2743,1066.5827542707375
404.4579,1145.7492782157892
406.641,1204.4313279875419
408.8235,1303.028313387501
411.0054,1382.58963217286
413.1868,1432.5646690705298
415.3675,1464.452794981527
417.5477,1439.353366481223
419.7273,1365.6157255004623
421.9064,1276.9891995765565
424.0848,1153.9231025906615
426.2627,1013.0667356540398
428.4399,875.0193883387246
430.6166,758.4303400860822
432.7928,655.748861587283
434.9683,557.2742159491982
437.1432,495.8056597212085
439.3176,461.19244387995514
441.4914,432.43381444402166
443.6645,418.2790128200695
445.8371,412.9272760904223
448.0091,416.5778371546148
450.1806,396.87992478290926
452.3514,373.43276357979175
454.5216,373.43557418094997
456.6913,390.08757348774725
458.8603,392.58797466719034
461.0288,405.1859869854152
463.1967,397.880815782677
465.3639,403.8216623473727
467.5306,384.0077239890916
469.6967,357.9881939792085
471.8622,339.1122617490205
474.0271,346.37911314994517
476.1914,331.7879306422792
478.3551,313.08789322252915
480.5182,316.97817656932375
482.6807,322.6579532304131
484.8426,348.97639258376694
487.0039,439.6826607807775
489.1647,560.6259204830731
491.3248,682.4553299554564
493.4843,704.2200418564721
495.6432,697.1692020201126
497.8015,618.8019492381709
499.9592,510.41741533074855
502.1163,392.8647259299246
504.2728,296.24300156360823
506.4287,250.50135883106077
508.5839,198.9889113691156
510.7386,177.7047703095909
512.8927,183.04804479441827
515.0461,213.86784218848106
517.199,236.0132680261827
519.3512,333.98342570324985
521.5029,473.27741625528097
523.6539,637.3443373780383
525.8043,660.1832820345135
527.9541,544.4933368142542
530.1033,373.17358170497755
532.2519,251.07309124946823
534.3999,209.1909362587753
536.5472,190.82618503321737
538.694,193.37790378120417
540.8401,200.74515680288505
542.9856,246.377006464631
545.1305,288.92251312536155
547.2748,329.38073468022867
549.4185,340.9507261351587
551.5615,359.88153920227296
553.704,395.7222221841862
555.8458,423.1218197846961
557.987,483.27937275038175
560.1276,557.4939175966024
562.2675,696.7644860059249
564.4069,867.8401040859771
566.5456,970.7697909767439
568.6837,928.1025571398086
570.8212,747.0874033290593
572.958,519.323321017358
575.0942,367.2592942066958
577.2299,295.79430170582964
579.3648,248.82731865092637
581.4992,224.70731722021083
583.6329,245.533267103634
585.766,322.5541357440743
587.8985,409.76888812907873
590.0304,529.6764860206545
592.1616,625.7258870831201
594.2922,656.9660436840318
596.4222,585.545901933685
598.5515,454.9644013727184
600.6802,305.7204756863116
602.8083,210.6630540100009
604.9358,172.59106242211874
607.0626,152.00342489436662
609.1888,181.34906367253825
611.3144,229.72689948239304
613.4393,329.13585123620214
615.5636,433.0748355489691
617.6873,566.9927657443404
619.8103,659.6385508152157
621.9327,656.8610940845706
624.0544,596.359292278993
626.1756,456.0820355564615
628.2961,322.928208111362
630.4159,262.34668957726353
632.5351,238.68635635845158
634.6537,246.5460822357477
636.7716,225.1747386031102
638.8889,215.87119438903665
641.0056,230.33431627027858
643.1216,251.96296876487486
645.237,262.15601408752127
647.3518,224.51231193328613
649.4659,174.83071937567684
651.5793,140.0100912430794
653.6922,85.04928061557393
655.8043,76.59713917313866
657.9159,49.70251774526241
660.0268,35.314266395462255
662.137,37.03123469023012
664.2466,40.45227184291571
666.3556,44.976226696558115
668.4639,29.75194768967549
670.5716,21.22828281102329
672.6786,3.204079751840254
674.785,-20.07181400891841
676.8907,-21.850551024335346
678.9958,-14.983083330072986
681.1002,-10.720144674789935
683.204,-12.462319126145758
685.3072,-2.5600836575549692
687.4097,-7.363790743865138
689.5115,2.1762327153105616
691.6127,-19.34026661537291
693.7132,-13.363542093021351
695.8131,-17.643653865478427
697.9123,-0.43052857880229567
700.0109,5.926083381047647
702.1089,31.07643592909335
704.2061,68.670782921095
706.3028,137.85937790205026
708.3987,181.19247373025019
710.4941,225.52032188539192
712.5887,237.34317203524938
714.6827,231.21127159239495
716.7761,221.82486559596805
718.8688,215.8341967729973
720.9608,203.63950563226535
723.0522,239.89103052421342
725.1429,266.38900776288756
727.233,354.38367126342337
729.3224,505.2252522770673
731.4112,641.3139785112271
733.4993,682.8500726210586
735.5867,587.6337508485769
737.6735,415.56522260729776
739.7596,263.5446914344002
741.845,175.4723567114138
743.9298,132.0484151844223
746.014,140.62306184478643
748.0974,147.69649036338456
750.1802,150.66889300486332
752.2624,142.54046055690537
754.3439,146.961382300507
756.4247,150.1318460912605
758.5048,171.70203831514596
760.5843,226.07214385682528
762.6631,291.54234588394047
764.7413,429.1628253034137
766.8188,619.2337601067459
768.8956,831.5553239938108
770.9718,961.2776844721461
773.0473,951.2010007337367
775.1221,869.8754223577928
777.1962,828.7510894115155
779.2697,959.7781332633522
781.3426,1209.8066769942404
783.4147,1414.436834087338
785.4862,1424.0687059277354
787.557,1229.2523797561582
789.6271,938.1379285726459
791.6966,639.7254130847141
793.7654,387.51488461850136
795.8335,250.50638810289115
797.901,176.04996459162135
799.9678,149.8456526333664
802.0339,165.24348901630015
804.0993,167.84350903014183
806.1641,173.74574631217456
808.2282,143.55023282125012
810.2916,106.15699877876295
812.3544,74.71607297060677
814.4164,50.17748312110871
816.4778,75.54125620743343
818.5385,93.6074187049735
820.5986,174.32599633370637
822.658,299.947013877538
824.7166,443.8704943771138
826.7747,641.4464578736099
828.832,842.0249199694997
830.8886,992.3558898527922
832.9446,1049.039368291249
834.9999,997.0753461290728
837.0545,861.2638037200734
839.1085,650.6547114473058
841.1618,467.94803108119163
843.2143,348.19371788560466
845.2662,254.74172244494025
847.3175,203.6419918616557
849.368,192.9444706907941
851.4179,180.39910145097838
853.467,196.7558247313882
855.5155,194.81457931721366
857.5633,219.37530202608696
859.6105,209.3879277274964
861.6569,192.30238909717764
863.7027,159.36861671698807
865.7478,137.2365392457632
867.7922,103.6060837486516
869.8359,87.62717591843875
871.8789,79.84974041184842
873.9212,75.97370100933244
875.9629,101.39898069284777
878.0039,134.22550168461407
880.0441,165.40318519286257
882.0837,201.6819510835703
884.1226,263.5117175686837
886.1609,353.64240084333073
888.1984,475.6239144675228
890.2352,579.406168464847
892.2714,612.5390681026524
894.3069,576.0725128542288
896.3416,455.1563960674739
898.3757,343.8906053295632
900.4091,274.62502367610614
902.4418,286.25953070380956
904.4739,342.1440032631308
906.5052,395.8783153419322
908.5358,413.3623375066393
910.5658,365.6459363648946
912.595,280.42897439071885
914.6236,205.56131040167406
916.6515,139.59280041103398
918.6786,103.97329837646066
920.7051,74.95265685968889
922.7309,81.88072738272285
924.756,81.2573607180409
926.7804,128.3324068193142
928.8041,149.2557148276403
930.8272,188.7271326007949
932.8495,209.19650650399603
934.8711,220.9636810151908
936.892,249.72849852036325
938.9123,295.1907991958624
940.9318,367.45042072075216
942.9506,407.45719782219066
944.9688,409.3609615528321
946.9862,352.5615388907595
949.003,267.70875272044896
951.019,218.10242240076013
953.0344,181.5423646134675
955.0491,145.17839385932052
957.063,118.31032282364617
959.0763,140.1879627399885
961.0888,135.41112365878985
963.1007,125.87961422861463
965.1119,110.24324174391563
967.1223,109.30181224035118
969.1321,83.15513065114806
971.1412,87.9530008165168
973.1495,78.44522574511757
975.1572,66.78160756608122
977.1641,94.36194762408718
979.1704,97.83604659599928
981.1759,87.75370421506341
983.1808,76.31471923616527
985.1849,47.36888953665448
987.1884,42.26601223073408
989.1911,71.70588395891946
991.1932,101.53830093906708
993.1945,109.06305867197557
995.1951,107.57995164306203
997.1951,103.48877324711339
999.1943,106.98931580311887
1001.1928,107.13137059517953
1003.1906,136.2647278375041
1005.1877,170.63917667298824
1007.1841,260.7045048818816
1009.1798,294.4604985380415
1011.1748,281.4069411082821
1013.1691,228.4936131148129
1015.1627,168.57029226577447
1017.1556,78.63675398437204
1019.1477,52.99277200810798
1021.1392,14.488119288118469
1023.1299,1.6725682456130926
1025.12,-4.704108843078757
1027.1093,25.757843589413596
1029.0979,66.20822810450909
1031.0859,124.34684700604816
1033.0731,170.77350193578854
1035.0596,176.0379932920207
1037.0454,156.59011976530087
1039.0304,133.17967828580413
1041.0148,86.65646421780548
1042.9985,37.07027159378367
1044.9814,2.8208935796540118
1046.9636,-3.791877029370653
1048.9452,19.28172438119418
1050.926,65.7915003066853
1052.9061,109.58725304962331
1054.8855,133.9687842546134
1056.8642,130.43589447038858
1058.8421,115.03838290599356
1060.8194,125.37604746611646
1062.7959,125.54868490506169
1064.7717,125.15609072337361
1066.7469,116.14805916611249
1068.7213,131.12438322677804
1070.695,163.43485473738906
1072.6679,205.57926421872207
1074.6402,260.40740055720516
1076.6117,308.26905058347484
1078.5826,268.86399852409386
1080.5527,191.99202552293445
1082.5221,105.9529100352288
1084.4908,45.74642859628966
1086.4587,3.3723566819012376
1088.426,0.0804693103846148
1090.3925,-10.279492189783241
1092.3584,2.7922127059848663
1094.3235,22.24542721440298
1096.2879,68.27996665798014
1098.2515,111.84564613677071
1100.2145,179.29228006802873
1102.1767,252.06968175055454
1104.1382,346.52766269022527
1106.099,490.21603187222286
1108.0591,608.8845948164517
1110.0185,691.5831521406576
1111.9771,786.211498373739
1113.9351,911.3194211287648
1115.8923,1060.9067001566884
1117.8488,1166.2231060952709
1119.8045,1098.2183989732061
1121.7596,881.4423271569592
1123.7139,614.3446280308099
1125.6675,456.1750301646168
1127.6204,446.03325598479296
1129.5726,487.7190233560025
1131.524,510.98204568257756
1133.4748,423.272031491661
1135.4248,290.3386842005757
1137.3741,175.48170299392405
1139.3226,108.00078415292296
1141.2705,90.19562220397165
1143.2176,110.31591059346329
1145.164,165.8113418658363
1147.1097,169.23160746237
1149.0546,131.9263971662317
1150.9989,59.74539906827181
1152.9424,23.238299940078377
1154.8852,-10.545214044213253
1156.8272,-22.305456942850014
1158.7686,-32.34263746739089
1160.7092,-33.0567414978816
1162.6491,-21.79743181142021
1164.5883,-8.314040948258707
1166.5267,27.694316307696
1168.4644,73.32860822980388
1170.4014,159.88980281448335
1172.3377,242.67886732486636
1174.2732,367.39676742518736
1176.2081,548.7944663528936
1178.1421,832.7729236714647
1180.0755,1147.4330934564366
1182.0082,1337.9259214556168
1183.9401,1338.0023419424833
1185.8713,1146.3132758112542
1187.8017,825.1596305761243
1189.7315,575.0923022881575
1191.6605,362.76217874682084
1193.5888,256.8201420006594
1195.5163,177.56707047059695
1197.4432,124.25384000935742
1199.3693,89.48132469399434
1201.2947,44.750397359023964
1203.2193,37.61192994414887
1205.1432,23.816793941568676
1207.0664,32.96586046736343
1208.9889,32.960000399446926
1210.9106,23.600084286073525
1212.8316,44.48698234589915
1214.7519,52.471564561579044
1216.6715,81.80470047089943
1218.5903,118.23725908693154
1220.5084,154.5201086047009
1222.4257,177.0541160368614
1224.3424,207.8901468508668
1226.2583,242.02906474363022
1228.1735,306.57173133316473
1230.0879,380.61900581719283
1232.0016,484.3717443277212
1233.9146,580.4307991905662
1235.8269,613.5470178878263
1237.7384,633.5712420972939
1239.6492,612.5043073612899
1241.5592,643.2470428864251
1243.4686,726.3002717542672
1245.3772,894.7148106139141
1247.285,1099.0414688514625
1249.1922,1296.93104690586
1251.0986,1446.4843342256422
1253.0042,1610.9521072900332
1254.9092,1798.7851281134162
1256.8134,2040.8341426006532
1258.7169,2264.7998786687567
1260.6196,2449.6330438263963
1262.5216,2555.4343229342458
1264.4229,2564.1043763566468
1266.3234,2498.343838903601
1268.2232,2343.9533197440655
1270.1223,2211.3834030635608
1272.0207,2093.534649608075
1273.9183,2053.7575980097627
1275.8151,2056.852765965433
1277.7113,2126.17065063432
1279.6067,2317.9617286071316
1281.5014,2642.726455212868
1283.3953,3079.1652626009145
1285.2885,3573.078556493391
1287.181,3963.2167118207676
1289.0727,4144.430067782729
1290.9637,4063.3189239467947
1292.854,3800.933538436184
1294.7435,3439.2741287409276
1296.6323,3129.4408743417225
1298.5204,2852.283920326525
1300.4077,2652.153380488883
1302.2943,2514.1493400995078
1304.1802,2413.5718579075783
1306.0653,2315.5209675207802
1307.9497,2248.4466784110823
1309.8333,2183.798976895243
1311.7162,2111.677826805556
1313.5984,2056.833170136325
1315.4798,2016.0649277650755
1317.3605,2041.8230000010035
1319.2405,2065.6072669926543
1321.1197,2071.767588470346
1322.9982,2005.3038035083218
1324.876,1881.4157304631515
1326.753,1685.8531676383648
1328.6293,1455.7158945233357
1330.5048,1232.9036737489062
1332.3796,1012.3662533887614
1334.2537,857.9033691875475
1336.127,751.1147467662506
1337.9996,669.7001031668226
1339.8714,624.0591479200682
1341.7426,564.2415838597926
1343.6129,541.3471075792095
1345.4826,493.77541002911676
1347.3515,461.22617674684216
1349.2196,427.74908833195923
1351.087,401.84382077178043
1352.9537,395.86004577612835
1354.8197,390.2974310363884
1356.6849,423.0056402853468
1358.5493,451.53433335281625
1360.4131,529.333165838555
1362.276,601.1517888269786
1364.1383,694.239848109172
1365.9998,755.1969834647034
1367.8606,736.4728277307429
1369.7206,722.9170061924913
1371.5799,727.8791367704225
1373.4384,713.5088301558403
1375.2962,657.5056897612567
1377.1533,538.5693118640979
1379.0096,436.1992861667327
1380.8652,364.895196985839
1382.7201,305.15662427610096
1384.5742,236.63314434325162
1386.4275,189.42433044145832
1388.2802,152.37975345855898
1390.132,122.14898238814794
1391.9832,109.18158470002277
1393.8336,88.87712664249148
1395.6832,84.58517337204717
1397.5322,74.95528915641216
1399.3803,43.28703741745812
1401.2278,26.279980827504914
1403.0745,25.233681626002408
1404.9204,-10.75229821039784
1406.7656,-3.1283969573819377
1408.6101,-15.694945475176837
1410.4538,-17.452243371324357
1412.2968,-14.700433460861632
1414.139,-2.539484210915134
1415.9805,10.730782768718882
1417.8213,39.510571237690556
1419.6613,85.50008484834348
1421.5006,154.24952685791527
1423.3391,249.25909966864447
1425.1769,370.7290041402748
1427.0139,548.759438639959
1428.8502,768.3005978275608
1430.6858,934.1026708753514
1432.5206,997.5158392725946
1434.3547,993.3402751675292
1436.188,964.9261407332367
1438.0206,932.9735882093953
1439.8524,925.6827601864236
1441.6835,905.8537899250041
1443.5139,908.8868014289915
1445.3435,931.8819096437037
1447.1724,940.2392204255905
1449.0005,915.8588303122833
1450.8279,929.640826439022
1452.6545,917.6352867824576
1454.4804,904.7422800228335
1456.3056,888.111865664041
1458.13,854.8940941625494
1459.9536,788.9890070937108
1461.7766,727.5966374839363
1463.5987,628.4670104697484
1465.4202,543.4001439117026
1467.2409,469.29604938568536
1469.0608,392.2547330335831
1470.88,308.5261963043215
1472.6984,244.46043672428004
1474.5161,193.85744873457656
1476.3331,159.0172243317254
1478.1493,128.2897535736672
1479.9648,124.37502492816975
1481.7795,121.82302558010451
1483.5935,137.18374147059308
1485.4067,130.8571573225272
1487.2192,153.24325648696208
1489.031,149.0420210063819
1490.842,158.2534313908386
1492.6522,164.12746665996428
1494.4618,163.96410425085855
1496.2705,159.81331995934556
1498.0785,150.82508794160935
1499.8858,143.94938075570008
1501.6924,133.88616945142007
1503.4981,128.08542363907736
1505.3032,127.89711159011904
1507.1075,113.7712002951389
1508.911,95.7076554657599
1510.7138,90.55644167589298
1512.5159,76.31752254237244
1514.3172,60.44086077646875
1516.1178,50.376418326277644
1517.9176,38.87415653548601
1519.7166,36.584036244017284
1521.515,39.256017903053134
1523.3126,22.290061597935505
1525.1094,16.286127021445964
1526.9055,16.244173643467093
1528.7008,5.464160771020374
1530.4954,4.396047548685829
1532.2893,0.6897930664030127
1534.0824,5.045356370151467
1535.8747,8.762696499013373
1537.6663,12.191772441616877
1539.4572,4.832543098964834
1541.2473,14.934967250142108
1543.0367,18.4490036259092
1544.8253,27.724610807676754
1546.6132,43.31174719236515
1548.4003,59.21037089964909
1550.1867,71.2704396160857
1551.9723,97.99191043612825
1553.7572,125.47473974152649
1555.5414,186.7188829341111
1557.3247,246.67429416096604
1559.1074,336.49092570198763
1560.8893,435.01872737032886
1562.6705,540.3076456142348
1564.4509,605.1576225317629
1566.2305,650.6185948178944
1568.0094,663.1904931160353
1569.7876,670.4232415634051
1571.565,651.1667576653188
1573.3417,667.5709522228595
1575.1176,688.4857295254433
1576.8928,735.7609871867771
1578.6672,780.3466159357109
1580.4409,871.5924991434858
1582.2138,951.348512377877
1583.986,1067.7145224907347
1585.7575,1183.7403868204242
1587.5282,1268.2759520281659
1589.2981,1342.9210529377774
1591.0673,1374.7755116903177
1592.8358,1403.7891369976346
1594.6035,1412.2117238238225
1596.3704,1380.143053095083
1598.1366,1335.0828916155024
1599.9021,1274.7809923877367
1601.6668,1216.7870950636125
1603.4308,1162.200926547147
1605.194,1165.0222015744876
1606.9564,1231.2006232597712
1608.7182,1352.7858830669143
1610.4791,1560.227660147826
1612.2394,1813.4256201265582
1613.9988,2078.1794130248845
1615.7576,2334.638670730323
1617.5156,2441.3530043485985
1619.2728,2429.872001639049
1621.0293,2240.895225947482
1622.785,1969.4722163209856
1624.54,1657.2524893976974
1626.2942,1365.33554212103
1628.0477,1098.070854861875
1629.8005,876.8078943377665
1631.5525,722.1961162855307
1633.3037,604.5349676739149
1635.0542,486.9738882497054
1636.804,411.86231171433894
1638.553,341.79966689951425
1640.3013,303.5353785183065
1642.0488,252.36886786579464
1643.7955,233.4495532017047
1645.5416,211.42685026207369
1647.2868,196.1001724484437
1649.0313,165.11893104808894
1650.7751,159.532535387282
1652.5181,172.9403931411067
1654.2604,169.09191038932204
1656.0019,172.33649148228346
1657.7427,207.27353907942745
1659.4828,255.40245411682588
1661.222,323.9226354578151
1662.9606,413.93347941170805
1664.6984,513.5843790485911
1666.4354,564.2747232992169
1668.1717,545.5538959584939
1669.9072,471.5212751785833
1671.642,347.4262336561087
1673.3761,256.6681393724805
1675.1094,174.1463568348472
1676.8419,126.91024798367619
1678.5737,85.9091730179714
1680.3048,60.4924908676345
1682.0351,45.309559603475805
1683.7646,31.00973669138091
1685.4934,29.19237914414009
1687.2215,21.10684366444673
1688.9488,13.40248666307059
1690.6754,18.57866433971344
1692.4012,13.18473276005227
1694.1263,3.670047803977809
1695.8506,8.133965219533707
1697.5742,4.925840718063114
1699.297,3.0950299295699324
1701.0191,3.4908884348002402
1702.7404,-5.937228216450194
1704.461,2.760035490706173
1706.1808,-5.3679056159334095
1707.8999,-4.121636736171922
1709.6182,-10.851689444435351
1711.3358,2.091445860001045
1713.0527,-0.14261281376070656
1714.7688,-14.904247477532294
1716.4841,-5.743838718424627
1718.1987,-3.8116182301156414
1719.9126,-10.357760325335448
1721.6257,0.21759876125145183
1723.338,5.414426269005958
1725.0496,-7.117310564886338
1726.7605,-4.027644557384065
1728.4706,-8.116537423513137
1730.18,1.5660893578694868
1731.8886,0.5203953921158018
1733.5964,0.8465402689163284
1735.3036,6.844683572758527
1737.0099,-1.3850151203361065
1738.7156,15.207603697207787
1740.4204,10.022713369266398
1742.1246,10.310487087639899
1743.8279,4.4210979439021685
1745.5306,10.604718926522082
1747.2325,9.611522979758092
1748.9336,20.29168294182176
1750.634,10.095371554808992
1752.3336,16.52276135789964
1754.0325,16.124024789319378
1755.7307,14.399334122066875
1757.4281,19.09886146790069
1759.1247,21.772778794585975
1760.8206,22.571257878899303
1762.5158,19.144470279890015
1764.2102,25.242587330895503
1765.9039,16.36578017380816
1767.5968,25.86421969809453
1769.289,26.088076629563943
1770.9804,25.237521435383826
1772.6711,32.112724321841085
1774.361,30.863855242847592
1776.0502,36.29108383118836
1777.7386,29.44457941100984
1779.4263,35.124510943547534
1781.1132,36.78104709559136
1782.7994,36.91435618268633
1784.4849,37.37460615256691
1786.1696,39.81196458382425
1787.8535,35.47659868130364
1789.5367,44.61867525173108
1791.2192,35.63836074706637
1792.9009,39.93582117308273
1794.5818,44.611222179170284
1796.2621,47.01472901536107
1797.9415,39.046506485575264
1799.6202,50.40671892358591
1801.2982,45.9955302727011
1802.9755,48.563103972161684
1804.6519,46.959603001253925
1806.3277,50.385189853633165
1808.0027,44.64002655335929
1809.6769,52.12427462064039
1811.3504,46.98809512928443
1813.0231,44.33164863185692
1814.6951,53.95509521104293
1816.3664,57.30859450621131
1818.0369,50.492305617180136
1819.7067,55.4563870706815
1821.3757,51.80099688852465
1823.044,51.37629253795484
1824.7115,52.78243096820802
1826.3783,55.26956861475719
1828.0443,57.987861385251506
1829.7096,52.98746463464482
1831.3741,58.51853313801257
1833.0379,60.88122114055591
1834.701,68.2756823022907
1836.3633,58.75206967442074
1838.0248,60.21053562539328
1839.6856,65.45123193613489
1841.3457,63.7243097854672
1843.005,63.87991969769956
1844.6636,70.16821155989862
1846.3214,71.73933462033176
1847.9785,65.74343742558437
1849.6349,71.9306678048489
1851.2904,66.5511729298837
1852.9453,76.55509925314038
1854.5994,66.54259256155905
1856.2528,64.61379787652896
1857.9054,73.46885955401353
1859.5572,71.80792130383838
1861.2083,66.63112610114075
1862.8587,71.83861620297876
1864.5084,73.83053320009981
1866.1572,72.85701796486512
1867.8054,72.36821063133095
1869.4528,74.46425060498365
1871.0994,78.34527656762754
1872.7453,76.16142645642469
1874.3905,78.91283742508483
1876.0349,74.14964586570335
1877.6786,76.77198738124753
1879.3215,79.12999683318827
1880.9637,80.87380831527662
1882.6051,76.7535551299639
1884.2458,76.6693697709635
1885.8858,72.8213839644535
1887.525,78.10972866991824
1889.1634,77.63453411862838
1890.8011,66.54592976075776
1892.4381,86.144044270135
1894.0743,81.47900565512936
1895.7098,76.05094106266961
1897.3446,75.10997682489472
1898.9786,76.10623851343439
1900.6118,76.03985094881875
1902.2443,78.9109381905156
1903.8761,70.46962353759454
1905.5071,81.21602950001585
1907.1374,75.2502778830439
1908.7669,78.62248967978292
1910.3957,75.68278513083413
1912.0237,77.98128369057378
1913.651,72.56810405655051
1915.2776,75.89336414650046
1916.9034,71.85718115247874
1918.5285,78.00967150760727
1920.1528,73.35095092643598
1921.7764,72.7811343434185
1923.3992,69.4003359594987
1925.0213,69.25866924780945
1926.6427,68.80624698748028
1928.2633,69.44318126505442
1929.8832,74.0195834790128
1931.5023,69.88556433340466
1933.1207,75.84123379208364
1934.7383,75.83670112004796
1936.3552,70.82207482388372
1937.9714,73.64746265181037
1939.5868,67.51297164382652
1941.2015,69.36870810345647
1942.8154,65.86477765909478
1944.4286,74.40128524544872
1946.041,69.32833513857815
1947.6528,64.29603087052993
1949.2637,68.70447528006764
1950.8739,68.25377056299499
1952.4834,77.24401822807113
1954.0921,73.42531910151746
1955.7001,69.79777323711556
1957.3074,68.26147995439419
1958.9139,69.31653787490455
1960.5197,67.36304493758286
1962.1247,64.95109838820048
1963.729,64.93079479889832
1965.3325,69.40223009230681
1966.9353,62.26549954174823
1968.5374,64.97069772652304
1970.1387,63.66791860327629
1971.7393,58.50725547894649
1973.3392,63.088801023792996
1974.9383,51.462647323002614
1976.5366,66.72888583087439
1978.1342,67.53760748708106
1979.7311,61.588902564006275
1981.3273,62.582860658658035
1982.9227,60.06957075215536
1984.5173,63.099121199788726
1986.1112,69.3715997561531
1987.7044,63.98709354485226
1989.2968,63.34568899577425
1990.8885,62.59747189893625
1992.4795,62.84252741089881
1994.0697,59.83094006224792
1995.6592,63.41279375514449
1997.2479,60.98817179344019
1998.8359,62.457156846858936
2000.4232,56.71983097524344
2002.0097,56.37627561386478
2003.5955,62.226571630795945
2005.1805,59.47079933034735
2006.7648,58.059038394563856
2008.3484,52.791367910782355
2009.9312,58.9678663857494
2011.5133,61.73861179829822
2013.0946,55.803681537583316
2014.6752,59.41315237537344
2016.2551,61.76710052540068
2017.8342,57.76560160726541
2019.4126,57.75873062289742
2020.9902,55.54656199657035
2022.5672,55.62916957497089
2024.1433,58.50662664932014
2025.7188,56.62900595454778
2027.2935,55.996379640517205
2028.8674,55.80881929080209
2030.4406,58.26639592901216
2032.0131,59.669180020669046
2033.5849,54.61724144863064
2035.1559,60.56064949906289
2036.7261,56.99947291195963
2038.2957,58.28377982170815
2039.8645,56.113637792701184
2041.4325,60.28911380649396
2042.9998,57.810274283505066
2044.5664,56.57718504126234
2046.1323,65.13991131919096
2047.6974,53.04851779094409
2049.2617,54.803068478776254
2050.8254,55.10362687445695
2052.3883,57.60025592172508
2053.9504,52.69301801328339
2055.5118,56.53197496583232
2057.0725,55.26718806914198
2058.6325,49.94871804766302
2060.1917,51.92662507317419
2061.7502,54.950968817967265
2063.3079,56.721808435067715
2064.8649,53.13920252799164
2066.4212,61.003209133037046
2067.9767,56.61388575511029
2069.5315,55.721289289085405
2071.0856,51.8754760636981
2072.6389,54.37650185047113
2074.1915,50.47442190217248
2075.7433,49.26929092780529
2077.2945,47.4111631316286
2078.8448,56.400092225208766
2080.3945,49.886131446000576
2081.9434,52.66933346745782
2083.4916,47.8497504641731
2085.039,51.17743408404573
2086.5857,51.652435496477665
2088.1317,44.97480535909645
2089.677,51.04459381300563
2091.2215,47.86185054956047
2092.7652,47.57662474967066
2094.3083,46.28896511562729
2095.8506,44.098919873955424
2097.3921,50.556536788290714
2098.933,43.16186318127967
2100.4731,53.26494587000374
2102.0124,49.11583123992577
2103.5511,51.364565143859295
2105.089,52.211192943459736
2106.6261,52.30575948673703
2108.1626,43.848309099589414
2109.6983,41.63888558485763
2111.2332,51.927532306899764
2112.7675,52.064292213684865
2114.301,45.69920773390703
2115.8337,51.58232077561746
2117.3657,43.713672789875375
2118.897,54.24330471191689
2120.4276,46.07125703984144
2121.9575,42.34756972931535
2123.4866,42.872282275292235
2125.0149,45.59543374925036
2126.5426,45.41706279394515
2128.0695,49.83720759617799
2129.5956,42.35590588857974
2131.1211,42.37319490540949
2132.6458,41.48911145736733
2134.1698,44.85369193142154
2135.693,44.36697229964952
2137.2155,44.27898808559152
2138.7373,45.189774369118254
2140.2584,45.24936578731061
2141.7787,40.05779652535162
2143.2983,49.91510031593111
2144.8171,39.521310491161074
2146.3353,37.776459884002605
2147.8527,45.83058093220393
2149.3693,46.73370569574885
2150.8853,41.33586577631553
2152.4005,40.83709230824513
2153.9149,48.137416012520276
2155.4287,41.286867201752756
2156.9417,42.98547570718037
2158.454,39.63327094717246
2159.9655,38.73028191024375
2161.4764,41.42653718857645
2162.9865,31.472064987050146
2164.4958,42.016893096279176
2166.0045,35.61104899215729
2167.5124,41.55455973040955
2169.0195,43.24745201065056
2170.526,40.93975211694962
2172.0317,40.3314859009015
2173.5367,37.22267880470358
2175.0409,36.61335586723868
2176.5445,39.60354175516281
2178.0473,37.793260768998664
2179.5494,37.282536813233804
2181.0507,38.8213934144228
2182.5513,35.859853726295285
2184.0512,36.74794051436703
2185.5504,38.23567618555512
2187.0488,38.87308277929745
2188.5465,44.110181952675134
2190.0435,36.796994974038626
2191.5397,35.533542670636535
2193.0353,36.56984550174758
2194.5301,32.45592357131537
2196.0241,39.141796617585015
2197.5175,38.927484054242484
2199.0101,38.46300490355597
2200.502,30.84837779851884
2201.9931,36.983620987494476
2203.4835,36.16875241036257
2204.9733,37.40378963716694
2206.4622,34.23874987626391
2207.9505,32.27364996197221
2209.438,29.308506386223286
2210.9248,33.393335318212024
2212.4109,30.078152634048564
2213.8962,28.36297387590986
2215.3809,26.947814285191356
2216.8648,29.532688819658915
2218.3479,25.41761216760031
2219.8304,30.452598721976443
2221.3121,29.03766262157231
2222.7931,27.12281770064706
2224.2733,28.75807750308323
2225.7529,31.79345530153526
2227.2317,25.1289640810769
2228.7098,29.91461650884756
2230.1872,27.600425000697157
2231.6638,26.036401673329635
2233.1397,26.672558367444594
2234.6149,21.908906663377593
2236.0894,26.295457874738673
2237.5632,24.082223096048978
2239.0362,20.419213158874925
2240.5085,20.95643865396073
2241.9801,22.793909967858525
2243.4509,24.581637277556155
2244.921,22.66963053210236
2246.3904,23.35789943472963
2247.8591,20.346453461974193
2249.3271,24.53530185679375
2250.7943,21.824453658681364
2252.2608,19.563917661777396
2253.7266,21.803702441977634
2255.1917,19.793816379538697
2256.656,21.38426763668042
2258.1197,19.325064177684624
2259.5826,18.4162137529905
2261.0447,22.207723919786673
2262.5062,19.749602051099714
2263.9669,17.991855297879056
2265.4269,13.284490613578072
2266.8862,20.3275147717315
2268.3448,13.020934413029323
2269.8026,17.564755974886623
2271.2598,17.258985764509163
2272.7162,17.203629913455217
2274.1719,15.848694380693274
2275.6268,20.794184953155536
2277.0811,19.84010725928735
2278.5346,17.2364667195923
2279.9874,15.633268556172766
2281.4395,18.530517818766555
2282.8908,15.828219400778863
2284.3414,19.2763780103098
2285.7914,12.174998197177047
2287.2406,17.674084318434694
2288.689,17.473640609386734
2290.1368,21.92367112859651
2291.5838,16.924179759890677
2293.0302,21.0751701678592
2294.4758,17.326645847850216
2295.9206,12.128610084460234
2297.3648,18.031065989019567
2298.8082,16.184016551572398
2300.251,25.63746458185247
2301.693,17.791412727753254
2303.1343,14.74586338079368
2304.5748,14.50081875457883
2306.0147,16.256280915255275
2307.4538,16.812251783961443
2308.8922,18.418733119272815
2310.3299,13.575726511642415
2311.7669,18.03323336733564
2313.2031,20.39125495686102
2314.6387,10.099792370394482
2316.0735,17.50884649419953
2317.5076,13.56841811354198
2318.941,12.878507838599091
2320.3737,14.739116143863896
2321.8056,14.450243375044437
2323.2369,16.91188973045766
2324.6674,17.024055263918143
2326.0972,25.53673986012174
2327.5263,28.499943233523965
2328.9547,21.56366484321299
2330.3823,20.977903863277646
2331.8092,24.692659252170472
2333.2355,11.357929758565035
2334.661,7.573713884208615
2336.0858,13.290010017269225
2337.5098,12.256816470177824
2338.9332,17.12413142246544
2340.3558,12.341952931094937
2341.7778,10.810278881788008
2343.199,10.179107036846972
2344.6195,11.748435050471386
2346.0393,9.168260475070042
2347.4583,15.788580745567458
2348.8767,14.409393205205674
2350.2943,11.63069503934068
2351.7113,15.602483289234954
2353.1275,15.72475487984417
2354.543,9.347506580099264
2355.9578,15.87073500168404
2357.3718,9.344436662807198
2358.7852,14.118607922970085
2360.1978,14.243245048229909
2361.6098,11.018344163458096
2363.021,14.893901251093837
2364.4315,8.01991218339333
2365.8413,13.996372683673826
2367.2504,13.273278395053921
2368.6587,10.350624820688324
2370.0664,13.728407330999119
2371.4733,8.256621192902088
2372.8795,8.235261536029185
2374.285,15.364323407446363
2375.6899,17.1938017718671
2377.0939,13.573691440361642
2378.4973,13.603987052062621
2379.9,16.084683110365603
2381.3019,16.815773982626553
2382.7032,13.7972538753545
2384.1037,14.979116826900793
2385.5035,12.711356737644309
2386.9027,9.693967358172898
2388.3011,8.47694231196084
2389.6987,12.110275125542898
2391.0957,10.443959240684393
2392.492,13.3279879780481
2393.8876,12.71235455385721
2395.2824,8.49705205105522
2396.6765,8.732073425462147
2398.07,5.3674115479275315
2399.4627,9.40305920198034
2400.8547,12.389009117475297
2402.246,7.675253930236806
2403.6366,16.36178615219913
2405.0265,7.198598218544134
2406.4156,10.78568240083601
2407.8041,5.723030898652894
2409.1918,4.360635803716406
2410.5789,11.348489150517793
2411.9652,6.33658292994204
2413.3508,6.824909019389196
2414.7358,10.81345923289365
2416.12,9.702225316240686
2417.5035,7.1411989070811615
2418.8863,8.88037154604362
2420.2684,9.469734702344766
2421.6497,8.959279756397535
2423.0304,14.398997993917675
2424.4104,3.3888806110282417
2425.7896,8.828918659862495
2427.1682,6.819103158664802
2428.546,10.459425037390531
2429.9232,10.149875157804047
2431.2996,7.590444277075477
2432.6753,5.1811230508763515
2434.0503,9.871902058973774
2435.4246,9.512771829323867
2436.7982,3.403722791163716
2438.1711,6.794745278602846
2439.5433,5.285829591713679
2440.9148,8.426965962621324
2442.2856,9.068144570592551
2443.6557,5.95935551062459
2445.025,2.250588787033422
2446.3937,3.6418343445414507
2447.7617,6.083082105365264
2449.1289,5.324321955303134
2450.4955,5.815543719322648
2451.8613,6.756737169148153
2453.2265,10.097892018348631
2454.5909,5.038997912925879
2455.9546,6.680044397902833
2457.3177,-0.47897903208749426
2458.68,3.411917050787679
2460.0416,9.302726859361428
2461.4025,6.193444572347829
2462.7627,8.83406427543369
2464.1222,6.92457999237152
2465.4811,6.614985658573175
2466.8392,7.305275140204941
2468.1966,6.045442237283112
2469.5533,9.185480676771448
2470.9093,10.32538412517917
2472.2645,5.165146157160876
2473.6191,11.404760244117568
2474.973,10.04421980579869
2476.3262,4.183518147906142
2477.6787,10.222648475699657
2479.0305,7.511603952603991
2480.3816,9.10037763981731
2481.7319,10.688962523421793
2483.0816,11.227351498496063
2484.4306,12.6155373532292
2485.7789,11.003512763536861
2487.1264,9.7912702791794
2488.4733,12.428802339882083
2489.8195,7.616101287457582
2491.165,12.803159339430835
2492.5097,9.389968637165708
2493.8538,8.726521193994614
2495.1972,8.91280892935032
2496.5398,4.598823675400496
2497.8818,12.684557175184722
2499.2231,10.070001125754459
2500.5637,11.005147097315614
2501.9035,14.589986559374097
2503.2427,10.774510871384564
2504.5812,12.058711246901822
2505.919,11.742578791735667
2507.256,8.826104491109021
2508.5924,9.809279212818922
2509.9281,9.192093736401546
2511.2631,9.224538743300343
2512.5974,11.856604823037856
2513.9309,7.638282472891433
2515.2638,10.969562071572398
2516.596,13.250433921409211
2517.9275,8.03088821503485
2519.2583,12.11091501257809
2520.5884,10.190504293858737
2521.9178,10.669645917587616
2523.2465,12.248329640570546
2524.5745,11.676545112916898
2525.9018,10.954281862252941
2527.2284,11.581529299439552
2528.5543,12.208276725794747
2529.8796,14.484513326821201
2531.2041,10.910228165939031
2532.5279,12.3854101617232
2533.851,10.510048123646527
2535.1735,7.4841307373277175
2536.4952,15.157646583285214
2537.8163,12.230584167196128
2539.1366,10.952931843161295
2540.4562,8.974677842975737
2541.7752,12.045810288905287
2543.0935,11.416317213469014
2544.411,13.786186528727981
2545.7279,12.00540603258024
2547.0441,8.42396338506191
2548.3596,13.591846126155232
2549.6744,9.709041711602751
2550.9885,12.52553746122868
2552.3019,11.741320597766915
2553.6146,12.206378218696017
2554.9266,13.070697304081293
2556.2379,11.434264711924357
2557.5485,11.297067169519948
2558.8585,10.809091289820145
2560.1677,13.970323572806507
2561.4762,13.430750410369598
2562.7841,9.590358054696964
2564.0913,13.799132623668655
2565.3977,12.007060139261327
2566.7035,14.864126485460332
2568.0086,12.620317426180492
2569.313,13.57561857669549
2570.6167,14.380015426075914
2571.9197,11.533493327636108
2573.222,16.286037490890465
2574.5236,15.637633010018405
2575.8246,10.638264816339102
2577.1248,16.68791768479535
2578.4244,20.036576283947383
2579.7232,12.784225115476303
2581.0214,18.480848480697404
2582.3189,19.076430553083895
2583.6157,18.920955321300525
2584.9118,19.064406583247873
2586.2072,14.256767947616893
2587.5019,21.398022832454515
2588.7959,19.038154513239874
2590.0893,20.57714605147227
2591.3819,16.214980318269298
2592.6739,20.101639978977303
2593.9652,19.087107536792956
2595.2557,25.871365293896545
2596.5456,22.454395361597562
2597.8348,22.986179592491908
2599.1234,24.966699614631565
2600.4112,24.09593682620674
2601.6983,22.323872375740663
2602.9848,24.90048717079725
2604.2705,23.225761895701723
2605.5556,24.34967698577455
2606.84,22.6222126440787
2608.1237,25.14334883018033
2609.4067,25.263065277423692
2610.689,28.131341467719494
2611.9707,25.548156630347876
2613.2516,22.863489713275584
2614.5319,24.277319408987864
2615.8115,27.489624181335003
2617.0903,23.200382251394288
2618.3685,17.95957156534675
2619.6461,16.067169837369605
2620.9229,21.723154602044403
2622.199,22.77750323328108
2623.4745,21.930192887758068
2624.7493,21.93120049437877
2626.0234,17.23050276274472
2627.2968,23.928076183145507
2628.5695,19.073897073565746
2629.8415,24.867941512709336
2631.1128,22.410185388541294
2632.3835,23.500604340347238
2633.6535,20.889173783310923
2634.9228,23.62586889761006
2636.1914,22.210664654530746
2637.4593,23.143535789100383
2638.7265,22.174456814239832
2639.9931,20.45340201143462
2641.259,21.88034544042577
2642.5242,18.605260956420352
2643.7887,17.57812219582199
2645.0525,21.298902608981834
2646.3156,17.567575470469848
2647.5781,21.434113841867045
2648.8398,18.94849060907869
2650.1009,19.4106784436689
2651.3613,19.470649827717025
2652.6211,17.528377049195583
2653.8801,18.433832201370777
2655.1385,12.536987202225049
2656.3961,20.137813785402486
2657.6531,16.586283559177417
2658.9094,18.68236793044605
2660.1651,17.376038140241846
2661.42,19.667265242774533
2662.6743,18.706020118493583
2663.9279,18.042273451175774
2665.1808,17.975995737537758
2666.433,19.807157293873416
2667.6846,19.38572825671679
2668.9354,24.611678564530337
2670.1856,22.834977961919265
2671.4351,29.405595947372092
2672.6839,28.42350179102759
2673.9321,26.08866446896863
2675.1795,28.75105267304309
2676.4263,29.960634834212243
2677.6724,26.617379095926836
2678.9179,28.02125330203124
2680.1626,29.2222250301962
2681.4067,27.820261577879847
2682.6501,26.115329950318184
2683.8928,31.207396874544685
2685.1348,26.5464288164395
2686.3761,22.832391929808807
2687.6168,26.36525210299456
2688.8568,24.544974996014844
2690.0961,16.821526005235256
2691.3348,17.644870281571627
2692.5727,19.51497280772469
2693.81,15.8317983899465
2695.0466,19.645311639339425
2696.2826,20.5554770086879
2697.5178,21.662258754323247
2698.7524,22.41562092702212
2699.9863,20.415527360938583
2701.2195,23.511941666070626
2702.452,22.404827248260986
2703.6839,23.844147278233052
2704.9151,26.379864702661962
2706.1456,26.811942229781394
2707.3755,29.84034230402642
2708.6046,28.71502710171272
2709.8331,28.685958500752463
2711.0609,30.00309809190759
2712.2881,31.866407179080568
2713.5145,36.12584676614286
2714.7403,34.93137753830196
2715.9654,38.38295981950691
2717.1899,39.93055358439308
2718.4136,40.6741184237662
2719.6367,39.46361352912665
2720.8591,44.79899768523346
2722.0809,54.0302292822097
2723.3019,54.05726626218842
2724.5223,44.28006602700053
2725.7421,51.39858543790423
2726.9611,48.06278091335723
2728.1795,42.02260835783129
2729.3972,43.328023195170545
2730.6142,38.37898042899299
2731.8306,35.775434629636436
2733.0462,35.11733998364893
2734.2612,33.05465031982419
2735.4756,29.637319115782518
2736.6892,28.315299518597755
2737.9022,26.88854437897065
2739.1145,26.80700626444903
2740.3262,21.32063747369527
2741.5372,24.42939003730173
2742.7475,20.283215772654472
2743.9571,23.482066252845712
2745.1661,19.17589284813552
2746.3744,19.214646693963317
2747.582,13.29827873400967
2748.7889,13.126739719808612
2749.9952,16.39998026991148
2751.2008,12.467950871602213
2752.4057,13.530601848164906
2753.61,10.487883398204204
2754.8136,8.039745585018863
2756.0165,12.936138367028803
2757.2188,9.12701162225656
2758.4204,10.512315099363292
2759.6213,6.6919984557401335
2760.8215,9.016011243655072
2762.0211,9.03430294845623
2763.22,10.096822965331654
2764.4182,4.453520599126321
2765.6158,7.054345053717071
2766.8127,8.849245488445547
2768.009,6.288170992109968
2769.2045,3.0210705650161316
2770.3994,8.34789314458817
2771.5936,3.568587638039517
2772.7872,1.1831028691046725
2773.9801,3.9913876258323597
2775.1723,1.9433906844403026
2776.3639,-0.41093921876765194
2777.5548,-5.321653366921524
2778.745,-1.9387989378685546
2779.9346,3.887630053861116
2781.1235,0.6576589623387576
2782.3117,2.3213131027593334
2783.4992,-1.7713822162586723
2784.6861,-5.170401709309928
2785.8723,-0.82570239488075
2787.0579,-1.387189639144495
2788.2428,-3.204760559507676
2789.427,0.4717015846477466
2790.6106,-1.6076544505022952
2791.7935,-1.5426799134988585
2792.9757,-1.1832099924150867
2794.1573,-1.9790644639517865
2795.3382,0.6199487154579657
2796.5184,0.9640413602351003
2797.698,0.5034252786010711
2798.8769,1.4383122691369863
2800.0551,2.1689141253898043
2801.2327,0.9454426265233877
2802.4096,1.1681095300125577
2803.5859,1.2871265838777077
2804.7615,2.852705524458173
2805.9364,3.165058075222177
2807.1106,3.274395931110888
2808.2842,10.930930755414877
2809.4572,12.484874178680755
2810.6294,14.48643772214595
2811.801,16.235832782199026
2812.972,18.88327061036418
2814.1423,20.528962295807375
2815.3119,33.823118738861936
2816.4808,37.06595063457158
2817.6491,38.80766833974893
2818.8167,52.698481840547146
2819.9837,59.538600735042806
2821.15,75.47823409432763
2822.3157,87.26759039410743
2823.4807,101.45687735530572
2824.645,129.49630182617022
2825.8086,139.6860696403799
2826.9716,156.9263853366509
2828.134,186.86745205683843
2829.2957,191.0594713735341
2830.4567,206.85264299065494
2831.617,219.59716470152352
2832.7767,229.54323223093584
2833.9358,227.99103910771635
2835.0941,219.19077656525718
2836.2519,213.19263355704015
2837.4089,208.8967968446393
2838.5653,193.5534510577025
2839.7211,186.5127787369095
2840.8761,182.07496048740578
2842.0306,187.39017504920884
2843.1843,182.60859934158688
2844.3374,181.53040840990616
2845.4899,185.9057754734471
2846.6417,196.73487193618584
2847.7928,196.91786734304117
2848.9433,197.0549292715829
2850.0931,199.0462233302025
2851.2422,204.69191315674203
2852.3907,209.34216039858148
2853.5385,202.29712465618158
2854.6857,208.1569634365817
2855.8323,218.97183222384973
2856.9781,220.99188442048433
2858.1233,233.36727123926553
2859.2679,241.4981416830547
2860.4118,245.53464242104053
2861.555,261.52691770743036
2862.6976,264.22510934108516
2863.8395,262.62935650559666
2864.9808,270.28979574230567
2866.1214,275.4565609662594
2867.2614,275.9797833896071
2868.4007,276.7095914699326
2869.5393,288.64611090502177
2870.6773,300.339464625565
2871.8146,301.2397726757912
2872.9513,309.747152096535
2874.0874,308.7117169162332
2875.2227,320.58357806585104
2876.3574,319.9628433892369
2877.4915,331.44961752440315
2878.6249,330.794001909734
2879.7577,336.0460946691174
2880.8898,354.4559906185011
2882.0212,349.62378121337247
2883.152,354.4995543646585
2884.2821,353.6833944870489
2885.4116,362.6753824502375
2886.5405,380.1255955870847
2887.6686,375.6841076036969
2888.7962,377.85098840492435
2889.923,371.72630413877664
2891.0493,374.76011717475336
2892.1748,374.9024861650912
2893.2997,374.4034660144256
2894.424,372.0631078783674
2895.5476,369.03145916849274
2896.6706,374.70856357574667
2897.7929,383.04446110075986
2898.9145,379.5391879970772
2900.0355,378.69277668779915
2901.1559,367.0552558006343
2902.2756,367.5266501763635
2903.3946,368.7069809852152
2904.513,371.39626572215116
2905.6308,360.1945181950638
2906.7479,357.30174849788244
2907.8643,362.6679631225917
2908.9801,361.9431649881585
2910.0953,357.87735338687037
2911.2098,359.5705239915832
2912.3236,348.82266889637907
2913.4368,358.48377659963535
2914.5494,350.4538321115024
2915.6613,350.8828168572929
2916.7725,340.82070875778106
2917.8831,332.0674822249133
2918.9931,332.27310826242865
2920.1024,329.6875545533917
2921.211,320.8107854581358
2922.319,317.44276204011896
2923.4264,313.3834421546912
2924.5331,308.682780482775
2925.6391,306.34072857145856
2926.7445,304.0572348810022
2927.8493,309.23224480825934
2928.9534,310.2657007095108
2930.0569,313.8075418487152
2931.1597,312.8077043871741
2932.2619,318.0661213481138
2933.3634,319.33272262668356
2934.4643,328.80743493737145
2935.5645,328.1401818013385
2936.6641,331.03088345167123
2937.763,338.3794568400547
2938.8613,342.28581560786483
2939.959,336.2498700126834
2941.056,330.7715268892339
2942.1523,302.3006897097411
2943.248,297.08725863871473
2944.3431,275.8311308176577
2945.4375,246.88220041720007
2946.5313,233.74035884966085
2947.6244,213.5054950585371
2948.7169,198.92749564992226
2949.8087,183.95624509485492
2950.8999,166.7916258750987
2951.9904,161.93351863285483
2953.0803,144.83180234240828
2954.1696,134.2863543587089
2955.2582,128.29705058838854
2956.3462,124.2137655952157
2957.4335,121.23637265998832
2958.5202,119.51474382136684
2959.6062,116.3487499056479
2960.6916,117.7882605439808
2961.7764,122.83314420402726
2962.8605,117.23326817556664
2963.9439,117.08849852004676
2965.0267,116.84870012658291
2966.1089,113.6637367134054
2967.1905,117.48347083025749
2968.2714,116.80776389024524
2969.3516,110.58647613163998
2970.4312,107.36946662463546
2971.5102,110.25659333356067
2972.5885,109.29771314905001
2973.6662,118.142681859172
2974.7432,120.74135415901807
2975.8196,115.59358356225296
2976.8954,114.69922237512787
2977.9705,113.85812174795822
2979.045,120.32013168406735
2980.1188,117.13510104819736
2981.192,119.85287750188911
2982.2645,112.17330753533254
2983.3364,112.64623644018879
2984.4077,108.12150838638594
2985.4783,98.44896641738976
2986.5483,95.02845249545102
2987.6177,88.2098075983309
2988.6864,87.49287175350611
2989.7545,80.52748410635532
2990.8219,81.26348292732857
2991.8887,68.20070568160105
2992.9548,62.78898902171318
2994.0204,58.07816891819833
2995.0852,50.868080713700095
2996.1495,45.25855917008032
2997.2131,40.94943854052019
2998.276,30.940552625615354
2999.3383,28.081734816467048
3000.4,26.57281819477106
3001.4611,18.813635561405917
3002.5215,20.554019451521967
3003.5812,14.543802212133201
3004.6404,12.882815984713446
3005.6989,7.770892765298541
3006.7567,10.007864421096187
3007.8139,4.9935627416052455
3008.8705,3.5778194162458874
3009.9264,3.810466084502721
3010.9818,-1.008665649917802
3012.0364,1.5202557785860762
3013.0905,0.09707201218597561
3014.1439,-2.4783753221490485
3015.1966,4.243755401579392
3016.2487,-0.8366694316609369
3017.3002,2.2302165206602353
3018.3511,1.4942879594007508
3019.4013,0.6554195631162969
3020.4509,-1.2865140045802548
3021.4998,-0.8316380866302211
3022.5481,-1.4800651737000692
3023.5958,-2.4818994483918004
3024.6428,-2.987230307456393
3025.6892,2.3538776465306483
3026.735,-1.2086103465754618
3027.7802,1.5752709295417517
3028.8247,0.805498765216079
3029.8685,-2.4679495649713346
3030.9118,2.9049032055056827
3031.9544,-2.675941002010603
3032.9963,1.2395197047730804
3034.0376,3.2513139508005935
3035.0783,3.8594703486205546
3036.1184,7.014017478268514
3037.1578,3.16498388118535
3038.1966,4.962398028671785
3039.2348,3.3062883603786943
3040.2723,2.9966832663330223
3041.3092,8.83361110349891
3042.3455,10.017100198873663
3043.3811,9.147178791118634
3044.4161,6.923875018724182
3045.4505,10.447216928708926
3046.4842,7.617232498852722
3047.5173,8.6839496024633
3048.5498,12.297396036676062
3049.5816,14.057599511786975
3050.6128,12.66458761511803
3051.6434,12.518387793415265
3052.6734,15.669027366778849
3053.7027,12.666533530125122
3054.7314,15.660933321680204
3055.7594,13.752253653004942
3056.7868,17.74052127905083
3057.8136,15.97576281724691
3058.8398,17.258004707616983
3059.8653,19.387273230427276
3060.8902,19.66359449336403
3061.9145,20.136994410240753
3062.9381,20.20749869823505
3063.9612,22.625132873154598
3064.9835,27.289922248732097
3066.0053,23.501891912448947
3067.0264,23.661066678887302
3068.0469,26.617471127610408
3069.0668,27.52112960157089
3070.086,26.622066177546657
3071.1046,23.970304657104336
3072.1226,26.81586857558993
3073.1399,26.208781228646423
3074.1567,21.69906564375811
3075.1727,27.43674458632148
3076.1882,22.471840604742425
3077.203,22.504375973059354
3078.2173,21.284372740592325
3079.2308,19.41185273161767
3080.2438,16.636837557568
3081.2561,14.909348635757418
3082.2678,15.529407217131642
3083.2789,12.69703440354295
3084.2893,15.212251141549565
3085.2991,13.475078250739372
3086.3083,16.485536398577764
3087.3169,15.243646117779356
3088.3248,11.499427776203419
3089.3321,10.802901589272793
3090.3388,11.254087657416065
3091.3449,12.153005973032798
3092.3503,9.999676415981739
3093.3551,11.844118744591583
3094.3593,11.986352617194257
3095.3629,8.07639757368051
3096.3658,11.314273034077594
3097.3681,9.049998337648795
3098.3698,10.633592710514694
3099.3708,7.6150752882959125
3100.3713,12.144465100277149
3101.3711,12.52178109959236
3102.3702,10.197042117930888
3103.3688,11.920266861764269
3104.3667,12.641473935593638
3105.364,8.160681824717486
3106.3607,11.427908888019587
3107.3568,8.693173402776907
3108.3522,7.006493531987346
3109.347,8.467887351717081
3110.3412,5.727372867967379
3111.3348,8.934968002060629
3112.3277,7.040690618045552
3113.32,3.944558490621173
3114.3117,8.396589324079653
3115.3028,8.446800783267562
3116.2932,6.095210449065593
3117.2831,7.891835817886477
3118.2723,6.83669432519083
3119.2608,3.5798033275208923
3120.2488,4.221180113052
3121.2361,7.010841934161448
3122.2229,4.9488060010147485
3123.209,5.83508945366901
3124.1944,4.4697093826932885
3125.1793,3.8526828203057555
3126.1635,7.6840267540275065
3127.1471,3.6637581328528306
3128.1301,5.1418938289357605
3129.1125,4.368450677792779
3130.0942,4.593445463521416
3131.0753,6.216894926534721
3132.0558,3.688815761311318
3133.0357,3.7092246001608693
3134.015,5.478138038504916
3134.9936,6.595572634672738
3135.9716,4.2115448922122525
3136.949,5.276071248715645
3137.9258,4.189168099659668
3138.902,4.200851787760364
3139.8775,3.3111386138421004
3140.8524,3.2700448367207393
3141.8267,7.577586682100765
3142.8004,2.133780342986217
3143.7735,5.43864193660529
3144.7459,6.942187558848364
3145.7178,5.544433251219427
3146.689,6.145394985800582
3147.6596,7.2450886792296245
3148.6295,4.693530186690392
3149.5989,5.740735290915865
3150.5676,4.586719727703716
3151.5357,6.681499175444269
3152.5032,4.325089266660665
3153.4701,5.317505567061033
3154.4364,2.8587635991026144
3155.402,7.448878832067621
3156.367,4.737866706650621
3157.3315,4.375742589057399
3158.2952,8.312521798115082
3159.2584,5.498219608893372
3160.221,4.4828512133367475
3161.1829,8.216431748407508
3162.1442,10.048976306239446
3163.105,6.280499896802054
3164.065,11.511017429575055
3165.0245,7.190543751233186
3165.9834,9.26909359334103
3166.9416,7.796681615557727
3167.8993,7.623322384851495
3168.8563,5.249030390223755
3169.8127,9.023820044442694
3170.7684,8.047705707786207
3171.7236,6.9207016502939975
3172.6782,8.1928220615287
3173.6321,9.464081061845935
3174.5854,8.184492689673121
3175.5381,9.804070888796856
3176.4902,7.922829521158798
3177.4417,8.290782350659912
3178.3926,7.107943061972858
3179.3428,7.674325256862488
3180.2924,7.739942466014215
3181.2415,9.404808143370225
3182.1899,9.068935665473271
3183.1377,11.082338314818038
3184.0848,10.595029283209854
3185.0314,5.507021651630678
3185.9773,7.268328395112169
3186.9227,10.278962433615774
3187.8674,8.238936614419657
3188.8115,9.298263682012365
3189.755,11.606956298493065
3190.6979,7.465027032978311
3191.6402,11.17248833851507
3192.5818,10.629352593500053
3193.5229,12.235632064605094
3194.4633,9.991338912208505
3195.4031,6.646485174332284
3196.3423,11.851082789085037
3197.2809,9.655143628110526
3198.2189,10.65867944454169
3199.1563,8.211701894960033
3200.0931,11.214222529360292
3201.0292,9.116252815620182
3201.9648,8.5178041094752
3202.8997,9.1688876754983
3203.834,9.069514693084404
3204.7677,9.66969624993955
3205.7008,12.319443343074632
3206.6333,9.518766872803573
3207.5652,10.617677616245867
3208.4964,10.866186255333343
3209.4271,12.91430336582106
3210.3571,11.11203941480222
3211.2865,12.459404740226983
3212.2154,12.00640956892512
3213.1436,11.853064003132367
3214.0712,12.199378025020362
3214.9982,13.795361498230102
3215.9246,12.441024164408807
3216.8503,13.036375627250084
3217.7755,14.431425366037287
3218.7001,14.226182729690022
3219.624,10.370656922813643
3220.5473,11.814857007751682
3221.4701,14.708791943141104
3222.3922,12.252470569470303
3223.3137,13.145901580139752
3224.2346,14.13909354602522
3225.1549,16.132054906543452
3226.0746,13.724793959720266
3226.9937,11.317318842260917
3227.9121,12.559637553622723
3228.83,13.55175798008982
3229.7473,13.843687882349961
3230.6639,14.835434885573328
3231.5799,14.37700647649322
3232.4954,14.218409993488589
3233.4102,15.709652631168316
3234.3244,12.000741441957185
3235.238,17.09168332118343
3236.151,14.432485044167896
3237.0634,16.973153215314568
3237.9752,12.5636942947026
3238.8864,14.454114572679591
3239.797,13.994420213956204
3240.7069,12.834617238701956
3241.6163,16.77471152714216
3242.5251,18.214708831155935
3243.4332,15.404614734875302
3244.3408,14.59443464028518
3245.2477,15.684173795324334
3246.154,15.773837301987188
3247.0598,17.46343010542642
3247.9649,17.552956993056338
3248.8694,14.542422577656946
3249.7733,14.631831296478682
3250.6766,16.321187441347767
3251.5793,15.810495157772095
3252.4814,18.04975842804769
3253.3829,16.98898107636562
3254.2838,17.228166746419355
3255.1841,18.86731891201258
3256.0838,14.906440874667272
3256.9829,16.54553574723225
3257.8814,15.034606493491884
3258.7792,19.023655911775194
3259.6765,18.012686650065117
3260.5731,17.251701166108035
3261.4692,16.590701737523453
3262.3647,16.92969046941385
3263.2595,15.718669300974678
3264.1538,17.70764000210449
3265.0474,18.04660418551513
3265.9404,17.235563286842023
3266.8329,17.22451856125457
3267.7247,17.663471091566517
3268.616,18.55242178834642
3269.5066,18.791371385528123
3270.3966,16.98032043152124
3271.286,19.06926928682166
