RamanShift,CorrectedData
30.1047,1204.6247246232183
32.3739,1117.5857402769939
34.6426,1031.5467438845224
36.9109,944.6077122236984
39.1787,858.3686117569504
41.4461,773.8793995006282
43.7131,689.9400238873961
45.9796,602.4004256111236
48.2456,517.1605384662794
50.5112,432.2202902233274
52.7764,346.92960348112655
55.0411,258.788396516332
57.3054,172.1465841363032
59.5692,94.40407856051536
61.8326,9.910790286977857
64.0955,-72.53337113034075
66.3579,-153.92849623657983
68.6199,-221.62395096850108
70.8815,-282.26756351718905
73.1426,-299.80494805045834
75.4032,-181.42889888316438
77.6634,259.32078472126886
79.9231,1375.956115974116
82.1824,3958.089105493445
84.4412,8585.581750137762
86.6995,14982.946007184682
88.9574,21136.343748056006
91.2148,25244.136694344073
93.4717,27002.33635627779
95.7282,27180.65399164468
97.9842,26754.800588208935
100.2398,25898.13686192818
102.4949,24971.623261212044
104.7495,23976.56997548879
107.0036,22931.536944470452
109.2573,22014.283868103354
111.5105,21114.72021701846
113.7632,20277.1052417039
116.0154,19597.49798150059
118.2672,19076.25727297841
120.5185,18560.241756732248
122.7693,18118.35988259443
125.0197,17747.469914794856
127.2696,17375.82993637984
129.519,17083.447852920992
131.7679,16699.731396231622
134.0163,16352.788127290572
136.2642,15904.125440079357
138.5117,15481.700565051626
140.7587,15065.170573619773
143.0052,14613.442382379184
145.2512,14164.672757273544
147.4967,13795.318318112111
149.7417,13481.235543057426
151.9863,13211.930772318832
154.2304,12987.96021129333
156.4739,12748.529933258615
158.717,12594.145881612782
160.9596,12341.363872268625
163.2017,11972.68959519748
165.4433,11569.678616957051
167.6844,11155.986384378146
169.925,10750.718228594782
172.1651,10285.379369181122
174.4047,9927.974918204141
176.6439,9585.559884877028
178.8825,9267.839179133218
181.1206,9025.817615050557
183.3582,8786.949914028497
185.5954,8640.490707208317
187.832,8471.444537861791
190.0681,8355.715862855795
192.3037,8289.309054342766
194.5388,8203.828400917973
196.7734,8129.078108283608
199.0075,8116.562300103573
201.2411,8180.635018750994
203.4742,8175.100225433374
205.7068,8250.311799551873
207.9389,8295.073538756656
210.1704,8395.389158194757
212.4015,8451.062290062493
214.632,8501.696482602281
216.862,8595.345199545922
219.0915,8647.561819608256
221.3205,8697.899635550672
223.549,8797.01185365894
225.777,8868.151593239838
228.0044,8972.471885630035
230.2314,9157.525673484677
232.4578,9248.465809734193
234.6837,9399.04505573376
236.909,9454.966080353897
239.1339,9363.93145847469
241.3582,9174.993670426551
243.582,8924.95510290059
245.8053,8713.818050837981
248.0281,8544.684719930352
250.2503,8378.157228731148
252.472,8306.837610346978
254.6932,8353.127814102874
256.9139,8360.579706255507
259.134,8423.09506953027
261.3536,8535.825603046767
263.5727,8748.072921693638
265.7912,8909.838555001286
268.0092,9099.07394501938
270.2267,9155.1304446992
272.4436,9183.6593160013
274.6601,9115.311729334926
276.8759,8984.738763272737
279.0913,8814.891405234279
281.3061,8606.220552791712
283.5204,8501.277015368287
285.7341,8455.361516325054
287.9473,8447.4746940103
290.16,8492.517102218699
292.3721,8596.389210270178
294.5837,8820.541402559506
296.7947,9029.273977517556
299.0052,9160.737145369798
301.2152,9062.381026048957
303.4246,8775.955647880386
305.6334,8298.360948565638
307.8418,7805.846778046724
310.0495,7307.312903282036
312.2568,6825.459013171514
314.4635,6455.734723541966
316.6696,6136.989581965616
318.8752,5897.623071457352
321.0802,5837.334613662166
323.2847,5790.773571248821
325.4887,5772.939248512739
327.692,5701.980891841607
329.8949,5622.147689893725
332.0972,5349.288774307583
334.2989,5075.7032205002015
336.5001,4756.6400503957175
338.7007,4508.648235161239
340.9008,4328.276698397478
343.1003,4106.7743186186635
345.2992,3973.38993105627
347.4976,3826.622329874028
349.6955,3734.1202695017637
351.8927,3715.1324661031013
354.0895,3601.5075985004532
356.2856,3557.2943083649243
358.4812,3462.1912013525343
360.6763,3434.9468475463764
362.8707,3384.45978240763
365.0646,3381.4785070480193
367.258,3388.751488734679
369.4508,3427.57716091996
371.643,3497.3539231686973
373.8346,3524.030140769959
376.0257,3565.7541440392833
378.2162,3521.7742280518996
380.4062,3428.938652225501
382.5956,3271.995640760042
384.7844,3151.1933835661075
386.9726,2971.8800378343276
389.1603,2889.6037292434085
391.3474,2784.0125537532604
393.5339,2710.304578427753
395.7199,2650.8778424906377
397.9052,2668.1303580626245
400.09,2700.260110755644
402.2743,2826.4150595003284
404.4579,2920.1431362247204
406.641,3095.642244592702
408.8235,3273.2602590667284
411.0054,3442.795023152845
413.1868,3656.044347624491
415.3675,3765.956008827159
417.5477,3820.627746545908
419.7273,3768.9572629062422
421.9064,3640.9922218273823
424.0848,3535.180249538991
426.2627,3340.4189358608055
428.4399,3045.9558352607673
430.6166,2683.438468802633
432.7928,2315.764327090619
434.9683,1989.1308738945572
437.1432,1746.1855498266432
439.3176,1542.675775607764
441.4914,1419.7489544969521
443.6645,1357.7024743264956
445.8371,1250.5337087311782
448.0091,1190.7400177687778
450.1806,1153.6687489917313
452.3514,1095.5172380450804
454.5216,1140.8828090371826
456.6913,1081.7627751212276
458.8603,1107.6044380415751
461.0288,1153.3050887249592
463.1967,1137.3620070220768
465.3639,1157.1724612505695
467.5306,1158.2837083544673
469.6967,1177.442993706085
471.8622,1211.9475510948996
474.0271,1269.0446025359724
476.1914,1298.2313579248912
478.3551,1333.4050144668036
480.5182,1347.6127563845494
482.6807,1412.6017545669238
484.8426,1545.1191664266025
487.0039,1882.9121352502498
489.1647,2263.977788873339
491.3248,2572.9132363022327
493.4843,2757.865563903524
495.6432,2691.331832314683
497.8015,2535.1090745945185
499.9592,2436.7942968885345
502.1163,2270.3844799911403
504.2728,1977.8265803288232
506.4287,1661.6175316242152
508.5839,1299.9042478216943
510.7386,1049.7836262494657
512.8927,913.2025512366981
515.0461,896.1578966147263
517.199,896.9465270828641
519.3512,1017.7152983788474
521.5029,1250.5610572709484
523.6539,1453.4306403502942
525.8043,1554.570871702399
527.9541,1508.6785608784812
530.1033,1346.600501884046
532.2519,1229.78347363783
534.3999,1210.174241592571
536.5472,1325.8695589031722
538.694,1599.5161666228105
540.8401,1931.3107925459553
542.9856,2222.2001484719367
545.1305,2284.0809268869725
547.2748,2223.249798055298
549.4185,1950.2034094003284
551.5615,1788.7383861129947
553.704,1738.1513338821987
555.8458,1766.8888405094585
557.987,1919.9474764147799
560.1276,2090.323794349295
562.2675,2405.71432786466
564.4069,2808.8655896092987
566.5456,3179.424068174503
568.6837,3278.336224062914
570.8212,2867.9484859829336
572.958,2287.557249859605
575.0942,1727.3588829385062
577.2299,1320.44972958964
579.3648,1168.376116909425
581.4992,1100.3843587897827
583.6329,1229.220757438885
585.766,1431.8316040610625
587.8985,1552.5631775684396
590.0304,1595.6117425548255
592.1616,1595.1235480884025
594.2922,1463.444827281237
596.4222,1254.1717972941642
598.5515,1032.2006606535742
600.6802,849.6776073441433
602.8083,722.5488170285516
604.9358,678.7104608727041
607.0626,688.2587028170165
609.1888,746.7897000148187
611.3144,868.6996027368514
613.4393,949.0345537859703
615.5636,1009.7906872780422
617.6873,1002.7141278385989
619.8103,951.4009899952744
621.9327,760.1473782485573
624.0544,610.1993875849403
626.1756,449.5531053894374
628.2961,356.8046129450886
630.4159,237.19998703939928
632.5351,223.6353008918395
634.6537,196.9066253498786
636.7716,219.36002902463588
638.8889,231.49157855816338
641.0056,289.24733839891815
643.1216,273.4733706804491
645.237,256.6157346438322
647.3518,168.02048679541804
649.4659,173.18368107540846
651.5793,121.10136974381203
653.6922,70.0196033288139
655.8043,79.48443114758084
657.9159,69.59190181709346
660.0268,39.988063159486046
662.137,46.66896230098973
664.2466,50.73064596795666
666.3556,44.669160420064145
668.4639,25.480551409682448
670.5716,13.110864242498792
672.6786,5.606143969391269
674.785,-13.68756448986278
676.8907,-33.7242722208739
678.9958,36.89214642951265
681.1002,28.658154019920403
683.204,9.470212740050556
685.3072,-31.225215506970926
687.4097,-26.28176342545521
689.5115,-50.0027517798153
691.6127,-50.791238779647756
693.7132,-93.59978310705446
695.8131,-74.08043603968144
697.9123,-39.58431379333706
700.0109,-33.51179252028305
702.1089,38.98714707449835
704.2061,50.91285906882513
706.3028,108.36569715064797
708.3987,173.3460144988003
710.4941,217.60416320844524
712.5887,290.1404936413055
714.6827,438.15535398306383
716.7761,637.299089518001
718.8688,859.4720411488543
720.9608,1016.3745434053671
723.0522,1158.7569222225775
725.1429,1190.7194933717728
727.233,1153.9625610366693
729.3224,1162.1364174937917
731.4112,1061.0413434800485
733.4993,932.6776081109856
735.5867,699.4454698917416
737.6735,516.7451780006832
739.7596,347.226974621728
741.845,238.64109677135457
743.9298,172.53777799377167
746.014,147.51724944678426
748.0974,155.47974056283056
750.1802,161.175479299176
752.2624,185.00469205830814
754.3439,261.2176036309538
756.4247,373.5144369578029
758.5048,565.4954123673742
760.5843,847.4107464530425
762.6631,1242.6106501532377
764.7413,1830.6453259322789
766.8188,2525.5149638283983
768.8956,3118.619735573373
770.9718,3510.35978764384
773.0473,3418.6852353302475
775.1221,3162.6961588194536
777.1962,2853.6926041114693
779.2697,2706.4745855793462
781.3426,2767.692089059219
783.4147,2924.795073322468
785.4862,3080.033469463564
787.557,2918.7071793290434
789.6271,2509.3660739650986
791.6966,1899.1599952308643
793.7654,1329.488759891814
795.8335,941.8521657218134
797.901,661.6999971998539
799.9678,495.9320293864166
802.0339,435.6480307249785
804.0993,420.0977646997071
806.1641,371.3309904382986
808.2282,316.8974628674787
810.2916,225.99693320066217
812.3544,186.77914948229954
814.4164,130.04385749687208
816.4778,143.4408011610758
818.5385,195.96972309117155
820.5986,332.5303644690284
822.658,540.1724645168179
824.7166,858.8457591314036
826.7747,1339.7499788079385
828.832,1805.5348454531268
830.8886,2182.0000675761676
832.9446,2378.6953356309295
834.9999,2248.7703182512796
837.0545,2031.7246602841333
839.1085,1746.6079840887141
841.1618,1523.6698917070025
843.2143,1320.859967714896
845.2662,1188.6277814515997
847.3175,1049.9728890477181
849.368,924.7448347475856
851.4179,850.9431522958112
853.467,754.1673661895657
855.5155,675.3669924165897
857.5633,599.9415394229654
859.6105,506.7405089011045
861.6569,452.61339654400945
863.7027,375.40969297728043
865.7478,351.7788843003891
867.7922,330.12045285872045
869.8359,330.08387747988127
871.8789,380.01863369027524
873.9212,485.8241937154762
875.9629,622.1000259808789
878.0039,773.2955940536358
880.0441,859.810355279913
882.0837,946.3437592729169
884.1226,948.2952470477558
886.1609,980.8142501560942
888.1984,1060.650190666658
890.2352,1151.2524808400267
892.2714,1185.1705223302797
894.3069,1137.7537052789758
896.3416,1010.1514079759781
898.3757,870.2629973336188
900.4091,805.0378301627097
902.4418,835.6752545714426
904.4739,860.0746106176357
906.5052,932.1852300023456
908.5358,867.8564358259027
910.5658,739.5375418667827
912.595,573.3778532249107
914.6236,376.5266676048377
916.6515,253.18327697733912
918.6786,215.7969695479278
920.7051,224.51703099029692
922.7309,307.6927448201677
924.756,333.57339230810794
926.7804,422.7582516477487
928.8041,406.7465976969943
930.8272,484.98770108617646
932.8495,498.48082837816764
934.8711,478.2752412859609
936.892,401.57019653775023
938.9123,360.0649460789773
940.9318,349.80873783939205
942.9506,328.30081614809205
944.9688,264.8904218360876
946.9862,203.3267924513966
949.003,95.10916289313354
951.019,40.136766027158956
953.0344,-1.9411662317561422
955.0491,4.074597629802156
957.063,79.83328914465892
959.0763,174.48413980490113
961.0888,197.92638030428134
963.1007,295.80923959172287
965.1119,332.68194463688815
967.1223,337.84371945135535
969.1321,345.1437847198904
971.1412,359.13135774882176
973.1495,328.80565239304997
975.1572,368.5158789161651
977.1641,415.46124429370684
979.1704,411.690951816061
981.1759,369.65420061900477
983.1808,411.60018572141416
985.1849,479.17809844562726
987.1884,591.8371259979867
989.1911,711.6764507930639
991.1932,800.5452493270532
993.1945,826.7426909793958
995.1951,796.417937124088
997.1951,764.6201408677007
999.1943,746.398447352638
1001.1928,751.4019940750986
1003.1906,788.2299110673157
1005.1877,882.6813208474978
1007.1841,966.4553380515608
1009.1798,982.4510684886118
1011.1748,888.1676083032125
1013.1691,729.2540438154228
1015.1627,540.8594524636392
1017.1556,338.4329043937196
1019.1477,228.97346434294377
1021.1392,137.83019366426743
1023.1299,119.65215142091256
1025.12,126.33839529780562
1027.1093,205.28798178336
1029.0979,336.54996610260787
1031.0859,437.57340142771136
1033.0731,465.45733756533446
1035.0596,423.6008199464086
1037.0454,319.9028893473005
1039.0304,228.76258230837266
1041.0148,100.77893217097153
1042.9985,33.05096998881163
1044.9814,-16.522274192173427
1046.9636,-59.99177065655931
1048.9452,-99.20832463139959
1050.926,-35.32214202597606
1052.9061,-5.732437658411072
1054.8855,28.66192652137397
1056.8642,70.11214583049878
1058.8421,137.46941529946344
1060.8194,202.38492925764876
1062.7959,232.30988065974998
1064.7717,299.94546043661467
1066.7469,386.6928571960052
1068.7213,418.2032565462232
1070.695,517.7278402286502
1072.6679,540.1177858026404
1074.6402,554.2742656502724
1076.6117,511.29844675245295
1078.5826,448.9914905473561
1080.5527,326.2545533601733
1082.5221,287.03878702619295
1084.4908,325.3953401181625
1086.4587,400.7753583384456
1088.426,484.82998413545283
1090.3925,495.41035594984896
1092.3584,530.4676073740047
1094.3235,515.7028670461859
1096.2879,559.767258299993
1098.2515,663.1618993120046
1100.2145,835.7879026611263
1102.1767,1009.7963742946504
1104.1382,1244.0884118020003
1106.099,1508.5151026746316
1108.0591,1757.477521963121
1110.0185,1895.2267296329082
1111.9771,1983.8137680746586
1113.9351,1883.089660726775
1115.8923,1717.5054111895242
1117.8488,1525.7120042322895
1119.8045,1330.110407449387
1121.7596,1198.0015731780295
1123.7139,1086.9864404543187
1125.6675,1066.365936334345
1127.6204,1098.4409770043403
1129.5726,1076.0124679868823
1131.524,1022.5813038201413
1133.4748,891.7483682821676
1135.4248,762.364534925202
1137.3741,633.0806683840074
1139.3226,540.147625669706
1141.2705,506.4662574626127
1143.2176,404.13740904157385
1145.164,381.36192062078044
1147.1097,351.1406283730539
1149.0546,270.37436465760584
1150.9989,175.4139583222477
1152.9424,97.26023551104663
1154.8852,-2.685979386060353
1156.8272,-50.57386295174183
1158.7686,-46.90256493572997
1160.7092,-29.270729854872116
1162.6491,3.62346633060406
1164.5883,103.0821400750574
1166.5267,229.00740779661464
1168.4644,410.45138488258453
1170.4014,609.0161844302038
1172.3377,877.9039154322018
1174.2732,1179.766680791161
1176.2081,1575.2065746306216
1178.1421,2050.625679276469
1180.0755,2551.5260613025275
1182.0082,2858.90976677636
1183.9401,3036.178816250278
1185.8713,2930.0352016875077
1187.8017,2619.5308846894914
1189.7315,2263.81779755732
1191.6605,1911.0978463967822
1193.5888,1634.6229146754958
1195.5163,1472.9948667501012
1197.4432,1380.1155506310151
1199.3693,1335.6367995987202
1201.2947,1320.8604331325387
1203.2193,1284.5382573554434
1205.1432,1307.3220651817956
1207.0664,1299.0136366805855
1208.9889,1277.1147388475838
1210.9106,1279.5271256884262
1212.8316,1320.6025384376062
1214.7519,1375.592705534349
1216.6715,1393.7993422118616
1218.5903,1481.6241499474181
1220.5084,1535.5188162803115
1222.4257,1628.5850139335926
1224.3424,1662.9244002751311
1226.2583,1771.488616386945
1228.1735,1924.479286721822
1230.0879,2061.798018017662
1232.0016,2279.7963977675754
1233.9146,2377.125992846699
1235.8269,2383.2883473322036
1237.7384,2336.6349815300055
1239.6492,2193.017391913141
1241.5592,2173.1370515883063
1243.4686,2183.245411732023
1245.3772,2314.193901789451
1247.285,2487.433929373301
1249.1922,2651.2668789543404
1251.0986,2786.844110129008
1253.0042,2833.96695598107
1254.9092,2950.28672172585
1256.8134,3053.804684239012
1258.7169,3227.272090893355
1260.6196,3396.890158523638
1262.5216,3636.010071691904
1264.4229,3854.8829809912986
1266.3234,4104.910000654865
1268.2232,4211.342206366824
1270.1223,4274.930632762302
1272.0207,4307.426272363004
1273.9183,4315.28007494134
1275.8151,4282.592947195451
1277.7113,4261.965752670694
1279.6067,4311.399312086491
1281.5014,4498.644403542619
1283.3953,4826.251762024869
1285.2885,5249.822077532588
1287.181,5671.05599180261
1289.0727,6105.004094073558
1290.9637,6391.616916873494
1292.854,6602.044931680449
1294.7435,6616.288546056288
1296.6323,6594.598101542434
1298.5204,6546.32387351743
1300.4077,6432.916071413842
1302.2943,6290.424839200997
1304.1802,6078.950256519063
1306.0653,5706.342340103962
1307.9497,5292.351045902118
1309.8333,4907.926272796537
1311.7162,4636.11786674671
1313.5984,4480.075624632877
1315.4798,4377.199296974103
1317.3605,4321.788589488702
1319.2405,4271.493164122996
1321.1197,4070.6626396054207
1322.9982,3792.7965919494854
1324.876,3582.1445564620717
1326.753,3328.956030522102
1328.6293,3173.580475687062
1330.5048,3045.767320224875
1332.3796,2925.5159606676634
1334.2537,2863.8757630898835
1336.127,2784.9960643108316
1337.9996,2783.2261725110493
1339.8714,2785.9153680211202
1341.7426,2796.062903339367
1343.6129,2837.7180031049666
1345.4826,2854.4298639964672
1347.3515,2881.0476543152454
1349.2196,2847.870513818376
1351.087,2916.3475534524578
1352.9537,2961.227855685388
1354.8197,3100.560473821589
1356.6849,3293.444431553213
1358.5493,3476.6787215668046
1360.4131,3671.062303614477
1362.276,3785.5441026815533
1364.1383,3759.82300704274
1365.9998,3584.4478671173
1367.8606,3245.967495726274
1369.7206,2917.480669846227
1371.5799,2584.5861339940566
1373.4384,2358.6826035118584
1375.2962,2123.368767895865
1377.1533,1834.9932930554933
1379.0096,1481.2048236664687
1380.8652,1152.4019860545914
1382.7201,879.7833917336202
1384.5742,654.3976406932916
1386.4275,478.9933241255112
1388.2802,336.4190266782116
1390.132,236.37332820939355
1391.9832,176.35480521287263
1393.8336,111.86203181873498
1395.6832,98.24358039351864
1397.5322,79.1480221851507
1399.3803,64.02392745911584
1401.2278,55.46986568941611
1403.0745,63.78440570981911
1404.9204,79.91611579939672
1406.7656,94.11356359938782
1408.6101,122.57531595186538
1410.4538,194.99993875777182
1412.2968,270.0859966923008
1414.139,333.88205248064787
1415.9805,418.886666147152
1417.8213,516.2483943773341
1419.6613,637.8657896678551
1421.5006,798.7373993528972
1423.3391,1044.7117643879892
1425.1769,1374.8874177412863
1427.0139,1839.3628819338273
1428.8502,2418.8366657377874
1430.6858,2972.8572595317128
1432.5206,3394.97312950578
1434.3547,3657.1327121216073
1436.188,3706.1344098910686
1438.0206,3659.476588754712
1439.8524,3473.8075775917414
1441.6835,3399.1256686865972
1443.5139,3327.3791195856375
1445.3435,3240.066153843969
1447.1724,3243.584961742905
1449.0005,3223.6837011631105
1450.8279,3171.1604975493956
1452.6545,3167.563444109742
1454.4804,3220.1906023405236
1456.3056,3228.940002062489
1458.13,3169.9596408944763
1459.9536,3014.197484165924
1461.7766,2740.9014655066694
1463.5987,2416.469488404583
1465.4202,2125.7494289385195
1467.2409,1771.9891390226494
1469.0608,1513.3364493136514
1470.88,1235.7891727483147
1472.6984,1036.0451071300668
1474.5161,843.6520379044505
1476.3331,728.1577401565546
1478.1493,626.50998053495
1479.9648,545.0565184066372
1481.7795,447.2951068735165
1483.5935,410.57349358692954
1485.4067,389.5394217252642
1487.2192,357.4906303611788
1489.031,340.4248546719364
1490.842,310.93982625990793
1492.6522,307.08327332321187
1494.4618,286.6029209505723
1496.2705,285.74649115987995
1498.0785,254.16170310300095
1499.8858,239.89627307433148
1501.6924,200.34791482665787
1503.4981,191.4143397138041
1505.3032,181.7932570861185
1507.1075,155.33237437980642
1508.911,133.42939721314542
1510.7138,114.13202965109576
1512.5159,73.53797442432187
1514.3172,72.74493312217328
1516.1178,32.300606598624654
1517.9176,17.102694980198976
1519.7166,7.0988980704141795
1521.515,-11.363084498239914
1523.3126,-27.135553164260273
1525.1094,-59.27069484893309
1526.9055,-27.720425389371485
1528.7008,-20.186068508446624
1530.4954,-59.76867100198615
1532.2893,-35.169078006991185
1534.0824,-57.13753757144241
1535.8747,-24.42394640423754
1537.6663,-12.27763041027356
1539.4572,-6.147671499228636
1541.2473,36.06697107274704
1543.0367,43.667399464735354
1544.8253,47.65471547515608
1546.6132,97.83002046575712
1548.4003,137.0944153217415
1550.1867,209.69899995001833
1551.9723,281.14487288655164
1553.7572,396.533130570323
1555.5414,514.5648666288662
1557.3247,672.641170724386
1559.1074,831.4631273734449
1560.8893,1026.8318143661954
1562.6705,1155.2983011781607
1564.4509,1310.6636470165486
1566.2305,1389.9788995355875
1568.0094,1473.34509328287
1569.7876,1475.8132489062036
1571.565,1479.2843723199476
1573.3417,1511.4094546803299
1575.1176,1504.1894723507385
1576.8928,1490.5253865804634
1578.6672,1521.968143576907
1580.4409,1511.968674642223
1582.2138,1543.327895858879
1583.986,1588.0967081896652
1585.7575,1635.825997164091
1587.5282,1710.1166324306978
1589.2981,1815.969467279775
1591.0673,1901.1853379004478
1592.8358,2014.0150623221452
1594.6035,2114.409439562456
1596.3704,2202.4192484988107
1598.1366,2309.5452468645517
1599.9021,2446.2881703688245
1601.6668,2552.5487316253348
1603.4308,2698.027618784903
1605.194,2893.6754944728737
1606.9564,3076.0429943343097
1608.7182,3380.030725077522
1610.4791,3676.7392626503915
1612.2394,3958.6191492004937
1613.9988,4266.670890108008
1615.7576,4554.294951166929
1617.5156,4791.591755504545
1619.2728,4907.961680705193
1621.0293,4921.205056437304
1622.785,4727.4221632896815
1624.54,4450.763232639093
1626.2942,4165.228448588081
1628.0477,3800.117950731559
1629.8005,3475.3318370121588
1631.5525,3155.5201673713354
1633.3037,2925.3829669972247
1635.0542,2732.9702295227607
1636.804,2567.5319193270507
1638.553,2488.417973459499
1640.3013,2460.4783032941923
1642.0488,2419.162795321039
1643.7955,2469.221311425168
1645.5416,2538.6036893000837
1647.2868,2656.6597419470827
1649.0313,2808.839256981425
1650.7751,2989.6419954517833
1652.5181,3161.3676903184314
1654.2604,3336.766044645232
1656.0019,3596.686729882368
1657.7427,3878.929384112367
1659.4828,4155.4436094508865
1661.222,4348.028969224299
1662.9606,4342.984985204532
1664.6984,4112.911135683236
1666.4354,3696.656855522212
1668.1717,3148.321538454149
1669.9072,2607.4545412451716
1671.642,2123.805189178197
1673.3761,1728.6727814615924
1675.1094,1403.7565960656784
1676.8419,1185.6058936740474
1678.5737,978.169920932728
1680.3048,833.6979126316937
1682.0351,709.4890937792206
1683.7646,600.042681046606
1685.4934,542.4078840102575
1687.2215,483.2339062461542
1688.9488,430.8199459062025
1690.6754,376.9651963099668
1692.4012,360.2188464688152
1694.1263,298.73008162446604
1695.8506,294.348083416452
1697.5742,256.32203049700547
1699.297,229.55109857488333
1701.0191,195.58446079561963
1702.7404,176.27128800924038
1704.461,147.31074910992538
1706.1808,152.35201122914623
1707.8999,129.39424002526357
1709.6182,120.73659963312457
1711.3358,92.22825289363345
1713.0527,92.76836144033132
1714.7688,91.4060859844808
1716.4841,74.74058630965874
1718.1987,83.02102128538536
1719.9126,47.196549033778865
1721.6257,58.46632684674978
1723.338,74.97951154424572
1725.0496,52.83525936155138
1726.7605,74.03272578415908
1728.4706,66.4210657692106
1730.18,54.0994335335231
1731.8886,65.21698262970222
1733.5964,45.92286606936068
1735.3036,56.416236211943215
1737.0099,53.04624495766666
1738.7156,42.51204364258865
1740.4204,23.96278307230341
1742.1246,9.647613627289047
1743.8279,5.465685448396016
1745.5306,0.21614858000066306
1747.2325,-19.35184698817602
1748.9336,-13.08915126857255
1750.634,-14.946420948680498
1752.3336,-8.174181955369477
1754.0325,-10.672810900764489
1755.7307,-27.34260273691598
1757.4281,-2.3837457944950984
1759.1247,0.20384474842967393
1760.8206,-12.479722472593494
1762.5158,7.765661175945752
1764.2102,9.990228999983628
1765.9039,-5.405785772199124
1767.5968,8.827849987775608
1769.289,1.0914234120855326
1770.9804,-6.614778455367741
1772.6711,-3.040468581596997
1774.361,20.064706148021287
1776.0502,0.3011292223905002
1777.7386,27.369183929768496
1779.4263,28.569253555404885
1781.1132,30.85172111085876
1782.7994,28.41696932200057
1784.4849,31.71538060618468
1786.1696,30.89733709659731
1787.8535,42.26322060927214
1789.5367,46.56341265126957
1791.2192,47.99829430702084
1792.9009,27.668246195323263
1794.5818,40.47364845499442
1796.2621,44.76488094817023
1797.9415,74.99232313225411
1799.6202,40.30635401700101
1801.2982,62.75735186224483
1802.9755,54.24569452475998
1804.6519,72.8217592337478
1806.3277,58.08592267595577
1808.0027,54.28856080991636
1809.6769,79.03004901329405
1811.3504,72.31076212087419
1813.0231,77.98107417713618
1814.6951,90.5913585034532
1816.3664,90.04198764138846
1818.0369,74.73333322659346
1819.7067,94.81576599430173
1821.3757,93.43965593241455
1823.044,115.90537208067781
1824.7115,93.41328254444488
1826.3783,100.76375427001585
1828.0443,97.70715326956224
1829.7096,96.04384454761566
1831.3741,113.9241921316393
1833.0379,114.14855908866002
1834.701,110.26730734646344
1836.3633,121.23079769135029
1838.0248,117.13938980695002
1839.6856,132.7434421645853
1841.3457,142.49331206418583
1843.005,137.38935547824985
1844.6636,131.53192695434245
1846.3214,132.92137966614018
1847.9785,150.10806547199672
1849.6349,159.9423349010558
1851.2904,165.1245369813796
1852.9453,143.70501914161196
1854.5994,158.98412715915038
1856.2528,163.96220537434374
1857.9054,164.38959653770098
1859.5572,178.11664176010981
1861.2083,183.14368050856274
1862.8587,177.42105046888992
1864.5084,170.3490874954855
1866.1572,175.72812566853418
1867.8054,168.50849736473174
1869.4528,172.29053320349476
1871.0994,176.67456211915714
1872.7453,186.86091132314914
1874.3905,190.09990626015633
1876.0349,176.34187050625678
1877.6786,196.03712573653002
1879.3215,196.83599186263928
1880.9637,214.88878683587745
1882.6051,211.49582663917909
1884.2458,206.35742510659293
1885.8858,187.8738939572131
1887.525,199.2455428465605
1889.1634,193.2226795514175
1890.8011,189.40560985611273
1892.4381,191.84463761274856
1894.0743,199.7400647793711
1895.7098,191.89219139558145
1897.3446,206.0513155035801
1898.9786,206.21773322664694
1900.6118,216.0417386275485
1902.2443,211.22362370687506
1903.8761,209.91367830480203
1905.5071,196.21219014926692
1907.1374,187.51944486907314
1908.7669,208.53572613090182
1910.3957,182.0113157262408
1912.0237,187.99649336122002
1913.651,205.39153692185846
1915.2776,198.14672241421204
1916.9034,195.2123237904243
1918.5285,170.88861302116993
1920.1528,168.87586012500105
1921.7764,189.8743334115852
1923.3992,196.83429950183245
1925.0213,180.75602311790908
1926.6427,169.5897670136419
1928.2633,158.08579213529856
1929.8832,195.0443577332494
1931.5023,185.01572147700836
1933.1207,173.50013908564824
1934.7383,173.84786442808536
1936.3552,171.1091496382369
1937.9714,176.1842451115417
1939.5868,169.0733995323485
1941.2015,164.37685982316634
1942.8154,166.29487121576813
1944.4286,151.87767729816096
1946.041,161.97551999540156
1947.6528,157.48863971377432
1949.2637,171.76727523980844
1950.8739,141.611663785146
1952.4834,157.72204084376017
1954.0921,157.39864049350717
1955.7001,158.49169523502223
1957.3074,163.00143599495823
1958.9139,134.42809211504982
1960.5197,151.87189130701972
1962.1247,133.13305993830954
1963.729,130.1618228576449
1965.3325,130.90840358242122
1966.9353,133.2230243284189
1968.5374,124.80590600233472
1970.1387,127.10726817863815
1971.7393,128.47732918373958
1973.3392,133.21630607297948
1974.9383,128.6744146169267
1976.5366,111.75186925398975
1978.1342,118.94888313583124
1979.7311,125.11566829659887
1981.3273,123.00243558095144
1982.9227,130.4593945823931
1984.5173,130.53675366440257
1986.1112,114.33471988586689
1987.7044,121.60349900030633
1989.2968,122.94329561789573
1990.8885,117.65431313277622
1992.4795,120.98675370965793
1994.0697,119.44081833670907
1995.6592,118.36670679223198
1997.2479,120.86461766012235
1998.8359,120.18474834060999
2000.4232,120.52729502527609
2002.0097,119.6924527038559
2003.5955,116.13041516081239
2005.1805,103.84137498368636
2006.7648,120.17552359871524
2008.3484,125.08305139372169
2009.9312,121.91414755477535
2011.5133,115.86900001711638
2013.0946,120.947795496847
2014.6752,118.90071955137728
2016.2551,113.42795652864288
2017.8342,116.62968958757165
2019.4126,123.85610075281238
2020.9902,119.95737088271926
2022.5672,115.53367959708521
2024.1433,113.58520531613021
2025.7188,113.86212530473767
2027.2935,109.51461569193953
2028.8674,107.99285146814691
2030.4406,118.79700652862766
2032.0131,106.17725368872061
2033.5849,95.9337645757987
2035.1559,103.26670975546176
2036.7261,119.22625883397586
2038.2957,96.21258038493988
2039.8645,99.225841789691
2041.4325,115.86620946744233
2042.9998,107.28384884514844
2044.5664,119.47892419110303
2046.1323,108.4515987007635
2047.6974,114.25203437479558
2049.2617,111.5303921293521
2050.8254,103.58683173806457
2052.3883,116.22151185926305
2053.9504,113.33459011540936
2055.5118,118.07622296675163
2057.0725,117.09656574019164
2058.6325,110.39577258187069
2060.1917,118.67399646696322
2061.7502,104.13138926668853
2063.3079,105.66810166552614
2064.8649,97.58428330664174
2066.4212,102.73008277652139
2067.9767,122.95564768581062
2069.5315,104.56112461785415
2071.0856,89.24665892644066
2072.6389,93.4623949197487
2074.1915,100.15847601349287
2075.7433,93.83504468876367
2077.2945,91.19224242506766
2078.8448,80.43020976356229
2080.3945,98.49908633348332
2081.9434,86.24901095976338
2083.4916,84.08012148234616
2085.039,86.64255487868422
2086.5857,92.58644728543004
2088.1317,100.96193397281195
2089.677,102.26914928519409
2091.2215,88.1582265573229
2092.7652,89.0292981012542
2094.3083,88.78249534746237
2095.8506,84.51794883612911
2097.3921,88.08578821961237
2098.933,90.13614230509052
2100.4731,87.81913901888515
2102.0124,79.48490538595593
2103.5511,95.18356755307241
2105.089,102.8152508721555
2106.6261,92.73007974329107
2108.1626,93.37817753841296
2109.6983,98.2596667021553
2111.2332,96.12466874537199
2112.7675,99.42330419632071
2114.301,92.0056926220127
2115.8337,105.221952595228
2117.3657,91.72220176868927
2118.897,100.80655674290165
2120.4276,84.57513320114708
2121.9575,91.02804581864234
2123.4866,104.86540842485374
2125.0149,83.38733393896769
2126.5426,76.64393423151637
2128.0695,90.78532033916144
2129.5956,76.01160253212447
2131.1211,95.2728901727744
2132.6458,87.81929186336583
2134.1698,84.40091525342359
2135.693,86.46786711428103
2137.2155,84.62025337326395
2138.7373,81.65817909302041
2140.2584,92.93174848999661
2141.7787,88.64106496405816
2143.2983,86.63623098575613
2144.8171,80.61734813923044
2146.3353,72.33451714225907
2147.8527,84.43783790644557
2149.3693,91.8274096200505
2150.8853,76.753330626957
2152.4005,85.91569835277414
2153.9149,74.06460945557956
2155.4287,91.150159734294
2156.9417,68.82244424719374
2158.454,84.63155714105369
2159.9655,80.52759187442689
2161.4764,75.11064105955006
2162.9865,66.63079650338432
2164.4958,71.43814926178743
2166.0045,80.4827897243083
2167.5124,80.11480756611468
2169.0195,75.48429165754692
2170.526,75.5413300677983
2172.0317,79.88601011121841
2173.5367,77.56841834674515
2175.0409,78.93864053445691
2176.5445,82.89676165874948
2178.0473,76.04286591463278
2179.5494,81.22703666814891
2181.0507,72.24935652491172
2182.5513,83.85990727826538
2184.0512,86.6587699990605
2185.5504,81.74602491954965
2187.0488,59.77175140539862
2188.5465,75.23602800481558
2190.0435,73.33893266829023
2191.5397,71.43054259395376
2193.0353,82.51093424654891
2194.5301,70.13018337651306
2196.0241,76.33836490917611
2197.5175,71.48555306856747
2199.0101,77.67182131533264
2200.502,72.84724239526304
2201.9931,68.86188827743217
2203.4835,73.91583020244184
2204.9733,63.10913872227684
2206.4622,73.0418836497638
2207.9505,61.564134166637814
2209.438,45.975958724216525
2210.9248,59.87742515817672
2212.4109,53.268600844436605
2213.8962,48.79955256014068
2215.3809,51.82034654974723
2216.8648,54.731048569721
2218.3479,61.831723858322675
2219.8304,40.02243710650373
2221.3121,50.053252386898066
2222.7931,45.47423337191731
2224.2733,45.785443233442265
2225.7529,36.08694468860972
2227.2317,34.728799996702946
2228.7098,35.911071056136734
2230.1872,42.28381941803855
2231.6638,50.59710627442587
2233.1397,38.45099239447791
2234.6149,47.99553804140396
2236.0894,45.18080309390575
2237.5632,36.80684695072978
2239.0362,40.37372855881472
2240.5085,37.5315064970323
2241.9801,44.380238940517984
2243.4509,35.11998368909235
2244.921,23.800798098774294
2246.3904,30.122739174383696
2247.8591,40.83586368273291
2249.3271,27.640228089408083
2250.7943,22.585888451636947
2252.2608,15.722900550246095
2253.7266,29.351319940204576
2255.1917,43.871202019251996
2256.656,19.232601891616696
2258.1197,25.385574222815194
2259.5826,19.780173486038166
2261.0447,32.01645390062231
2262.5062,23.294469488102322
2263.9669,26.664273949849985
2265.4269,29.225920754291565
2266.8862,32.229463103211856
2268.3448,22.574953906137125
2269.8026,30.01244575030023
2271.2598,32.091990997184894
2272.7162,23.463641708151727
2274.1719,37.47744962364345
2275.6268,30.133466249466665
2277.0811,36.78174271665489
2278.5346,40.922329854906366
2279.9874,39.955278126102485
2281.4395,39.230637582901636
2282.8908,30.698457878410636
2284.3414,23.65878827343022
2285.7914,35.011677721776095
2287.2406,38.65717494067735
2288.689,44.695328297246306
2290.1368,33.52618577202452
2291.5838,46.549794898600794
2293.0302,43.2662028753025
2294.4758,35.975456434959824
2295.9206,37.077601877741245
2297.3648,37.52268514406046
2298.8082,36.36075180355647
2300.251,29.7418470506434
2301.693,31.96601571612814
2303.1343,43.78330233339966
2304.5748,36.94375111618706
2306.0147,35.497405840387046
2307.4538,33.494309912458675
2308.8922,35.18450638388936
2310.3299,35.86803797122275
2311.7669,30.794947039159524
2313.2031,39.065275593721026
2314.6387,32.079065332978416
2316.0735,29.236357564350556
2317.5076,27.38719327446597
2318.941,28.13161315758998
2320.3737,26.419657634116675
2321.8056,25.251366843124288
2323.2369,26.22678065949458
2324.6674,32.94593870559652
2326.0972,26.808880341532813
2327.5263,32.315644597947994
2328.9547,36.46627023739916
2330.3823,21.910795699287746
2331.8092,35.19925905835407
2333.2355,26.531698170231493
2334.661,27.30815053855963
2336.0858,37.228653401662996
2337.5098,29.243243724784634
2338.9332,35.601958100882484
2340.3558,34.20483283048338
2341.7778,25.50190385809401
2343.199,30.093206786173596
2344.6195,31.328776962163374
2346.0393,32.50864943257238
2347.4583,30.83285893062316
2348.8767,33.80143986445228
2350.2943,42.814426333868596
2351.7113,52.971852100666865
2353.1275,48.82375049849679
2354.543,44.22015433129059
2355.9578,41.5110959147421
2357.3718,37.19660712234531
2358.7852,33.52671941248377
2360.1978,38.95146387157388
2361.6098,30.62087125076505
2363.021,44.734971911691446
2364.4315,41.04379590977783
2365.8413,38.847372853100524
2367.2504,30.445731939297957
2368.6587,38.638901977536534
2370.0664,23.77691147252517
2371.4733,37.65978854258424
2372.8795,31.38756106826463
2374.285,31.41025655352064
2375.6899,25.977902188429653
2377.0939,39.190524848967925
2378.4973,33.19815115133474
2379.9,38.75080731982234
2381.3019,30.148519246743035
2382.7032,30.041312436901762
2384.1037,39.429212093619526
2385.5035,28.262243119803998
2386.9027,26.390430024072202
2388.3011,32.5137970324181
2389.6987,34.38236810693161
2391.0957,36.49616688456763
2392.492,20.055216658456402
2393.8876,15.509540356770003
2395.2824,30.409160707128876
2396.6765,27.604100282058198
2398.07,5.194381349990408
2399.4627,25.980025903317483
2400.8547,25.5110040425609
2402.246,17.63728560844129
2403.6366,26.75884018657007
2405.0265,14.925637186185213
2406.4156,22.937645748937257
2407.8041,22.144834867221107
2409.1918,16.74717330405474
2410.5789,20.744629601009592
2411.9652,19.88717213218456
2413.3508,31.824769064231987
2414.7358,21.707388364932967
2416.12,16.33499768382171
2417.5035,23.75756445335901
2418.8863,20.47505594265749
2420.2684,21.18743918325322
2421.6497,15.794681001931508
2423.0304,30.2467480136047
2424.4104,29.143606675237834
2425.7896,11.385223141329448
2427.1682,23.821563274942605
2428.546,18.852592825288866
2429.9232,21.428277303364098
2431.2996,21.19858203163915
2432.6753,29.213472118302548
2434.0503,31.772912459558256
2435.4246,28.676867659475647
2436.7982,27.57530200439544
2438.1711,33.21817949389015
2439.5433,25.055463851778995
2440.9148,16.637118469700454
2442.2856,17.663106488738777
2443.6557,26.233390883607967
2445.025,18.19793445239145
2446.3937,25.45669973084
2447.7617,16.009649072724756
2449.1289,21.45674457725056
2450.4955,23.597948183526114
2451.8613,27.283221616093556
2453.2265,27.062526363515417
2454.5909,26.635823641523075
2455.9546,31.503074395223052
2457.3177,18.964239303365048
2458.68,32.61927872966817
2460.0416,33.31815284820925
2461.4025,37.160821506872594
2462.7627,34.347244220361176
2464.1222,26.277380131770315
2465.4811,24.501188040723036
2466.8392,36.168626484068454
2468.1966,32.67965375364486
2469.5533,40.0842277796047
2470.9093,40.78230616530527
2472.2645,39.42384611326122
2473.6191,42.10880441816414
2474.973,35.83713748046705
2476.3262,37.45880127953524
2477.6787,38.97375143636327
2479.0305,41.73194319735842
2480.3816,35.93333141919072
2481.7319,36.12787054121145
2483.0816,43.215514643438496
2484.4306,42.9962174446116
2485.7789,47.71993223131585
2487.1264,39.68661186017471
2488.4733,34.39620871061345
2489.8195,33.64867476519066
2491.165,34.14396166250356
2492.5097,34.482020704663455
2493.8538,42.56280285234254
2495.1972,31.886258721393233
2496.5398,29.552338502040925
2497.8818,29.46099206564827
2499.2231,38.61216898805526
2500.5637,37.10581855049202
2501.9035,41.141889648067036
2503.2427,44.770330804831474
2504.5812,38.69109013341779
2505.919,38.654115298755755
2507.256,40.509353578863966
2508.5924,40.35675186522076
2509.9281,36.84625664421128
2511.2631,38.07781399865303
2512.5974,41.95136964290168
2513.9309,40.91686891053564
2515.2638,35.9742567156203
2516.596,41.82347756305285
2517.9275,39.16447559798837
2519.2583,47.7971945473472
2520.5884,47.32157774640575
2521.9178,38.63756805246874
2523.2465,49.945107849625856
2524.5745,42.64413913559122
2525.9018,35.984603408628345
2527.2284,37.46644174056007
2528.5543,47.33959484336299
2529.8796,45.90400305435014
2531.2041,44.85960623743847
2532.5279,57.25634379750545
2533.851,56.19415469083299
2535.1735,47.872977301140395
2536.4952,55.74274945020477
2537.8163,62.15340848107462
2539.1366,60.65489117937102
2540.4562,46.4971337091813
2541.7752,52.880071628044334
2543.0935,54.903640028528116
2544.411,64.31777347440072
2545.7279,58.67240598039393
2547.0441,64.01747091806214
2548.3596,60.40290107223598
2549.6744,67.62862858757217
2550.9885,65.34458500469907
2552.3019,67.3007011879588
2553.6146,69.49690734824799
2554.9266,65.53313302345714
2556.2379,67.85930705650708
2557.5485,65.97535763498877
2558.8585,64.73121226789965
2560.1677,68.57679780448473
2561.4762,64.31204044667652
2562.7841,73.58686571063981
2564.0913,78.75119846941959
2565.3977,74.60496286019236
2566.7035,75.34808223262291
2568.0086,81.0304791903269
2569.313,71.35207558343973
2570.6167,66.41279245179203
2571.9197,71.31255012169424
2573.222,78.35126825532927
2574.5236,78.07886580175557
2575.8246,78.09526092651845
2577.1248,80.35037101437592
2578.4244,84.84411266913298
2579.7232,89.57640169109186
2581.0214,89.94715303211353
2582.3189,92.20628074829551
2583.6157,84.85369799626346
2584.9118,94.68931701058125
2586.2072,92.26304917727612
2587.5019,95.82480493548235
2588.7959,103.92449380170467
2590.0893,101.06202433419924
2591.3819,100.98730405197841
2592.6739,103.05023946343408
2593.9652,107.10073606708556
2595.2557,108.0886983309498
2596.5456,102.9640296520372
2597.8348,105.02663234647127
2599.1234,112.02640770073538
2600.4112,111.56325595104715
2601.6983,113.63707621336005
2602.9848,112.04776648799543
2604.2705,115.34522363890392
2605.5556,111.07934340955876
2606.84,110.35002038998141
2608.1237,123.05714805939999
2609.4067,103.45061879354296
2610.689,107.93032373756773
2611.9707,109.59615300212579
2613.2516,109.54799561856589
2614.5319,107.68573952227541
2615.8115,112.15927155316263
2617.0903,107.71847747427807
2618.3685,105.01324192708068
2619.6461,106.09344847584521
2620.9229,110.00897963471425
2622.199,108.0097168568958
2623.4745,115.84554049550832
2624.7493,104.36632982357344
2626.0234,114.7219629556572
2627.2968,112.16231696266323
2628.5695,107.98726776827561
2629.8415,104.19669017455567
2631.1128,105.74045790369246
2632.3835,105.3684436359083
2633.6535,108.83051899402153
2634.9228,119.82655454716632
2636.1914,101.80641977617222
2637.4593,110.11998296360264
2638.7265,104.11711137395798
2639.9931,107.69767117053868
2641.259,110.26152747547428
2642.5242,104.65854433391723
2643.7887,100.6885846884054
2645.0525,109.35151043489088
2646.3156,102.6471824624407
2647.5781,104.47546056660656
2648.8398,105.13620351646853
2650.1009,103.42926903635271
2651.3613,105.95451379922326
2652.6211,108.26179344375237
2653.8801,104.40096254906712
2655.1385,101.82187461167644
2656.3961,106.92438208407998
2657.6531,112.50833640055941
2658.9094,107.8235879261523
2660.1651,106.66998590081346
2661.42,115.79737848626178
2662.6743,110.85561277751663
2663.9279,113.84453471162385
2665.1808,114.31398911707345
2666.433,114.21381968391006
2667.6846,115.54386895903883
2668.9354,121.20397834722701
2670.1856,130.59398809780316
2671.4351,133.51373724805705
2672.6839,138.56306352933825
2673.9321,140.3918033378593
2675.1795,142.04979168420175
2676.4263,144.43686217503
2677.6724,151.75284699651013
2678.9179,148.04757689044072
2680.1626,152.4208810810917
2681.4067,133.9225873122581
2682.6501,131.05252180352602
2683.8928,142.51050943525638
2685.1348,136.4963737772855
2686.3761,127.25993697434478
2687.6168,130.60101980620198
2688.8568,122.81944178002539
2690.0961,117.86502109697358
2691.3348,125.73757473001046
2692.5727,122.28691847345033
2693.81,113.21286686423161
2695.0466,122.11523321642358
2696.2826,111.99382971196724
2697.5178,119.94846731165183
2698.7524,121.57895585632866
2699.9863,122.43510398736453
2701.2195,126.11671913033729
2702.452,131.87360748647382
2703.6839,136.4555739958347
2704.9151,147.36242227974458
2706.1456,146.89395459497268
2707.3755,143.99997172466476
2708.6046,147.9302729830274
2709.8331,147.93465624426688
2711.0609,161.61291790328755
2712.2881,169.1648528756474
2713.5145,177.14025446077505
2714.7403,185.68891426645155
2715.9654,194.91062212905547
2717.1899,211.0051660280767
2718.4136,225.67233199389887
2719.6367,226.76190394685443
2720.8591,246.77366355055267
2722.0809,257.6573902009842
2723.3019,263.41286082640283
2724.5223,281.9898497784893
2725.7421,273.4881287747959
2726.9611,281.0574667129764
2728.1795,273.1976297558041
2729.3972,261.75838125547705
2730.6142,252.43948183221778
2731.8306,243.39068948866475
2733.0462,227.5617597030622
2734.2612,215.45244551974758
2735.4756,199.01249770744107
2736.6892,182.9916648803386
2737.9022,163.58969366251142
2739.1145,158.50632884811432
2740.3262,137.3913135954058
2741.5372,129.94438947758033
2742.7475,119.46529669392066
2743.9571,103.1537741442653
2745.1661,92.30955953380021
2746.3744,95.38238953617451
2747.582,78.02199990194197
2748.7889,73.77812542783226
2749.9952,60.000500130355476
2751.2008,57.28885728824048
2752.4057,52.042929580211194
2753.61,41.06244911210388
2754.8136,44.84714746932468
2756.0165,41.29675582665641
2757.2188,37.761004910410065
2758.4204,34.63962503392952
2759.6213,28.38234613294867
2760.8215,36.338897796804986
2762.0211,30.85900933101334
2763.22,29.192409677699516
2764.4182,21.638827470399633
2765.6158,16.197991050726273
2766.8127,21.919628543903855
2768.009,15.903467913177678
2769.2045,11.449236902596908
2770.3994,11.606663097176693
2771.5936,0.9754739674393704
2772.7872,-0.3446031321584542
2773.9801,-0.20384085691489418
2775.1723,-6.252508419542778
2776.3639,-19.740872996384837
2777.5548,-8.119139301225118
2778.745,-16.087314836526957
2779.9346,-15.095325994552923
2781.1235,-27.04293845529037
2782.3117,-11.779767096420187
2783.4992,-12.755156636668062
2784.6861,-7.168334114886989
2785.8723,-7.46839914591601
2787.0579,-9.354379732936195
2788.2428,-7.425229269821671
2789.427,-6.829807700193214
2790.6106,0.13309921036841388
2791.7935,8.16477392606123
2792.9757,5.766498909752272
2794.1573,23.339556542660944
2795.3382,23.735229148342455
2796.5184,29.654798816956372
2797.698,39.399547401310656
2798.8769,51.12075645766549
2800.0551,60.56970714828594
2801.2327,67.99768012422965
2802.4096,86.60595543085685
2803.5859,95.04581243355165
2804.7615,114.81852963163863
2805.9364,132.37538457398443
2807.1106,146.96765366127113
2808.2842,171.39661197042676
2809.4572,195.7635331087032
2810.6294,232.66968896938658
2811.801,266.56634948812825
2812.972,291.8547822738825
2814.1423,332.58625226994127
2815.3119,373.56202150104855
2816.4808,408.8833486660857
2817.6491,462.25148872831437
2818.8167,510.2176925621634
2819.9837,573.1332064195465
2821.15,624.3992714502017
2822.3157,659.3671230725346
2823.4807,724.2879904609588
2824.645,788.7130961962157
2825.8086,829.5436556161682
2826.9716,890.5308761715482
2828.134,933.6259570176513
2829.2957,982.0800884044647
2830.4567,1009.2944512457167
2831.617,1044.5202166343347
2832.7767,1056.0585455703017
2833.9358,1045.9605886083991
2835.0941,1046.777485742823
2836.2519,1037.2603665081642
2837.4089,1003.2603499712379
2838.5653,987.2285448262564
2839.7211,976.6160497348292
2840.8761,966.823953486281
2842.0306,985.2033351037752
2843.1843,1004.205263942237
2844.3374,1051.130799504558
2845.4899,1069.2809912515768
2846.6417,1139.206878132826
2847.7928,1185.5094884050277
2848.9433,1260.0398389328354
2850.0931,1327.1989347258086
2851.2422,1375.9377681931076
2852.3907,1439.9073184719052
2853.5385,1488.1585509399954
2854.6857,1538.3924165761
2855.8323,1588.2098514773545
2856.9781,1637.7117763569722
2858.1233,1695.2490960460655
2859.2679,1743.172698998631
2860.4118,1806.9834567161743
2861.555,1831.4822232684742
2862.6976,1866.969834655476
2863.8395,1917.197108562303
2864.9808,1946.714844004381
2866.1214,1959.6238208251655
2867.2614,1990.9747994009622
2868.4007,1987.96852051184
2869.5393,1995.8057050281207
2870.6773,2018.43705394044
2871.8146,2030.563248281378
2872.9513,2030.9849488991445
2874.0874,2015.4527963363178
2875.2227,2013.0674108256262
2876.3574,1983.8293924452719
2877.4915,1957.5393211427827
2878.6249,1933.2477570273925
2879.7577,1905.5552406329423
2880.8898,1884.0622931607963
2882.0212,1867.919416756766
2883.152,1855.0270947260396
2884.2821,1855.0857916946138
2885.4116,1843.2959537382126
2886.5405,1842.7080083817027
2887.6686,1843.422364716992
2888.7962,1849.7894134089088
2889.923,1866.859526688058
2891.0493,1867.4830582871496
2892.1748,1880.4103432703005
2893.2997,1885.941698026797
2894.424,1904.2774201418215
2895.5476,1932.1177883411406
2896.6706,1942.9130623077463
2897.7929,1967.7634824034526
2898.9145,1991.3192695609446
2900.0355,2016.4306250352706
2901.1559,2050.39773016829
2902.2756,2087.7707461375526
2903.3946,2106.2998136166334
2904.513,2126.3850524013997
2905.6308,2167.926561224719
2906.7479,2197.524417555611
2907.8643,2220.57867718383
2908.9801,2238.2893739238857
2910.0953,2238.8065193845027
2911.2098,2234.830102791511
2912.3236,2242.260090982675
2913.4368,2227.3964284474623
2914.5494,2205.4390372527364
2915.6613,2177.3378171913982
2916.7725,2137.4426460019586
2917.8831,2125.4533796495502
2918.9931,2089.0198527248813
2920.1024,2057.041878564125
2921.211,2030.3692496132571
2922.319,2006.3517377478347
2923.4264,2014.2890945397226
2924.5331,2007.981051497268
2925.6391,2012.6273199859284
2926.7445,2010.7775912913494
2927.8493,2015.3815365729042
2928.9534,2020.4388068821909
2930.0569,2003.8990331169916
2931.1597,2013.4618259707008
2932.2619,2016.1767760977245
2933.3634,2018.1934540178504
2934.4643,2018.2114100890972
2935.5645,2010.180174487551
2936.6641,1998.1492572071838
2937.763,1962.9681481401662
2938.8613,1932.4363171971763
2939.959,1874.3532146592092
2941.056,1827.7182714828991
2942.1523,1745.7808998813484
2943.248,1672.040493790476
2944.3431,1589.9464296883934
2945.4375,1479.2980673328066
2946.5313,1390.6947505819596
2947.6244,1287.185808501114
2948.7169,1194.8705562485852
2949.8087,1099.8982961108309
2950.8999,1016.7183184256029
2951.9904,933.7299025316705
2953.0803,874.0323176006214
2954.1696,807.8748234667431
2955.2582,762.5066712240017
2956.3462,717.927103887615
2957.4335,675.5353568477337
2958.5202,648.7306583152384
2959.6062,623.2622297456567
2960.6916,596.4292861072096
2961.7764,576.2810361354968
2962.8605,574.0166826018251
2963.9439,555.3354225146916
2965.0267,543.7364471424268
2966.1089,547.1689422000069
2967.1905,540.9820879650443
2968.2714,535.9250592434627
2969.3516,538.5470254313643
2970.4312,549.3971505656012
2971.5102,548.2245932975554
2972.5885,546.6285067846371
2973.6662,554.1580387020113
2974.7432,557.5623312585569
2975.8196,556.7905211215734
2976.8954,572.9917393827371
2977.9705,560.2651115658186
2979.045,548.7597574646721
2980.1188,526.9747912705008
2981.192,519.2593216869104
2982.2645,503.96245214776
2983.3364,492.38328089431513
2984.4077,464.27090112821725
2985.4783,444.2744011272755
2986.5483,413.14286452658973
2987.6177,395.975370518516
2988.6864,358.2709941639823
2989.7545,330.77880656416323
2990.8219,294.7478752375238
2991.8887,260.6772643947413
2992.9548,235.41603529901477
2994.0204,210.46324660677055
2995.0852,181.41795462027562
2996.1495,163.17921353716417
2997.2131,136.99607574089146
2998.276,123.66759198312059
2999.3383,100.24281164555453
3000.4,84.22078287322006
3001.4611,73.5505528087167
3002.5215,55.73116775243557
3003.5812,43.511673269262815
3004.6404,31.741114366773502
3005.6989,26.36853561742572
3006.7567,16.442981276266835
3007.8139,10.51349533465907
3008.8705,12.479121619534908
3009.9264,6.788903852692556
3010.9818,-4.5081143688610155
3012.0364,-5.112889516007556
3013.0905,-13.376333023566247
3014.1439,-12.599305248590213
3015.1966,-5.732532918566221
3016.2487,-7.326616893921539
3017.3002,-13.182100767079817
3018.3511,-11.249454937562462
3019.4013,-0.3790181157040706
3020.4509,-6.6710166297848446
3021.4998,-2.2256730216937513
3022.5481,-7.0931431898640085
3023.5958,-4.273560798255232
3024.6428,1.7830113496734157
3025.6892,9.82655314333465
3026.735,6.257044454311028
3027.7802,7.974465055919609
3028.8247,16.8287946589071
3029.8685,12.920012894275601
3030.9118,18.84809922473943
3031.9544,30.16303298381297
3032.9963,36.964793316529665
3034.0376,40.65335906629298
3035.0783,47.22870870685853
3036.1184,57.390820305448585
3037.1578,60.33967145699876
3038.1966,63.97523918253631
3039.2348,69.24749989969246
3040.2723,70.20642938634603
3041.3092,80.25200272790107
3042.3455,76.68419430769762
3043.3811,75.75297770655595
3044.4161,75.60832573845437
3045.4505,83.40021045984173
3046.4842,78.62860317108357
3047.5173,80.19347433854341
3048.5498,85.1947936422992
3049.5816,79.18252996049415
3050.6128,83.95665131932367
3051.6434,82.21712495315813
3052.6734,78.86391725680136
3053.7027,78.09699380288617
3054.7314,82.76631937540645
3055.7594,81.82185797738663
3056.7868,83.66357278418775
3057.8136,78.19142615295243
3058.8398,84.10537960418793
3059.8653,72.80539387648741
3060.8902,80.24142886739025
3061.9145,80.86344374638196
3062.9381,80.07139688053388
3063.9612,79.965245828283
3064.9835,79.19494734735247
3066.0053,82.21045739581297
3067.0264,70.61173113978577
3068.0469,76.94872292328785
3069.0668,74.67138638421864
3070.086,70.42967439099039
3071.1046,67.62353906530183
3072.1226,65.20293182455498
3073.1399,61.81780340991662
3074.1567,59.718103910524405
3075.1727,46.25378279733786
3076.1882,51.42478894413583
3077.203,43.23107076215925
3078.2173,40.32257614840148
3079.2308,33.749252567545085
3080.2438,34.06104708104709
3081.2561,27.907906412871995
3082.2678,25.889776946373985
3083.2789,18.2566047858283
3084.2893,15.408335776612489
3085.2991,13.544915581538248
3086.3083,14.216289709333921
3087.3169,11.52240353327889
3088.3248,7.413202284489643
3089.3321,11.238631078858788
3090.3388,4.698634958146954
3091.3449,0.94315885172864
3092.3503,2.1221476419919725
3093.3551,4.185546201893715
3094.3593,5.783299383169094
3095.3629,-2.4846480043018175
3096.3658,3.031648791527971
3097.3681,2.5821593443389474
3098.3698,-3.8331468025047855
3099.3708,-2.4143001314607204
3100.3713,-0.961292831849704
3101.3711,-1.074092974134544
3102.3702,-3.7526590254625773
3103.3688,3.2030612772074676
3104.3667,3.6931576859805944
3105.364,-1.132280079068721
3106.3607,-1.4231623347975813
3107.3568,1.8206119134149503
3108.3522,-0.6008421224185554
3109.347,-1.537409248491656
3110.3412,5.961031731414835
3111.3348,0.5446173722384628
3112.3277,1.463484169306497
3113.32,2.0677631772187226
3114.3117,0.30758543594001253
3115.3028,2.3830819647577357
3116.2932,3.144380710180627
3117.2831,10.341609594886705
3118.2723,3.2748965101100396
3119.2608,2.3443692436686376
3120.2488,9.50015555063166
3121.2361,5.392383162624611
3122.2229,7.621179716271456
3123.209,7.836672794272431
3124.1944,7.98898990311605
3125.1793,10.528258470924357
3126.1635,11.204605845929422
3127.1471,12.268159271080918
3128.1301,9.969045877282468
3129.1125,13.657392672756103
3130.0942,12.883326566033546
3131.0753,18.14697432907255
3132.0558,18.298462604997738
3133.0357,16.987917855464033
3134.015,16.615466359141863
3134.9936,15.631234224822421
3135.9716,19.635347395142375
3136.949,16.477931656426364
3137.9258,19.959112598645333
3138.902,22.729015646991357
3139.8775,22.18776602706538
3140.8524,19.935488737178346
3141.8267,22.222308553763483
3142.8004,24.548350053899213
3143.7735,28.06373759244093
3144.7459,30.968595278760574
3145.7178,27.86304694159284
3146.689,28.947216099986434
3147.6596,29.62122599435972
3148.6295,27.385199575658874
3149.5989,26.28925949861788
3150.5676,33.483528144118736
3151.5357,29.918127630151005
3152.5032,35.89317973986893
3153.4701,40.50880595724546
3154.4364,34.51512740732184
3155.402,37.21226481005131
3156.367,36.55033854023583
3157.3315,37.82946860055483
3158.2952,33.8997746281843
3159.2584,41.26137588200561
3160.221,40.21439128190238
3161.1829,45.45893933514455
3162.1442,38.945138146858156
3163.105,48.37310536757988
3164.065,44.84295825839506
3165.0245,46.05481359665797
3165.9834,46.058787711293384
3166.9416,47.654996470677894
3167.8993,49.74355528260027
3168.8563,48.87457907829938
3169.8127,49.09818229157853
3170.7684,52.46447886749522
3171.7236,51.17358226012516
3172.6782,57.37560539889933
3173.6321,56.120660701512804
3174.5854,55.35886001190466
3175.5381,54.19031461280735
3176.4902,60.66513523336472
3177.4417,60.93343206081754
3178.3926,59.695314675755185
3179.3428,60.80089204943277
3180.2924,62.35027255615225
3181.2415,60.7935639622067
3182.1899,61.330873410386474
3183.1377,64.36230743554631
3184.0848,66.53797195923221
3185.0314,65.75797225936712
3185.9773,66.37241294849429
3186.9227,68.1813979815772
3187.8674,68.3350306498553
3188.8115,70.83341356275398
3189.755,67.7266486463484
3190.6979,72.56483711837951
3191.6402,74.5980795193219
3192.5818,75.37647566400167
3193.5229,76.95012462126424
3194.4633,77.16912470619022
3195.4031,78.183573464359
3196.3423,75.59356766965874
3197.2809,78.79920331414185
3198.2189,79.30057563392505
3199.1563,79.0977790771331
3200.0931,82.44090729888491
3201.0292,82.7800531633217
3201.9648,81.41530871017554
3202.8997,82.896765151378
3203.834,86.12451288470761
3204.7677,85.69864147897516
3205.7008,84.76923964174635
3206.6333,87.63639522360049
3207.5652,92.75019522742441
3208.4964,92.16072577974107
3209.4271,91.76807207957141
3210.3571,93.57231840432914
3211.2865,89.82354811374726
3212.2154,97.52184363183554
3213.1436,95.86728648436826
3214.0712,100.85995722190131
3214.9982,96.84993543631768
3215.9246,98.38729971090073
3216.8503,98.87212766043456
3217.7755,100.90449591583013
3218.7001,97.98448011927722
3219.624,99.31215490392057
3220.5473,104.18759392306012
3221.4701,101.11086983687423
3222.3922,99.98205426366536
3223.3137,106.85121781062728
3224.2346,108.01843008513308
3225.1549,110.03375962604379
3226.0746,109.59727389203599
3226.9937,107.80903924144869
3227.9121,109.76912093664811
3228.83,111.2775831619101
3229.7473,112.93448900381921
3230.6639,112.18990043618419
3231.5799,117.24387830346885
3232.4954,112.94648232823799
3233.4102,118.14777106061763
3234.3244,118.4978019212689
3235.238,118.59663114937518
3236.151,115.49431379914189
3237.0634,121.290903738808
3237.9752,118.18645368166935
3238.8864,117.5310151281127
3239.797,119.22463839666028
3240.7069,122.86737263052407
3241.6163,124.95926578066967
3242.5251,127.30036456938883
3243.4332,124.14071446938068
3244.3408,128.83035968034065
3245.2477,124.51934316055696
3246.154,125.25770658001423
3247.0598,132.49549036350362
3247.9649,128.58273368323916
3248.8694,132.91947438648003
3249.7733,129.40574903465793
3250.6766,134.59159286000985
3251.5793,134.92703980071525
3252.4814,133.01212244903763
3253.3829,134.29687204796994
3254.2838,136.98131851038403
3255.1841,140.51549040618283
3256.0838,139.49941493545623
3256.9829,140.583117893139
3257.8814,139.31662367917184
3258.7792,138.4999552876642
3259.6765,143.08313431955924
3260.5731,141.06618099080063
3261.4692,140.44911408650054
3262.3647,144.13195098110936
3263.2595,142.81470764458635
3264.1538,141.54739860557117
3265.0474,145.1800369645564
3265.9404,147.8626344065606
3266.8329,146.74520116480198
3267.7247,145.12774599387222
3268.616,144.2602761809111
3269.5066,145.09279756178086
3270.3966,147.17531452974092
3271.286,147.0578300271227
