RamanShift,CorrectedData
30.1047,794.5066014529244
32.3739,734.5248162742597
34.6426,677.1430231505288
36.9109,616.3112067914177
39.1787,555.8793451351819
41.4461,500.8974099569644
43.7131,441.21536747311495
45.9796,381.78317889100873
48.2456,321.9008010058671
50.5112,265.11818679507905
52.7764,206.48528601702574
55.0411,149.6520457789063
57.3054,91.11841112306689
59.5692,35.43432559533318
61.8326,-22.450268169653327
64.0955,-75.03542789159432
66.3579,-127.7209870120127
68.6199,-178.45602936850665
70.8815,-212.53836286601432
73.1426,-209.26401263374063
75.4032,-88.37688054264572
77.6634,291.9812220837962
79.9231,1279.9193668071475
82.1824,3455.696622269159
84.4412,7363.372044312386
86.6995,12636.054654222422
88.9574,17702.253399651137
91.2148,21049.777101889853
93.4717,22474.534405207363
95.7282,22508.333743374686
97.9842,22062.5833254175
100.2398,21204.941135278146
102.4949,20350.864936273134
104.7495,19395.56227966955
107.0036,18458.940513225854
109.2573,17594.85679074486
111.5105,16818.718081439998
113.7632,16137.481178576116
116.0154,15576.002707230886
118.2672,15121.489131107171
120.5185,14706.046758147806
122.7693,14348.381745080738
125.0197,14070.600101573444
127.2696,13741.957693809589
129.519,13511.810247266829
131.7679,13124.913350003257
134.0163,12816.922454958858
136.2642,12399.742883824487
138.5117,11976.429830121771
140.7587,11532.188363374915
143.0052,11138.223433343821
145.2512,10732.289874466509
147.4967,10379.14240979877
149.7417,10084.935655073492
151.9863,9866.92412223214
154.2304,9652.512222366828
156.4739,9466.654267900425
158.717,9282.754474730684
160.9596,9068.916964088812
163.2017,8786.095764378479
165.4433,8443.094813314183
167.6844,8096.367960749467
169.925,7758.718972106928
172.1651,7387.151531845486
174.4047,7099.619246836869
176.6439,6828.425650081296
178.8825,6595.274203582789
181.1206,6386.368301061119
183.3582,6203.761270283321
185.5954,6078.206375152742
187.832,5966.906817535122
190.0681,5871.365738514141
192.3037,5807.186219504412
194.5388,5733.921283206895
196.7734,5723.123894250688
199.0075,5708.396959925678
201.2411,5757.393330290517
203.4742,5801.865798319886
205.7068,5850.5670994145385
207.9389,5904.399910956567
210.1704,6005.016851822402
212.4015,6041.370481844469
214.632,6137.163300805039
216.862,6208.5977480726715
219.0915,6222.376201644297
221.3205,6249.750977430877
223.549,6268.37432911961
225.777,6262.748447900186
228.0044,6268.525462278561
230.2314,6266.707438133201
232.4578,6277.996378657326
234.6837,6292.944224377078
236.909,6300.602853038641
239.1339,6221.624079458753
241.3582,6136.159655448128
243.582,6010.211270601245
245.8053,5945.98055315098
248.0281,5881.819071228107
250.2503,5854.6283335035905
252.472,5887.159789830207
254.6932,5984.81483151445
256.9139,6080.644790991222
259.134,6217.950940847275
261.3536,6397.384492862917
263.5727,6713.44659663895
265.7912,6957.638337802329
268.0092,7208.660734845558
270.2267,7385.9147366847465
272.4436,7447.9012201494115
274.6601,7469.020988209921
276.8759,7374.274769357635
279.0913,7252.763217393705
281.3061,7080.38691237654
283.5204,6959.146361836914
285.7341,6902.542002501738
287.9473,6875.124201506462
290.16,6833.793256961117
292.3721,6858.349398224495
294.5837,6958.942786317467
296.7947,7080.573513677407
299.0052,7195.941603152267
301.2152,7128.19700678426
303.4246,7016.439604656192
305.6334,6729.119205568898
307.8418,6346.735548158822
310.0495,5921.138303771213
312.2568,5543.427080283968
314.4635,5106.951426363611
316.6696,4773.71083524239
318.8752,4484.804749083046
321.0802,4382.282562311215
323.2847,4344.243624504491
325.4887,4308.587241417645
327.692,4288.01267536301
329.8949,4225.669145567055
332.0972,4038.355828376116
334.2989,3860.171857879838
336.5001,3624.5663277843114
338.7007,3398.98829319391
340.9008,3199.7367729673433
343.1003,3035.8607519734524
345.2992,2864.659183083706
347.4976,2734.4309888109674
349.6955,2633.525063021515
351.8927,2574.4902722373163
354.0895,2467.025456645095
356.2856,2413.5794306866746
358.4812,2330.40098413363
360.6763,2303.788882621736
362.8707,2258.6918684827624
365.0646,2284.208661010596
367.258,2306.0379569122024
369.4508,2322.928430052468
371.643,2432.928731235904
373.8346,2531.337488037735
376.0257,2595.203303703902
378.2162,2614.8747561669697
380.4062,2581.500397407479
382.5956,2492.578753257223
384.7844,2367.8583237329913
386.9726,2210.4375839257864
389.1603,2121.6149852480303
391.3474,2022.338957007778
393.5339,2002.3579072969387
395.7199,1949.4702239840362
397.9052,1978.0742749140209
400.09,2071.4684084371374
402.2743,2197.300953122897
404.4579,2330.020216826124
406.641,2513.024485428644
408.8235,2648.362021512078
411.0054,2728.681062527806
413.1868,2842.2798194435927
415.3675,2824.306475940395
417.5477,2754.809187276378
419.7273,2683.186080466644
421.9064,2637.735254978209
424.0848,2567.8547834462306
426.2627,2416.94271212851
428.4399,2207.7470616043083
430.6166,1944.7658282834536
432.7928,1615.696986498314
434.9683,1320.638491133589
437.1432,1130.638280917021
439.3176,966.0442813699674
441.4914,888.4544067074012
443.6645,818.6665614838603
445.8371,741.978641369341
448.0091,701.6385338471746
450.1806,717.4941189809097
452.3514,690.9932698177163
454.5216,711.5338522298252
456.6913,706.5637251795433
458.8603,751.6807405138434
461.0288,778.6327430140664
463.1967,738.9675699447507
465.3639,755.9830507841098
467.5306,687.6770076206831
469.6967,686.1472549831851
471.8622,686.6416005235606
474.0271,721.307845032291
476.1914,717.593782433446
478.3551,743.6471994380172
480.5182,771.6158755810657
482.6807,845.5975829611834
484.8426,1057.9400859608086
487.0039,1357.3411405064007
489.1647,1646.1484919450313
491.3248,1927.9098720503525
493.4843,2014.822996134545
495.6432,1948.8355602306901
497.8015,1817.5452402236424
499.9592,1666.0496925098978
502.1163,1475.946555310502
504.2728,1221.5334501860043
506.4287,957.4079839374945
508.5839,715.9677511507325
510.7386,544.4103368373962
512.8927,463.6333188494891
515.0461,463.83426959491135
517.199,555.8607568452353
519.3512,750.1603437336935
521.5029,1010.5305878349172
523.6539,1265.3190392219467
525.8043,1376.9732378625085
527.9541,1291.740711071152
530.1033,1091.5689723926907
532.2519,921.5555224545387
534.3999,825.1478509684212
536.5472,841.8934384305103
538.694,993.3397570855013
540.8401,1194.8342707591546
542.9856,1308.724433343843
545.1305,1341.9076867835902
547.2748,1267.1814599351883
549.4185,1144.0931682363534
551.5615,1059.490214452986
553.704,1115.7199899100606
555.8458,1202.6298753376514
557.987,1389.8172403086337
560.1276,1662.5294423695877
562.2675,2044.2638251689186
564.4069,2586.767715729743
566.5456,3074.1884206325403
568.6837,3220.7232205901164
570.8212,2867.3193655733967
572.958,2214.12407334608
575.0942,1586.0845329986732
577.2299,1169.2979114804457
579.3648,946.6613598798249
581.4992,858.5220175922705
583.6329,941.1770145466198
585.766,1094.3734720864968
587.8985,1224.908502143755
590.0304,1285.579205706521
592.1616,1281.5326715138344
594.2922,1179.0659754489552
596.4222,1009.976180579808
598.5515,815.7603381836716
600.6802,655.0654894380596
602.8083,554.9386673628887
604.9358,543.526898427418
607.0626,582.0772035515265
609.1888,675.2365982198253
611.3144,858.5520920961608
613.4393,1022.0706880920152
615.5636,1150.6893805333575
617.6873,1189.1051535254546
619.8103,1159.1149796666896
621.9327,963.5158196643933
624.0544,749.4046226347491
626.1756,574.3283280587857
628.2961,427.0338679234874
630.4159,359.66816847256086
632.5351,365.7281516793819
634.6537,361.16073592064276
636.7716,364.0628359157581
638.8889,387.53136277253816
641.0056,409.51322395816896
643.1216,393.70532306451787
645.237,363.6545595883217
647.3518,276.60782908927104
649.4659,213.21202349051146
651.5793,178.21403194911272
653.6922,139.41074149002725
655.8043,136.9990373560695
657.9159,144.57580339595188
660.0268,140.9379220883984
662.137,169.13227446637575
664.2466,189.45574015347302
666.3556,180.80519708196152
668.4639,136.92752128955544
670.5716,119.11958700592822
672.6786,88.72826709147284
674.785,13.200433215397425
676.8907,-37.31704384037221
678.9958,-24.7272934259081
681.1002,-33.733072094023555
683.204,-62.58688937187617
685.3072,-58.8409177932308
687.4097,-38.246704648833656
689.5115,-40.90520940866281
691.6127,-39.71700945811972
693.7132,-28.832273539564994
695.8131,16.1492263775599
697.9123,47.928006358221865
700.0109,80.55458230590557
702.1089,116.77946964481453
704.2061,206.75318299361606
706.3028,278.12623580317995
708.3987,314.4491394568495
710.4941,342.27240255670586
712.5887,406.3965305603442
714.6827,410.87202550263737
716.7761,512.1993853544946
718.8688,650.8291039781034
720.9608,751.0616701136605
723.0522,878.8475659930718
725.1429,1011.4872663376345
727.233,1139.1312370801734
729.3224,1249.0299340386518
731.4112,1202.6338016397149
733.4993,1118.6932718197195
735.5867,911.0087644886844
737.6735,668.7306883696883
739.7596,516.1094430757339
741.845,372.34542153251914
743.9298,311.4390115046481
746.014,272.4405970332782
748.0974,275.20055904516994
750.1802,265.56927574268593
752.2624,295.4971225761856
754.3439,368.0344723403432
756.4247,487.5816948748625
758.5048,662.039156339104
760.5843,907.7572180166171
762.6631,1304.4362345705613
764.7413,1836.1765515865309
766.8188,2477.078501605756
768.8956,3060.442398807705
770.9718,3457.1185326010745
773.0473,3428.457161790123
775.1221,3221.108510607937
777.1962,3010.022769003027
779.2697,2965.550094712824
781.3426,3033.0406153745344
783.4147,3125.9444289698695
785.4862,3157.1116031501333
787.557,2940.4421743071944
789.6271,2530.8861472618046
791.6966,1933.1934974302985
793.7654,1383.764174920152
795.8335,1004.5481105069066
797.901,735.6452211284659
799.9678,567.2054136772595
802.0339,465.5785876892651
804.0993,437.66463702840883
806.1641,370.0634509028296
808.2282,321.17491414402593
810.2916,270.89890788286175
812.3544,212.63531003845492
814.4164,183.68399582093753
816.4778,227.1448383140896
818.5385,280.367708764853
820.5986,426.10247614872605
822.658,685.2490066375312
824.7166,1030.5071621420657
826.7747,1529.7767977206422
828.832,2104.0577581265097
830.8886,2490.999872815157
832.9446,2684.502950201493
834.9999,2543.166773790438
837.0545,2242.1411002418845
839.1085,1855.5256607840556
841.1618,1537.5701642237755
843.2143,1261.1743008126086
845.2662,1065.08774542642
847.3175,955.4601603293349
849.368,866.5411971346039
851.4179,800.8304979008744
853.467,719.6776960213901
855.5155,682.5324168810967
857.5633,615.9942786681622
859.6105,544.2628927454371
861.6569,474.7878643158356
863.7027,430.91879313964637
865.7478,373.1552742292806
867.7922,347.0968982879731
869.8359,335.043252287408
871.8789,352.2439197283047
873.9212,426.2484807609553
875.9629,495.40651201321816
878.0039,579.3675858504694
880.0441,654.1312696840305
882.0837,751.6971251315445
884.1226,774.014707269348
886.1609,874.6335636568092
888.1984,1026.4532341131544
890.2352,1160.1232497112796
892.2714,1209.0431312595465
894.3069,1174.6123879650886
896.3416,1005.7805169446101
898.3757,856.1470035686953
900.4091,768.9113231501242
902.4418,793.1229424402127
904.4739,798.5313205011662
906.5052,873.5859084639651
908.5358,860.6361494742787
910.5658,762.4814779419194
912.595,573.5213196703389
914.6236,369.20509283817955
916.6515,239.43220988887242
918.6786,174.75207957379735
920.7051,153.4141082500155
922.7309,201.4677005270696
924.756,235.71225948036408
926.7804,275.74718617062626
928.8041,304.1718793014679
930.8272,369.48573481903077
932.8495,368.9881456277408
934.8711,400.87850093717225
936.892,358.5561862670211
938.9123,394.620583128205
940.9318,432.2710694460793
942.9506,468.5070191998029
944.9688,430.0778020458256
946.9862,345.2827829555263
949.003,208.07132259950413
951.019,104.99277819553481
953.0344,61.846504880680186
955.0491,58.73185674207252
957.063,82.89818724838642
959.0763,138.19484928097972
961.0888,181.57119489223442
963.1007,254.37657475257947
965.1119,262.0103377167443
967.1223,260.47183009568835
969.1321,247.96039558027678
971.1412,213.17537525665284
973.1495,212.46610773136126
975.1572,204.6319294791947
977.1641,260.2721748502927
979.1704,245.6361761484768
981.1759,207.77326307484964
983.1808,219.58276287415993
985.1849,251.86400071342177
987.1884,301.86629956382694
989.1911,368.9389798779248
991.1932,432.78135908960667
993.1945,436.69275094337263
995.1951,429.1724648559093
997.1951,415.4198058769789
999.1943,389.084074764618
1001.1928,396.46456812266933
1003.1906,462.0605786641345
1005.1877,591.7213951373715
1007.1841,708.8463016701371
1009.1798,744.8345764729747
1011.1748,691.6354906679699
1013.1691,579.0483079288633
1015.1627,414.5222850130449
1017.1556,249.65667288742952
1019.1477,125.90071837370942
1021.1392,65.10366579701531
1023.1299,47.164758223474564
1025.12,56.78323806818116
1027.1093,118.05834727458205
1029.0979,243.18932721829697
1031.0859,333.8254180943659
1033.0731,353.26585766594144
1035.0596,346.65988035791906
1037.0454,264.15671706254125
1039.0304,169.6555952054532
1041.0148,95.90573957073866
1042.9985,12.95637324593008
1044.9814,-22.393281640495843
1046.9636,-62.14400308962195
1048.9452,-61.29634539365452
1050.926,-7.700242026212436
1052.9061,23.894985889572126
1054.8855,60.640094155984116
1056.8642,95.18583833635967
1058.8421,138.58297338763714
1060.8194,169.4822533148963
1062.7959,230.53443073739254
1064.7717,274.1402565795588
1066.7469,372.5004794604911
1068.7213,478.16584525788494
1070.695,561.8870961244374
1072.6679,609.4649694311884
1074.6402,653.1501969303108
1076.6117,603.4935042793277
1078.5826,510.94561060426895
1080.5527,382.1072289962285
1082.5221,272.5790674368445
1084.4908,211.21183008668595
1086.4587,208.30621838053412
1088.426,221.61293164105882
1090.3925,234.68266710786702
1092.3584,284.01611980443613
1094.3235,331.4639824074238
1096.2879,434.17694475332974
1098.2515,579.3556933640148
1100.2145,738.5509104195744
1102.1767,956.8632723065466
1104.1382,1158.1434480259677
1106.099,1391.0420970102368
1108.0591,1625.5098671103297
1110.0185,1747.4473922667985
1111.9771,1820.8552901651028
1113.9351,1791.4341610162292
1115.8923,1684.6345868226172
1117.8488,1599.357131672372
1119.8045,1471.1023428072585
1121.7596,1369.0207514754711
1123.7139,1224.6628742141793
1125.6675,1158.0292138703462
1127.6204,1225.3202610443113
1129.5726,1181.1864947561244
1131.524,1074.3283817726342
1133.4748,937.7963770488286
1135.4248,749.0409247964135
1137.3741,604.2624598491366
1139.3226,488.3114095503379
1141.2705,447.8381952007412
1143.2176,375.44323321795673
1145.164,352.97693554121724
1147.1097,276.5897103553234
1149.0546,167.73196231530983
1150.9989,79.60409331031951
1152.9424,5.556503552172217
1154.8852,-62.61040754334954
1156.8272,-77.39624061602717
1158.7686,-43.699970827677134
1160.7092,-22.319800151674826
1162.6491,33.2465060013119
1164.5883,151.30140519541328
1166.5267,254.94735466230213
1168.4644,403.6868101206337
1170.4014,579.7722247395986
1172.3377,806.7060476515244
1174.2732,1130.8907221910113
1176.2081,1540.728683625608
1178.1421,2032.2723559139613
1180.0755,2574.324147607428
1182.0082,2985.036446934646
1183.9401,3138.9616163810124
1185.8713,3004.6019885815667
1187.8017,2678.259864781732
1189.7315,2284.7875161809206
1191.6605,1896.0371871959442
1193.5888,1629.6610993957474
1195.5163,1469.4614553889032
1197.4432,1370.4404414873743
1199.3693,1328.9502293085106
1201.2947,1297.392976765259
1203.2193,1286.2708284810624
1205.1432,1271.5359161054403
1207.0664,1232.0903584252046
1208.9889,1236.4862615118054
1210.9106,1208.0757191157973
1212.8316,1190.860812622872
1214.7519,1226.643611337966
1216.6715,1270.3761726574103
1218.5903,1364.5105417111035
1220.5084,1443.3987509251838
1222.4257,1559.5428190806833
1224.3424,1661.6447505246488
1226.2583,1796.5565340087005
1228.1735,1936.280141668014
1230.0879,2078.3175276721977
1232.0016,2296.870626828065
1233.9146,2463.1413531592525
1235.8269,2530.1815977206943
1237.7384,2491.743226935907
1239.6492,2443.728081926597
1241.5592,2446.5879788970415
1243.4686,2559.1247096142397
1245.3772,2760.6900413793137
1247.285,3022.785715902137
1249.1922,3265.0634472856946
1251.0986,3445.174919405107
1253.0042,3612.5717834848692
1254.9092,3722.0556562977245
1256.8134,3816.6281184907048
1258.7169,3948.4907134902905
1260.6196,4078.4949465566806
1262.5216,4272.942283465174
1264.4229,4462.984149206125
1266.3234,4671.9219260404625
1268.2232,4811.656951599278
1270.1223,4882.390516794443
1272.0207,4946.723864421274
1273.9183,4934.90818845118
1275.8151,4894.744633388333
1277.7113,4906.0842943878215
1279.6067,5032.5782176572975
1281.5014,5349.677400343568
1283.3953,5825.132789267663
1285.2885,6441.745277753845
1287.181,7039.265700875042
1289.0727,7615.444829286741
1290.9637,7995.733363251764
1292.854,8218.081926878496
1294.7435,8196.941064317989
1296.6323,8044.711237540478
1298.5204,7790.0428265467945
1300.4077,7500.086130890658
1302.2943,7177.291372225361
1304.1802,6821.358697203335
1306.0653,6317.838180704106
1307.9497,5816.929829393608
1309.8333,5380.483586759405
1311.7162,5017.249338119758
1313.5984,4796.326914988102
1315.4798,4670.516098705375
1317.3605,4539.366622649256
1319.2405,4391.1281734922595
1321.1197,4173.350392513243
1322.9982,3855.0328770797787
1324.876,3562.125182825942
1326.753,3220.776826835474
1328.6293,2992.937290570867
1330.5048,2790.95602328685
1332.3796,2594.0824443087768
1334.2537,2508.1659450524467
1336.127,2429.605890992837
1337.9996,2374.0516225232677
1339.8714,2368.5024557410034
1341.7426,2412.0576830028003
1343.6129,2458.216572980392
1345.4826,2439.728370224937
1347.3515,2450.0922947054296
1349.2196,2452.207541993579
1351.087,2497.723283160177
1352.9537,2565.6386647539393
1354.8197,2645.3028083463505
1356.6849,2800.214809852514
1358.5493,2962.973738734504
1360.4131,3178.4286364522504
1362.276,3376.778514835946
1364.1383,3429.8223539314986
1365.9998,3269.909100017034
1367.8606,2994.8376650724567
1369.7206,2681.5569283785853
1371.5799,2437.865739267868
1373.4384,2158.362920257181
1375.2962,1960.847269484747
1377.1533,1676.967563505158
1379.0096,1362.2725592645347
1380.8652,1054.0609969393217
1382.7201,807.731603083249
1384.5742,607.4830937094357
1386.4275,464.61417675368466
1388.2802,342.42355407697505
1390.132,256.1599228941468
1391.9832,197.17197699580538
1393.8336,150.50840761095697
1395.6832,115.41790399689307
1397.5322,84.74915390582555
1399.3803,75.40084393578854
1401.2278,53.721659837327024
1403.0745,87.31028660697666
1404.9204,76.2654087040537
1406.7656,81.23570971477511
1408.6101,105.51987246269982
1410.4538,137.21657895903445
1412.2968,205.9745101597846
1414.139,236.94234564879025
1415.9805,330.51876295015245
1417.8213,386.65243721854677
1419.6613,511.7920403034659
1421.5006,651.386240187876
1423.3391,822.883699736828
1425.1769,1092.783075301515
1427.0139,1470.733015004298
1428.8502,1951.4321560397057
1430.6858,2429.579120894942
1432.5206,2783.572512542887
1434.3547,3005.310909660634
1436.188,3034.242863089554
1438.0206,2970.7668936179143
1439.8524,2842.6314916915553
1441.6835,2751.3851180486527
1443.5139,2704.82620500107
1445.3435,2639.653157346819
1447.1724,2648.5643528356495
1449.0005,2610.508142820787
1450.8279,2593.132852169816
1452.6545,2578.5367796452356
1454.4804,2643.0181980782236
1456.3056,2638.3753545145864
1458.13,2611.556469569954
1459.9536,2497.7097374762025
1461.7766,2304.233326349643
1463.5987,2049.2253793294913
1465.4202,1772.5340165126345
1467.2409,1505.7073375037035
1469.0608,1280.1934241819918
1470.88,1064.3403433697204
1472.6984,872.1961490871781
1474.5161,718.7588847112511
1476.3331,597.2765848968611
1478.1493,534.5972771113447
1479.9648,479.5189828492803
1481.7795,419.4897182592704
1483.5935,381.60749469473285
1485.4067,349.1203193141873
1487.2192,348.7261954600799
1489.031,343.97312298365887
1490.842,319.55909824891023
1492.6522,307.3821141800872
1494.4618,279.59016050585524
1496.2705,266.23122388105685
1498.0785,260.2032881646319
1499.8858,222.00433455321308
1501.6924,215.13234164139703
1503.4981,186.13528580374168
1505.3032,162.61114126348411
1507.1075,114.35788038250666
1508.911,98.62347389658544
1510.7138,97.30589139791846
1512.5159,66.85310149247107
1514.3172,36.313071813151055
1516.1178,7.133769324334935
1517.9176,-6.886839372728446
1519.7166,-9.35078774812564
1521.515,-28.96004047241695
1523.3126,-13.466468801797873
1525.1094,-11.571654681658401
1526.9055,-29.327045527368227
1528.7008,-38.13397315346765
1530.4954,-46.443476397313134
1532.2893,-38.7562131378686
1534.0824,-50.62237728377113
1535.8747,-20.091775569088895
1537.6663,-22.613709010344337
1539.4572,0.6627220927794042
1541.2473,18.038643351546853
1543.0367,45.51518037060259
1544.8253,48.64345857420312
1546.6132,124.12460293145341
1548.4003,165.10973792502864
1550.1867,234.9499867963591
1551.9723,314.24647113578067
1553.7572,430.00031018413256
1555.5414,560.3626200397921
1557.3247,718.1345125011349
1559.1074,890.3670937629126
1560.8893,1074.361462838534
1562.6705,1259.3687098377404
1564.4509,1399.8399141266586
1566.2305,1481.426142477731
1568.0094,1547.2284476649988
1569.7876,1531.7978676482467
1571.565,1539.5854249149752
1573.3417,1549.092126634709
1575.1176,1575.6689645811184
1576.8928,1595.1669150369576
1578.6672,1628.236938528289
1580.4409,1701.779979629513
1582.2138,1769.2969666326594
1583.986,1877.0888108119616
1585.7575,1985.556405748684
1587.5282,2116.000626253208
1589.2981,2258.4223272803456
1591.0673,2398.9723426249084
1592.8358,2527.351483497485
1594.6035,2672.260537118942
1596.3704,2771.3502654366366
1598.1366,2893.0714036753225
1599.9021,3004.874659346256
1601.6668,3100.8107110299766
1603.4308,3214.030207258283
1605.194,3406.9837655548667
1606.9564,3617.8719713031214
1608.7182,3900.7453758166057
1610.4791,4208.604494230166
1612.2394,4553.299802671192
1613.9988,4889.531735181034
1615.7576,5193.85068026804
1617.5156,5372.5569775452495
1619.2728,5451.400914687194
1621.0293,5309.532725642836
1622.785,5075.90258984713
1624.54,4710.960633639707
1626.2942,4302.006932601173
1628.0477,3893.9415152025267
1629.8005,3511.764366894704
1631.5525,3195.925434189226
1633.3037,2893.67462847997
1635.0542,2669.111829201561
1636.804,2506.686886851877
1638.553,2366.9496252376807
1640.3013,2299.9998430988694
1642.0488,2255.737315505842
1643.7955,2266.561794529002
1645.5416,2320.8230096813777
1647.2868,2407.670667810383
1649.0313,2517.8044525552014
1650.7751,2655.1740234783133
1652.5181,2803.0290149641532
1654.2604,2953.8190348454195
1656.0019,3185.043662924519
1657.7427,3415.302449465677
1659.4828,3654.844912882677
1661.222,3803.770537436283
1662.9606,3808.32877083881
1664.6984,3611.869022764872
1666.4354,3251.440664805793
1668.1717,2760.493032434211
1669.9072,2296.925428608356
1671.642,1891.2871286815312
1673.3761,1545.6773850377854
1675.1094,1251.3954311483008
1676.8419,1058.090485027485
1678.5737,875.011752175792
1680.3048,750.7584275127715
1682.0351,648.9796972078566
1683.7646,563.5747399228953
1685.4934,498.4427278299404
1687.2215,437.63282746529694
1688.9488,373.6442003808461
1690.6754,338.5260037521407
1692.4012,309.22739101829256
1694.1263,269.797512233155
1695.8506,236.3855143583114
1697.5742,240.24054165736925
1699.297,196.81173603008347
1701.0191,175.2482369738068
1702.7404,134.09918201777464
1704.461,120.16370693874296
1706.1808,108.19094617247765
1707.8999,102.230032953109
1709.6182,89.93009943285915
1711.3358,94.99027674165109
1713.0527,87.85969511010717
1714.7688,62.48748381894666
1716.4841,57.77277127029356
1718.1987,44.46468524139709
1719.9126,54.712352931779606
1721.6257,32.264901096319136
1723.338,49.171455942771445
1725.0496,47.58114335624305
1726.7605,49.09308873012833
1728.4706,50.90641698200989
1730.18,37.12025253853881
1731.8886,49.98371931730662
1733.5964,39.895940864699696
1735.3036,52.756040227271114
1737.0099,39.713140052617746
1738.7156,33.76636246077442
1740.4204,12.114829174647639
1742.1246,13.007661579481464
1743.8279,-3.6060190606285687
1745.5306,0.7729083883391468
1747.2325,-1.5063989154650699
1748.9336,-15.094783821616602
1750.634,-17.193074130770583
1752.3336,-14.951946846692408
1754.0325,-17.271907214338626
1755.7307,-18.553311108718844
1757.4281,-17.54634185848954
1759.1247,-0.6009974447315471
1760.8206,-9.81710056057318
1762.5158,1.6055321048206679
1764.2102,7.917181935119061
1765.9039,4.768130297934931
1767.5968,-5.941341518288027
1769.289,-0.7609522727884723
1770.9804,3.85963862919607
1772.6711,9.370779384336856
1774.361,10.272818150712283
1776.0502,22.816102992691413
1777.7386,20.600981871918066
1779.4263,19.377802521874855
1781.1132,24.746912470035568
1782.7994,17.20865905009623
1784.4849,25.063389348286364
1786.1696,23.46145027874627
1787.8535,46.05318850498634
1789.5367,29.288950455901613
1791.2192,35.31908209985704
1792.9009,20.993929112327805
1794.5818,43.96383681559928
1796.2621,49.87915032201681
1797.9415,35.94021430429075
1799.6202,41.997372936339616
1801.2982,46.850970032684245
1802.9755,55.55134898786946
1804.6519,51.698852727934536
1806.3277,60.593823623406706
1808.0027,48.78660352782731
1809.6769,55.52753368879985
1811.3504,47.06695486606327
1813.0231,55.305207264081446
1814.6951,64.29263061664983
1816.3664,74.4295641045137
1818.0369,72.66634626549285
1819.7067,72.40331489311257
1821.3757,80.54080705423667
1823.044,83.22915909169706
1824.7115,89.31870654291902
1826.3783,84.00978411303686
1828.0443,80.00272561399879
1829.7096,85.24786401765482
1831.3741,102.84553149582894
1833.0379,106.79605936786788
1834.701,98.14977792466402
1836.3633,95.90701638915152
1838.0248,89.01810300276816
1839.6856,106.68336504788294
1841.3457,103.90312891668418
1843.005,112.7277199345267
1844.6636,111.9074623877334
1846.3214,119.99267943534983
1847.9785,127.73369311734791
1849.6349,122.73082427377335
1851.2904,136.73439246733528
1852.9453,138.29471603343518
1854.5994,148.71211194012994
1856.2528,149.28689577253112
1857.9054,140.4693816286292
1859.5572,157.7598821135473
1861.2083,143.15870842771483
1862.8587,151.01617019396372
1864.5084,156.13257560353964
1866.1572,140.10823133752683
1867.8054,144.49344251568527
1869.4528,149.33851285669402
1871.0994,152.29374463429758
1872.7453,147.3594386288571
1874.3905,152.98589409779652
1876.0349,146.5734088249451
1877.6786,165.87227906427506
1879.3215,150.13279960402542
1880.9637,167.50526357371427
1882.6051,168.53996260153167
1884.2458,179.0871866406162
1885.8858,163.19722395870713
1887.525,172.170361032674
1889.1634,165.8068827074144
1890.8011,157.70707210612386
1892.4381,159.9712106939303
1894.0743,173.5995783588926
1895.7098,170.14245338935802
1897.3446,169.5001123376794
1898.9786,170.1228300547848
1900.6118,169.76087969660398
1902.2443,179.66453271783735
1903.8761,168.93405887558038
1905.5071,159.26972613028306
1907.1374,168.02180075305614
1908.7669,159.39054742231315
1910.3957,169.87622913625023
1912.0237,153.3791072991594
1913.651,161.39944161657104
1915.2776,168.4374902602251
1916.9034,158.2435097878672
1918.5285,174.3677550728687
1920.1528,166.76047940616627
1921.7764,157.07193433502016
1923.3992,158.15236973908577
1925.0213,161.45203392730104
1926.6427,152.8211736270805
1928.2633,140.51003395131852
1929.8832,158.41885848469974
1931.5023,168.19788940680837
1933.1207,156.69736731303965
1934.7383,157.56753111681132
1936.3552,162.6086181645676
1937.9714,149.5708642270772
1939.5868,149.15450344902547
1941.2015,147.6597684793876
1942.8154,147.38689047559478
1944.4286,148.9360991184808
1946.041,148.20762261501113
1947.6528,144.201687682792
1949.2637,144.96851955735292
1950.8739,142.60834203220816
1952.4834,138.52137745118557
1954.0921,142.25784673203202
1955.7001,138.26796940728013
1957.3074,149.75196358688572
1958.9139,147.11004599812622
1960.5197,136.14243187076136
1962.1247,135.99933496345056
1963.729,125.68096767343081
1965.3325,115.98754103794568
1966.9353,134.26926483743068
1968.5374,121.47634769244632
1970.1387,124.25899688085974
1971.7393,136.3174184657762
1973.3392,128.7518172677112
1974.9383,119.96239674400636
1976.5366,123.89935906448545
1978.1342,119.16290519934773
1979.7311,129.25323487979995
1981.3273,136.42054664542047
1982.9227,119.66503774325611
1984.5173,129.1369040561483
1986.1112,125.18634027028907
1987.7044,128.21353978050274
1989.2968,123.86869472975127
1990.8885,126.30199597886303
1992.4795,123.56363314997839
1994.0697,124.4037946022197
1995.6592,117.02266745907309
1997.2479,118.92043759998774
1998.8359,125.49728973418632
2000.4232,112.10340738168884
2002.0097,113.98897280754272
2003.5955,108.70416715576175
2005.1805,123.74917043047094
2006.7648,130.97416154875327
2008.3484,117.72931819020096
2009.9312,127.31481672466566
2011.5133,121.18083234470714
2013.0946,122.42753896973704
2014.6752,124.00510930736004
2016.2551,115.16371484090541
2017.8342,118.35352581365328
2019.4126,124.52471131724656
2020.9902,113.32743925979457
2022.5672,119.21187630415943
2024.1433,109.57818797993014
2025.7188,114.92653862457769
2027.2935,121.45709147979142
2028.8674,111.3700086379954
2030.4406,110.31545097704497
2032.0131,107.29357826109504
2033.5849,107.85454915114724
2035.1559,120.64852123526839
2036.7261,120.47565102297949
2038.2957,122.88609381731771
2039.8645,113.93000371656422
2041.4325,118.0575335901392
2042.9998,117.11883516816397
2044.5664,99.76405900018449
2046.1323,109.39335446455925
2047.6974,105.30686994200596
2049.2617,112.85475271930909
2050.8254,109.68714903018463
2052.3883,118.0042039798027
2053.9504,115.15606157646289
2055.5118,117.69286464842321
2057.0725,110.41475487238176
2058.6325,96.1718727481084
2060.1917,107.46435767122557
2061.7502,108.94234807563794
2063.3079,107.35598132060659
2064.8649,109.95539367596962
2066.4212,101.19072033800649
2067.9767,108.0620954034423
2069.5315,102.56965195709563
2071.0856,99.61352200316469
2072.6389,91.59383652015231
2074.1915,102.91072549042542
2075.7433,101.31431798041353
2077.2945,88.7047420274398
2078.8448,95.33212465568386
2080.3945,97.69659200227943
2081.9434,101.69826925103985
2083.4916,92.2372806088124
2085.039,87.36374926546227
2086.5857,92.3277974884827
2088.1317,85.87954667173062
2089.677,91.56911728578393
2091.2215,87.84662894242706
2092.7652,89.56220033775321
2094.3083,95.66594928939003
2095.8506,94.45799271934266
2097.3921,92.28844659295737
2098.933,90.40742593100117
2100.4731,92.31504483135814
2102.0124,97.26141648783732
2103.5511,96.04665317109948
2105.089,98.37086617919113
2106.6261,97.13416584969241
2108.1626,97.68666153647541
2109.6983,98.37846162207165
2111.2332,97.75967351214695
2112.7675,97.88040362858192
2114.301,84.84075741566221
2115.8337,103.39083933886968
2117.3657,96.43075301528006
2118.897,95.06060102806123
2120.4276,93.63048499607407
2121.9575,80.49050558757494
2123.4866,80.89076253451458
2125.0149,97.48135476393941
2126.5426,85.96238039398918
2128.0695,89.23393656798953
2129.5956,90.1461195696429
2131.1211,80.14902479031252
2132.6458,80.39274671990097
2134.1698,80.1773790468203
2135.693,83.45301465555644
2137.2155,83.21974562882087
2138.7373,84.97766321479662
2140.2584,85.07685782946874
2141.7787,78.71741903904672
2143.2983,83.09943555897235
2144.8171,76.4229953175136
2146.3353,81.73818541194396
2147.8527,76.84509217530831
2149.3693,77.8438011232688
2150.8853,79.33439700303825
2152.4005,74.11696378339047
2153.9149,84.69158463975646
2155.4287,85.25834200639883
2156.9417,84.36731747066369
2158.454,70.41859176731577
2159.9655,74.4622447874467
2161.4764,77.89835571796357
2162.9865,73.92700300115098
2164.4958,80.14826430031007
2166.0045,62.96221653947282
2167.5124,83.41893584118884
2169.0195,72.76849769838589
2170.526,77.01097676980453
2172.0317,74.24644698649922
2173.5367,73.32498150941638
2175.0409,75.09665275703878
2176.5445,78.76153241459929
2178.0473,74.06969141636478
2179.5494,69.42119990898823
2181.0507,65.96612729842536
2182.5513,76.40454229642103
2184.0512,79.03651295506029
2185.5504,72.66210656238252
2187.0488,70.28138961606248
2188.5465,71.1444278871544
2190.0435,69.55128644389833
2191.5397,68.35202964309121
2193.0353,74.74672114601731
2194.5301,66.93542393044231
2196.0241,71.46820022666373
2197.5175,73.69511159562649
2199.0101,69.96621888359368
2200.502,61.23158219987863
2201.9931,68.49126095413226
2203.4835,64.89531394369146
2204.9733,49.94379928098044
2206.4622,55.93677442947194
2207.9505,62.52429635320095
2209.438,59.40642145683455
2210.9248,54.233205519798275
2212.4109,63.70470372745331
2213.8962,60.320970722829315
2215.3809,54.23206051190914
2216.8648,52.18802649746635
2218.3479,56.288921539954686
2219.8304,47.034797977948074
2221.3121,46.42570758713191
2222.7931,47.76170167284408
2224.2733,47.142831076165294
2225.7529,46.06914616055985
2227.2317,49.04069681806436
2228.7098,57.657532480025
2230.1872,49.76970208738169
2231.6638,54.57725400449988
2233.1397,45.430236098048226
2234.6149,47.878695688923244
2236.0894,42.72267964371872
2237.5632,40.51223435024269
2239.0362,43.94740576907611
2240.5085,35.928239455677954
2241.9801,32.154780526033846
2243.4509,37.07707373684684
2244.921,38.79516352327255
2246.3904,39.65909394969674
2247.8591,29.46890869255344
2249.3271,28.47465103168645
2250.7943,23.876363952250358
2252.2608,26.974090154653823
2253.7266,22.41787210054224
2255.1917,26.857751981819888
2256.656,27.94377176621356
2258.1197,27.87597315287246
2259.5826,27.65439756150886
2261.0447,29.679086133075202
2262.5062,23.950079731979258
2263.9669,27.767418925839365
2265.4269,25.33114404277353
2266.8862,24.641295133226322
2268.3448,28.647911994330684
2269.8026,25.551034176807434
2271.2598,26.60070094489822
2272.7162,26.496951307334598
2274.1719,25.089824006841695
2275.6268,26.22935752117587
2277.0811,29.915590077194793
2278.5346,37.04855963946375
2279.9874,28.22830387339127
2281.4395,36.854860073901136
2282.8908,19.528265253634572
2284.3414,26.2985560566849
2285.7914,32.56576893186366
2287.2406,37.82994006499723
2288.689,22.091105316254925
2290.1368,26.649300167507022
2291.5838,29.7545598797127
2293.0302,28.756919447338646
2294.4758,33.806413567307004
2295.9206,26.453076648970068
2297.3648,25.69694276361679
2298.8082,34.088045718005446
2300.251,43.076419061925776
2301.693,30.012096004287628
2303.1343,29.79510932323774
2304.5748,25.925491496801214
2306.0147,33.90327470505326
2307.4538,28.228490868814788
2308.8922,32.651171569874464
2310.3299,26.771348107736003
2311.7669,30.489051455391746
2313.2031,24.954312318121993
2314.6387,35.067161096317136
2316.0735,21.677627940825232
2317.5076,23.085742651822784
2318.941,16.541534812711006
2320.3737,28.595033776033347
2321.8056,26.34626872891863
2323.2369,31.045268572545638
2324.6674,16.792061944630063
2326.0972,28.836677172435316
2327.5263,24.329142415304545
2328.9547,24.369485544214058
2330.3823,27.157734186849666
2331.8092,18.243915727202648
2333.2355,25.82805727768698
2334.661,18.660185768279007
2336.0858,15.440327870674878
2337.5098,20.418510069968534
2338.9332,24.344758696850818
2340.3558,21.519099877827784
2341.7778,21.14155949595795
2343.199,26.512163219109425
2344.6195,20.280936503735234
2346.0393,20.14790454116701
2347.4583,30.413092319928637
2348.8767,21.776524627065783
2350.2943,23.93822594549374
2351.7113,26.398220540362672
2353.1275,29.856532437440933
2354.543,33.663185398515
2355.9578,31.968202886806125
2357.3718,25.171608028905325
2358.7852,30.523423631721357
2360.1978,24.423672250447794
2361.6098,33.822376135044806
2363.021,27.06955729123547
2364.4315,28.215237386519334
2365.8413,28.159437817700223
2367.2504,35.452179699429394
2368.6587,30.943483864764517
2370.0664,23.133370792240953
2371.4733,24.221860650960366
2372.8795,35.40897337869046
2374.285,26.544728670980362
2375.6899,37.47914586928903
2377.0939,24.662244049628384
2378.4973,32.144041913219326
2379.9,27.024557914659795
2381.3019,15.80381018710682
2382.7032,27.931816593472377
2384.1037,26.35859483863112
2385.5035,27.28416234813949
2386.9027,21.75853628396783
2388.3011,20.8817335352461
2389.6987,26.95377077351918
2391.0957,22.674664461514453
2392.492,18.944430792422622
2393.8876,20.463085732687546
2395.2824,21.180645059310223
2396.6765,11.647124344661165
2398.07,12.962538949305554
2399.4627,22.776904117336926
2400.8547,17.440234963224043
2402.246,25.552546373667724
2403.6366,26.213853060967836
2405.0265,17.424169481897934
2406.4156,4.733509831093215
2407.8041,16.69188812894754
2409.1918,10.399271108091739
2410.5789,14.805625334237789
2411.9652,9.560917269106767
2413.3508,20.66511322636336
2414.7358,12.56817942406417
2416.12,13.370081873614254
2417.5035,28.670786460738555
2418.8863,13.370258937460903
2420.2684,16.618464769098978
2421.6497,16.06536928726655
2423.0304,17.310937657393538
2424.4104,15.955134884253994
2425.7896,11.4479257995132
2427.1682,21.339275075285855
2428.546,15.17914726920776
2429.9232,21.567506725522662
2431.2996,21.304317636682867
2432.6753,23.78954397946586
2434.0503,18.723149517606203
2435.4246,17.605097776943467
2436.7982,18.585352096086012
2438.1711,23.913875637591673
2439.5433,16.190631378165108
2440.9148,13.665582055372738
2442.2856,13.988690244874306
2443.6557,17.60991838567429
2445.025,18.679228776890795
2446.3937,19.046583541543214
2447.7617,18.711944615858442
2449.1289,11.775273745598724
2450.4955,13.536532489406454
2451.8613,22.295682288171747
2453.2265,17.252684447419597
2454.5909,23.85750004971851
2455.9546,24.860090005110806
2457.3177,14.410414985064108
2458.68,19.558435412445647
2460.0416,24.05411156601906
2461.4025,24.147403528963423
2462.7627,20.988271143917245
2464.1222,17.426674012045055
2465.4811,28.612571524628834
2466.8392,23.195922898684103
2468.1966,28.07668706510117
2469.5533,22.654822722811105
2470.9093,25.580288289978853
2472.2645,33.15304195822182
2473.6191,28.223041663354707
2474.973,31.290245009662158
2476.3262,31.604609319198744
2477.6787,36.31609160111702
2479.0305,23.274648548523487
2480.3816,30.980236491364167
2481.7319,23.632811526838736
2483.0816,29.832329442344758
2484.4306,33.6287457889523
2485.7789,28.27201581940824
2487.1264,24.412094450172162
2488.4733,23.548936314983848
2489.8195,31.28249580346187
2491.165,32.31272706973539
2492.5097,34.33958395510899
2493.8538,23.363019977760132
2495.1972,25.432988312470684
2496.5398,31.64944190039273
2497.8818,34.162333428348234
2499.2231,35.92161526666564
2500.5637,28.727239444049587
2501.9035,28.87915762998955
2503.2427,25.57732120670255
2504.5812,28.42168126761476
2505.919,29.41218865037922
2507.256,29.698793908432094
2508.5924,22.18144730108793
2509.9281,35.41009879067383
2511.2631,36.43469811770251
2512.5974,37.05519466858607
2513.9309,31.021537465390566
2515.2638,23.583675159630275
2516.596,32.09155609260438
2517.9275,27.945128369775944
2519.2583,29.34433977569313
2520.5884,28.63913781545284
2521.9178,35.77946970070877
2523.2465,30.315282356724197
2524.5745,41.09652235096769
2525.9018,32.52313594775546
2527.2284,36.59506900043891
2528.5543,38.762267037138145
2529.8796,39.574675220022414
2531.2041,40.18223832363856
2532.5279,35.834900726786714
2533.851,35.28260640644481
2535.1735,39.27529898124192
2536.4952,43.7129217169815
2537.8163,51.245417486713905
2539.1366,46.822728726360765
2540.4562,53.54479735938958
2541.7752,49.31156484104031
2543.0935,44.3229720911055
2544.411,50.228959536261925
2545.7279,51.92946715995737
2547.0441,48.22443444335005
2548.3596,50.663800348303994
2549.6744,48.09750335443891
2550.9885,54.67548143473704
2552.3019,51.39767208120594
2553.6146,50.1140122390986
2554.9266,56.92443833969179
2556.2379,55.32888631312244
2557.5485,52.12729152028339
2558.8585,56.76958876877916
2560.1677,51.65571234494155
2561.4762,51.935595967406925
2562.7841,59.109172838255176
2564.0913,57.12637564021014
2565.3977,59.78713646490405
2566.7035,52.79138683270543
2568.0086,54.33905766611207
2569.313,57.68007935970786
2570.6167,59.06438176468703
2571.9197,61.89189415544263
2573.222,53.31254521572481
2574.5236,66.02626301036469
2575.8246,63.9829750710681
2577.1248,61.63260826927865
2578.4244,60.225088836609984
2579.7232,72.91034238835016
2581.0214,62.98829393753658
2582.3189,68.45886776810323
2583.6157,62.721987534101515
2584.9118,66.77757620499398
2586.2072,71.92555612302368
2587.5019,79.01584896265803
2588.7959,74.04837567910863
2590.0893,77.52305643742903
2591.3819,81.38981066218912
2592.6739,80.49855700272838
2593.9652,79.19921329448829
2595.2557,87.79169656792499
2596.5456,87.57592306150252
2597.8348,95.65180813576842
2599.1234,95.36926627551077
2600.4112,93.02821100899979
2601.6983,85.17855491081383
2602.9848,87.4702096252488
2604.2705,86.70308594481531
2605.5556,95.07709378732216
2606.84,91.79214220354709
2608.1237,88.49813929349773
2609.4067,88.59499223925997
2610.689,88.18260733793858
2611.9707,87.06089000068852
2613.2516,90.52974475683891
2614.5319,85.98907526511033
2615.8115,91.08878427892608
2617.0903,80.17877369181883
2618.3685,78.05894448643392
2619.6461,75.82919684362895
2620.9229,83.18943016367223
2622.199,84.33954308854067
2623.4745,81.42943342831677
2624.7493,80.20899814968811
2626.0234,81.32813340504799
2627.2968,83.03673454469975
2628.5695,88.6846961056657
2629.8415,86.77191179460073
2631.1128,87.09827443131314
2632.3835,77.36367596789222
2633.6535,81.66800748544478
2634.9228,84.41115929144087
2636.1914,90.64302087667079
2637.4593,80.71348088781315
2638.7265,83.57242706511704
2639.9931,77.56974634169666
2641.259,90.50532481494241
2642.5242,80.32904780654707
2643.7887,84.24079973315042
2645.0525,81.84046420810193
2646.3156,74.97792400234346
2647.5781,82.25306106841225
2648.8398,78.51575660906678
2650.1009,74.51589100453486
2651.3613,79.2533438498869
2652.6211,78.47799399503464
2653.8801,80.53971949735654
2655.1385,80.03839762945148
2656.3961,80.67390485852133
2657.6531,80.19611685138369
2658.9094,83.45490846811771
2660.1651,80.30015376684128
2661.42,82.03172597112336
2662.6743,90.59949750153152
2663.9279,90.25333995831625
2665.1808,94.84312403573307
2666.433,93.76871952550442
2667.6846,90.32999527092176
2668.9354,98.72681917758939
2670.1856,96.20905824781221
2671.4351,106.77657849662688
2672.6839,99.87924497697986
2673.9321,109.51692167405173
2675.1795,104.8894715742311
2676.4263,110.14675656873743
2677.6724,109.48863749989567
2678.9179,121.4649741085633
2680.1626,118.42562504071185
2681.4067,105.77044772766311
2682.6501,110.84929841648301
2683.8928,106.06203229653329
2685.1348,107.15850344868255
2686.3761,107.68856489317938
2687.6168,90.30206857868711
2688.8568,93.64886537698408
2690.0961,96.0788052568277
2691.3348,96.691737250487
2692.5727,92.78750942944322
2693.81,95.36596889826029
2695.0466,98.82696183362731
2696.2826,91.72033345857352
2697.5178,91.39592800785863
2698.7524,97.00358879903939
2699.9863,101.4931582357134
2701.2195,100.66447775144246
2702.452,101.66738776485676
2703.6839,106.60172768794217
2704.9151,112.8173359160109
2706.1456,115.0640497783582
2707.3755,124.14170547610598
2708.6046,133.65013805973615
2709.8331,125.78918133831382
2711.0609,133.50866778440263
2712.2881,145.15842861267475
2713.5145,141.7882937027157
2714.7403,160.54809148252684
2715.9654,165.98764896222673
2717.1899,168.70679154645325
2718.4136,176.55534297996815
2719.6367,181.2331253204651
2720.8591,193.33995886008466
2722.0809,202.4256620786362
2723.3019,220.0900515225295
2724.5223,229.082941713918
2725.7421,226.0041449740545
2726.9611,232.80347133336267
2728.1795,220.58072856222498
2729.3972,222.48572210298892
2730.6142,210.5182551921954
2731.8306,194.92812884152818
2733.0462,187.26514195748814
2734.2612,175.82909149729585
2735.4756,165.46977254552013
2736.6892,146.93697842843926
2737.9022,135.98050081763404
2739.1145,123.50012991531548
2740.3262,111.84565456388987
2741.5372,103.06686237076235
2742.7475,96.36353982488174
2743.9571,89.38547238452827
2745.1661,82.3324445443472
2746.3744,73.10423990512936
2747.582,65.5506412443412
2748.7889,61.42143060840709
2749.9952,55.26638938824544
2751.2008,55.335298360560614
2752.4057,44.22793774939316
2753.61,38.89408722543078
2754.8136,45.98352601708183
2756.0165,34.59603296381431
2757.2188,33.98138644526091
2758.4204,37.039364495094276
2759.6213,27.26974480717331
2760.8215,30.122304704963767
2762.0211,28.44682123923417
2763.22,31.59307115953021
2764.4182,25.81083093092957
2765.6158,20.199876702579274
2766.8127,18.90998436551797
2768.009,16.24092960878602
2769.2045,12.692487932323786
2770.3994,7.814434673662447
2771.5936,3.2065450434087097
2772.7872,5.61859417402502
2773.9801,0.00035716590872425513
2775.1723,-9.548390936728822
2776.3639,-11.627875093244654
2777.5548,-8.18822487457038
2778.745,-13.329453689165746
2779.9346,-8.701493145124402
2781.1235,-7.754141689297569
2782.3117,-9.63711084062021
2783.4992,-9.750034654151932
2784.6861,-12.942450910215086
2785.8723,-3.763799986286301
2787.0579,-7.713392964757759
2788.2428,-10.44050332766011
2789.427,-10.844327500228644
2790.6106,-0.873957607070281
2791.7935,0.7216225620391583
2792.9757,2.3934379481604537
2794.1573,8.792513485138386
2795.3382,12.51987408288403
2796.5184,23.326544563383607
2797.698,20.663549623424785
2798.8769,24.131913726530513
2800.0551,30.932661129588382
2801.2327,42.166815848167005
2802.4096,47.535401588508705
2803.5859,54.98944163518786
2804.7615,71.42995879742494
2805.9364,84.50797533454613
2807.1106,103.6245127915783
2808.2842,117.03059186846878
2809.4572,139.22723222892034
2810.6294,155.56545236633008
2811.801,188.0962693818226
2812.972,218.72069882086856
2814.1423,251.389754347976
2815.3119,274.80444744044576
2816.4808,314.76578706168186
2817.6491,352.8747794270438
2818.8167,404.1324276042331
2819.9837,439.289731132204
2821.15,495.2476855085866
2822.3157,534.8572818381135
2823.4807,591.5195062730411
2824.645,638.0353396170524
2825.8086,684.355756758637
2826.9716,727.0317262059299
2828.134,771.5642096235099
2829.2957,822.0541614056378
2830.4567,843.4525282309329
2831.617,875.5602485574731
2832.7767,870.9282524088112
2833.9358,870.7574610528984
2835.0941,864.1987870484032
2836.2519,849.5031342464204
2837.4089,824.4713978560569
2838.5653,817.0544645913888
2839.7211,803.2532129217782
2840.8761,796.3685131460429
2842.0306,798.0512275304689
2843.1843,809.6522103776573
2844.3374,831.0723080096977
2845.4899,872.2123586521573
2846.6417,910.6731922198803
2847.7928,948.9556299055881
2848.9433,989.9104837952696
2850.0931,1039.3885564853579
2851.2422,1098.3406406731817
2852.3907,1126.117518662185
2853.5385,1179.369961772404
2854.6857,1208.7487300627015
2855.8323,1251.5045717982407
2856.9781,1294.5882231566975
2858.1233,1338.5504078007027
2859.2679,1380.7418364470045
2860.4118,1429.3632064268477
2861.555,1460.2152012640586
2862.6976,1497.7984901888317
2863.8395,1533.6137278292103
2864.9808,1561.411553835253
2866.1214,1582.8925925208807
2867.2614,1591.4574525858998
2868.4007,1593.356726901191
2869.5393,1606.890992423061
2870.6773,1626.9108101742481
2871.8146,1621.3667251085828
2872.9513,1620.5092659107859
2874.0874,1630.038945051912
2875.2227,1604.956258797924
2876.3574,1590.961687114394
2877.4915,1570.8556939173327
2878.6249,1561.838727213134
2879.7577,1525.2112192996356
2880.8898,1509.3735868562865
2882.0212,1500.3762313104248
2883.152,1500.9695389956537
2884.2821,1480.553881241813
2885.4116,1470.2296143690478
2886.5405,1477.397079891965
2887.6686,1498.9066046228754
2888.7962,1494.3085006001188
2889.923,1497.30306487297
2891.0493,1506.3405795476187
2892.1748,1507.6713117572237
2893.2997,1531.8955135715394
2894.424,1539.563421983606
2895.5476,1539.2252586675104
2896.6706,1568.931229901704
2897.7929,1579.6315265723872
2898.9145,1596.3763238764475
2900.0355,1614.415781214458
2901.1559,1633.3500420232294
2902.2756,1674.2792335954127
2903.3946,1692.053466890161
2904.513,1729.722836123835
2905.6308,1743.48741859226
2906.7479,1754.8472742940335
2907.8643,1779.3024457928805
2908.9801,1799.8529581040514
2910.0953,1808.6488184497753
2911.2098,1803.9900160537493
2912.3236,1793.2265220531845
2913.4368,1796.258289545392
2914.5494,1757.9852536954172
2915.6613,1738.757331705724
2916.7725,1724.3244231989238
2917.8831,1695.9864104100545
2918.9931,1656.4431583309106
2920.1024,1643.2445149934215
2921.211,1632.940311865088
2922.319,1610.980363980964
2923.4264,1607.8644700467016
2924.5331,1612.4924126581495
2925.6391,1597.713958332512
2926.7445,1595.378857462069
2927.8493,1599.6868444619618
2928.9534,1614.487637793543
2930.0569,1621.9809399212982
2931.1597,1623.9164371648362
2932.2619,1626.393799623956
2933.3634,1631.0626811592942
2934.4643,1635.8727193675475
2935.5645,1633.8235355347877
2936.6641,1624.5147345883586
2937.763,1601.7459051173685
2938.8613,1581.7666194657802
2939.959,1542.676433960096
2941.056,1504.9748891091535
2942.1523,1443.0615099950257
2943.248,1382.035806650037
2944.3431,1321.1472746758973
2945.4375,1222.295395853959
2946.5313,1158.729638754102
2947.6244,1070.1494597232524
2948.7169,988.0543035210403
2949.8087,908.7936042056018
2950.8999,843.4667859545299
2951.9904,779.6232638574816
2953.0803,709.5124445694456
2954.1696,682.333726949179
2955.2582,639.5865027603139
2956.3462,591.0701569431458
2957.4335,567.9840680421055
2958.5202,537.5276086909224
2959.6062,512.6501458434855
2960.6916,508.1510410784078
2961.7764,489.2296508478013
2962.8605,480.08532652226813
2963.9439,470.4174145801141
2965.0267,466.77525669879213
2966.1089,455.708189851581
2967.1905,453.265546344007
2968.2714,455.596653924515
2969.3516,458.9508358088942
2970.4312,469.7274106569678
2971.5102,477.82569253905103
2972.5885,468.34499082818513
2973.6662,479.08461011915495
2974.7432,485.3938503232956
2975.8196,489.07200656109603
2976.8954,485.06836909910703
2977.9705,477.2322233131588
2979.045,478.1128497283984
2980.1188,453.3095240976504
2981.192,452.87151739261145
2982.2645,435.3980960518825
2983.3364,425.83852198535
2984.4077,406.79205274891956
2985.4783,385.65794164011186
2986.5483,366.5854378885268
2987.6177,346.7237868671858
2988.6864,319.322230283256
2989.7545,291.0800063766669
2990.8219,264.1963501941262
2991.8887,239.6704938715418
2992.9548,226.55166690285796
2994.0204,189.78909638531468
2995.0852,170.93200715063494
2996.1495,155.5296221326509
2997.2131,139.181162555875
2998.276,116.93584808952352
2999.3383,102.79289701100157
3000.4,96.00152642835587
3001.4611,81.06095242170454
3002.5215,57.32039011115057
3003.5812,46.07905380618712
3004.6404,42.686157243103935
3005.6989,39.44091369740039
3006.7567,29.192536017714303
3007.8139,20.590236658274534
3008.8705,12.58322778138455
3009.9264,9.720721343445518
3010.9818,9.501929175026703
3012.0364,2.226063009490076
3013.0905,0.3423344851782417
3014.1439,-0.45004478182636376
3015.1966,-6.551863178864721
3016.2487,-4.963904597330838
3017.3002,-8.036887475505637
3018.3511,-12.02148066226357
3019.4013,-6.51827271797282
3020.4509,-14.427732108410396
3021.4998,-10.050262181808705
3022.5481,-11.136122153356553
3023.5958,-5.435470836123727
3024.6428,-4.3483557933196835
3025.6892,2.1252297121993706
3026.735,0.7353358576516484
3027.7802,3.8820127990030073
3028.8247,-0.6846893151339941
3029.8685,3.9852796250330584
3030.9118,7.941976569343012
3031.9544,13.485458427781566
3032.9963,15.815782030915102
3034.0376,23.03300407445539
3035.0783,24.88718109595669
3036.1184,29.778369402643364
3037.1578,32.05662505286807
3038.1966,38.122003807199974
3039.2348,38.77456110564219
3040.2723,40.614352006977754
3041.3092,43.54143118224425
3042.3455,49.90585289633617
3043.3811,50.957670978733745
3044.4161,49.39693875985887
3045.4505,54.87370906055679
3046.4842,57.738034207703606
3047.5173,52.939965979438455
3048.5498,54.02955557652021
3049.5816,57.15685367030798
3050.6128,56.57191039186554
3051.6434,60.224775300688236
3052.6734,58.71549739055263
3053.7027,57.894125052987505
3054.7314,60.26070609236703
3055.7594,59.31528773412404
3056.7868,62.95791660108466
3057.8136,58.43863872292184
3058.8398,58.15749949972974
3059.8653,60.714543747216055
3060.8902,59.6098156995138
3061.9145,65.64335898361037
3062.9381,59.5652166303955
3063.9612,63.02543101432519
3064.9835,66.1740439142034
3066.0053,61.76109647857976
3067.0264,62.236629194263486
3068.0469,63.250681930453055
3069.0668,57.15329393398082
3070.086,64.69450381917227
3071.1046,59.124349628820056
3072.1226,59.29286875877179
3073.1399,50.45009801363187
3074.1567,51.99607360507585
3075.1727,52.48083124027863
3076.1882,40.354406106454434
3077.203,43.816832866009264
3078.2173,30.61814577780538
3079.2308,33.85837866253658
3080.2438,33.53756503471547
3081.2561,32.9057380702709
3082.2678,29.062930609756194
3083.2789,24.50917516466731
3084.2893,20.194503955870886
3085.2991,18.168948959142
3086.3083,16.332541948310762
3087.3169,16.43531451551786
3088.3248,13.277298089578665
3089.3321,13.908523934955412
3090.3388,13.62902318333741
3091.3449,7.988826827328893
3092.3503,5.237965723243889
3093.3551,4.876470647508171
3094.3593,8.104372324168025
3095.3629,9.121701428504963
3096.3658,8.578488554756746
3097.3681,5.024764205944223
3098.3698,3.9105587993034305
3099.3708,3.9859027018228232
3100.3713,1.6508262413853458
3101.3711,3.1053597060149514
3102.3702,0.8995333672274342
3103.3688,8.583377465485029
3104.3667,2.206922232254783
3105.364,0.7201978131700457
3106.3607,4.423234331795243
3107.3568,2.9660619044928183
3108.3522,-1.2512893966071772
3109.347,-3.628789529035174
3110.3412,0.8336040500593924
3111.3348,2.6359701351343006
3112.3277,1.2783875123113404
3113.32,3.010934941352815
3114.3117,-0.7163088307629408
3115.3028,0.5467349128331733
3116.2932,5.900152044935311
3117.2831,0.39402843287025746
3118.2723,2.678449884963399
3119.2608,3.2034982731960753
3120.2488,1.9692554427651459
3121.2361,-0.32419679316737415
3122.2229,3.02322335886808
3123.209,2.361600931066974
3124.1944,2.9410209253927064
3125.1793,3.6115683201927453
3126.1635,3.6233280644044044
3127.1471,7.076385070849426
3128.1301,9.120824216116404
3129.1125,6.456730306030039
3130.0942,7.33418805520688
3131.0753,8.10328211369621
3132.0558,3.5140970582054933
3133.0357,8.166717384409338
3134.015,2.561227552841487
3134.9936,8.597711942368548
3135.9716,8.976254906244847
3136.949,11.34694071174765
3137.9258,10.659853536391708
3138.902,13.61507744422238
3139.8775,12.462696392686624
3140.8524,11.25279420308064
3141.8267,12.085454572073743
3142.8004,12.060761083807321
3143.7735,18.878797201568148
3144.7459,13.789646268035511
3145.7178,17.493391437100684
3146.689,16.990115724758454
3147.6596,15.579901972069777
3148.6295,18.662832850194448
3149.5989,14.138990874493246
3150.5676,19.55845837369874
3151.5357,18.871317535153537
3152.5032,20.127650350615667
3153.4701,26.127538623129993
3154.4364,17.82106395446492
3155.402,24.008307685113458
3156.367,23.139350977358063
3157.3315,22.064274753398173
3158.2952,26.233159704039792
3159.2584,24.846086299446164
3160.221,26.153134747449073
3161.1829,25.054385007419405
3162.1442,22.299916777196856
3163.105,23.789809504077112
3164.065,30.224142412356812
3165.0245,26.802994488434436
3165.9834,31.52644441646713
3166.9416,29.994570612582088
3167.8993,32.507451177642125
3168.8563,30.515163912564333
3169.8127,30.967786293191338
3170.7684,31.91539549021418
3171.7236,32.85806836464603
3172.6782,30.995881458346155
3173.6321,38.07891098459316
3174.5854,41.80723284670685
3175.5381,39.63092256721795
3176.4902,38.85005525058483
3177.4417,37.46470560495669
3178.3926,36.27494794998218
3179.3428,38.130856230662886
3180.2924,40.782504029251
3181.2415,43.829964546690164
3182.1899,41.87331057609897
3183.1377,41.16261447229638
3184.0848,39.19794817136834
3185.0314,43.079383197774575
3185.9773,41.9069906839954
3186.9227,45.630841331717306
3187.8674,38.05100542355689
3188.8115,38.867552785822355
3189.755,49.18055286431185
3190.6979,44.490074716148
3191.6402,43.246186906647935
3192.5818,49.09895755622803
3193.5229,50.19845435284278
3194.4633,50.59474449345714
3195.4031,49.387894673051534
3196.3423,49.677971080658914
3197.2809,52.61503941143334
3198.2189,54.04916486374913
3199.1563,52.680412109830215
3200.0931,55.458845281408905
3201.0292,56.03452798341336
3201.9648,56.7575232661833
3202.8997,56.37789361971318
3203.834,58.24570096642222
3204.7677,56.16100666495068
3205.7008,59.77387149148188
3206.6333,57.53435566058898
3207.5652,56.94251878910651
3208.4964,59.79841991852539
3209.4271,58.00211752091138
3210.3571,57.85366947034604
3211.2865,62.85313306088974
3212.2154,62.350565008066155
3213.1436,62.74602139886765
3214.0712,65.4395576967809
3214.9982,66.83122873783239
3215.9246,63.871088703653
3216.8503,66.15919110756136
3217.7755,65.54558882416515
3218.7001,64.78033406648017
3219.624,68.71347839206632
3220.5473,66.09507271068017
3221.4701,73.72516724494344
3222.3922,68.70381155652716
3223.3137,72.43105446985066
3224.2346,74.55694412229516
3225.1549,70.33152792693132
3226.0746,72.45485255126034
3226.9937,76.57696395946817
3227.9121,74.99790739119217
3228.83,78.9177273203001
3229.7473,77.1864674706806
3230.6639,82.90417077704501
3231.5799,81.32087940224004
3232.4954,76.48663468007064
3233.4102,81.00147713113297
3234.3244,80.71544651115681
3235.238,80.4285817658572
3236.151,82.14092103379463
3237.0634,83.70250164924383
3237.9752,85.36336012507022
3238.8864,81.4735321371143
3239.797,86.0830525075829
3240.7069,87.44195524394758
3241.6163,83.30027349284924
3242.5251,81.75803952650935
3243.4332,86.96528478414652
3244.3408,85.52203988739902
3245.2477,87.37833458825219
3246.154,83.08419778347103
3247.0598,90.58965749603703
3247.9649,90.04474091808979
3248.8694,91.44947433587225
3249.7733,89.95388313517996
3250.6766,91.45799178731365
3251.5793,91.16182386403517
3252.4814,91.36540202252652
3253.3829,94.06874800835132
3254.2838,98.07188265341922
3255.1841,91.1248258489523
3256.0838,97.5275965054538
3256.9829,97.68021262217877
3257.8814,98.13269122310615
3258.7792,97.4850483554128
3259.6765,98.23729908494866
3260.5731,98.68945750271308
3261.4692,98.8915367173325
3262.3647,97.99354885053867
3263.2595,103.74550503514806
3264.1538,98.54741542404156
3265.0474,99.749289132645
3265.9404,100.85113429091
3266.8329,101.6029580312953
3267.7247,103.95476647774828
3268.616,101.15656473818672
3269.5066,100.90835688098066
3270.3966,103.4601459629345
3271.286,101.311934031769
