RamanShift,CorrectedData
30.1047,118.60852731823789
32.3739,109.27815031682151
34.6426,99.14777212931983
36.9109,92.4173904768661
39.1787,82.9870020891158
41.4461,71.70660277155046
43.7131,66.57618749978162
45.9796,55.14575053235469
48.2456,46.91528546205322
50.5112,35.88478533020316
52.7764,29.854242708977615
55.0411,20.373649811701835
57.3054,10.992998553158614
59.5692,0.41228064439424905
61.8326,-7.318512313474951
64.0955,-14.449388723455485
66.3579,-20.830283876615855
68.6199,-28.96098871463124
70.8815,-29.2910860846409
73.1426,-27.219869513506865
75.4032,-6.796339910141214
77.6634,52.73077374304037
79.9231,203.5628103590579
82.1824,517.6011083236236
84.4412,1059.4970039868217
86.6995,1731.7518285227256
88.9574,2373.4669025104386
91.2148,2803.2935292115444
93.4717,2963.182988152961
95.7282,2976.136530828668
97.9842,2939.9553791008166
100.2398,2871.090725070192
102.4949,2805.293731438027
104.7495,2760.3655321946458
107.0036,2709.057233277437
109.2573,2619.6699130201314
111.5105,2509.5546226658903
113.7632,2400.912387261175
116.0154,2279.194206756899
118.2672,2162.3010570948545
120.5185,2061.0338914248905
122.7693,1957.643641273846
125.0197,1873.5812175582205
127.2696,1775.2475116180779
129.519,1729.49339605767
131.7679,1687.619725728774
134.0163,1657.2773381882325
136.2642,1629.7670541166926
138.5117,1607.1396776220263
140.7587,1564.9459965144356
143.0052,1520.0867825327273
145.2512,1449.4127917662465
147.4967,1402.9747651034716
149.7417,1343.8734289387526
151.9863,1319.4594956366927
154.2304,1300.3836641231605
156.4739,1263.84662012943
158.717,1274.6490363829384
160.9596,1278.8415729726576
163.2017,1289.8248772410693
165.4433,1284.0495837422395
167.6844,1268.2663141319858
169.925,1224.7256772256303
172.1651,1156.728269155832
174.4047,1100.6746738079935
176.6439,1070.8654635002347
178.8825,1016.8511995439292
181.1206,996.032432541796
183.3582,971.3597029280427
185.5954,955.6835411765526
187.832,955.5044680476128
190.0681,935.8229947446753
192.3037,921.3396229161475
194.5388,925.5548448522076
196.7734,920.7191436296375
199.0075,934.4829930696714
201.2411,942.2468577863523
203.4742,953.1111930488931
205.7068,974.0264447040388
207.9389,971.9430490674226
210.1704,986.7614327144139
212.4015,979.2820125009516
214.632,977.2551954153608
216.862,977.1813786531474
219.0915,987.3109496372651
221.3205,986.1442860188545
223.549,997.881755575947
225.777,975.1237162251324
228.0044,967.8705159041823
230.2314,948.8724927996323
232.4578,933.1299754193126
234.6837,894.0932827823286
236.909,871.2627245764869
239.1339,862.9886015486608
241.3582,850.7712057330968
243.582,835.0608205341557
245.8053,847.1077208484867
248.0281,841.6121732221307
250.2503,834.5744357300521
252.472,833.6947580310934
254.6932,842.6733814383531
256.9139,831.460538927983
259.134,851.1564550494002
261.3536,861.9113460374181
263.5727,899.3254196152852
265.7912,930.6488748871373
268.0092,992.5819019638559
270.2267,1042.2746816498347
272.4436,1062.97738482365
274.6601,1094.9401719411298
276.8759,1114.16319282833
279.0913,1129.7965863619042
281.3061,1142.7904802768762
283.5204,1137.8949910103024
285.7341,1150.0602235713352
287.9473,1163.6862715901777
290.16,1172.0232171964317
292.3721,1132.2711308828357
294.5837,1088.5300714218984
296.7947,1071.900086263416
299.0052,1036.881211971886
301.2152,1021.0734743928033
303.4246,996.1768890028529
305.6334,966.7914610679848
307.8418,944.9671858923799
310.0495,907.4540491123057
312.2568,875.052026914357
314.4635,826.46108641059
316.6696,773.2811859625402
318.8752,718.1622756671328
321.0802,690.204297888482
323.2847,684.0071878090799
325.4887,680.7208737093763
327.692,706.1952770297486
329.8949,724.9303124033665
332.0972,753.9758874014464
334.2989,781.1319023459015
336.5001,752.8982500188868
338.7007,721.0248153912381
340.9008,676.3114759048099
343.1003,616.5081017912084
345.2992,568.2145565189267
347.4976,529.1306973913755
349.6955,497.20637602982174
351.8927,465.3414387642256
354.0895,448.0357269524835
356.2856,445.18907729907914
358.4812,423.5513220281383
360.6763,408.37228891189636
362.8707,405.55180148707564
365.0646,406.8896792066764
367.258,421.73573746818124
369.4508,427.28978760017617
371.643,451.3516367138908
373.8346,459.9210876476566
376.0257,496.897938726289
378.2162,521.9819836753929
380.4062,507.7230112515947
382.5956,494.5708049917007
384.7844,452.57514335528754
386.9726,401.1857998562241
389.1603,382.3025434826279
391.3474,356.07513921075986
393.5339,364.4033481938561
395.7199,380.7869280244021
397.9052,402.12563265084975
400.09,443.6192122137826
402.2743,475.16741283252804
404.4579,503.9199761902221
406.641,549.3266392183273
408.8235,593.9371338091062
411.0054,620.7011863615562
413.1868,678.8685173353031
415.3675,734.038840982962
417.5477,729.8118647684639
419.7273,655.2872888153506
421.9064,569.3648059490474
424.0848,507.79410244210635
426.2627,461.27485887343073
428.4399,397.20675074398446
430.6166,337.7394489419819
432.7928,296.9226203835701
434.9683,259.00592860750294
437.1432,222.6890341833075
439.3176,201.1215950904525
441.4914,193.55326708151642
443.6645,183.78370389786232
445.8371,183.21255734532087
448.0091,186.13947739188598
450.1806,179.81411217342725
452.3514,169.78610796441944
454.5216,178.805109241197
456.6913,160.02075878223468
458.8603,173.23269757795606
461.0288,169.34056501857958
463.1967,172.0939987619954
465.3639,176.84263477268928
467.5306,166.13610729420816
469.6967,162.52404880167205
471.8622,144.70609010884073
474.0271,144.9318604042346
476.1914,138.80098742931386
478.3551,121.36309747621999
480.5182,128.4678154490855
482.6807,137.0647650384126
484.8426,157.8035686500266
487.0039,212.4338473191042
489.1647,240.70522050278805
491.3248,284.5173055338821
493.4843,297.41971733813875
495.6432,289.96206799613833
497.8015,265.9439666142641
499.9592,219.86501939927803
502.1163,160.12482989850287
504.2728,134.97299946061116
506.4287,106.90912783302883
508.5839,86.98281341345046
510.7386,68.89365353048152
512.8927,71.74124464289844
515.0461,94.97518252054124
517.199,113.89506221583838
519.3512,146.10047783146638
521.5029,209.09102233115368
523.6539,269.4662872176234
525.8043,274.07586190268967
527.9541,217.36933310350378
530.1033,165.4462847964594
532.2519,113.65629878425693
534.3999,88.09895521513454
536.5472,86.47383310076702
538.694,90.33051057184093
540.8401,95.51856489430361
542.9856,109.38757243079908
545.1305,122.4871085887853
547.2748,137.41674768184566
549.4185,143.7260627986925
551.5615,147.51462565387055
553.704,168.63200652466526
555.8458,190.07777421321566
557.987,212.25149583534153
560.1276,235.85273660608436
562.2675,285.5810596179708
564.4069,346.28602560500144
566.5456,386.6671924453658
568.6837,372.9741145543942
570.8212,311.75634248074493
572.958,237.06342304333612
575.0942,186.49489994352348
577.2299,147.65031451202776
579.3648,138.17920621462235
581.4992,120.38111304057838
583.6329,119.45557159737336
585.766,159.55211728867584
587.8985,206.02028432359793
590.0304,236.15960531573091
592.1616,272.9196108184649
594.2922,254.84982902359366
596.4222,213.8497853937149
598.5515,163.81900284292942
600.6802,117.10700214684039
602.8083,79.4133024428611
604.9358,61.18742169733491
607.0626,78.67887708247258
609.1888,85.13718515861137
611.3144,107.66186169930097
613.4393,144.2024216267189
615.5636,190.00837878642528
617.6873,242.52924558195718
619.8103,275.4145325167683
621.9327,268.2137476690209
624.0544,229.42639636273225
626.1756,189.4519812397814
628.2961,138.2400026477851
630.4159,119.63995903984028
632.5351,113.70134748664509
634.6537,106.57366386249782
636.7716,88.65640290468423
638.8889,78.89905828475366
641.0056,101.60112278769179
643.1216,94.61208840949257
645.237,108.6314461301406
647.3518,80.05868598349866
649.4659,62.04329691711632
651.5793,50.83476707795626
653.6922,39.58258399254919
655.8043,26.936234679077188
657.9159,23.895205759898886
660.0268,14.958983588009232
662.137,10.677054277452498
664.2466,12.348903792682677
666.3556,17.07401799138438
668.4639,7.251882607752805
670.5716,-6.4680167947553855
672.6786,0.11380527479730063
674.785,-8.75310107716416
676.8907,0.080813118869969
678.9958,-0.6348157241106946
681.1002,-7.850352000440125
683.204,-13.166153762642807
685.3072,-8.632500638227725
687.4097,-1.6495407248279434
689.5115,-5.06733588139582
691.6127,3.1640685120280523
693.7132,-9.455322301912247
695.8131,0.6744968877865176
697.9123,0.6536257507970049
700.0109,2.132163950047584
702.1089,23.410211141931086
704.2061,35.2878669615186
706.3028,53.96523080978011
708.3987,82.94240173480705
710.4941,95.56947824503823
712.5887,95.79655801948968
714.6827,92.17373778148226
716.7761,88.85111329637334
718.8688,80.42877940778192
720.9608,89.70683007081595
723.0522,109.98535843629668
725.1429,135.81445675797625
727.233,170.24421618975384
729.3224,238.87472652738415
731.4112,283.30607586418
733.4993,288.83834990470734
735.5867,238.47163152047096
737.6735,175.95600069459442
739.7596,117.84153502548395
741.845,97.42831035198697
743.9298,100.71640133453513
746.014,104.40588165927795
748.0974,115.24682400520135
750.1802,121.98930000723271
752.2624,116.53338014783253
754.3439,96.12913368956765
756.4247,94.3266287296725
758.5048,107.42593240409019
760.5843,124.27711090549838
762.6631,152.18022935231625
764.7413,209.7853516201917
766.8188,284.14254006297074
768.8956,366.90185493664796
770.9718,430.2633536557913
773.0473,415.67708996595195
775.1221,391.99311331004697
777.1962,381.9114689742229
779.2697,431.1821983246956
781.3426,516.7053389085673
783.4147,591.7809239611178
785.4862,570.4589815505742
787.557,489.08953382735456
789.6271,365.32259723728794
791.6966,252.85818333530813
793.7654,167.79630002312297
795.8335,113.33695267386042
797.901,78.28014498268487
799.9678,71.3258795113926
802.0339,85.12415803897886
804.0993,78.67498163118034
806.1641,83.62835050249271
808.2282,60.68426408066205
810.2916,53.29272095715123
812.3544,29.853719116580578
814.4164,30.21725601064361
816.4778,33.383328792496854
818.5385,44.60193431312484
820.5986,83.67306908967839
822.658,127.49672919328998
824.7166,188.07290985836164
826.7747,282.00160504432927
828.832,363.8828068298991
830.8886,428.5165044737622
832.9446,434.702683595782
834.9999,403.1913255306572
837.0545,338.1324072660598
839.1085,255.32590175775022
841.1618,192.7217785801638
843.2143,140.7700047544779
845.2662,106.52054537465233
847.3175,90.32336412694667
849.368,83.07842363241593
851.4179,90.13568560888189
853.467,82.69511094338259
855.5155,88.30665962159969
857.5633,102.3702908022641
859.6105,103.03596276104054
861.6569,90.05363274989156
863.7027,69.57325699042099
865.7478,57.59479080369681
867.7922,54.36818881505417
869.8359,44.99340507388115
871.8789,52.3703930858843
873.9212,46.49910590683578
875.9629,63.17949606880438
878.0039,72.9615156388677
880.0441,91.84511605230853
882.0837,115.38024801479503
884.1226,134.76686131354518
886.1609,171.40490458197428
888.1984,213.4443251058301
890.2352,261.58506845681086
892.2714,265.67707807217266
894.3069,243.1702947733205
896.3416,195.86465672488964
898.3757,158.71009965981295
900.4091,135.20655735237676
902.4418,140.2039619897672
904.4739,160.35224440710533
906.5052,169.70133403747263
908.5358,165.05115871042915
910.5658,136.2516445585219
912.595,109.75271606378658
914.6236,90.80429634574352
916.6515,64.5563074263863
918.6786,48.208670419665395
920.7051,40.81130579396961
922.7309,46.86413353560113
924.756,41.51707322274956
926.7804,52.020043964963975
928.8041,61.722964456622776
930.8272,85.27575287190416
932.8495,86.32832676775695
934.8711,97.83060284837359
936.892,101.2324969546629
938.9123,121.33392394922782
940.9318,148.3847976823473
942.9506,156.1350307909621
944.9688,147.0345344281643
946.9862,132.28321818569782
949.003,96.28099018496107
951.019,79.82775722452095
953.0344,74.97342514013462
955.0491,58.917898969281964
957.063,53.36108299970874
959.0763,51.95288092998226
961.0888,46.24319592505981
963.1007,59.73193063037036
965.1119,49.41898722891165
967.1223,43.954267306361885
969.1321,44.88767195421042
971.1412,33.91910182440381
973.1495,40.248457120012745
975.1572,34.77563770491713
977.1641,49.45054304051325
979.1704,45.87307224044105
981.1759,35.19312392383506
983.1808,37.91059625109904
985.1849,24.32538703070611
987.1884,32.937393692023875
989.1911,39.146513421166674
991.1932,43.25264307487498
993.1945,52.355679118424405
995.1951,42.90551758456479
997.1951,47.60205398248934
999.1943,45.545183392336526
1001.1928,47.53480041822456
1003.1906,60.12079920882127
1005.1877,85.85307343744603
1007.1841,101.63151617621145
1009.1798,122.15601963869904
1011.1748,110.27647502217542
1013.1691,95.39277230234813
1015.1627,60.054800352160214
1017.1556,29.012447090627575
1019.1477,16.56559983621787
1021.1392,14.814145617274221
1023.1299,4.657971296484334
1025.12,8.846963588394146
1027.1093,22.831009160970552
1029.0979,36.50999459371144
1031.0859,55.183806237804674
1033.0731,69.20233007933825
1035.0596,70.66545155256313
1037.0454,45.07305539970662
1039.0304,44.57502565634195
1041.0148,27.97124590731221
1042.9985,18.41159929171056
1044.9814,5.845968668918317
1046.9636,5.674236714201243
1048.9452,12.296286044365843
1050.926,27.66199921947691
1052.9061,36.52125867663665
1054.8855,59.123946576327626
1056.8642,45.46994471382072
1058.8421,52.85913429314735
1060.8194,44.791396063640036
1062.7959,54.11661024604075
1064.7717,52.1346566131773
1066.7469,56.495414396711794
1068.7213,55.39876230696075
1070.695,65.94457848928641
1072.6679,91.13274053506393
1074.6402,115.81312537622307
1076.6117,112.23560903336613
1078.5826,100.45006636896483
1080.5527,71.55637112313423
1082.5221,33.80439603148989
1084.4908,21.14401311408369
1086.4587,2.975094052924078
1088.426,-7.252489681419775
1090.3925,-3.388866648129806
1092.3584,-1.584092954015432
1094.3235,16.81180914889103
1096.2879,33.59881742439882
1098.2515,60.77690946819962
1100.2145,81.59606253999709
1102.1767,122.15625329172576
1104.1382,158.9574575593599
1106.099,210.64964995731134
1108.0591,251.98280351041774
1110.0185,291.206889137021
1111.9771,326.67187523563507
1113.9351,379.677727292706
1115.8923,426.27440752796053
1117.8488,446.6118743643484
1119.8045,406.7900819620753
1121.7596,311.0089800152282
1123.7139,232.16851414999394
1125.6675,182.46862688246904
1127.6204,178.25925840706543
1129.5726,194.4903470935085
1131.524,204.36182952893137
1133.4748,157.87364035556368
1135.4248,104.27571217201717
1137.3741,66.61797599816714
1139.3226,48.900361811132825
1141.2705,44.522798921853905
1143.2176,50.235216152266844
1145.164,63.33754187908016
1147.1097,56.62970397665049
1149.0546,38.41162968596029
1150.9989,13.183245681694984
1152.9424,0.9444782544238706
1154.8852,-3.404746437114909
1156.8272,-15.914502243628363
1158.7686,-15.734829002406741
1160.7092,-9.165607564863308
1162.6491,-1.7565615914700174
1164.5883,6.092676821720829
1166.5267,24.68249312670696
1168.4644,50.01327271455955
1170.4014,78.98540072952551
1172.3377,117.79926181571886
1174.2732,174.80523982740078
1176.2081,256.2537174408408
1178.1421,368.0450755842553
1180.0755,459.2296926233238
1182.0082,522.2079432432756
1183.9401,481.08019753704286
1185.8713,398.7968203754788
1187.8017,284.30817181863506
1189.7315,201.26460793859576
1191.6605,127.91648196436302
1193.5888,97.1641451122938
1195.5163,63.007947319580126
1197.4432,42.04823755177313
1199.3693,31.835364144344567
1201.2947,21.469675012284256
1203.2193,12.301517752228506
1205.1432,14.93123974611774
1207.0664,15.35918825287763
1208.9889,15.485710382121624
1210.9106,21.961153089872482
1212.8316,25.635863177295505
1214.7519,34.66018722594515
1216.6715,46.434471561017176
1218.5903,54.60906216110584
1220.5084,74.48430454046104
1222.4257,81.01054366724213
1224.3424,93.08812376476567
1226.2583,103.46738824624288
1228.1735,136.84867959400526
1230.0879,182.9323392557103
1232.0016,217.3187073105288
1233.9146,260.3081220083094
1235.8269,279.2009194257138
1237.7384,286.24743303632295
1239.6492,288.6979935217091
1241.5592,298.4029287009706
1243.4686,349.612563506226
1245.3772,414.0772198855652
1247.285,492.647216290952
1249.1922,566.6728670335785
1251.0986,636.1044814981647
1253.0042,709.0923634027025
1254.9092,789.2368101041395
1256.8134,857.4381118685001
1258.7169,921.0965510694409
1260.6196,931.3124015062381
1262.5216,944.7859277672019
1264.4229,917.3673851275197
1266.3234,895.6570194145197
1268.2232,858.1550672818565
1270.1223,810.611756426615
1272.0207,779.0273059643296
1273.9183,764.4519269044173
1275.8151,777.2858224660226
1277.7113,816.4291882237708
1279.6067,907.282211979429
1281.5014,1031.8950733704737
1283.3953,1186.0679429615593
1285.2885,1340.5009809983887
1287.181,1435.7943358659882
1289.0727,1480.9981425443716
1290.9637,1444.3125216556125
1292.854,1369.6375790118013
1294.7435,1282.2234059819043
1296.6323,1193.9200802385121
1298.5204,1121.8276666319814
1300.4077,1057.6462180734684
1302.2943,1012.4757762558531
1304.1802,977.1163722955524
1306.0653,940.518027184227
1307.9497,919.0307521423734
1309.8333,879.154548985308
1311.7162,854.28941033804
1313.5984,812.7353200340332
1315.4798,795.3922533638572
1317.3605,798.1101774907293
1319.2405,787.2390516239442
1321.1197,751.0288269916955
1322.9982,704.379446949786
1324.876,632.1408473437315
1326.753,547.1629569752538
1328.6293,473.3456983246657
1330.5048,401.83898840065217
1332.3796,337.6927394784402
1334.2537,295.3068598148675
1336.127,265.98125428984486
1337.9996,244.8158248302143
1339.8714,221.26047070300592
1341.7426,207.51508872709167
1343.6129,202.6295735087391
1345.4826,196.45381757906523
1347.3515,174.6377114428915
1349.2196,172.3811436405017
1351.087,167.78400096580265
1352.9537,167.39616848888988
1354.8197,172.61752960201932
1356.6849,179.44796602348538
1358.5493,198.73735774540694
1360.4131,223.13558296542408
1362.276,262.04251789380294
1364.1383,293.6080365094542
1365.9998,303.5820101708638
1367.8606,290.16430730043703
1369.7206,280.05479328475997
1371.5799,279.15333060877504
1373.4384,261.2597789568774
1375.2962,245.57399522192964
1377.1533,193.84583368419624
1379.0096,164.0751461682023
1380.8652,138.86178256001506
1382.7201,106.15559110494962
1384.5742,89.8064186597046
1386.4275,69.9141110194222
1388.2802,61.128513081181154
1390.132,41.29946904291944
1391.9832,29.876822491289772
1393.8336,29.210416599950463
1395.6832,28.100094243791546
1397.5322,19.845698005599957
1399.3803,18.04707018716101
1401.2278,9.20405289180394
1403.0745,3.6664880423875275
1404.9204,-4.515782530269462
1406.7656,-1.842917032013247
1408.6101,-6.865028556022935
1410.4538,-0.5822117847365007
1412.2968,-2.9444928189570874
1414.139,-2.9018919431913446
1415.9805,13.34559997353631
1417.8213,24.198021052102376
1419.6613,35.20540927992715
1421.5006,63.7178024024513
1423.3391,91.83523781306167
1425.1769,138.85775226796756
1427.0139,210.08538160502553
1428.8502,290.31816027351556
1430.6858,349.80612062186356
1432.5206,371.0992920953141
1434.3547,364.447700641051
1436.188,356.80136849526474
1438.0206,340.01031424966976
1439.8524,335.77455292796617
1441.6835,337.0440961537515
1443.5139,337.268952192878
1445.3435,346.3491259407564
1447.1724,347.68461892010885
1449.0005,346.12542919016596
1450.8279,349.8715513333125
1452.6545,342.3729764706787
1454.4804,329.9796922246799
1456.3056,326.99168279400214
1458.13,321.3089290775341
1459.9536,291.1314087042487
1461.7766,272.5590960900296
1463.5987,231.54196273944615
1465.4202,194.92997743147765
1467.2409,164.8731066296839
1469.0608,142.52131484832478
1470.88,118.52456495292955
1472.6984,98.63281838381431
1474.5161,83.64603539604963
1476.3331,75.76417525837809
1478.1493,67.93719640308268
1479.9648,60.41505650480394
1481.7795,60.397712558811236
1483.5935,61.38512095622298
1485.4067,67.72723748418105
1487.2192,64.12401731597578
1489.031,69.57541494762552
1490.842,59.88138423390882
1492.6522,59.89187833385046
1494.4618,55.606849807661376
1496.2705,61.12625061663425
1498.0785,51.3500321659933
1499.8858,58.77814524970057
1501.6924,57.260540148218126
1503.4981,46.547166554226294
1505.3032,45.63797358780073
1507.1075,39.98290990354502
1508.911,37.33192369968356
1510.7138,33.434962774611904
1512.5159,32.2919745534067
1514.3172,21.902906126795017
1516.1178,23.41770426258455
1517.9176,12.386315509554322
1519.7166,12.008686182306235
1521.515,17.68476247157929
1523.3126,6.9644904480256855
1525.1094,6.897816005450352
1526.9055,3.1346849680134596
1528.7008,3.975043090897202
1530.4954,4.068836097937265
1532.2893,5.566009673219071
1534.0824,6.366509460140037
1535.8747,8.820281046437856
1537.6663,7.9272699561853415
1539.4572,8.787421625252875
1541.2473,5.300681410238269
1543.0367,5.516994579865241
1544.8253,13.78630634985069
1546.6132,20.708561880741968
1548.4003,25.483706195223533
1550.1867,39.96168410889436
1551.9723,46.09244018251678
1553.7572,63.72591857723637
1555.5414,81.71206299327457
1557.3247,111.3508164935937
1559.1074,141.59212132403587
1560.8893,172.9359186169351
1562.6705,206.53214808870422
1564.4509,231.63074772639726
1566.2305,235.73165345174664
1568.0094,239.5847988701774
1569.7876,240.29011522979823
1571.565,237.0475313828702
1573.3417,241.5069737787531
1575.1176,247.36836649633142
1576.8928,262.9316311994202
1578.6672,279.99668707815107
1580.4409,300.1134506933396
1582.2138,327.18183580583485
1583.986,363.9517531753513
1585.7575,392.7731102897858
1587.5282,423.1958109975174
1589.2981,448.81975521919503
1591.0673,464.1948386435087
1592.8358,470.0709524709519
1594.6035,478.8979832600697
1596.3704,468.3258128686974
1598.1366,463.10431836569114
1599.9021,448.08337213664856
1601.6668,428.1628419361246
1603.4308,424.7425910378405
1605.194,434.5224784338895
1606.9564,460.6023588689386
1608.7182,512.0820827424307
1610.4791,591.2114958477846
1612.2394,666.4404388575995
1613.9988,748.3187465323585
1615.7576,808.5962469681415
1617.5156,809.8727607778403
1619.2728,781.2981004883848
1621.0293,708.6720705279774
1622.785,615.3944675118399
1624.54,520.8650809684733
1626.2942,423.08369427243423
1628.0477,345.25008558962895
1629.8005,284.1640288551269
1631.5525,230.02529455149647
1633.3037,192.18365031966607
1635.0542,169.58886150031128
1636.804,141.84069151227123
1638.553,89.63890207849659
1640.3013,102.38325350353114
1642.0488,84.52350519552988
1643.7955,75.8594155388156
1645.5416,70.19074207247604
1647.2868,65.567241577005
1649.0313,59.688670130989294
1650.7751,64.65478315734339
1652.5181,60.815335482095065
1654.2604,64.67008128472435
1656.0019,70.31877413655798
1657.7427,92.4111669622219
1659.4828,112.6470119831547
1661.222,132.97606049668298
1662.9606,156.64806267366356
1664.6984,181.71276735519263
1666.4354,178.1699218158858
1668.1717,159.91927151323108
1669.9072,126.01056012301729
1671.642,85.4435297218406
1673.3761,73.36792112619159
1675.1094,47.13347429812575
1676.8419,32.38992846601943
1678.5737,24.337022386914327
1680.3048,25.974494493953074
1682.0351,15.152082976907849
1683.7646,7.569525765806247
1685.4934,7.276560639154951
1687.2215,6.072925299765558
1688.9488,1.1583573776840979
1690.6754,-0.9674055577723948
1692.4012,5.745374051129488
1694.1263,-0.30355657349542753
1695.8506,2.0355497330139087
1697.5742,0.9124431678485792
1699.297,4.676873907844367
1701.0191,-3.8714078792872613
1702.7404,-1.532652072603753
1704.461,-1.457069875797714
1706.1808,-2.4448571813678086
1707.8999,-0.5961953256846471
1709.6182,-0.2612412209958279
1711.3358,-5.290145823557708
1713.0527,-1.53305747982688
1714.7688,1.2099283122966824
1716.4841,-5.361268629842783
1718.1987,0.403271498999743
1719.9126,2.253522063142867
1721.6257,-3.2605435771274074
1723.338,4.761047915939798
1725.0496,-6.28169754707443
1726.7605,-2.238774103199347
1728.4706,1.3898868646942901
1730.18,8.704376339088867
1731.8886,9.554785288567984
1733.5964,7.091204594671865
1735.3036,3.6637250433928443
1737.0099,8.722437349811344
1738.7156,10.517432192370734
1740.4204,0.44880016229012654
1742.1246,4.866631745614029
1743.8279,11.171017423899457
1745.5306,10.212047630037375
1747.2325,10.189812685208409
1748.9336,8.304402808473213
1750.634,8.805908116994601
1752.3336,13.344418644891647
1754.0325,13.270024338224403
1755.7307,13.232815009608771
1757.4281,15.732880338960626
1759.1247,14.570309873867757
1760.8206,16.74519300458931
1762.5158,15.307618975681407
1764.2102,19.207676864248413
1765.9039,16.645455594318634
1767.5968,15.771043897843668
1769.289,21.13453034032065
1770.9804,17.18600332953639
1772.6711,17.02555106193236
1774.361,18.403261562090023
1776.0502,17.41922268433555
1777.7386,18.37352209896241
1779.4263,24.516247302072117
1781.1132,20.197485606030824
1782.7994,25.817324078042503
1784.4849,27.075849583336094
1786.1696,23.273148728967413
1787.8535,24.45930785123386
1789.5367,27.184413053701405
1791.2192,25.348550195342995
1792.9009,23.601804863287413
1794.5818,25.49426239117824
1796.2621,25.57600787664083
1797.9415,27.747126162358057
1799.6202,25.657701835252766
1801.2982,24.10781920477652
1802.9755,23.647562323804067
1804.6519,24.877015004132033
1806.3277,27.446260821081495
1808.0027,28.255383101203563
1809.6769,31.35446489658682
1811.3504,25.69358897676608
1813.0231,30.472837797731557
1814.6951,27.14229355853763
1816.3664,30.75203815351034
1818.0369,30.852153205553037
1819.7067,29.59272003004864
1821.3757,30.373819633858602
1823.044,30.99553272791718
1824.7115,31.65793971942057
1826.3783,29.61112070560972
1828.0443,32.4051554671463
1829.7096,33.69012348858078
1831.3741,30.116103930412095
1833.0379,32.08317561623815
1834.701,29.34141706849573
1836.3633,32.140906488789966
1838.0248,29.581721785311856
1839.6856,33.06394054484346
1841.3457,36.43764005834967
1843.005,36.25289728615613
1844.6636,38.80978882421209
1846.3214,32.758390905937944
1847.9785,29.398779376656307
1849.6349,32.13102975410588
1851.2904,32.0552172620377
1852.9453,34.471416802892506
1854.5994,35.87970295855902
1856.2528,35.1801499662119
1857.9054,37.22283170422867
1859.5572,36.70782169918553
1861.2083,40.835193105430264
1862.8587,35.6050187102326
1864.5084,31.617370892510166
1866.1572,37.122321675130664
1867.8054,37.81994276478797
1869.4528,35.76030549695294
1871.0994,38.14348082889697
1872.7453,36.91953936028857
1874.3905,34.6885513093615
1876.0349,38.80058652515427
1877.6786,38.355714509819904
1879.3215,38.40400437750577
1880.9637,38.09552485880201
1882.6051,37.830344300258844
1884.2458,40.40853066747121
1885.8858,39.4801515477308
1887.525,33.74527412424395
1889.1634,37.30396518541568
1890.8011,41.7062911821982
1892.4381,36.15231819250404
1894.0743,38.042111877182904
1895.7098,41.975737535561365
1897.3446,37.40326008654486
1898.9786,39.77474402928155
1900.6118,36.890253488887
1902.2443,37.09985219272947
1903.8761,39.203603499274735
1905.5071,36.151570395990134
1907.1374,34.99381547830697
1908.7669,38.43040098014096
1910.3957,42.161388785469725
1912.0237,35.286840393966926
1913.651,35.05681688369236
1915.2776,38.87137897983743
1916.9034,33.8305870570254
1918.5285,37.034501101165844
1920.1528,34.18318075986254
1921.7764,37.62668531037433
1923.3992,38.76507368812835
1925.0213,34.19840445228485
1926.6427,31.37673577435345
1928.2633,40.40012548385984
1929.8832,34.41863109656225
1931.5023,34.53230972421788
1933.1207,38.24121813439751
1934.7383,35.295412749349
1936.3552,37.84494960890794
1937.9714,30.53988439995588
1939.5868,33.53027243092485
1941.2015,34.36616870484808
1942.8154,33.34762788945615
1944.4286,36.17470430881788
1946.041,33.747451953525996
1947.6528,32.51592445242612
1949.2637,31.68017509688937
1950.8739,35.09025685312767
1952.4834,33.64622237055127
1954.0921,33.448123947667824
1955.7001,29.346013546522798
1957.3074,34.18994279468059
1958.9139,31.929963026245417
1960.5197,34.7661252334222
1962.1247,32.848480089116265
1963.729,34.67707791857174
1965.3325,31.101968718547994
1966.9353,30.223202139033603
1968.5374,30.290827518997645
1970.1387,33.30489389517706
1971.7393,31.065450001400706
1973.3392,34.27254423844843
1974.9383,33.1762246964456
1976.5366,30.626539122792167
1978.1342,36.67353493312589
1979.7311,31.717259236819302
1981.3273,35.95775877650941
1982.9227,28.74507997766085
1984.5173,27.929268906160544
1986.1112,29.510371340444692
1987.7044,32.63843277965685
1989.2968,32.763498427836765
1990.8885,36.53561316263999
1992.4795,31.654821534087148
1994.0697,27.621167726842685
1995.6592,31.384695609022927
1997.2479,28.1954487725325
1998.8359,28.75347049542917
2000.4232,27.30880377381625
2002.0097,29.36149131626236
2003.5955,24.21157555824817
2005.1805,31.559098641639437
2006.7648,31.854102466186177
2008.3484,33.49662861604746
2009.9312,30.68671835684134
2011.5133,29.87441261921957
2013.0946,32.00975202696688
2014.6752,30.042776905123873
2016.2551,32.97352725863368
2017.8342,29.252042792011622
2019.4126,29.67836288003795
2020.9902,27.75252660497253
2022.5672,24.97457275229172
2024.1433,33.8445398299466
2025.7188,28.862466096142597
2027.2935,30.07838947063985
2028.8674,29.49234758457382
2030.4406,33.604377768296146
2032.0131,28.764517057234983
2033.5849,20.07280215077482
2035.1559,32.17926946065501
2036.7261,24.583955197886937
2038.2957,27.736895251689234
2039.8645,33.53812526544101
2041.4325,33.937680605152494
2042.9998,32.63559630145269
2044.5664,28.28190704559381
2046.1323,31.426647202472125
2047.6974,26.81985085416484
2049.2617,29.31155176848273
2050.8254,28.901783445038134
2052.3883,28.69057909032786
2053.9504,32.2279716218309
2055.5118,26.613993670120635
2057.0725,31.09867754349058
2058.6325,27.082055284094523
2060.1917,28.064158623099388
2061.7502,28.195019020851646
2063.3079,28.824667657056153
2064.8649,27.453135429467636
2066.4212,30.680452947594176
2067.9767,25.606650546412567
2069.5315,28.58175825409512
2071.0856,27.50580584274769
2072.6389,23.628822798658618
2074.1915,24.05083833305821
2075.7433,28.021881420888562
2077.2945,29.79198079658353
2078.8448,26.261164914358176
2080.3945,25.02946193050778
2081.9434,25.596899738716075
2083.4916,27.61350598237216
2085.039,27.17930804889623
2086.5857,28.29433304957344
2088.1317,25.008607823895858
2089.677,25.772158928412296
2091.2215,28.935012669585532
2092.7652,32.04719509615683
2094.3083,29.658731967517397
2095.8506,21.819648722586507
2097.3921,28.17997050369621
2098.933,20.989722234982153
2100.4731,26.598928558780315
2102.0124,25.057613907529515
2103.5511,25.115802447679272
2105.089,29.873518095103066
2106.6261,30.030784514516327
2108.1626,29.08762507189944
2109.6983,21.894062832924917
2111.2332,24.000120572389108
2112.7675,26.15582084614779
2114.301,28.811185970055533
2115.8337,31.56623799840885
2117.3657,27.470998697392304
2118.897,25.42548951752812
2120.4276,26.37973163462857
2121.9575,24.183745970251096
2123.4866,22.187553182155824
2125.0149,25.541173686265523
2126.5426,26.844627676627326
2128.0695,24.397935091876718
2129.5956,24.20111560220289
2131.1211,24.65418863381575
2132.6458,23.40717337091405
2134.1698,26.910088751154674
2135.693,26.06295347812288
2137.2155,24.465785986303004
2138.7373,25.918604449549804
2140.2584,27.221426797060232
2141.7787,24.72427069884526
2143.2983,25.627153552701657
2144.8171,22.5800925091836
2146.3353,24.733104462573735
2147.8527,23.38620608135382
2149.3693,28.18941378667452
2150.8853,25.04274376582454
2152.4005,24.64621192419844
2153.9149,26.249833916763436
2155.4287,26.253625152024654
2156.9417,25.40760077598884
2158.454,21.961775672126635
2159.9655,25.116164469832654
2161.4764,21.37078157888395
2162.9865,19.675641157895924
2164.4958,24.180757151776177
2166.0045,22.386143308675983
2167.5124,26.34181313493903
2169.0195,25.44777991304761
2170.526,24.75405666206602
2172.0317,22.810656146580826
2173.5367,22.91759088363804
2175.0409,23.12487316217718
2176.5445,21.082515041961855
2178.0473,22.640528351507015
2179.5494,20.148924708502506
2181.0507,25.107715504232928
2182.5513,25.616911928493693
2184.0512,22.126524920003078
2185.5504,20.386565161310344
2187.0488,19.397043113699553
2188.5465,19.157969034589144
2190.0435,21.91935298742716
2191.5397,21.531204844082012
2193.0353,21.543534257228586
2194.5301,20.55635066422981
2196.0241,18.06966328701337
2197.5175,20.783481141943454
2199.0101,23.147813064687625
2200.502,22.712667683078735
2201.9931,21.078053393471563
2203.4835,17.64397836509424
2204.9733,22.560450556394457
2206.4622,22.327477749380122
2207.9505,20.045067500454778
2209.438,16.313227142747124
2210.9248,16.081963808935257
2212.4109,18.351284468565026
2213.8962,17.021195930362722
2215.3809,23.641704819541772
2216.8648,18.862817591103735
2218.3479,18.084540463633004
2219.8304,16.006879467085895
2221.3121,16.629840450573326
2222.7931,17.153429103137583
2224.2733,15.427650947522608
2225.7529,19.75251133493819
2227.2317,22.228015462317572
2228.7098,11.5541683290689
2230.1872,16.930974712320264
2231.6638,18.10843927365815
2233.1397,14.686566505359309
2234.6149,13.515360718616165
2236.0894,14.29482607775546
2237.5632,14.874966611950455
2239.0362,14.605786207426135
2240.5085,13.937288601657869
2241.9801,15.56947738606317
2243.4509,14.702356012686693
2244.921,17.735927777878274
2246.3904,13.570195830964195
2247.8591,10.305163143911486
2249.3271,11.690832552985313
2250.7943,14.577206791399178
2252.2608,14.714288475458346
2253.7266,16.602080075696094
2255.1917,13.690583915502827
2256.656,8.97980215224824
2258.1197,12.419736806396244
2259.5826,14.360389808612737
2261.0447,12.201762965366314
2262.5062,13.693857939521621
2263.9669,8.7866762719257
2265.4269,12.180219366487037
2266.8862,13.974488539247375
2268.3448,12.869484984446359
2269.8026,13.16520975657886
2271.2598,14.361663781444932
2272.7162,8.208847853192509
2274.1719,16.25676262235291
2275.6268,12.455408657368963
2277.0811,10.75478636411593
2278.5346,12.754896023915009
2279.9874,12.805737810539568
2281.4395,8.957311770214048
2282.8908,10.659617821105641
2284.3414,14.462655791808473
2285.7914,9.916425404320435
2287.2406,8.020926236012997
2288.689,11.776157765093387
2290.1368,9.432119389559745
2291.5838,10.438810389648665
2293.0302,14.99622995127558
2294.4758,10.3043771559678
2295.9206,8.613250935290438
2297.3648,10.372850117764997
2298.8082,8.383173445780457
2300.251,11.14421955799736
2301.693,12.455987009244538
2303.1343,10.118474242908547
2304.5748,10.08167957781616
2306.0147,9.995601231609484
2307.4538,10.910237321113883
2308.8922,12.775585863198643
2310.3299,9.941644765630585
2311.7669,14.258411808420746
2313.2031,9.825884672163738
2314.6387,9.294060894870114
2316.0735,7.562937916291602
2317.5076,13.482513083239368
2318.941,11.352783666895306
2320.3737,10.973746803616251
2321.8056,11.695399516231333
2323.2369,11.767738717832202
2324.6674,14.190761204556495
2326.0972,17.114463654864537
2327.5263,18.238842605309017
2328.9547,17.413894421297883
2330.3823,16.889615285850724
2331.8092,14.516001207848163
2333.2355,10.693048027274628
2334.661,9.170751438954596
2336.0858,8.699107030782017
2337.5098,9.178110298943437
2338.9332,7.65775665263439
2340.3558,13.388041409269363
2341.7778,10.768959809685285
2343.199,9.400506960838669
2344.6195,7.232677861996535
2346.0393,7.715467418420971
2347.4583,8.39887046304736
2348.8767,8.382881751656484
2350.2943,7.417495956040497
2351.7113,5.502707664162713
2353.1275,11.488511389811535
2354.543,10.124901591748284
2355.9578,6.6618726138491695
2357.3718,4.1994186987414395
2358.7852,7.887534022433712
2360.1978,7.226212718940417
2361.6098,7.015448843400662
2363.021,6.40523637869147
2364.4315,6.645569237535369
2365.8413,5.9864412686026185
2367.2504,4.927846254107834
2368.6587,12.269777916401253
2370.0664,7.5122299285546035
2371.4733,6.2551958409419655
2372.8795,4.748669128815024
2374.285,6.542643204873613
2375.6899,11.287111434330825
2377.0939,7.582067116973349
2378.4973,7.927503439716759
2379.9,7.6734135136560155
2381.3019,9.069790370611074
2382.7032,4.966626965667714
2384.1037,8.563916163213918
2385.5035,2.16165077797136
2386.9027,6.609823539022614
2388.3011,8.708427153833753
2389.6987,3.357454263772624
2391.0957,5.556897423122848
2392.492,-0.14325084740649174
2393.8876,10.307001917324797
2395.2824,7.607649613532814
2396.6765,6.208686034363751
2398.07,2.5101048968872703
2399.4627,3.261899856086231
2400.8547,4.364064541842524
2402.246,6.416592551419029
2403.6366,4.8194774384380565
2405.0265,7.472712692356026
2406.4156,4.0762917544345925
2407.8041,5.6802079912082775
2409.1918,4.134454728448716
2410.5789,2.98902523512551
2411.9652,3.34391273886375
2413.3508,3.6991104373982893
2414.7358,3.6546114950248665
2416.12,3.7104090390481304
2417.5035,3.3664961602266317
2418.8863,7.8228659122149224
2420.2684,3.9795113150025543
2421.6497,3.086425310350492
2423.0304,5.59360080022465
2424.4104,0.10103065572668868
2425.7896,7.508707692022369
2427.1682,1.7166247232671452
2428.546,3.474774488529448
2429.9232,8.683149709711529
2431.2996,2.8917430739679446
2432.6753,5.750547181621755
2434.0503,5.659554604078636
2435.4246,1.3687578552388828
2436.7982,3.828149392407255
2438.1711,5.737721659201
2439.5433,4.797467060955881
2440.9148,3.907377945630472
2442.2856,1.0674466132087161
2443.6557,6.6776653246008095
2445.025,5.688026330042533
2446.3937,4.248521812993033
2447.7617,-0.2908560999687495
2449.1289,2.6198846752509155
2450.4955,4.780739128398153
2451.8613,2.941702223020286
2453.2265,5.402768874857259
2454.5909,3.9639339702320555
2455.9546,4.225192341439993
2457.3177,5.086538781137136
2458.68,1.0979680397276042
2460.0416,3.959474816750159
2461.4025,2.121053800763903
2462.7627,-0.3173003592667456
2464.1222,3.64440696441212
2465.4811,1.0561735693849315
2466.8392,3.067997216792122
2468.1966,2.0298756572123935
2469.5533,3.5418066105444908
2470.9093,7.1537877763884765
2472.2645,2.465816818926392
2473.6191,4.677891330802474
2474.973,5.140008880002796
2476.3262,5.40216698773451
2477.6787,4.514363123804792
2479.0305,3.8765947039991744
2480.3816,4.638859098959571
2481.7319,3.8511536405620035
2483.0816,4.413475614293915
2484.4306,5.425822267131231
2485.7789,5.288190801915171
2487.1264,3.250578367228691
2488.4733,3.4629820587729085
2489.8195,0.12539893974317806
2491.165,9.037826038705049
2492.5097,5.8002603829701656
2493.8538,4.762698909471865
2495.1972,4.625138497140952
2496.5398,2.5875759772812685
2497.8818,4.900008134945303
2499.2231,4.0624317293098215
2500.5637,2.974843470551498
2501.9035,1.9372400282227034
2503.2427,5.149618042127422
2504.5812,1.7619741326972402
2505.919,3.574304868867607
2507.256,8.486606801954224
2508.5924,4.698876447529813
2509.9281,3.7111102363010104
2511.2631,3.273304551985703
2512.5974,4.135455741190633
2513.9309,4.397560117789517
2515.2638,6.109613954301466
2516.596,5.471613479270054
2517.9275,5.233554860142654
2519.2583,3.395434209650567
2520.5884,2.5572475881894974
2521.9178,3.918991022200899
2523.2465,5.1306605125537175
2524.5745,1.6422520209270601
2525.9018,7.853761457693409
2527.2284,6.465184716802767
2528.5543,2.4265176136675706
2529.8796,4.6877558990483905
2531.2041,0.3988952994406958
2532.5279,5.559931494462397
2533.851,2.5708601597424945
2535.1735,2.2816769153106904
2536.4952,7.492377355488095
2537.8163,2.752957051779063
2539.1366,4.91341150076417
2540.4562,3.5237361714944413
2541.7752,5.383926483886839
2543.0935,2.2939778226209953
2544.411,8.853885518537261
2545.7279,6.613644879536238
2547.0441,1.6732511249797426
2548.3596,6.282699408093073
2549.6744,5.191984865369072
2550.9885,1.8511025704735715
2552.3019,5.210047545152612
2553.6146,8.218814792641247
2554.9266,1.5773992640740957
2556.2379,6.985795828397677
2557.5485,2.9439993387845362
2558.8585,3.002004578549297
2560.1677,3.459806301566637
2561.4762,5.417399231691228
2562.7841,3.274778058179656
2564.0913,4.531937416114559
2565.3977,3.8888719078308185
2566.7035,8.395576090343944
2568.0086,8.252044481780786
2569.313,4.0082715163124405
2570.6167,5.264251545589609
2571.9197,4.819978881180283
2573.222,4.675447782009954
2574.5236,5.680652458804381
2575.8246,7.835587075534875
2577.1248,9.840245739366274
2578.4244,7.594622479107564
2579.7232,5.8487112251652675
2581.0214,6.652505831999726
2582.3189,3.55600009558416
2583.6157,5.959187745366769
2584.9118,8.36206247523576
2586.2072,8.46461791948748
2587.5019,5.866847628797693
2588.7959,11.818745069196012
2590.0893,5.070303648043627
2591.3819,7.021516654514301
2592.6739,4.6723773270787845
2593.9652,7.472878833992709
2595.2557,5.373014296787929
2596.5456,7.022776762267526
2597.8348,6.922159223504437
2599.1234,7.571154603343871
2600.4112,5.369755755409429
2601.6983,6.917955457613175
2602.9848,6.965746434169617
2604.2705,11.913121340113747
2605.5556,9.660072760823141
2606.84,7.656593162544148
2608.1237,4.75267491492243
2609.4067,6.498310311037734
2610.689,9.39349159644307
2611.9707,5.888210951708388
2613.2516,10.382460463468725
2614.5319,8.67623215947706
2615.8115,5.619517963661764
2617.0903,9.462309713188901
2618.3685,6.304599189029389
2619.6461,10.046378077531074
2620.9229,4.737638001995833
2622.199,5.978370485261749
2623.4745,7.468567002790564
2624.7493,6.858218970260346
2626.0234,4.5973177286635405
2627.2968,7.58585455041041
2628.5695,3.6238206619380975
2629.8415,9.011207213825195
2631.1128,4.798005320412123
2632.3835,5.484206005927277
2633.6535,5.919800246619012
2634.9228,8.8547789638937
2636.1914,8.139133019959665
2637.4593,6.972853188477487
2638.7265,8.755930161716428
2639.9931,6.388354562217216
2641.259,4.270116924961322
2642.5242,6.701207721046686
2643.7887,7.8316173788701064
2645.0525,4.311336259816322
2646.3156,6.740354646953882
2647.5781,2.718662780238006
2648.8398,3.5462508322203234
2650.1009,7.173108948265906
2651.3613,6.599227238277301
2652.6211,7.97459574042599
2653.8801,6.7492044268911755
2655.1385,7.473043190106182
2656.3961,4.29610185501226
2657.6531,5.268370171820244
2658.9094,8.039837847779978
2660.1651,8.160494537457609
2661.42,4.630329815020929
2662.6743,8.199333173032855
2663.9279,9.267494057752998
2665.1808,9.43480183344765
2666.433,6.301245771708182
2667.6846,6.866815049777969
2668.9354,9.181498781887903
2670.1856,7.6952860136007715
2671.4351,6.358165698664379
2672.6839,6.32012671387367
2673.9321,11.531157872441945
2675.1795,9.741247924381291
2676.4263,8.400385504392204
2677.6724,9.958559149762714
2678.9179,10.015757313777044
2680.1626,9.321968350133815
2681.4067,7.527180512374088
2682.6501,7.231381960819256
2683.8928,9.834560780518927
2685.1348,6.286704984208889
2686.3761,6.787802486279361
2687.6168,6.787841138253505
2688.8568,4.436808723776522
2690.0961,10.684692958615166
2691.3348,6.8814815141681365
2692.5727,4.17716195498722
2693.81,7.6217217768093946
2695.0466,8.065148433600065
2696.2826,7.1574293031074205
2697.5178,8.19855168242821
2698.7524,7.738502797084919
2699.9863,6.327269790614501
2701.2195,7.514839729168941
2702.452,9.301199615627496
2703.6839,7.936336377721098
2704.9151,8.120236850168673
2706.1456,6.452887788325803
2707.3755,9.984275866345769
2708.6046,7.564387693852986
2709.8331,8.893209780629135
2711.0609,8.870728560812033
2712.2881,8.046930379607453
2713.5145,10.371801493513885
2714.7403,12.645328078560539
2715.9654,14.167496207058626
2717.1899,11.73829182486611
2718.4136,13.407700736165978
2719.6367,15.77570862775832
2720.8591,15.992301052366244
2722.0809,17.20746340495578
2723.3019,15.921180920569967
2724.5223,18.233438662177214
2725.7421,18.39422153353413
2726.9611,18.303514256062947
2728.1795,15.611301367243712
2729.3972,16.717567221521314
2730.6142,12.922296017227673
2731.8306,12.075471785519028
2733.0462,10.777078428328693
2734.2612,11.67709972683528
2735.4756,11.725519354446597
2736.6892,10.822320867799476
2737.9022,10.567487706275543
2739.1145,4.661003201033303
2740.3262,9.502850577556345
2741.5372,13.043013014718255
2742.7475,9.831473596364184
2743.9571,9.618215275909108
2745.1661,6.403220908453314
2746.3744,11.186473252914915
2747.582,6.017955004179839
2748.7889,5.247648745269338
2749.9952,2.5755369990250685
2751.2008,5.6016022358122655
2752.4057,6.0758269002407985
2753.61,0.5481933809045358
2754.8136,1.7686840056390736
2756.0165,3.9372810967981096
2757.2188,3.8539669590485204
2758.4204,3.0687238576843683
2759.6213,2.0315340194601106
2760.8215,3.692379640442944
2762.0211,4.851242896384754
2763.22,3.6081059261136588
2764.4182,3.112950819945368
2765.6158,3.1657596321145434
2766.8127,1.6665143857263445
2768.009,2.9151970722283522
2769.2045,0.5117896664030042
2770.3994,2.656274113880812
2771.5936,4.398632355174357
2772.7872,1.3388463042335061
2773.9801,-1.1231021689781642
2775.1723,4.5627687921144755
2776.3639,2.4964522638772237
2777.5548,2.6279412770482082
2778.745,-0.6927711625989303
2779.9346,2.73430792443002
2781.1235,2.459178438413197
2782.3117,-0.3681597477143299
2783.4992,0.352293214390734
2784.6861,-1.029459149012439
2785.8723,-0.4634133151875943
2787.0579,2.900444522898404
2788.2428,-0.33786719822229827
2789.427,-1.0783300710219734
2790.6106,0.17907768732037965
2791.7935,1.2343886321431654
2792.9757,2.3376353169940103
2794.1573,-0.6111497169233004
2795.3382,-1.1119339517813955
2796.5184,1.3853212356328086
2797.698,1.5806655767525157
2798.8769,0.2741487891577705
2800.0551,-0.6841794253780549
2801.2327,-0.4942693678230512
2802.4096,2.5939354958071235
2803.5859,-1.2195033627522065
2804.7615,3.4154755022949317
2805.9364,2.6489457195831108
2807.1106,1.7809808835921501
2808.2842,1.8116545623124907
2809.4572,8.391040305924719
2810.6294,3.319211646492924
2811.801,11.246242032170791
2812.972,7.772204877919847
2814.1423,8.947173486239187
2815.3119,7.471221081905881
2816.4808,13.744420800225306
2817.6491,13.966845701790646
2818.8167,18.338568709750916
2819.9837,20.30966260758666
2821.15,28.93019999539277
2822.3157,31.90025327016756
2823.4807,34.2198945396073
2824.645,41.639195592405805
2825.8086,50.40822787505794
2826.9716,50.47706241766662
2828.134,58.59576974625254
2829.2957,67.21441988206576
2830.4567,71.13308226039864
2831.617,71.10182564439941
2832.7767,78.47071808588547
2833.9358,74.73982692565596
2835.0941,74.65921871980291
2836.2519,71.27895927702
2837.4089,65.94911365940874
2838.5653,64.71974621628111
2839.7211,64.99092063745795
2840.8761,61.46269996556261
2842.0306,58.08514659330933
2843.1843,60.658322298785315
2844.3374,60.63228827922635
2845.4899,60.05710512528498
2846.6417,64.9328328212909
2847.7928,63.659530751002855
2848.9433,64.18725764885113
2850.0931,69.36607161267085
2851.2422,68.19603009842453
2852.3907,67.977189868414
2853.5385,71.55960700298078
2854.6857,71.04333690269458
2855.8323,75.12843425252898
2856.9781,72.41495302702425
2858.1233,77.05294644943633
2859.2679,76.59246701887164
2860.4118,86.2335664639072
2861.555,87.0262957471953
2862.6976,85.97070496905269
2863.8395,87.66684335953315
2864.9808,90.56475928898342
2866.1214,89.06450025108187
2867.2614,92.21611283385926
2868.4007,96.9696427347014
2869.5393,88.72513472883294
2870.6773,98.48263262178222
2871.8146,95.19217933182617
2872.9513,99.90381679241543
2874.0874,98.9675859850789
2875.2227,101.88352689230732
2876.3574,103.8516785069156
2877.4915,107.37207880288344
2878.6249,105.99476471567365
2879.7577,114.06977210702843
2880.8898,112.6971357787422
2882.0212,111.12688939191175
2883.152,114.8590654806625
2884.2821,116.74369546785101
2885.4116,114.73080962774317
2886.5405,117.72043706716795
2887.6686,120.26260574564628
2888.7962,122.55734244549467
2889.923,118.25467274640366
2891.0493,122.35462100249032
2892.1748,118.85721038532506
2893.2997,117.86246284293209
2894.424,119.37039913476347
2895.5476,116.93103884164671
2896.6706,121.04440035070539
2897.7929,115.66050087975258
2898.9145,120.12935643615751
2900.0355,122.90098187068435
2901.1559,119.52539083280371
2902.2756,121.85259574297645
2903.3946,117.63260782640944
2904.513,122.51543708978375
2905.6308,122.05109236345427
2906.7479,117.23958125262172
2907.8643,115.98091014197576
2908.9801,121.47508424381039
2910.0953,117.47210761061044
2911.2098,118.62198308010998
2912.3236,119.22471231532205
2913.4368,119.4302957930398
2914.5494,117.98873279780932
2915.6613,111.85002141987371
2916.7725,109.91415856958886
2917.8831,110.98114003881038
2918.9931,108.25096052025233
2920.1024,106.12361359681739
2921.211,102.74909176889871
2922.319,107.82738647565321
2923.4264,103.95848812874704
2924.5331,100.14238606157238
2925.6391,105.42906856793664
2926.7445,104.11852294022339
2927.8493,103.06073541652546
2928.9534,102.7556911937505
2930.0569,106.8533744381988
2931.1597,105.90376828861382
2932.2619,105.85685481520525
2933.3634,105.36261502914516
2934.4643,113.92102888303705
2935.5645,111.68207527585824
2936.6641,108.99573196737592
2937.763,107.31197560053634
2938.8613,111.4807817283286
2939.959,106.55212483062192
2941.056,107.87597827247784
2942.1523,102.45231435343652
2943.248,94.63110429427851
2944.3431,87.26231829126112
2945.4375,83.09592559433072
2946.5313,74.78189458081044
2947.6244,69.57019279706424
2948.7169,67.26078704163704
2949.8087,59.70364341737195
2950.8999,50.74872735450418
2951.9904,53.09600368623254
2953.0803,49.24543673826855
2954.1696,42.34699030536375
2955.2582,40.25062768981532
2956.3462,36.80631177045056
2957.4335,38.56400502359051
2958.5202,37.17366955749313
2959.6062,37.03526709477632
2960.6916,36.99875898632132
2961.7764,39.8141062126567
2962.8605,38.73126938432344
2963.9439,41.45020871372151
2965.0267,37.12088402593819
2966.1089,36.49325473155868
2967.1905,35.317279869959336
2968.2714,35.74291811558402
2969.3516,33.670127789703756
2970.4312,35.698866856160414
2971.5102,31.729092942094567
2972.5885,37.96076331765818
2973.6662,38.49383493571227
2974.7432,37.27826436951024
2975.8196,35.26400780736715
2976.8954,39.25102106481546
2977.9705,35.8392596047475
2979.045,39.778678497545464
2980.1188,38.01923245519896
2981.192,36.31087579191086
2982.2645,38.2035624416917
2983.3364,37.24724597544329
2984.4077,34.09187958203182
2985.4783,34.68741607785105
2986.5483,32.3838079383759
2987.6177,30.231007292207202
2988.6864,31.328965944107665
2989.7545,23.927635396529986
2990.8219,23.926966838637192
2991.8887,22.42691122031598
2992.9548,21.377419252183373
2994.0204,16.97844142058732
2995.0852,17.379927998101593
2996.1495,14.331829087515562
2997.2131,12.084094617819343
2998.276,11.986674374684782
2999.3383,9.989518022942782
3000.4,5.792575107557525
3001.4611,5.645795073597995
3002.5215,7.149127308207426
3003.5812,2.902521142071123
3004.6404,3.9559258343831054
3005.6989,6.559290615312229
3006.7567,3.9625646754681014
3007.8139,3.9156971398674436
3008.8705,1.2186370939013251
3009.9264,4.171333583803886
3010.9818,1.923735643622905
3012.0364,-0.12420773430716636
3013.0905,1.5774524231108025
3014.1439,-0.2713336701907956
3015.1966,1.9293841839458956
3016.2487,3.2295588943020945
3017.3002,2.8791433503651866
3018.3511,-2.621909590673024
3019.4013,1.1263528995878396
3020.4509,-1.4260901575750502
3021.4998,0.22074024785196045
3022.5481,1.2668373725231916
3023.5958,4.162194470885559
3024.6428,2.0568047847176274
3025.6892,0.5006615141760307
3026.735,1.2437578388493655
3027.7802,-0.41391306668037586
3028.8247,-0.4723580402687553
3029.8685,2.2184202152201813
3030.9118,0.6584237157791968
3031.9544,1.3976544552168555
3032.9963,4.486114420757502
3034.0376,2.1738055856489495
3035.0783,2.210729878277867
3036.1184,0.39688920529288296
3037.1578,4.132285451235351
3038.1966,1.7669204966777272
3039.2348,2.0007961808696386
3040.2723,1.2339143253915097
3041.3092,3.1162767318158124
3042.3455,3.747885189375893
3043.3811,2.5287414561423383
3044.4161,5.3088472527068795
3045.4505,3.1882042743738523
3046.4842,6.016814163359104
3047.5173,3.294678529996421
3048.5498,5.021798924451456
3049.5816,4.548176863943102
3050.6128,3.5738138154722705
3051.6434,4.04871120055812
3052.6734,4.672870404981666
3053.7027,5.796292774036843
3054.7314,6.468979606288869
3055.7594,6.9909321423400606
3056.7868,5.262151558102936
3057.8136,8.032638959580687
3058.8398,5.452395400155
3059.8653,6.571421852881176
3060.8902,6.689719236290555
3061.9145,8.457288403200277
3062.9381,9.2741301395303
3063.9612,11.790245146627683
3064.9835,10.705634033098201
3066.0053,13.12029728964517
3067.0264,7.88423529991559
3068.0469,7.09744831635348
3069.0668,7.859936512560521
3070.086,11.021699991163926
3071.1046,12.332738776191537
3072.1226,10.0930527814542
3073.1399,9.2026417974354
3074.1567,11.061505513688074
3075.1727,11.669643527738769
3076.1882,7.877055326498974
3077.203,5.483740280183753
3078.2173,7.139697680237623
3079.2308,9.2449267632677
3080.2438,6.849426694484137
3081.2561,3.353196546647837
3082.2678,4.5562353240254225
3083.2789,8.158541997351561
3084.2893,4.960115491798572
3085.2991,5.410954650953373
3086.3083,5.211058268801729
3087.3169,6.460425085219857
3088.3248,4.809053787973411
3089.3321,5.5069430002237905
3090.3388,7.304091297041866
3091.3449,7.4004971984290755
3092.3503,5.546159151345954
3093.3551,4.541075528748065
3094.3593,5.885244648129397
3095.3629,3.078664781573176
3096.3658,5.8713341423102
3097.3681,5.713250912784609
3098.3698,2.4044132167272103
3099.3708,3.4948191207362935
3100.3713,5.434466667366031
3101.3711,2.823353864222401
3102.3702,5.311478664566721
3103.3688,4.498838993426769
3104.3667,4.935432722715548
3105.364,3.87125767935766
3106.3607,2.7063116409233956
3107.3568,5.7905923462704685
3108.3522,5.274097507193485
3109.347,7.806824777581117
3110.3412,7.638771758581084
3111.3348,8.219935973272856
3112.3277,3.8003148683481847
3113.32,2.9299058082994707
3114.3117,7.558706119615968
3115.3028,4.686713099487877
3116.2932,4.113923969518344
3117.2831,5.240335904443389
3118.2723,7.165946037859795
3119.2608,3.9907514509609916
3120.2488,5.46474915328095
3121.2361,3.2879361144461345
3122.2229,6.310309249435518
3123.209,4.881865440348715
3124.1944,5.5526015061822545
3125.1793,3.772514217114014
3126.1635,5.441600287795863
3127.1471,6.859856395154529
3128.1301,6.927279161700738
3129.1125,1.8938651413466516
3130.0942,2.059610818731646
3131.0753,4.424512659556447
3132.0558,4.588567108925671
3133.0357,3.701770567698812
3134.015,3.8141193908496955
3134.9936,4.925609896334444
3135.9716,-1.4637616360320114
3136.949,4.996001024309168
3137.9258,6.104908730895555
3138.902,4.26297228730472
3139.8775,6.420202436065146
3140.8524,3.9266098770756024
3141.8267,1.9322052460328303
3142.8004,5.686999139367476
3143.7735,5.141002134188134
3144.7459,6.694224750733408
3145.7178,5.996677457831888
3146.689,8.298370657369908
3147.6596,6.649314691267041
3148.6295,6.999519818459147
3149.5989,4.948996231388948
3150.5676,5.997754052503971
3151.5357,7.645803354761776
3152.5032,6.593154151142395
3153.4701,5.639816378167823
3154.4364,4.0357999064285135
3155.402,5.431114550116762
3156.367,6.7257700830668625
3157.3315,4.219776224801969
3158.2952,5.713142627587531
3159.2584,6.655878901491238
3160.221,4.9979945994493535
3161.1829,7.239499207839356
3162.1442,6.730402163058777
3163.105,7.0707128291101595
3164.065,5.760440502692026
3165.0245,6.7995944097957715
3165.9834,6.238183718808392
3166.9416,6.726217530120933
3167.8993,7.163704881742613
3168.8563,5.850654744420468
3169.8127,6.187076017264491
3170.7684,5.772977540878128
3171.7236,9.208368093994064
3172.6782,6.893256397615211
3173.6321,6.227651080660801
3174.5854,4.811560703117504
3175.5381,6.1949937626954785
3176.4902,6.177958708989279
3177.4417,6.710463929643525
3178.3926,7.942517750523246
3179.3428,6.324128430388832
3180.2924,6.555304148575501
3181.2415,7.536053021177182
3182.1899,10.016383098734762
3183.1377,6.796302356428596
3184.0848,8.825818669275213
3185.0314,7.604939844328115
3185.9773,7.033673600382619
3186.9227,7.662027580184644
3187.8674,5.440009356143374
3188.8115,7.667626424047717
3189.755,5.794886225286488
3190.6979,6.521796124572238
3191.6402,6.748363428668656
3192.5818,6.574595379121469
3193.5229,9.500499149992768
3194.4633,6.626081849598689
3195.4031,8.951350491250373
3196.3423,5.526312021998149
3197.2809,7.700973299378833
3198.2189,3.975341125666128
3199.1563,6.749422226123999
3200.0931,6.323223286263
3201.0292,8.346750924099464
3201.9648,6.970011694417488
3202.8997,6.89301206853367
3203.834,8.565758448064482
3204.7677,6.488257165696279
3205.7008,7.860514468457829
3206.6333,5.732536538495334
3207.5652,5.554329479349841
3208.4964,5.12589933723704
3209.4271,7.847252102829321
3210.3571,6.8683937155400825
3211.2865,7.389330036310201
3212.2154,4.660066857396613
3213.1436,5.930609897162959
3214.0712,5.350964827372206
3214.9982,8.721137260481225
3215.9246,9.491132755437237
3216.8503,8.260956783976095
3217.7755,8.680614722922321
3218.7001,11.200111866490865
3219.624,9.819453422090533
3220.5473,7.838644485129006
3221.4701,7.6076900528194304
3222.3922,9.226595043988507
3223.3137,7.145364301386033
3224.2346,5.664002575495853
3225.1549,7.832514545348161
3226.0746,4.950904833333128
3226.9937,8.219177983515781
3227.9121,4.9373384904520945
3228.83,6.805390766506262
3229.7473,7.173339174669093
3230.6639,9.89118800987749
3231.5799,6.208941495334966
3232.4954,8.876603755333146
3233.4102,8.544178852074243
3234.3244,12.261670758994416
3235.238,6.72908336408805
3236.151,8.546420432732809
3237.0634,8.713685663015529
3237.9752,11.630882667558838
3238.8864,9.44801497184851
3239.797,10.065085985061486
3240.7069,7.582099021894556
3241.6163,9.949057296393647
3242.5251,8.0659639467837
3243.4332,9.882822011799078
3244.3408,10.649634449514508
3245.2477,10.666404119176502
3246.154,7.683133773535216
3247.0598,10.949826058676772
3247.9649,7.516483543855951
3248.8694,9.233108688829272
3249.7733,7.54970387818841
3250.6766,11.316271404193955
3251.5793,9.482813483609444
3252.4814,11.09933222003571
3253.3829,6.365829622245428
3254.2838,9.482307588017964
3255.1841,10.698767951474371
3256.0838,7.465212451912645
3256.9829,9.981642721643095
3257.8814,7.548060318323902
3258.7792,9.214466699796821
3259.6765,10.180863248422995
3260.5731,7.6972512544189
3261.4692,11.163631906192375
3262.3647,6.93000631517875
3263.2595,8.096375481177029
3264.1538,8.862740334686151
3265.0474,9.5791017252413
3265.9404,11.395460413750254
3266.8329,9.961817065329768
3267.7247,4.528172231142005
3268.616,9.644526362730943
3269.5066,10.510879866358842
3270.3966,9.12723305184269
3271.286,11.34358612389068
