RamanShift,CorrectedData
30.1047,123.40680029601366
32.3739,111.57465928157212
34.6426,103.44251703306254
36.9109,92.31037120067037
39.1787,85.97821840015578
41.4461,75.5960543241753
43.7131,65.01387380560314
45.9796,57.38167092135302
48.2456,52.24943909819984
50.5112,40.31717118910173
52.7764,32.33485952452243
55.0411,21.90249603175396
57.3054,12.070072314739727
59.5692,4.68757975839817
61.8326,-4.394990373052991
64.0955,-13.127646862271849
66.3579,-23.610354585962675
68.6199,-26.992947275637604
70.8815,-29.975022795366463
73.1426,-29.555909349675844
75.4032,-8.084635692614626
77.6634,51.14006468530266
79.9231,205.96953905907202
82.1824,528.4051341922889
84.4412,1062.6481947888533
86.6995,1748.150060268614
88.9574,2369.562059424938
91.2148,2802.285503569691
93.4717,2977.22168031912
95.7282,2970.8218492666147
97.9842,2947.3372402333493
100.2398,2881.0190533322802
102.4949,2828.5184592029896
104.7495,2769.686599674871
107.0036,2707.824588292133
109.2573,2609.933510902117
111.5105,2519.814426273921
113.7632,2406.918367077306
116.0154,2290.946340783889
118.2672,2183.4993307961045
120.5185,2071.578297606922
122.7693,1962.9841798743207
125.0197,1889.4178955404932
127.2696,1787.130342917794
129.519,1738.9724014243961
131.7679,1704.4449326071713
134.0163,1668.3487806232667
136.2642,1648.2347725853801
138.5117,1626.4537189227221
140.7587,1580.4564135821552
143.0052,1530.0936342460052
145.2512,1476.0161427920336
147.4967,1408.7746857970662
149.7417,1361.6699950777665
151.9863,1320.5527883630523
154.2304,1304.4737697651406
156.4739,1274.1336301907218
158.717,1273.033047501748
160.9596,1280.572686818836
163.2017,1304.103200532272
165.4433,1302.3752282266155
167.6844,1274.9893964453945
169.925,1235.996318708385
172.1651,1164.046595785469
174.4047,1106.8408160865658
176.6439,1062.5295563811285
178.8825,1031.0633823702028
181.1206,1000.1428491295387
183.3582,983.868501424253
185.5954,959.090874018034
187.832,967.0104918358861
190.0681,953.8278702119045
192.3037,943.8435148100805
194.5388,936.7079217561268
196.7734,933.1215777373213
199.0075,942.1349600738632
201.2411,955.6985367547361
203.4742,967.062766347574
205.7068,981.028097863026
207.9389,983.3949706411139
210.1704,988.9638142115789
212.4015,997.5350482702128
214.632,998.0590826231698
216.862,987.986317101254
219.0915,995.8671415546792
221.3205,993.101935953796
223.549,989.2410703102844
225.777,989.7349047048059
228.0044,963.5837893256113
230.2314,941.2880644636026
232.4578,934.9980607738444
234.6837,898.7140994985205
236.909,887.6864925298349
239.1339,866.2655427728504
241.3582,854.9515442557655
243.582,853.2947823441231
245.8053,847.9455338539511
248.0281,847.7540670683304
250.2503,843.1706417908862
252.472,844.3955093477033
254.6932,846.67891263316
256.9139,845.0210860976812
259.134,853.8722557249017
261.3536,870.4326390482461
263.5727,895.1524450624172
265.7912,950.1818740577914
268.0092,1000.8211173732217
270.2267,1048.8703568457422
272.4436,1080.579764304177
274.6601,1106.0995010886465
276.8759,1115.179717733475
279.0913,1134.9705537119908
281.3061,1126.6721373457265
283.5204,1141.4345856065086
285.7341,1164.2080041994432
287.9473,1163.8924874152904
290.16,1166.2381179027311
292.3721,1124.7949666715222
294.5837,1091.6130930690392
296.7947,1057.1925451947104
299.0052,1048.9333602318306
301.2152,1040.7855647917722
303.4246,1004.7991749965729
305.6334,972.024196560415
307.8418,944.8606251494903
310.0495,909.5584467097478
312.2568,875.4176377385318
314.4635,819.6381656376017
316.6696,775.3699890545414
318.8752,708.9630584405537
321.0802,687.7173164931419
323.2847,687.6826988201797
325.4887,688.6091341523678
327.692,697.8965443435803
329.8949,726.0448443616
332.0972,749.5539421952445
334.2989,771.523738572883
336.5001,758.3041267273446
338.7007,725.8949921762223
340.9008,682.2962128540687
343.1003,617.3076594364861
345.2992,576.1291957761157
347.4976,536.2606795525223
349.6955,492.20196268397933
351.8927,478.8028917261537
354.0895,455.96330831269347
356.2856,440.3830492892183
358.4812,428.1619469417153
360.6763,417.5498291523405
362.8707,409.0465195216316
365.0646,419.15183747462765
367.258,409.6155983459038
369.4508,426.98761327851685
371.643,440.71768931936833
373.8346,467.2556292454834
376.0257,488.75123142671123
378.2162,514.9542895603443
380.4062,524.1645924561635
382.5956,484.58192377440764
384.7844,459.25606193366934
386.9726,423.6367805067223
389.1603,388.1738484737798
391.3474,364.5670305786887
393.5339,362.11608768355734
395.7199,369.320777004826
397.9052,401.0808521377728
400.09,440.7460629844693
402.2743,474.2161554361792
404.4579,507.99087097670554
406.641,539.6699463476905
408.8235,591.0531132108679
411.0054,629.2900978312732
413.1868,677.3306205634103
415.3675,734.9243954688834
417.5477,726.721129835991
419.7273,660.2205236037883
421.9064,571.0722694441199
424.0848,502.6260534266248
426.2627,448.1315559102202
428.4399,396.13845222756254
430.6166,340.7964132299926
432.7928,293.25510580746777
434.9683,259.3141934419805
437.1432,231.12333668297265
439.3176,203.23219348674593
441.4914,194.59041949836728
443.6645,186.79766833058352
445.8371,188.50359165023679
448.0091,191.7578392561934
450.1806,178.81005906228393
452.3514,174.40989706476148
454.5216,164.65699747177973
456.6913,168.05100274739334
458.8603,179.99155370908875
461.0288,182.7782894938423
463.1967,173.31084743871634
465.3639,164.0888630529903
467.5306,158.51197011283534
469.6967,163.27980075353457
471.8622,153.04198552525236
474.0271,142.69815334535542
476.1914,138.24793160079207
478.3551,140.79094625152834
480.5182,140.7768218750523
482.6807,148.7051816409437
484.8426,165.57564731101343
487.0039,192.88783916002194
489.1647,246.1413758069732
491.3248,289.38587394199317
493.4843,301.4709477937952
495.6432,292.146208697234
497.8015,253.01126497245468
499.9592,225.51572201814133
502.1163,163.35918270286425
504.2728,126.99124764003727
506.4287,98.0115158094834
508.5839,82.3695849211133
510.7386,82.7150517047221
512.8927,83.74751206641031
515.0461,97.26656108512793
517.199,112.8217930023493
519.3512,145.36280108688493
521.5029,215.3891774793285
523.6539,265.5505128666455
525.8043,270.69639578191095
527.9541,212.1264121026952
530.1033,151.34014499960517
532.2519,109.83717552198345
534.3999,89.11708320577236
536.5472,72.12944648854227
538.694,75.27384291669296
540.8401,93.04984931533045
542.9856,115.7570417568229
545.1305,124.04499538303935
547.2748,144.06328417828036
549.4185,157.71148088639643
551.5615,159.3891568106053
553.704,172.49588167701086
555.8458,197.48122361782498
557.987,220.39474904030203
560.1276,235.23602237688374
562.2675,283.6546058560641
564.4069,339.10005935397817
566.5456,382.27193991021454
568.6837,375.01980117336234
570.8212,303.3431929692915
572.958,237.9416613736746
575.0942,173.7647494287528
577.2299,141.0119977973509
579.3648,129.13294540464744
581.4992,108.42712976570124
583.6329,125.89408710424163
585.766,162.43335255972693
587.8985,201.4444600126751
590.0304,229.92694171927087
592.1616,257.83032792125573
594.2922,246.4541465611012
596.4222,212.6979230029765
598.5515,157.1111801465097
600.6802,113.24343876435023
602.8083,81.69421805803586
604.9358,73.61303609667061
607.0626,69.79941013241637
609.1888,81.75285668130505
611.3144,102.77289156137567
613.4393,153.4090297731393
615.5636,197.3607852893781
617.6873,240.8276705487856
619.8103,276.25919601644864
621.9327,254.25486974917726
624.0544,226.26419704119007
626.1756,177.7366806441571
628.2961,132.37182104710678
630.4159,121.31911696170187
632.5351,109.67806577588703
634.6537,105.998163664417
636.7716,86.37890570526542
638.8889,81.51978591642523
641.0056,82.12029745209998
643.1216,93.3799326512958
645.237,97.84818303181555
647.3518,84.32453917766361
649.4659,64.85849069436244
651.5793,54.64952634419046
653.6922,37.59713424084043
655.8043,33.8508019515109
657.9159,20.76001666742991
660.0268,10.724265241317198
662.137,4.943034318292575
664.2466,7.915810436233642
666.3556,9.44208008358828
668.4639,11.021329669647116
670.5716,2.7530455092797865
672.6786,0.7867138071437694
674.785,-4.52817925963393
676.8907,-1.3921553731964877
678.9958,-8.805690979176916
681.1002,-12.169248615576635
683.204,-6.68320285154573
685.3072,-8.147806685440742
687.4097,-0.36324635042296904
689.5115,-8.229626683065476
691.6127,-5.647048891111353
693.7132,-7.015531968334244
695.8131,0.3649615055103368
697.9123,7.044539035830894
700.0109,8.323304482070512
702.1089,13.501361633226793
704.2061,42.87881419506482
706.3028,58.75576573833678
708.3987,71.68231940500709
710.4941,85.50857774948292
712.5887,92.2346426093485
714.6827,97.41061496710154
716.7761,88.68659488289472
718.8688,85.66268144277569
720.9608,90.53897284592551
723.0522,106.01556643489948
725.1429,133.84255864686304
727.233,189.27004485882617
729.3224,233.2981191093745
731.4112,274.12687354439424
733.4993,291.75639797679037
735.5867,236.7367794782008
737.6735,160.9681022026989
739.7596,118.75044793699112
741.845,99.88389685810273
743.9298,96.86852795555501
746.014,113.05441922003081
748.0974,125.49164767352829
750.1802,109.33028920750144
752.2624,109.9204184584886
754.3439,86.26210896972543
756.4247,92.65543318524499
758.5048,105.65046268645904
760.5843,117.69726812822546
762.6631,154.8459191088973
764.7413,197.84648404985626
766.8188,288.6990298240237
768.8956,366.50362132585803
770.9718,429.61032056282716
773.0473,414.86918587736454
775.1221,382.13027131580066
777.1962,375.79362677577296
779.2697,439.85929833361797
781.3426,522.8773283077353
783.4147,579.8977546179323
785.4862,562.5206099552437
787.557,471.045921211727
789.6271,351.8737096542343
791.6966,256.6539918391595
793.7654,169.13678080415968
795.8335,117.92208702035339
797.901,85.05991926749152
799.9678,74.15028514610515
802.0339,77.29319140612654
804.0993,85.0386440559862
806.1641,66.38664833118253
808.2282,51.037208616828025
810.2916,44.040328634169896
812.3544,25.746011594083484
814.4164,25.10426026704158
816.4778,33.315077166057335
818.5385,56.52846455310157
820.5986,88.39442435699527
822.658,138.0629579412747
824.7166,195.58406578553252
826.7747,285.8577469887322
828.832,356.2339986939969
830.8886,414.7128151858726
832.9446,439.89418718656657
834.9999,397.4781012711569
837.0545,343.21453961578084
839.1085,252.953480421795
841.1618,192.8948984584107
843.2143,141.98876596530567
845.2662,109.23505325320878
847.3175,98.08372921296132
849.368,91.83476164305489
851.4179,82.2881173611438
853.467,78.99376226653567
855.5155,88.40166143565682
857.5633,96.0117791549967
859.6105,90.27407882702812
861.6569,84.83852289410709
863.7027,77.30507289584955
865.7478,67.87368952348697
867.7922,57.094332695200364
869.8359,52.56696165043445
871.8789,51.29153505769057
873.9212,40.31801105980139
875.9629,52.79634728668452
878.0039,82.17650096507725
880.0441,97.75842879375455
882.0837,107.49208664972696
884.1226,131.67742943242058
886.1609,165.46441096634146
888.1984,213.80298375922155
890.2352,259.6430986641486
892.2714,267.5847043961811
894.3069,237.72774707394717
896.3416,187.22217014022795
898.3757,159.11791466052705
900.4091,139.71491982812734
902.4418,140.9631232451328
904.4739,156.11246111649814
906.5052,173.51286823754708
908.5358,162.36427784247905
910.5658,138.11662143036506
912.595,116.36982887663362
914.6236,80.82382867554793
916.6515,59.52854815767273
918.6786,51.68391384533595
920.7051,31.78985166557959
922.7309,42.09628702860732
924.756,41.20314502672454
926.7804,37.26035033127414
928.8041,61.41782720156766
930.8272,86.27549952431377
932.8495,86.18329057204369
934.8711,94.04112275453303
936.892,107.9489176197252
938.9123,126.25659577515319
940.9318,145.51407674886104
942.9506,167.37127880632772
944.9688,156.12811875789168
946.9862,125.68451174017912
949.003,96.79037132853466
951.019,77.09560984145821
953.0344,66.70013862954704
955.0491,51.15386827244208
957.063,47.45670868278353
959.0763,41.508569261673756
961.0888,51.80935893564879
963.1007,45.10898621615911
965.1119,52.80735909656164
967.1223,46.204385119123685
969.1321,48.24997129803853
971.1412,45.14402418545717
973.1495,42.136449851030875
975.1572,31.027153912971585
977.1641,37.56604156812659
979.1704,38.95301770307185
981.1759,36.23798682872405
983.1808,30.720853066469658
985.1849,25.451520175315636
987.1884,37.12989160706161
989.1911,39.90587055899243
991.1932,47.57935985709378
993.1945,39.400261928293276
995.1951,47.11847872372505
997.1951,54.4339118005214
999.1943,40.04646224462965
1001.1928,55.556030597658264
1003.1906,61.66251700075156
1005.1877,87.91582103949452
1007.1841,111.51584168284683
1009.1798,111.41247702061094
1011.1748,111.60562402743085
1013.1691,88.89517856382668
1015.1627,72.93103537426214
1017.1556,34.113088314250035
1019.1477,21.29123050999317
1021.1392,13.165354746563594
1023.1299,10.935353596120876
1025.12,8.60111949917166
1027.1093,22.01254478686917
1029.0979,32.26952170435629
1031.0859,59.12194227665111
1033.0731,62.36969820607692
1035.0596,66.16268060373818
1037.0454,58.15077995704223
1039.0304,48.383886091769455
1041.0148,30.811888252193057
1042.9985,5.984675198747141
1044.9814,-1.0978646162525365
1046.9636,4.664157199663578
1048.9452,15.52064000663222
1050.926,29.07148311814933
1052.9061,45.566585692504646
1054.8855,44.40584659727301
1056.8642,47.139164244364224
1058.8421,47.616436601630085
1060.8194,52.387561165531224
1062.7959,53.00243495636482
1064.7717,47.260954470552974
1066.7469,42.91301567449375
1068.7213,62.15851406197555
1070.695,68.89734469765733
1072.6679,95.5794020246127
1074.6402,104.50457979694204
1076.6117,121.12277081295258
1078.5826,96.83386682590583
1080.5527,62.68775837783585
1082.5221,41.5843350424384
1084.4908,17.57348576653203
1086.4587,1.5550990810921803
1088.426,-2.020936658639812
1090.3925,2.6952668870261505
1092.3584,10.253618246937549
1094.3235,17.65402592298892
1096.2879,27.196398314539124
1098.2515,68.53064364440706
1100.2145,80.4066698634482
1102.1767,113.97438423721098
1104.1382,157.1336932271779
1106.099,215.13450215508817
1108.0591,258.87671477134427
1110.0185,291.210232675004
1111.9771,328.0349548763588
1113.9351,375.50077747359774
1115.8923,433.95759328456097
1117.8488,443.0052913720815
1119.8045,387.1937564594166
1121.7596,306.4728688397712
1123.7139,222.94250493441223
1125.6675,188.702538099879
1127.6204,180.65283946328566
1129.5726,200.84327826472156
1131.524,197.77372193774806
1133.4748,157.09403590749446
1135.4248,105.20408362135277
1137.3741,70.95372695577532
1139.3226,47.142826735173344
1141.2705,41.32124307442109
1143.2176,60.03883561696534
1145.164,65.84546359304011
1147.1097,63.690985632491675
1149.0546,37.725259706712336
1150.9989,21.348143150184455
1152.9424,-2.6405070798616634
1154.8852,-6.74083423967636
1156.8272,-16.702955206845218
1158.7686,-8.426919518019531
1160.7092,-14.962609847329645
1162.6491,-5.009824683979332
1164.5883,17.481786959299598
1166.5267,34.262626117923446
1168.4644,54.883093652490516
1170.4014,73.5935900809734
1172.3377,118.19451537251416
1174.2732,170.93626876031885
1176.2081,248.5192482956495
1178.1421,370.94385032040555
1180.0755,478.0604686912948
1182.0082,521.1694935555867
1183.9401,480.37131027994656
1185.8713,387.51629901934507
1187.8017,282.80483512504077
1189.7315,199.587290073129
1191.6605,122.81403251165716
1193.5888,94.73542909280036
1195.5163,69.05184524059337
1197.4432,53.81364543171685
1199.3693,34.52119345233382
1201.2947,22.374852550470678
1203.2193,13.774985628942545
1205.1432,17.2719553668162
1207.0664,14.866124305409585
1208.9889,13.757854813320705
1210.9106,6.1975091104868625
1212.8316,20.135449279267164
1214.7519,35.72203734004586
1216.6715,47.857635111853256
1218.5903,67.74260405649943
1220.5084,74.077305157218
1222.4257,92.16209871981664
1224.3424,89.94734430933033
1226.2583,119.53340056917307
1228.1735,151.970625243286
1230.0879,188.40937488027623
1232.0016,216.1500045090446
1233.9146,263.5428672743991
1235.8269,276.488314159648
1237.7384,281.58669351267065
1239.6492,297.58835091646324
1241.5592,312.2436291381557
1243.4686,358.502867968994
1245.3772,422.71640407778796
1247.285,498.38457054831986
1249.1922,568.4576962372072
1251.0986,649.9861050172229
1253.0042,703.7701150765625
1254.9092,778.6600381035621
1256.8134,853.8061787488558
1258.7169,918.1088338764785
1260.6196,930.1682918124025
1262.5216,925.2348317015133
1264.4229,909.4087233870127
1266.3234,891.5902274597552
1268.2232,854.3795954165071
1270.1223,801.8770698381342
1272.0207,764.2328847617048
1273.9183,755.6972662055189
1275.8151,765.370432545546
1277.7113,806.1025946007842
1279.6067,885.143955536527
1281.5014,1022.1947104570429
1283.3953,1177.5550456151605
1285.2885,1318.7251370417616
1287.181,1433.3551489921788
1289.0727,1474.2952325344925
1290.9637,1430.2955244032328
1292.854,1365.8061465899775
1294.7435,1267.6772067833497
1296.6323,1196.6087990139108
1298.5204,1107.7010046354521
1300.4077,1044.2538930356754
1302.2943,1005.7675225252741
1304.1802,969.4419409724027
1306.0653,939.2271861875396
1307.9497,916.6232862867453
1309.8333,879.6802599938084
1311.7162,845.9981168662841
1313.5984,812.6768576649264
1315.4798,784.4164746905064
1317.3605,787.1669521170284
1319.2405,781.9782662743314
1321.1197,738.2503856205853
1322.9982,680.4832707941788
1324.876,611.3768750509956
1326.753,539.7311448420883
1328.6293,469.44602050473986
1330.5048,388.67143697892266
1332.3796,336.40732451014867
1334.2537,291.1036094572162
1336.127,253.61021481484977
1337.9996,250.87706066673888
1339.8714,225.75406456047062
1341.7426,215.49114153486175
1343.6129,215.88820437118875
1345.4826,191.24516369581704
1347.3515,192.01192797623082
1349.2196,167.53840376746302
1351.087,165.87449570442766
1352.9537,165.47010674665523
1354.8197,168.37513819493154
1356.6849,184.13948969534147
1358.5493,195.663059210219
1360.4131,225.89574286050367
1362.276,261.1374348105047
1364.1383,292.28802696557443
1365.9998,300.9474086196914
1367.8606,282.7154661439538
1369.7206,271.14208289998555
1371.5799,278.07713942225644
1373.4384,269.7205135338156
1375.2962,246.02208027694144
1377.1533,196.2817119967068
1379.0096,156.19927857796438
1380.8652,123.62464794274945
1382.7201,106.90768645110495
1384.5742,85.7982592268271
1386.4275,67.04623032463553
1388.2802,62.80146294126723
1390.132,41.66381960299714
1391.9832,41.383162208086105
1393.8336,29.00935223815668
1395.6832,33.49225076100083
1397.5322,21.531718554316853
1399.3803,14.277616060880973
1401.2278,4.729803508152713
1403.0745,1.4881409808150465
1404.9204,-4.297511483746348
1406.7656,1.7727061369726016
1408.6101,-5.601303202384088
1410.4538,-4.7196365648990195
1412.2968,3.8676649433637067
1414.139,-2.2393926344907413
1415.9805,8.259196705965678
1417.8213,11.663461340693743
1419.6613,29.52342956306245
1421.5006,63.63912954980606
1423.3391,87.26058918242484
1425.1769,142.68783570602852
1427.0139,216.32089549312093
1428.8502,285.20979348932826
1430.6858,342.9045524770678
1432.5206,371.65519238665934
1434.3547,370.7117297193772
1436.188,350.57417725994407
1438.0206,334.59254408596524
1439.8524,327.7668357693044
1441.6835,328.9470545359001
1443.5139,335.6331993340227
1445.3435,342.9752658224721
1447.1724,336.1232463037167
1449.0005,338.1771296504727
1450.8279,336.2869013742237
1452.6545,329.4525436046823
1454.4804,333.5240351086922
1456.3056,329.7513513585718
1458.13,314.33446449139944
1459.9536,294.5733433467401
1461.7766,256.9679536208147
1463.5987,230.01825806411125
1465.4202,191.0742168574385
1467.2409,162.9357878814224
1469.0608,138.90292710594758
1470.88,114.92558887154053
1472.6984,95.00372612969852
1474.5161,83.93729068266362
1476.3331,66.77623338264021
1478.1493,46.820504242460345
1479.9648,56.320052607193816
1481.7795,51.774827353705405
1483.5935,60.78477679565958
1485.4067,61.299848728972904
1487.2192,67.81999034171406
1489.031,74.94514820895358
1490.842,61.32526822756273
1492.6522,65.46029554496113
1494.4618,61.350174695315786
1496.2705,58.74484955819145
1498.0785,53.89426339965087
1499.8858,54.99835889830865
1501.6924,46.957078193836935
1503.4981,46.12036287592434
1505.3032,40.488154064688956
1507.1075,44.96039241904532
1508.911,36.13701819302668
1510.7138,30.217971191062816
1512.5159,24.05319085621329
1514.3172,23.29261632935834
1516.1178,21.58618651084646
1517.9176,14.93384006810021
1519.7166,10.135515452680352
1521.515,0.7411509668094141
1523.3126,8.200684811354847
1525.1094,13.96405517977297
1526.9055,5.08120018351309
1528.7008,0.15205779438412037
1530.4954,7.126565933383461
1532.2893,2.354662519987869
1534.0824,2.236285402408839
1535.8747,1.1713724053115016
1537.6663,1.059861330998217
1539.4572,8.30168997005785
1541.2473,4.296796102480926
1543.0367,11.995117425241006
1544.8253,13.59659159234377
1546.6132,22.001156137843964
1548.4003,29.008748459830542
1550.1867,38.269305736381455
1551.9723,43.73276485548678
1553.7572,59.64906232244414
1555.5414,79.06813420522383
1557.3247,108.68991597530544
1559.1074,140.91434231348762
1560.8893,174.99134681366974
1562.6705,207.9708616606079
1564.4509,231.55281728914474
1566.2305,233.73714205441433
1568.0094,242.07376199602305
1569.7876,233.51260081620558
1571.565,231.05357979645908
1573.3417,237.84661788315543
1575.1176,240.99163171213075
1576.8928,255.4385355407548
1578.6672,272.9872412164818
1580.4409,305.0376580323801
1582.2138,328.8396925516463
1583.986,361.2432482871006
1585.7575,407.9482254631659
1587.5282,418.95452069183347
1589.2981,435.9620265056123
1591.0673,461.2706312474665
1592.8358,472.78021890074
1594.6035,478.84066883607096
1596.3704,464.4518556962955
1598.1366,456.86364933584304
1599.9021,449.1259149646247
1601.6668,426.33851322391524
1603.4308,425.1013002637304
1605.194,437.3641279707012
1606.9564,463.67684398044577
1608.7182,513.4892915549414
1610.4791,584.7013093193971
1612.2394,673.6627307641288
1613.9988,747.72338353244
1615.7576,793.4330885310073
1617.5156,818.091659189273
1619.2728,775.748901002349
1621.0293,707.9546112844307
1622.785,609.0585795922245
1624.54,511.81058840289137
1626.2942,421.01041410300616
1628.0477,342.95782796103805
1629.8005,287.75259703535227
1631.5525,232.94448495473625
1633.3037,189.73325247045102
1635.0542,165.5186580043134
1636.804,142.25045808080728
1638.553,116.82840756923031
1640.3013,104.4522599163758
1642.0488,91.97176740075304
1643.7955,81.43668125634889
1645.5416,72.14675179743244
1647.2868,71.15172852390629
1649.0313,68.45136021420575
1650.7751,60.49539493524861
1652.5181,63.283580069439324
1654.2604,63.36566239422882
1656.0019,74.2913880542319
1657.7427,80.96050256040729
1659.4828,103.32275068079991
1661.222,136.9278763738498
1662.9606,161.12562256476957
1664.6984,177.7157308094932
1666.4354,183.69794105269847
1668.1717,155.42199146190586
1669.9072,124.58761836765663
1671.642,96.44455654627228
1673.3761,67.04253952819812
1675.1094,46.48129987943415
1676.8419,33.960569495555035
1678.5737,27.630079807322687
1680.3048,19.189561905893186
1682.0351,17.63874660612214
1683.7646,10.42736453096947
1685.4934,0.20514612700793577
1687.2215,4.721821736536668
1688.9488,3.3271216998034276
1690.6754,1.8207763098380951
1692.4012,3.752515826399474
1694.1263,1.8720704910387838
1695.8506,7.079170507782436
1697.5742,0.423546061936122
1699.297,-3.245072731986056
1701.0191,3.073044236294578
1702.7404,2.8276594953333074
1704.461,-2.6314644570447854
1706.1808,-7.054565151291229
1707.8999,-2.991853829527571
1709.6182,2.6065287412301927
1711.3358,-0.4095283174142139
1713.0527,-5.390135909922122
1714.7688,3.264599150432872
1716.4841,-1.1453761021651587
1718.1987,-2.570114666178
1719.9126,-1.20965809776024
1721.6257,-9.164022277620944
1723.338,2.3667889980149823
1725.0496,2.3828634815050123
1726.7605,8.384288901538866
1728.4706,3.5211529629775384
1730.18,-0.6564567131605372
1731.8886,5.001547458931441
1733.5964,8.595259623062844
1735.3036,5.274773873027726
1737.0099,5.290184216667598
1738.7156,9.99158460907637
1740.4204,3.7290689524461698
1742.1246,5.552731049053307
1743.8279,12.86266466388355
1745.5306,8.708963506395435
1747.2325,8.191721157421028
1748.9336,13.411031110702737
1750.634,16.566986778065882
1752.3336,9.559681437225748
1754.0325,12.989208200227893
1755.7307,13.405660083521042
1757.4281,15.809129973662209
1759.1247,22.699710623151674
1760.8206,17.42749462639884
1762.5158,16.592574350816278
1764.2102,23.145041989541483
1765.9039,19.634989569786313
1767.5968,24.312508887312248
1769.289,16.42769154153089
1770.9804,20.030628888728927
1772.6711,18.121412120916233
1774.361,20.400132229796498
1776.0502,24.416880025859342
1777.7386,25.62174611559314
1779.4263,20.81482086131757
1781.1132,22.946194369134815
1782.7994,22.265956536999
1784.4849,26.874197033402368
1786.1696,18.321005304177703
1787.8535,26.05647052641575
1789.5367,25.730681693997326
1791.2192,30.793727540238564
1792.9009,22.29569654114897
1794.5818,26.086676864800694
1796.2621,29.166756456309145
1797.9415,26.88602299992297
1799.6202,28.64456388822333
1801.2982,24.34246624493116
1802.9755,27.829816907321913
1804.6519,25.456702469246352
1806.3277,28.223209246257227
1808.0027,31.87942329934029
1809.6769,26.375430407249297
1811.3504,26.311316029943782
1813.0231,27.887165363629066
1814.6951,29.353063341397444
1816.3664,34.509094617469515
1818.0369,33.20534355253551
1819.7067,33.99189416219457
1821.3757,37.368830129992574
1823.044,32.736234799556456
1824.7115,30.54419114082492
1826.3783,30.842781796374368
1828.0443,30.48208910333946
1829.7096,35.36219509042695
1831.3741,34.18318148152281
1833.0379,33.395129646891206
1834.701,31.448120614964438
1836.3633,33.04223508022375
1838.0248,32.02755342266914
1839.6856,35.95415569187821
1841.3457,35.42212161715324
1843.005,33.98153056825495
1844.6636,36.1324615607229
1846.3214,39.97499327028143
1847.9785,38.059204011330465
1849.6349,33.23517169851998
1851.2904,38.25297386590816
1852.9453,36.56268771520145
1854.5994,38.81439006557662
1856.2528,39.95815737058385
1857.9054,35.94406569562942
1859.5572,37.07219070653811
1861.2083,37.99260770969421
1862.8587,36.455391640760126
1864.5084,37.96061705547237
1866.1572,37.0583581450134
1867.8054,43.5986887209597
1869.4528,41.831682224304245
1871.0994,36.607411660053145
1872.7453,38.52594961489575
1874.3905,39.5873683094473
1876.0349,37.99173957906366
1877.6786,37.639134863227014
1879.3215,38.37962522150221
1880.9637,38.763281337062836
1882.6051,39.39017350928623
1884.2458,37.21037164991705
1885.8858,39.8239452767981
1887.525,37.18096353566864
1889.1634,42.981495174028424
1890.8011,39.125608567567795
1892.4381,37.86337166216212
1894.0743,38.594852012430806
1895.7098,39.070116794359464
1897.3446,42.98923279798532
1898.9786,39.152266422644445
1900.6118,39.809283637780595
1902.2443,40.060350021314974
1903.8761,40.10553075307595
1905.5071,37.894890612288464
1907.1374,38.028493977122224
1908.7669,37.956404846797994
1910.3957,35.97868684025168
1912.0237,38.595403196855244
1913.651,40.00661679619385
1915.2776,36.36239013189876
1916.9034,42.012785297535004
1918.5285,36.50786402304374
1920.1528,34.797687618238314
1921.7764,39.08231702785349
1923.3992,36.561812848647094
1925.0213,38.83623528655396
1926.6427,36.005644181890716
1928.2633,28.670098986611805
1929.8832,39.82965879261522
1931.5023,37.884382405097995
1933.1207,37.83432823096064
1934.7383,36.37955429825985
1936.3552,38.420118256709074
1937.9714,39.30607739222626
1939.5868,34.43748860652826
1941.2015,39.01440840827112
1942.8154,37.836892961736154
1944.4286,37.004998041060574
1946.041,35.06877904201271
1947.6528,35.07829099031095
1949.2637,36.78358856098593
1950.8739,35.034726078285345
1952.4834,31.18175749862108
1954.0921,36.57473642805789
1955.7001,32.263716160842876
1957.3074,35.09874962547582
1958.9139,33.57988942781945
1960.5197,36.157187822748995
1962.1247,32.33069672934083
1963.729,30.150467705099572
1965.3325,33.56655198422271
1966.9353,41.07900049940322
1968.5374,28.337863847668473
1970.1387,43.093192215255925
1971.7393,34.64503550502441
1973.3392,34.19344318890093
1974.9383,30.03846439236213
1976.5366,35.28014789895023
1978.1342,32.918542191822866
1979.7311,35.003695401336245
1981.3273,33.33565532866112
1982.9227,30.914469424931326
1984.5173,30.14018480792427
1986.1112,33.212848286272674
1987.7044,33.33250636720743
1989.2968,30.59920522583107
1990.8885,34.26299070392113
1992.4795,34.573908337263205
1994.0697,36.832003319012955
1995.6592,35.33732049658704
1997.2479,29.239904349081982
1998.8359,33.48979900222133
2000.4232,30.58704828932943
2002.0097,32.131695708832865
2003.5955,26.473784453287678
2005.1805,31.013357393933063
2006.7648,31.800457137270385
2008.3484,28.935125979667546
2009.9312,36.86740589948796
2011.5133,30.447338585743793
2013.0946,31.97496535877319
2014.6752,33.30032723444094
2016.2551,29.123464908862317
2017.8342,36.14441874514925
2019.4126,31.363228815179212
2020.9902,26.679934829385388
2022.5672,28.544576184568797
2024.1433,30.807192010731185
2025.7188,29.667821152428587
2027.2935,30.226502146145066
2028.8674,31.6332732316866
2030.4406,34.58817234659401
2032.0131,30.841237112075532
2033.5849,28.042504803457717
2035.1559,33.892012387654816
2036.7261,27.13979655115611
2038.2957,32.185893641530754
2039.8645,28.88033973495004
2041.4325,27.523170585726263
2042.9998,29.514421659368423
2044.5664,30.654128146153838
2046.1323,31.74232494121567
2047.6974,33.27904663314584
2049.2617,30.514327493113072
2050.8254,28.048201459495715
2052.3883,32.6807021655288
2053.9504,27.31186296396541
2055.5118,27.641716880751602
2057.0725,25.670296668714897
2058.6325,29.84763480426568
2060.1917,32.42376350711142
2061.7502,24.59871469848335
2063.3079,27.572519975375087
2064.8649,28.54521068879309
2066.4212,33.016817914018745
2067.9767,29.58737244088134
2069.5315,28.406904729042097
2071.0856,27.37544494228851
2072.6389,29.0930229603391
2074.1915,27.109668389157918
2075.7433,26.075410543778915
2077.2945,27.140278468139428
2078.8448,30.104300945422693
2080.3945,30.717506487409267
2081.9434,29.92992330483675
2083.4916,26.691579301267595
2085.039,27.452502080965132
2086.5857,28.612718981276913
2088.1317,30.5222570650255
2089.677,27.331143108906346
2091.2215,28.28940358439236
2092.7652,23.24706468964507
2094.3083,27.104152339932114
2095.8506,26.710692218050397
2097.3921,28.916709735755376
2098.933,24.87223003769573
2100.4731,28.277277979352988
2102.0124,29.28187816748654
2103.5511,28.88605492608295
2105.089,31.13983228631011
2106.6261,31.993233990475375
2108.1626,25.296283469487832
2109.6983,27.199003834324287
2111.2332,28.35141794299865
2112.7675,29.153548381534918
2114.301,28.70541745244293
2115.8337,24.55704716669706
2117.3657,29.40845924821761
2118.897,27.359675175354383
2120.4276,27.260716132372664
2121.9575,25.86160302994105
2123.4866,28.71235650612101
2125.0149,26.862996940358073
2126.5426,28.013544424974228
2128.0695,26.114018783661493
2129.5956,26.414439559976586
2131.1211,28.864826036335998
2132.6458,28.465197231011842
2134.1698,22.665571873627982
2135.693,27.365968409156395
2137.2155,24.366405055913347
2138.7373,27.566899758555394
2140.2584,23.017470218075175
2141.7787,20.018133859796322
2143.2983,28.61890787886776
2144.8171,26.71980927025716
2146.3353,28.720854742743114
2147.8527,24.272060737906173
2149.3693,21.92344341011838
2150.8853,25.52501867103129
2152.4005,28.126802213061936
2153.9149,25.32880947337732
2155.4287,22.381055607876363
2156.9417,19.583555519169835
2158.454,22.88632388605805
2159.9655,24.989375191505744
2161.4764,24.842723689614488
2162.9865,27.496383384592193
2164.4958,23.75036803221957
2166.0045,23.85469111331348
2167.5124,22.85936587118718
2169.0195,21.364405310607026
2170.526,20.569822207745858
2172.0317,23.82562912513245
2173.5367,23.681838419597398
2175.0409,22.438462209715013
2176.5445,22.445512377241286
2178.0473,23.403000579547623
2179.5494,17.46093824955038
2181.0507,22.96933658613588
2182.5513,21.878206613581142
2184.0512,22.33755912646987
2185.5504,19.24740470060371
2187.0488,22.957753688408815
2188.5465,17.06861624983732
2190.0435,23.68000231526389
2191.5397,19.491921644377072
2193.0353,18.00438376006541
2194.5301,25.11739799029823
2196.0241,18.13097348300103
2197.5175,24.095119134925326
2199.0101,18.359843661512954
2200.502,20.6251555372546
2201.9931,19.091063053042546
2203.4835,19.75757429351748
2204.9733,23.974697152409647
2206.4622,19.69243932587348
2207.9505,23.61080827031654
2209.438,20.879811245222044
2210.9248,16.54945527396511
2212.4109,20.669747171122793
2213.8962,15.390693585777612
2215.3809,17.862300960314627
2216.8648,19.634575583212012
2218.3479,17.857523564324936
2219.8304,14.831150817162808
2221.3121,19.805463076659876
2222.7931,17.280465929438932
2224.2733,15.806164764068086
2225.7529,19.532564796310837
2227.2317,17.909671083869057
2228.7098,21.587488489119025
2230.1872,15.466021695340345
2231.6638,15.695275169937872
2233.1397,10.025253225656186
2234.6149,17.255960018287183
2236.0894,14.287399603370275
2237.5632,19.469575863885268
2239.0362,16.952492539938135
2240.5085,10.9361531769391
2241.9801,20.370561150773483
2243.4509,16.655719727965106
2244.921,10.24163197133214
2246.3904,13.828300777135638
2247.8591,9.415728939220358
2249.3271,15.55391911314804
2250.7943,8.84287386032318
2252.2608,17.032595586611066
2253.7266,13.823086609448353
2255.1917,14.764349075945773
2256.656,8.606384994983202
2258.1197,14.749196227797043
2259.5826,13.442784549559832
2261.0447,11.83715158795215
2262.5062,12.88229883622678
2263.9669,12.428227669264956
2265.4269,12.424939333124996
2266.8862,11.472434949582905
2268.3448,13.870715516165319
2269.8026,10.66978191567459
2271.2598,13.519634892205971
2272.7162,10.520275083156974
2274.1719,12.221702990728815
2275.6268,15.323919011920026
2277.0811,13.276923421512166
2278.5346,15.530716341047707
2279.9874,8.985297759300067
2281.4395,13.840667509735482
2282.8908,8.746825335967259
2284.3414,14.153770843202082
2285.7914,9.561503549178411
2287.2406,10.820022830097031
2288.689,12.72932796654365
2290.1368,9.939418130903817
2291.5838,7.85029236826982
2293.0302,11.16194962433977
2294.4758,11.874388766308996
2295.9206,11.937608549753278
2297.3648,12.151607611504517
2298.8082,12.766384469018618
2300.251,9.631937518235446
2301.693,8.648265027431009
2303.1343,10.815365168561968
2304.5748,12.783236027102333
2306.0147,15.25187558037247
2307.4538,11.921281677860378
2308.8922,8.741452016535376
2310.3299,8.912384174153985
2311.7669,13.53407564105828
2313.2031,10.706523818466536
2314.6387,12.629725972256324
2316.0735,10.603679261239975
2317.5076,10.228380717932609
2318.941,13.303827268812597
2320.3737,11.930015738074488
2321.8056,8.456942816874516
2323.2369,12.634605077068855
2324.6674,13.162999005944343
2326.0972,14.042120964441779
2327.5263,25.021967181872
2328.9547,20.65253374712465
2330.3823,16.38381649886969
2331.8092,17.015811069251868
2333.2355,13.548512926577814
2334.661,13.681917368996139
2336.0858,8.216019559170391
2337.5098,8.900814522944842
2338.9332,9.836297204003657
2340.3558,8.722462457022914
2341.7778,8.459305038315776
2343.199,6.546819616970765
2344.6195,7.885000777483455
2346.0393,8.173843038881259
2347.4583,7.113340841341639
2348.8767,13.803488543303672
2350.2943,9.944280432073029
2351.7113,8.085710656920611
2353.1275,7.927773267674567
2354.543,4.820462233305989
2355.9578,9.613771443508242
2357.3718,7.057694739770113
2358.7852,6.452225867442721
2360.1978,8.397358501300289
2361.6098,6.593086251594755
2363.021,6.289402644604451
2364.4315,7.136301140676977
2365.8413,9.883775137265928
2367.2504,8.08181796046209
2368.6587,3.5804228375184977
2370.0664,8.129582914870085
2371.4733,7.429291303147565
2372.8795,7.129541031685861
2374.285,10.580325055526913
2375.6899,4.831636258417262
2377.0939,9.883467418300327
2378.4973,7.63581126480311
2379.9,6.638660428717998
2381.3019,8.092007464479252
2382.7032,4.645844860134588
2384.1037,5.60016502281168
2385.5035,4.204960313179683
2386.9027,11.860223035906202
2388.3011,10.115945453609228
2389.6987,10.472119710304582
2391.0957,4.778737848848621
2392.492,4.485791807376586
2393.8876,6.143273476236388
2395.2824,2.151174700918034
2396.6765,5.709487265478828
2398.07,4.868202932464413
2399.4627,6.477313407325525
2400.8547,9.886810346830984
2402.246,5.346685342976485
2403.6366,3.1569298888896924
2405.0265,4.667535424231346
2406.4156,7.828493357093009
2407.8041,5.189795048890886
2409.1918,4.501431782756242
2410.5789,2.463394789922404
2411.9652,5.125675256608488
2413.3508,6.438264344399684
2414.7358,7.001153163624451
2416.12,4.36433276022872
2417.5035,7.877794110146851
2418.8863,4.191528145670006
2420.2684,3.2055257203113996
2421.6497,5.019777645669066
2423.0304,6.33427470128575
2424.4104,8.0490076165065
2425.7896,1.0139670573336446
2427.1682,8.029143609279416
2428.546,5.694527847716429
2429.9232,2.010110267725892
2431.2996,1.2258813074437427
2432.6753,6.141831384904876
2434.0503,7.557950905885363
2435.4246,7.3742302147430365
2436.7982,7.5406595802561895
2438.1711,4.507229197460873
2439.5433,7.7739291859865745
2440.9148,4.790749620390542
2442.2856,5.207680497490756
2443.6557,3.174711766197717
2445.025,6.291833323345173
2446.3937,6.359035034019733
2447.7617,5.576306700389772
2449.1289,4.593638061033275
2450.4955,2.861018798765258
2451.8613,7.828438550464391
2453.2265,5.645886924399086
2454.5909,1.9633534505535124
2455.9546,2.230827602452912
2457.3177,2.848298833989084
2458.68,3.465756576745534
2460.0416,3.7331902338228318
2461.4025,-0.2994108263359436
2462.7627,1.4679427273803327
2464.1222,6.285243217196921
2465.4811,3.9524829506597285
2466.8392,2.9196541724622165
2468.1966,8.186749087773059
2469.5533,7.953759872564419
2470.9093,5.870678620940993
2472.2645,3.2874973474698876
2473.6191,5.604208008011462
2474.973,-0.6291974744488726
2476.3262,-0.11272723296774245
2477.6787,7.053616885081006
2479.0305,5.869834158468542
2480.3816,6.635923795429946
2481.7319,6.801884945501939
2483.0816,3.1677166918620543
2484.4306,0.5334180496690024
2485.7789,5.59898800240434
2487.1264,2.564425528215544
2488.4733,10.029729549260232
2489.8195,7.194898962051823
2491.165,7.5099325628064975
2492.5097,1.8748290757914603
2493.8538,4.189587150174653
2495.1972,4.1542054163757385
2496.5398,4.818682462918517
2497.8818,4.983016836784749
2499.2231,5.647207036769416
2500.5637,3.011251511837308
2501.9035,7.975148654481231
2503.2427,2.7388968270814544
2504.5812,7.152494312266825
2505.919,6.465939365277194
2507.256,6.129230169827515
2508.5924,6.092364844973346
2509.9281,3.7053414484779807
2511.2631,4.318157977181116
2512.5974,5.4808123908690405
2513.9309,3.3433026061465085
2515.2638,7.505626484810193
2516.596,4.367781855223768
2517.9275,3.2297664706946705
2519.2583,3.3915780408525436
2520.5884,5.253214243029383
2521.9178,10.114672720641401
2523.2465,5.125951064572689
2524.5745,7.0370467645606
2525.9018,4.0479572590830415
2527.2284,3.158679916247472
2528.5543,3.319212063681803
2529.8796,5.67955099742715
2531.2041,3.1896939803325353
2532.5279,5.049638218451541
2533.851,3.4593808859408455
2535.1735,7.718919106460774
2536.4952,1.6282499690778778
2537.8163,5.88737048566955
2539.1366,4.896277651830665
2540.4562,4.054968404282427
2541.7752,4.813439630783215
2543.0935,10.471688178541804
2544.411,5.279710846632568
2545.7279,5.587504329413065
2547.0441,3.9950652684437813
2548.3596,7.652390249410203
2549.6744,10.959475818047153
2550.9885,8.31631844356562
2552.3019,5.972914485581853
2553.6146,3.3792602205489715
2554.9266,6.235351865190921
2556.2379,0.7411856024389891
2557.5485,7.096757552870969
2558.8585,6.652063829652803
2560.1677,4.957100474982873
2561.4762,4.111863464538942
2562.7841,5.5163487244278
2564.0913,7.2205521396376255
2565.3977,3.8744695399931217
2566.7035,3.728096683113499
2568.0086,8.631429287873246
2569.313,7.734463035865943
2570.6167,4.637193522370929
2571.9197,6.789616265322955
2573.222,6.8417267362848975
2574.5236,5.7435203389234815
2575.8246,9.544992408488206
2577.1248,7.646138222793354
2578.4244,5.346952964203332
2579.7232,7.497431738621181
2581.0214,7.347569598480483
2582.3189,8.69736152124053
2583.6157,8.546802410884922
2584.9118,11.095887084423701
2586.2072,8.444610273398915
2587.5019,9.692966598393795
2588.7959,8.190950595545488
2590.0893,8.688556704061504
2591.3819,9.635779281239856
2592.6739,9.982612597493045
2593.9652,6.179050826875766
2595.2557,6.52508804361667
2596.5456,8.320718260153932
2597.8348,9.465935423674864
2599.1234,8.960733398159654
2600.4112,8.655105952929162
2601.6983,8.599046767696905
2602.9848,6.242549435625378
2604.2705,6.835607463886639
2605.5556,7.178214297227292
2606.84,6.72036331203784
2608.1237,9.762047812926681
2609.4067,10.303261037298604
2610.689,6.643996124937942
2611.9707,7.134246112596408
2613.2516,9.124003970585811
2614.5319,5.263262597875503
2615.8115,10.952014802194832
2617.0903,10.440253338640517
2618.3685,8.127970852789147
2619.6461,7.2651598858148105
2620.9229,5.201812897611909
2622.199,4.237922275423259
2623.4745,6.273480354473605
2624.7493,7.058479427608468
2626.0234,5.6429117249386
2627.2968,9.776769405989953
2628.5695,4.010044573859396
2629.8415,8.742729233876119
2631.1128,11.674815351268883
2632.3835,4.106294803839155
2633.6535,9.237159352640276
2634.9228,6.867400717662633
2636.1914,6.297010526525014
2637.4593,6.725980338172214
2638.7265,8.20430164857899
2639.9931,9.581965886460274
2641.259,7.608964398487998
2642.5242,6.585288435514464
2643.7887,7.060929172302352
2645.0525,3.93587771776145
2646.3156,9.46012511019228
2647.5781,7.733662348536598
2648.8398,4.7564803371349385
2650.1009,7.578569902991212
2651.3613,9.349921825544527
2652.6211,8.020526808448338
2653.8801,5.840375461856901
2655.1385,7.859458315719223
2656.3961,5.827765841580565
2657.6531,3.9952884323915896
2658.9094,8.51201642282534
2660.1651,4.077940107601961
2661.42,7.043049696321511
2662.6743,4.407335357804648
2663.9279,8.670787190441587
2665.1808,8.383395248549178
2666.433,6.445149499736424
2667.6846,5.056039827778385
2668.9354,8.866056051998648
2670.1856,6.275187941160453
2671.4351,7.8334251753664645
2672.6839,12.390757371967531
2673.9321,6.947174069980257
2675.1795,9.102664684513755
2676.4263,8.157218561205383
2677.6724,9.410824954665912
2678.9179,8.463473037933923
2680.1626,9.765151889939794
2681.4067,11.265850504979156
2682.6501,7.215557779696148
2683.8928,7.114262498076393
2685.1348,8.861953371949951
2686.3761,9.15861904200434
2687.6168,9.604248060307512
2688.8568,8.298828887341273
2690.0961,8.592349887544984
2691.3348,5.934799342369729
2692.5727,5.776165447343097
2693.81,7.5664363386447135
2695.0466,7.155600094692552
2696.2826,8.393644718240246
2697.5178,9.93055814048543
2698.7524,7.116328208689282
2699.9863,7.650942670807439
2701.2195,7.484389203632233
2702.452,8.816655407446603
2703.6839,11.647728807689603
2704.9151,8.977596841633762
2706.1456,10.156246830074345
2707.3755,7.7336660040306455
2708.6046,9.259841492959538
2709.8331,11.284760348981273
2711.0609,12.008409531617687
2712.2881,13.180775887543078
2713.5145,13.301846143347632
2714.7403,12.121606893813805
2715.9654,13.090044600705632
2717.1899,7.107145604571052
2718.4136,14.57289611505761
2719.6367,12.337282270741412
2720.8591,13.450290064469591
2722.0809,16.66190536571652
2723.3019,16.922113909453643
2724.5223,16.130901264033405
2725.7421,15.288252828587154
2726.9611,14.244153840937209
2728.1795,15.548589386023409
2729.3972,16.401544406344065
2730.6142,9.003003688911598
2731.8306,15.452951856723033
2733.0462,12.501373442745368
2734.2612,12.64825282541613
2735.4756,10.343574258159116
2736.6892,11.737321867915618
2737.9022,10.029479678191201
2739.1145,8.370031595118242
2740.3262,8.358961424534293
2741.5372,10.046252888576618
2742.7475,6.331889625792883
2743.9571,7.615855174268233
2745.1661,7.048133008768929
2746.3744,5.178706527902676
2747.582,5.907559059795908
2748.7889,7.384673880787979
2749.9952,4.810034208142689
2751.2008,3.583623185277098
2752.4057,1.6554239075079735
2753.61,7.47541943431586
2754.8136,6.943592808627066
2756.0165,5.15992699861377
2757.2188,4.524404903012176
2758.4204,5.637009368959276
2759.6213,3.9477231983480294
2760.8215,1.2565291367013174
2762.0211,2.1134098900648084
2763.22,4.718348151918889
2764.4182,2.0713265946098716
2765.6158,2.7723278433005945
2766.8127,4.371334502440654
2768.009,1.468329148756382
2769.2045,1.8132943152607766
2770.3994,2.856212520283549
2771.5936,4.147066264021497
2772.7872,-0.46416198189069036
2773.9801,1.6725102127110176
2775.1723,-1.4429300850311293
2776.3639,-0.5104958246999871
2777.5548,-0.6301855410068882
2778.745,1.6480073311901577
2779.9346,2.0240956525866594
2781.1235,-0.251907732601957
2782.3117,-0.32999000040118887
2783.4992,0.9898641897216791
2784.6861,1.2576734748994909
2785.8723,3.0734564823664527
2787.0579,1.037231826780065
2788.2428,1.9490180920633122
2789.427,3.3588338517668177
2790.6106,0.6666976599510832
2791.7935,1.0226280370882463
2792.9757,3.826643496983486
2794.1573,-0.6212374567842645
2795.3382,2.929003641097516
2796.5184,-1.6726085378964655
2797.698,2.223950648418473
2798.8769,1.968722551586275
2800.0551,-1.738251499088605
2801.2327,-0.2969301939888993
2802.4096,-1.0572548583649137
2803.5859,0.13083614886567574
2804.7615,2.817415030761225
2805.9364,0.7525539890717141
2807.1106,1.7363251973730485
2808.2842,7.468800821715547
2809.4572,4.900053010786344
2810.6294,6.780153838584546
2811.801,5.359175330108769
2812.972,7.6371894425560924
2814.1423,8.064268079531807
2815.3119,12.690483068269373
2816.4808,13.265906155359609
2817.6491,19.09060896048849
2818.8167,16.914662970682954
2819.9837,21.538139482063897
2821.15,26.7611096216056
2822.3157,30.033644300900946
2823.4807,36.00581416393176
2824.645,36.87768955434339
2825.8086,46.249340455723136
2826.9716,50.07083648288136
2828.134,60.34224678813509
2829.2957,63.41364002309303
2830.4567,70.73508423594136
2831.617,75.50664684072996
2832.7767,78.52839454415778
2833.9358,80.45039329785742
2835.0941,77.17270826817747
2836.2519,70.89540381696266
2837.4089,70.81854353433056
2838.5653,66.1421903014448
2839.7211,58.166406291283565
2840.8761,56.691253015403134
2842.0306,60.616791403695785
2843.1843,57.84308181914126
2844.3374,57.02018401855142
2845.4899,63.4481571803073
2846.6417,62.52705991258815
2847.7928,62.30695018909162
2848.9433,66.73788535824482
2850.0931,63.61992214540534
2851.2422,70.10311660855194
2852.3907,67.98752416946422
2853.5385,70.72319954889053
2854.6857,72.16019678770415
2855.8323,73.89856921954623
2856.9781,75.53836945645604
2858.1233,72.97964937148717
2859.2679,83.97246008230951
2860.4118,83.71685197679656
2861.555,84.51287460309717
2862.6976,88.66057667219174
2863.8395,89.31000604993189
2864.9808,88.56120971556352
2866.1214,90.01423375523248
2867.2614,93.51912336947257
2868.4007,90.12592285867518
2869.5393,93.13467558804048
2870.6773,96.89542402150953
2871.8146,94.6082096916765
2872.9513,100.42307316218145
2874.0874,102.64005405058231
2875.2227,106.05919097020633
2876.3574,103.93052150798022
2877.4915,107.10408219023893
2878.6249,105.02990850401203
2879.7577,107.60803486528842
2880.8898,110.98849463975787
2882.0212,111.07132011702984
2883.152,113.85654247682886
2884.2821,110.79419178816624
2885.4116,114.634296981488
2886.5405,119.67688587929807
2887.6686,118.2219851577576
2888.7962,119.76962029625881
2889.923,118.61981559197415
2891.0493,119.67259414437976
2892.1748,118.42797786675379
2893.2997,115.18598747564845
2894.424,122.04664250333614
2895.5476,118.80996133022944
2896.6706,118.37596111627447
2897.7929,119.29465783331779
2898.9145,118.91606626944632
2900.0355,121.6902000198005
2901.1559,117.96707149036011
2902.2756,120.14669187020294
2903.3946,117.87907116873606
2904.513,114.5142181938997
2905.6308,119.0021405748434
2906.7479,115.64284479557445
2907.8643,116.08633615007886
2908.9801,118.6826187759141
2910.0953,120.48169564977438
2911.2098,116.08356856152773
2912.3236,117.4382380962252
2913.4368,116.14570367808216
2914.5494,119.1559635569317
2915.6613,112.96901482114976
2916.7725,112.43485336755276
2917.8831,111.0034739632669
2918.9931,106.6248702510699
2920.1024,105.79903476370478
2921.211,110.27595896766589
2922.319,101.30563327145721
2923.4264,99.58804698082315
2924.5331,103.12318838845184
2925.6391,101.91104479115103
2926.7445,99.75160245449649
2927.8493,103.04484662495366
2928.9534,96.74076155147196
2930.0569,105.28933045255238
2931.1597,103.59053557928826
2932.2619,102.84435812987972
2933.3634,107.0007782666215
2934.4643,107.05977512336476
2935.5645,107.82132676395295
2936.6641,110.28541018163179
2937.763,113.7020012914337
2938.8613,107.32107490553707
2939.959,107.59260469910026
2941.056,102.16656327407097
2942.1523,96.14292215647072
2943.248,94.5716518506556
2944.3431,85.10272189955236
2945.4375,81.13610090037132
2946.5313,80.02175659929553
2947.6244,67.90965593114706
2948.7169,62.09976503053043
2949.8087,57.24204935295357
2950.8999,50.38647373292683
2951.9904,50.183002432540036
2953.0803,48.1315992100183
2954.1696,41.932227321756756
2955.2582,40.13484954283452
2956.3462,38.3894282290085
2957.4335,36.39592533468707
2958.5202,43.80430243038435
2959.6062,37.064520722655175
2960.6916,37.32654098001143
2961.7764,38.89032360031977
2962.8605,39.30582860818148
2963.9439,40.32301563929465
2965.0267,39.14184393629906
2966.1089,36.06227233860441
2967.1905,37.984259294201934
2968.2714,35.207762890460174
2969.3516,39.032740834905056
2970.4312,34.209150482984924
2971.5102,39.5369487998207
2972.5885,34.1160924084418
2973.6662,35.94653753650822
2974.7432,35.27824007051902
2975.8196,41.06115553750788
2976.8954,34.845239111726116
2977.9705,37.180445556813496
2979.045,36.716729287957364
2980.1188,35.10404434854071
2981.192,37.89234441477921
2982.2645,34.931582811848074
2983.3364,36.62171248599914
2984.4077,35.9126860341684
2985.4783,32.70445568707477
2986.5483,29.396973316310255
2987.6177,31.440190466422365
2988.6864,30.18405838798888
2989.7545,29.378528017185644
2990.8219,25.123549988347946
2991.8887,20.519074642025814
2992.9548,22.71505206753376
2994.0204,15.011432148995588
2995.0852,17.758164543384563
2996.1495,11.305198757559673
2997.2131,12.152484120798249
2998.276,12.349969849325664
2999.3383,9.747605037842462
3000.4,7.295338657549475
3001.4611,5.393119582171526
3002.5215,9.190896612480007
3003.5812,4.038618495315166
3004.6404,2.7362338856082786
3005.6989,3.1336913979044496
3006.7567,1.5809396193864735
3007.8139,2.7279271059002284
3008.8705,0.8746023974822101
3009.9264,0.17091400688967795
3010.9818,1.1168104381338821
3012.0364,2.4122401935169435
3013.0905,3.3071517641728683
3014.1439,-0.04850638288669984
3015.1966,1.7452141862783677
3016.2487,0.9382623901869422
3017.3002,0.38058712990577703
3018.3511,0.9721372971189979
3019.4013,-3.337138220295124
3020.4509,-0.49729054417967333
3021.4998,0.4916625416330547
3022.5481,0.4797082212432926
3023.5958,2.066833673834683
3024.6428,-0.24697392620621272
3025.6892,1.888272574838858
3026.735,-0.027437202042335684
3027.7802,1.7558863452552558
3028.8247,2.588233092934317
3029.8685,0.8195928996386783
3030.9118,1.049955598129845
3031.9544,-0.9206889870266082
3032.9963,-0.29235104176465043
3034.0376,0.6349684456647147
3035.0783,3.811271407597385
3036.1184,1.3365597700195764
3037.1578,-0.4891645791951902
3038.1966,3.8341002344610153
3039.2348,0.4563609722502484
3040.2723,3.0776243570935797
3041.3092,3.8478971073484907
3042.3455,2.2171859105962177
3043.3811,5.435497415939022
3044.4161,1.2028382503073018
3045.4505,3.2692149862764914
3046.4842,1.63463418439364
3047.5173,4.949102372513632
3048.5498,1.3126260621450427
3049.5816,3.8752117153053973
3050.6128,4.286865780885989
3051.6434,2.497594669025993
3052.6734,3.257404746995938
3053.7027,2.6663023570904194
3054.7314,3.5742938090299816
3055.7594,5.881385385872171
3056.7868,5.087583334931594
3057.8136,4.442893844709008
3058.8398,5.3973230528293605
3059.8653,6.500877052488654
3060.8902,8.153561882909678
3061.9145,8.055383518306463
3062.9381,8.356347851357437
3063.9612,5.756460694187192
3064.9835,8.905727775356834
3066.0053,9.75415476586287
3067.0264,7.851747247644536
3068.0469,7.698510705099517
3069.0668,9.694450544108038
3070.086,8.739572093565226
3071.1046,8.083880585421687
3072.1226,9.577381164232325
3073.1399,7.720078893713234
3074.1567,8.61197874180671
3075.1727,10.453085599254267
3076.1882,9.093404270677642
3077.203,5.63293945616773
3078.2173,8.47169576488139
3079.2308,4.059677749646102
3080.2438,4.696889878572389
3081.2561,4.183336579174009
3082.2678,6.8190222319958345
3083.2789,6.753951175749368
3084.2893,4.038127680955906
3085.2991,4.721555950597239
3086.3083,4.504240147273883
3087.3169,6.736184386370796
3088.3248,5.26739273823055
3089.3321,3.8478692058338595
3090.3388,4.627617739487533
3091.3449,2.7566422510196915
3092.3503,5.0849466059822745
3093.3551,7.912534642360816
3094.3593,4.389410147291375
3095.3629,5.815576828784687
3096.3658,5.891038350957375
3097.3681,6.66579831977031
3098.3698,6.139860282273977
3099.3708,4.013227718860891
3100.3713,4.285904048524964
3101.3711,7.857892650127836
3102.3702,8.179196859672105
3103.3688,4.349819934581452
3104.3667,4.319765050487595
3105.364,3.3890353395240584
3106.3607,1.2076338906267239
3107.3568,5.525563758841114
3108.3522,6.892827987136428
3109.347,1.7594295632262167
3110.3412,3.1253714058957556
3111.3348,0.6906564163360329
3112.3277,2.405287464484328
3113.32,3.419267413371351
3114.3117,4.6325991019749555
3115.3028,2.8452853350803142
3116.2932,3.3573288711466205
3117.2831,3.0687324401802094
3118.2723,3.1794987386141482
3119.2608,3.0896304321941717
3120.2488,-0.0008698451289532727
3121.2361,2.408000509699228
3122.2229,4.56624410842293
3123.209,3.173863538706362
3124.1944,4.880861342551292
3125.1793,3.887240030220859
3126.1635,3.54300206316959
3127.1471,5.6981498639796175
3128.1301,4.252685819803058
3129.1125,1.7066122608105232
3130.0942,1.0099314746457768
3131.0753,3.862645731886465
3132.0558,1.5147572930109172
3133.0357,2.4662683798710097
3134.015,3.667181199171048
3134.9936,1.1674979329526556
3135.9716,3.16722072658565
3136.949,0.46635171376486717
3137.9258,0.8148929965129446
3138.902,3.7628466721890046
3139.8775,3.360214830003237
3140.8524,2.4569995215373712
3141.8267,0.5032027647709914
3142.8004,2.398826553113693
3143.7735,6.593872874943043
3144.7459,4.688343694648347
3145.7178,1.5322409106801889
3146.689,5.625566374605714
3147.6596,-0.5816780773303378
3148.6295,3.460509334861115
3149.5989,4.752136202133135
3150.5676,2.5932100808337033
3151.5357,5.533738479789436
3152.5032,3.273728881894856
3153.4701,3.9131887147070996
3154.4364,3.4521253730460177
3155.402,3.990546212599577
3156.367,4.3284585545344925
3157.3315,4.565869680112023
3158.2952,3.952786827308846
3159.2584,2.33921718844294
3160.221,3.1251679163044184
3161.1829,4.110646140291225
3162.1442,4.095658958549629
3163.105,3.4802134281194412
3164.065,5.114316565083881
3165.0245,3.2479753507240314
3165.9834,4.531196715177825
3166.9416,6.113987556103432
3167.8993,6.646354725847059
3168.8563,3.228305015615044
3169.8127,5.209845150150178
3170.7684,5.740981821912202
3171.7236,3.72172167126241
3172.6782,6.002071281152274
3173.6321,3.0820371973160534
3174.5854,4.411625905467294
3175.5381,7.090843860499174
3176.4902,5.869697473188609
3177.4417,4.148193083404083
3178.3926,4.726336972317098
3179.3428,3.7041353796172274
3180.2924,7.681594497730681
3181.2415,4.758720482042314
3182.1899,5.735519411121038
3183.1377,4.861997315948559
3184.0848,3.2881601701513965
3185.0314,5.964013898736094
3185.9773,4.239564393827595
3186.9227,3.564817487910705
3187.8674,2.439778971074586
3188.8115,3.014454597760227
3189.755,10.988850098010833
3190.6979,4.162971171725062
3191.6402,5.086823408913075
3192.5818,6.010412357955316
3193.5229,3.633743516364002
3194.4633,6.956822321547223
3195.4031,2.5796541745756363
3196.3423,3.752244406951678
3197.2809,3.774598324381241
3198.2189,3.746721195047778
3199.1563,4.318618249388753
3200.0931,4.440294680374423
3201.0292,5.411755637788868
3201.9648,6.083006227013222
3202.8997,1.8540514993110624
3203.834,4.824896445115908
3204.7677,3.845546036320762
3205.7008,4.366005196569659
3206.6333,3.386278811051172
3207.5652,4.756371721293822
3208.4964,5.726288734963342
3209.4271,6.246034612161752
3210.3571,3.965614055728188
3211.2865,7.3850317060414365
3212.2154,7.104292163824145
3213.1436,7.873399955948639
3214.0712,8.492359538244308
3214.9982,6.611175287806545
3215.9246,6.2798514968071375
3216.8503,5.848392391306125
3217.7755,3.8168021345650334
3218.7001,5.73508483136146
3219.624,5.553244548304987
3220.5473,6.821285294654342
3221.4701,8.08921102413581
3222.3922,4.707025622262825
3223.3137,5.4247328936567065
3224.2346,7.142336595868517
3225.1549,5.009840432201997
3226.0746,6.277248034537511
3226.9937,2.6445629846570267
3227.9121,6.661788801570025
3228.83,4.428928977840362
3229.7473,5.995986939414001
3230.6639,5.862966067947617
3231.5799,4.979869685138016
3232.4954,8.396701054052343
3233.4102,6.663463387959045
3234.3244,6.730159816159556
3235.238,6.09679340132068
3236.151,7.263367138807618
3237.0634,8.32988396301764
3237.9752,8.346346735714341
3238.8864,4.812758235362479
3239.797,8.579121156963343
3240.7069,8.695438147390636
3241.6163,5.961711767726852
3242.5251,8.627944492100104
3243.4332,6.344138735021382
3244.3408,7.960296824722231
3245.2477,4.3764210259928085
3246.154,6.392513524020302
3247.0598,6.3085764602276875
3247.9649,8.124611912112808
3248.8694,8.590621894087736
3249.7733,8.306608339318426
3250.6766,8.722573095064613
3251.5793,7.288517925519942
3252.4814,9.304444507652331
3253.3829,7.620354445544517
3254.2838,6.086249250234786
3255.1841,8.252130356557885
3256.0838,7.867999138486062
3256.9829,7.583856887470265
3257.8814,7.649704816281448
3258.7792,6.2155440618519915
3259.6765,6.281375684617232
3260.5731,7.497200682857059
3261.4692,6.763019992037606
3262.3647,7.678834472652996
3263.2595,6.994644917567154
3264.1538,6.110452042855659
3265.0474,3.7262564946476386
3265.9404,7.142058857967702
3266.8329,9.357859680577892
3267.7247,9.823659438819659
3268.616,7.489458515455858
3269.5066,8.205257195012747
3270.3966,6.771055687122001
3271.286,5.986854119362711
