RamanShift,CorrectedData
30.1047,1184.7742043888545
32.3739,1095.4617011331804
34.6426,1010.7991860297643
36.9109,923.1366362762469
39.1787,838.8240189622773
41.4461,755.8112919461373
43.7131,668.8984046978693
45.9796,585.7352991294016
48.2456,501.1219104636781
50.5112,419.4581680662893
52.7764,338.49399629160655
55.0411,250.22931529941928
57.3054,169.76404186457674
59.5692,86.84809025963509
61.8326,5.681373059509909
64.0955,-73.98619802936403
66.3579,-152.0047113573657
68.6199,-226.97351615275593
70.8815,-283.6404431167291
73.1426,-297.60105548505373
75.4032,-171.29808292547136
77.6634,255.12871792882072
79.9231,1404.0913017124726
82.1824,3962.0016205088477
84.4412,8597.221612360398
86.6995,14973.163175689555
88.9574,21166.788122946542
91.2148,25284.05811684994
93.4717,27090.384608450473
95.7282,27223.828795958252
97.9842,26828.251606679565
100.2398,25961.76369568241
102.4949,25054.47544975226
104.7495,23971.796996056968
107.0036,22923.73821121961
109.2573,22021.70873214532
111.5105,21107.617966501828
113.7632,20277.125101739788
116.0154,19586.33911423368
118.2672,19067.31877758672
120.5185,18573.47266953875
122.7693,18093.85917715641
125.0197,17735.08650177163
127.2696,17318.76266377774
129.519,17046.845506217203
131.7679,16695.192698944866
134.0163,16305.46174134712
136.2642,15859.159965858425
138.5117,15426.194541858637
140.7587,14987.122480136
143.0052,14579.150637216828
145.2512,14166.835719756204
147.4967,13752.484288617703
149.7417,13412.152762996551
151.9863,13152.697424563125
154.2304,12936.674420866282
156.4739,12687.9397679279
158.717,12496.04935240313
160.9596,12243.108934067706
163.2017,11884.22414773689
165.4433,11516.75050579484
167.6844,11068.093401783484
169.925,10679.008114077245
172.1651,10216.449810369608
174.4047,9843.673551563981
176.6439,9517.584296399278
178.8825,9176.286905177676
181.1206,8988.086143025514
183.3582,8701.036683306262
185.5954,8526.293109502529
187.832,8392.75991808656
190.0681,8287.941520267672
192.3037,8155.692243327579
194.5388,8094.516331668593
196.7734,8064.767948136098
199.0075,8053.251174630318
201.2411,8088.6700124038
203.4742,8115.2283821765795
205.7068,8178.530123781997
207.9389,8224.328995901116
210.1704,8342.278675429698
212.4015,8398.53275702021
214.632,8461.194751902345
216.862,8526.768087320466
219.0915,8573.65610590699
221.3205,8651.86206502666
223.549,8718.439136307654
225.777,8772.840404859533
228.0044,8879.668868607478
230.2314,9037.227437748255
232.4578,9160.46893368195
234.6837,9285.746087436377
236.909,9310.211538434656
239.1339,9210.067833242463
241.3582,9067.067425323356
243.582,8836.86267604022
245.8053,8636.055856085264
248.0281,8453.349147782079
250.2503,8287.144647093693
252.472,8241.14436544965
254.6932,8268.150231408057
256.9139,8273.064091115579
259.134,8373.937708037382
261.3536,8504.622762907995
263.5727,8734.820852722569
265.7912,8862.483489430035
268.0092,9039.36209763111
270.2267,9148.058013301685
272.4436,9204.122482024031
274.6601,9116.106657899836
276.8759,8960.211602989579
279.0913,8821.288288192665
281.3061,8648.037594806392
283.5204,8561.360315915179
285.7341,8480.207158123078
287.9473,8485.37874242053
290.16,8533.725604995914
292.3721,8604.648197183837
294.5837,8842.446884981637
296.7947,9054.821948340186
299.0052,9151.723578785884
301.2152,9012.851877296915
303.4246,8795.25685333423
305.6334,8311.188426230261
307.8418,7818.696427364886
310.0495,7372.280605006106
312.2568,6895.140629234951
314.4635,6438.026096409656
316.6696,6116.9865339370535
318.8752,5872.021404843721
321.0802,5808.1301109863725
323.2847,5749.211995501513
325.4887,5749.166343444354
327.692,5687.842382377979
329.8949,5585.089282373816
332.0972,5347.206156624872
334.2989,5052.69206247327
336.5001,4769.246003789072
338.7007,4480.916933915418
340.9008,4273.553758502996
343.1003,4095.405338393328
345.2992,3965.570491692408
347.4976,3830.597995552169
349.6955,3701.5365874688523
351.8927,3680.18496663272
354.0895,3551.9417952186723
356.2856,3528.0556985997646
358.4812,3459.6252666296405
360.6763,3404.9990538813927
362.8707,3359.225580331864
365.0646,3371.753331907914
367.258,3336.130760944161
369.4508,3377.5562860576883
371.643,3465.77829250427
373.8346,3485.7951317641255
376.0257,3533.805120659694
378.2162,3487.2565411554624
380.4062,3435.8476398778657
382.5956,3269.6266285807833
384.7844,3145.9916846596334
386.9726,2976.8409528135653
389.1603,2861.9225462818267
391.3474,2775.3845485352504
393.5339,2740.275014425455
395.7199,2631.2419710502145
397.9052,2653.533418104551
400.09,2681.5473289710717
402.2743,2807.8316504970535
404.4579,2929.53430271431
406.641,3103.853177576335
408.8235,3257.986137741278
411.0054,3435.381014828765
413.1868,3643.535607878566
415.3675,3731.8476815766408
417.5477,3767.8149641736018
419.7273,3722.9351466015833
421.9064,3616.455882114584
424.0848,3521.5247867372436
426.2627,3273.139440329651
428.4399,3072.4973875366522
430.6166,2709.0961402717076
432.7928,2305.7331797233073
434.9683,1973.105959988996
437.1432,1695.9619121089818
439.3176,1497.1984473924222
441.4914,1389.3129601888522
443.6645,1310.6028298758374
445.8371,1234.4654219377971
448.0091,1174.948088753139
450.1806,1151.848170355619
452.3514,1092.0629950295115
454.5216,1095.0898795406156
456.6913,1066.6761297341
458.8603,1100.8690405042416
461.0288,1133.5158960785502
463.1967,1108.1139696758528
465.3639,1124.610523179821
467.5306,1140.4528073929869
469.6967,1174.0380618717863
471.8622,1229.0135147681303
474.0271,1283.9763824935653
476.1914,1304.823869169495
478.3551,1288.6031660775734
480.5182,1320.8614514512228
482.6807,1356.0958906378346
484.8426,1527.1536357761943
487.0039,1854.2318254441288
489.1647,2235.627582947942
491.3248,2558.7380130516267
493.4843,2713.4601981628985
495.6432,2679.4411951021066
497.8015,2520.5280335549996
499.9592,2441.7177164129207
502.1163,2233.8072213619344
504.2728,1937.4435016709376
506.4287,1653.123488270754
508.5839,1268.144092717781
510.7386,998.6022100371865
512.8927,873.7947225727003
515.0461,840.7185026820353
517.199,878.3204139849531
519.3512,1036.5473116940411
521.5029,1253.8460422386834
523.6539,1487.0134416827914
525.8043,1586.696333551823
527.9541,1493.6915265011012
530.1033,1351.0458133189932
532.2519,1229.1059718569577
534.3999,1212.2687664560071
536.5472,1313.8809491660995
538.694,1575.4892599145023
540.8401,1919.490425489681
542.9856,2202.9811569252197
545.1305,2261.108146059805
547.2748,2158.9680627023117
549.4185,1917.7075540505411
551.5615,1737.3732457126189
553.704,1691.4617441195987
555.8458,1777.0196383288076
557.987,1931.3935004829527
560.1276,2113.1798849545576
562.2675,2425.62532680221
564.4069,2809.17633995271
566.5456,3199.8294140766066
568.6837,3333.381010752697
570.8212,2958.0275595614803
572.958,2307.515456749663
575.0942,1733.3410689836728
577.2299,1352.750739854795
579.3648,1175.290795620911
581.4992,1129.3575490123858
583.6329,1248.5473010066908
585.766,1421.8063412877273
587.8985,1572.63094705392
590.0304,1594.9173812856352
592.1616,1567.2618912369326
594.2922,1448.1107082127019
596.4222,1247.0600478452125
598.5515,1033.3561112856369
600.6802,873.5950872145477
602.8083,704.7231539789664
604.9358,696.2364811899606
607.0626,702.0312314113762
609.1888,767.6035602447027
611.3144,886.5996162711181
613.4393,998.9655403957768
615.5636,1043.097464657847
617.6873,1051.191511106852
619.8103,979.6437913613354
621.9327,817.4504065279416
624.0544,637.2574479168798
626.1756,477.01099866385266
628.2961,365.0571355320044
630.4159,311.9419305143747
632.5351,245.96145195343524
634.6537,236.511765072235
636.7716,252.48893263421814
638.8889,228.08901503771085
641.0056,303.408070156147
643.1216,305.09215358208166
645.237,282.33731787399665
647.3518,219.38961253944944
649.4659,150.09508426263528
651.5793,112.84977753387648
653.6922,101.04973534253804
655.8043,101.34099954949852
657.9159,89.4696110051409
660.0268,65.88160954643718
662.137,54.473034115681
664.2466,54.03992299634956
666.3556,65.52831392720691
668.4639,13.184244106612823
670.5716,-18.54624992234676
672.6786,-0.4171317484269821
674.785,-18.482179683349386
676.8907,-21.495167871698868
678.9958,36.94031417891529
681.1002,-30.979108302401073
683.204,-8.156810455937375
685.3072,12.704142059299556
687.4097,-21.94923492916496
689.5115,-52.419925720838364
691.6127,-29.3606953423714
693.7132,-67.37378514536795
695.8131,-63.36114316808198
697.9123,-62.97404438467129
700.0109,-38.013130791478034
702.1089,8.271584725851426
704.2061,54.43046903284812
706.3028,110.66388891233328
708.3987,174.6722106028301
710.4941,218.50579923623445
712.5887,315.0650181977253
714.6827,450.5502286874307
716.7761,647.7617887548349
718.8688,870.7000519439262
720.9608,1025.8153653210757
723.0522,1183.0580672456617
725.1429,1198.2284858189068
727.233,1187.9269373114585
729.3224,1183.60372601169
731.4112,1111.0091443287129
733.4993,960.8934728356035
735.5867,751.4569809953573
737.6735,538.399928662031
739.7596,376.27256817512716
741.845,260.92514649014447
743.9298,207.70790679986203
746.014,151.52108968780703
748.0974,190.9149336604405
750.1802,166.63967570901514
752.2624,210.04555091563816
754.3439,265.23279269603336
756.4247,367.2516323654618
758.5048,554.0022985868745
760.5843,869.535016350701
762.6631,1265.5000051073548
764.7413,1863.847475611903
766.8188,2578.127625964411
768.8956,3146.540635626481
770.9718,3535.4366582784387
773.0473,3478.4658161352127
775.1221,3217.478196057362
777.1962,2919.3738501207936
779.2697,2778.5527982266394
781.3426,2851.915031082299
783.4147,3008.2105116096463
785.4862,3125.089174211407
787.557,3010.350923208216
789.6271,2560.045631669811
791.6966,1961.523142562437
793.7654,1341.9832732518807
795.8335,943.7258214887024
797.901,658.5005716036321
799.9678,525.4072984901377
802.0339,434.645770456691
804.0993,413.81575055768917
806.1641,378.16699750107364
808.2282,299.89926585663306
810.2916,268.91230641247967
812.3544,171.90586695774255
814.4164,113.82969259242418
816.4778,153.18352669747946
818.5385,197.117111515563
820.5986,344.1301877575024
822.658,569.9724941629611
824.7166,918.7937660303032
826.7747,1380.1437329581677
828.832,1877.772115357271
830.8886,2243.678619836892
832.9446,2440.362934228593
834.9999,2316.5747239271586
837.0545,2070.463629923739
839.1085,1826.179270043749
841.1618,1561.3212414079662
843.2143,1367.489122875384
845.2662,1184.232477691783
847.3175,1054.8508554280634
849.368,949.8937938128001
851.4179,851.3108200260594
853.467,745.9014517489868
855.5155,695.4151981496216
857.5633,620.6515609369944
859.6105,533.6100348659911
861.6569,453.24010848499347
863.7027,392.84126500628554
865.7478,375.71298310974635
867.7922,341.7547375468512
869.8359,354.4159993119447
871.8789,402.7962359818339
873.9212,487.344911589169
875.9629,639.4614861386435
878.0039,778.245414761499
880.0441,875.8961461943709
882.0837,941.0131213914392
884.1226,943.8457725479257
886.1609,987.4935224489236
888.1984,1062.605784441068
890.2352,1175.781961996061
892.2714,1165.521447959558
894.3069,1170.6736234194013
896.3416,1036.3878578082222
898.3757,901.9135088519251
900.4091,856.849923912534
902.4418,853.1464413329413
904.4739,878.0023908875464
906.5052,926.017093819286
908.5358,891.2898625910839
910.5658,763.4200004056875
912.595,574.0068015529523
914.6236,374.89955268853737
916.6515,263.99753472803786
918.6786,189.40002483805438
920.7051,204.70629754521724
922.7309,292.5156254821668
924.756,335.07727923448147
926.7804,425.84052646259806
928.8041,407.90463147618357
930.8272,479.8688543265034
932.8495,454.2824509857892
934.8711,465.6946726275837
936.892,418.80476588260535
938.9123,356.0619727246376
940.9318,373.4155309394173
942.9506,357.8646747520652
944.9688,296.75863465354996
946.9862,230.39663755620677
949.003,92.37790740479068
951.019,41.90166584009239
953.0344,-3.032866420875507
955.0491,4.323530919898985
957.063,97.47010845875229
959.0763,186.45611674879729
961.0888,227.93080536844536
963.1007,298.1434220315532
965.1119,344.09321217267825
967.1223,360.97941824494046
969.1321,323.7512792605394
971.1412,370.9080306218839
973.1495,349.7489044938811
975.1572,352.67312933235735
977.1641,420.279930095654
979.1704,401.26852821538705
981.1759,361.9881409203899
983.1808,413.3379814268046
985.1849,454.2172593309024
987.1884,534.1251800955797
989.1911,640.3109446415729
991.1932,776.8237485483587
993.1945,793.612780992311
995.1951,777.5772233815751
997.1951,777.1662491881707
999.1943,711.0290241083567
1001.1928,736.0647060667288
1003.1906,766.2724458776029
1005.1877,893.7013869946586
1007.1841,959.4006652088392
1009.1798,989.769407374084
1011.1748,891.2567307503268
1013.1691,734.5117426998186
1015.1627,531.9835416722453
1017.1556,316.1712187721714
1019.1477,205.0738597843265
1021.1392,116.14054733173907
1023.1299,132.7203619867014
1025.12,136.71238316011477
1027.1093,190.61568893567528
1029.0979,325.5293560299615
1031.0859,440.2024592533926
1033.0731,467.4340701611054
1035.0596,435.9732559062086
1037.0454,306.5190789674798
1039.0304,248.370597463967
1041.0148,101.27686644952155
1042.9985,28.486938494304923
1044.9814,-19.50013484428564
1046.9636,-81.985302293715
1048.9452,-64.01931777510617
1050.926,-27.70211617642053
1052.9061,-14.582992832631135
1054.8855,36.08903366542472
1056.8642,65.06509041100071
1058.8421,137.54630413647283
1060.8194,171.73380092355728
1062.7959,258.5787054785105
1064.7717,316.88214079025784
1066.7469,382.99522726193754
1068.7213,452.61908212786875
1070.695,530.4048187924254
1072.6679,547.053546133795
1074.6402,561.0163677261298
1076.6117,524.7943816730494
1078.5826,448.8886804680096
1080.5527,375.50035135653525
1082.5221,325.130477095272
1084.4908,339.7801366858548
1086.4587,406.6504058786286
1088.426,466.4923570261435
1090.3925,481.0070584144414
1092.3584,522.9455736646487
1094.3235,508.7589615878278
1096.2879,559.2982757655936
1098.2515,651.0145646919736
1100.2145,844.3588712680212
1102.1767,1018.7822318846502
1104.1382,1249.1856744891938
1106.099,1504.2702168411633
1108.0591,1728.986864208222
1110.0185,1878.236606815337
1111.9771,2012.3204175976134
1113.9351,1873.2892507077959
1115.8923,1728.5940401754233
1117.8488,1562.8357012971483
1119.8045,1365.3151320836896
1121.7596,1243.2332149174108
1123.7139,1142.9908185275326
1125.6675,1098.8387992109456
1127.6204,1143.0280018346384
1129.5726,1108.7592602772165
1131.524,1041.2833969870062
1133.4748,934.6512233247377
1135.4248,765.4135402383163
1137.3741,649.9211393291407
1139.3226,538.4248045444692
1141.2705,495.7253133323593
1143.2176,414.9234377566281
1145.164,385.9199449238404
1147.1097,319.8655977913386
1149.0546,256.711155457273
1150.9989,196.40737382113366
1152.9424,73.50500621531319
1154.8852,-18.695195991866058
1156.8272,-63.2424821671284
1158.7686,-39.83591491219704
1160.7092,-24.32392503639312
1162.6491,10.59545461174639
1164.5883,108.37443417969553
1166.5267,246.515223708966
1168.4644,430.87003215733785
1170.4014,621.8910660174333
1172.3377,886.7805274731782
1174.2732,1190.8906124895948
1176.2081,1638.1735081639054
1178.1421,2075.031389684438
1180.0755,2568.016415857781
1182.0082,2951.0307247402143
1183.9401,3086.6264287078557
1185.8713,2971.2056106265245
1187.8017,2687.720322495774
1189.7315,2346.3225866031044
1191.6605,1943.814398358827
1193.5888,1640.2477297100195
1195.5163,1519.5745331656344
1197.4432,1414.1467448321491
1199.3693,1397.9662856202995
1201.2947,1345.5350622993574
1203.2193,1324.9049676589348
1205.1432,1346.2778810332966
1207.0664,1335.2556685076688
1208.9889,1332.0401827044989
1210.9106,1327.233262893682
1212.8316,1328.8367350247117
1214.7519,1391.8024117747573
1216.6715,1436.9820925326167
1218.5903,1498.4275627690658
1220.5084,1576.4405935850737
1222.4257,1665.9729410973378
1224.3424,1715.7763456581542
1226.2583,1823.0525309600944
1228.1735,1964.0032035379736
1230.0879,2117.2800516960815
1232.0016,2321.234744098687
1233.9146,2438.5689282372587
1235.8269,2455.7842283909267
1237.7384,2379.8322444531295
1239.6492,2271.3645517594687
1241.5592,2235.732701847228
1243.4686,2267.0882235400513
1245.3772,2399.7826233042633
1247.285,2626.667384935312
1249.1922,2767.7939682308206
1251.0986,2916.0638067217387
1253.0042,2978.6283062610783
1254.9092,3101.488843541216
1256.8134,3218.196765468252
1258.7169,3359.5033879334005
1260.6196,3557.409994645912
1262.5216,3785.817835720015
1264.4229,3992.7781256958333
1266.3234,4200.392041255316
1268.2232,4364.210719152639
1270.1223,4431.485254138059
1272.0207,4493.866697319735
1273.9183,4475.656055490976
1275.8151,4400.054290506432
1277.7113,4411.562319464198
1279.6067,4488.0810154618275
1281.5014,4663.611207481254
1283.3953,4995.453679623606
1285.2885,5422.159169353901
1287.181,5872.178364182627
1289.0727,6328.961897398682
1290.9637,6639.810343569184
1292.854,6860.874213971643
1294.7435,6889.103953485468
1296.6323,6821.299938381328
1298.5204,6769.112476038854
1300.4077,6678.141805624691
1302.2943,6507.288098614361
1304.1802,6251.851459701973
1306.0653,5859.881928508763
1307.9497,5413.929482137457
1309.8333,5060.844039091957
1311.7162,4757.075463736879
1313.5984,4590.923569828405
1315.4798,4509.988123551961
1317.3605,4427.268845183745
1319.2405,4345.065409900074
1321.1197,4117.127448604591
1322.9982,3871.4545487502846
1324.876,3627.1962566188668
1326.753,3381.252079777518
1328.6293,3205.2214895214556
1330.5048,3090.2539233333737
1332.3796,2976.9987866437605
1334.2537,2865.505453980565
1336.127,2826.42327010175
1337.9996,2776.001551110221
1339.8714,2804.4395848446657
1341.7426,2820.736631383749
1343.6129,2857.291922761742
1345.4826,2884.8546628055565
1347.3515,2910.074026769181
1349.2196,2909.8491610580677
1351.087,2951.4291829769236
1352.9537,3001.763180731973
1354.8197,3108.7502130151543
1356.6849,3314.4393085007714
1358.5493,3486.379464775635
1360.4131,3658.3196462821543
1362.276,3797.2587825989613
1364.1383,3811.8457667214907
1365.9998,3611.4294536725993
1367.8606,3280.708660356687
1369.7206,2958.082167563861
1371.5799,2625.7487232771527
1373.4384,2352.15704589877
1375.2962,2156.3058275734365
1377.1533,1838.9437369243024
1379.0096,1508.669421011471
1380.8652,1171.28150850561
1382.7201,880.2786129906945
1384.5742,662.5593363378885
1386.4275,485.52227161557494
1388.2802,357.51600526654875
1390.132,260.0391188783815
1391.9832,197.84019046349385
1393.8336,112.81779543391985
1395.6832,102.6705072232935
1397.5322,84.4468981370701
1399.3803,55.64553945401258
1401.2278,45.81500160841642
1403.0745,55.7038544781326
1404.9204,52.86066748286248
1406.7656,105.98400948527797
1408.6101,136.3224488194437
1410.4538,181.07455275959455
1412.2968,253.2888872167423
1414.139,311.1640162911517
1415.9805,437.59850155020104
1417.8213,523.3909014496348
1419.6613,627.189770069217
1421.5006,810.593656254804
1423.3391,1051.2511025803633
1425.1769,1355.2106435139285
1427.0139,1807.9208030110294
1428.8502,2381.7300914750895
1430.6858,2956.837001230323
1432.5206,3402.8900007836555
1434.3547,3663.8875290736423
1436.188,3709.5279910099416
1438.0206,3645.9097548633354
1439.8524,3521.48115180934
1441.6835,3411.1904765643685
1443.5139,3339.1359886300334
1445.3435,3256.165913396043
1447.1724,3256.6784428607425
1449.0005,3232.171736460824
1450.8279,3169.0439210662025
1452.6545,3167.993091225073
1454.4804,3223.567309795193
1456.3056,3266.4146079544
1458.13,3184.782984644852
1459.9536,2999.6204061445696
1461.7766,2778.2248068837343
1463.5987,2413.494091296332
1465.4202,2104.126136034106
1467.2409,1755.5687936138647
1469.0608,1507.0198955111518
1470.88,1263.1772556458327
1472.6984,1048.2886728675758
1474.5161,855.101933394285
1476.3331,726.5648129609754
1478.1493,618.225078751645
1479.9648,542.9804906846475
1481.7795,477.978802496089
1483.5935,426.31776249227096
1485.4067,392.24511419971077
1487.2192,368.7585968817484
1489.031,330.3059458792759
1490.842,318.7848928455978
1492.6522,316.1431661309616
1494.4618,269.0784908977721
1496.2705,265.18858914700377
1498.0785,249.32118018884557
1499.8858,214.5239806816062
1501.6924,197.34470479037918
1503.4981,200.98106453502896
1505.3032,199.48076996197415
1507.1075,130.3915291078256
1508.911,116.66104801439269
1510.7138,102.83703141957267
1512.5159,71.81718289465607
1514.3172,49.99920498256961
1516.1178,6.030799508065684
1517.9176,7.559667795907444
1519.7166,1.6335111105527176
1521.515,-37.64996935913496
1523.3126,-33.74307244062675
1525.1094,-17.897720838206624
1526.9055,-42.11550016286583
1528.7008,-23.247817227365886
1530.4954,-55.04565811062821
1532.2893,-34.95977664588463
1534.0824,-50.09037676024309
1535.8747,-28.787313132647796
1537.6663,-14.649940039174908
1539.4572,-3.0273241706527187
1541.2473,3.5816141349932877
1543.0367,48.277984782806016
1544.8253,42.8128976420121
1546.6132,89.53746209906421
1548.4003,131.95278711229003
1550.1867,220.45998074465024
1551.9723,288.660149739575
1553.7572,394.0543986359007
1555.5414,514.893829085865
1557.3247,681.6295388011658
1559.1074,870.7126203445614
1560.8893,1020.1941594625205
1562.6705,1163.375233194387
1564.4509,1335.9069083775676
1566.2305,1439.3402402157217
1568.0094,1472.476270553444
1569.7876,1522.66602684193
1571.565,1513.3605218076127
1573.3417,1505.8107529502695
1575.1176,1510.0677026360781
1576.8928,1539.4323381731047
1578.6672,1531.7056117687398
1580.4409,1550.4384602360515
1582.2138,1582.3318050710532
1583.986,1637.7365522653754
1585.7575,1675.353591987332
1587.5282,1768.5837980278811
1589.2981,1876.6780274244502
1591.0673,1962.0371195286325
1592.8358,2065.8618949252414
1594.6035,2194.5031545787187
1596.3704,2305.4116787948833
1598.1366,2419.6882259345175
1599.9021,2532.5335313042888
1601.6668,2634.598306013986
1603.4308,2779.6832358480688
1605.194,2977.6389802450103
1606.9564,3200.616170846458
1608.7182,3456.5654095176697
1610.4791,3786.837266117738
1612.2394,4083.932275940111
1613.9988,4397.600936409858
1615.7576,4696.64370411273
1617.5156,4921.410991658474
1619.2728,5054.303164690398
1621.0293,5013.27053963771
1622.785,4846.91338238658
1624.54,4566.38190869048
1626.2942,4247.976285833745
1628.0477,3858.6966354368915
1629.8005,3520.8930366406803
1631.5525,3230.715529998901
1633.3037,2998.5641208564184
1635.0542,2773.4387822509425
1636.804,2623.5894572345433
1638.553,2487.416061124908
1640.3013,2484.018483003827
1642.0488,2455.046587078932
1643.7955,2510.200212717672
1645.5416,2576.279174737033
1647.2868,2706.583262852002
1649.0313,2830.8122410147735
1650.7751,3006.0658461117127
1652.5181,3208.4937867210674
1654.2604,3402.8457413604283
1656.0019,3656.6213564624477
1657.7427,3913.2202444313207
1659.4828,4204.741981105039
1661.222,4396.0861031893855
1662.9606,4350.502105342736
1664.6984,4149.1894382626
1666.4354,3699.047509141469
1668.1717,3162.6256836799475
1669.9072,2605.323290588163
1671.642,2142.089626949989
1673.3761,1747.123963796067
1675.1094,1442.4755507361479
1676.8419,1185.7436199087424
1678.5737,988.0273890276103
1680.3048,844.6260639490765
1682.0351,716.9388406491935
1683.7646,592.5649066577516
1685.4934,534.203442335157
1687.2215,497.70362211616794
1688.9488,429.3146150935081
1690.6754,380.5355853828669
1692.4012,346.9656928067907
1694.1263,297.5540933824677
1695.8506,287.2499396574367
1697.5742,273.2523812036925
1699.297,242.46056472073087
1701.0191,224.22363417552788
1702.7404,189.59073111045564
1704.461,149.4609948256557
1706.1808,142.93356272536084
1707.8999,138.70757071919797
1709.6182,114.43215328746146
1711.3358,109.85644352337113
1713.0527,90.37957337582839
1714.7688,73.15067369517192
1716.4841,75.7188744279456
1718.1987,59.08330478918651
1719.9126,56.043093236745335
1721.6257,53.29736763763913
1723.338,64.14525529845969
1725.0496,57.035882992824554
1726.7605,62.36837685290266
1728.4706,54.84186244050079
1730.18,42.40546469374749
1731.8886,41.55830800235344
1733.5964,39.5495163319797
1735.3036,46.428213232704366
1737.0099,45.19352185911475
1738.7156,35.394564901514514
1740.4204,12.930464598275194
1742.1246,-1.0496571661778944
1743.8279,-11.496678636724937
1745.5306,5.338532427827886
1747.2325,-13.794776879507936
1748.9336,-5.847359519106249
1750.634,-20.819830641521094
1752.3336,-7.112746982182216
1754.0325,-21.42645728641537
1755.7307,-0.21123924320454535
1757.4281,-4.717156491225069
1759.1247,-8.044270558878907
1760.8206,6.157404149826107
1762.5158,-12.112066406858503
1764.2102,-16.452616332250273
1765.9039,0.335941269875093
1767.5968,-3.5960423426245143
1769.289,13.401784084750489
1770.9804,25.129807730961602
1772.6711,10.18841564095328
1774.361,17.677994608371137
1776.0502,11.798931324980458
1777.7386,23.901612305764502
1779.4263,9.38642394772296
1781.1132,37.35375240883741
1782.7994,31.853983753226657
1784.4849,23.78750367147586
1786.1696,30.85469753562984
1787.8535,39.955950479859894
1789.5367,33.19164732979198
1791.2192,45.96217251149346
1792.9009,38.11791011911737
1794.5818,43.15924378719956
1796.2621,51.53655676909602
1797.9415,61.15023188657324
1799.6202,47.00065144603059
1801.2982,46.8381971423737
1802.9755,63.71325020050017
1804.6519,74.726191376928
1806.3277,67.77740079104387
1808.0027,42.51725781497271
1809.6769,56.74614114306769
1811.3504,61.51442904450914
1813.0231,66.17249922102019
1814.6951,70.52072875918111
1816.3664,89.65949408384904
1818.0369,94.38917091467692
1819.7067,95.41013407472656
1821.3757,75.82275744316985
1823.044,109.62741394507748
1824.7115,97.07447574729395
1826.3783,97.16431392039203
1828.0443,99.54729856419772
1829.7096,104.27379880689523
1831.3741,111.24418278119856
1833.0379,126.25881757708567
1834.701,111.61806917209151
1836.3633,114.82230228116487
1838.0248,119.12188050307714
1839.6856,123.71716628837657
1841.3457,151.60852089639457
1843.005,143.39630434929222
1844.6636,143.6808751531471
1846.3214,151.9125903800773
1847.9785,144.29180566539208
1849.6349,136.86887512527755
1851.2904,149.54415143300093
1852.9453,142.1679858931443
1854.5994,148.74072831485182
1856.2528,151.312727085588
1857.9054,152.88432910541314
1859.5572,168.55587976126162
1861.2083,166.77772291122847
1862.8587,177.25020072784991
1864.5084,181.6736537158872
1866.1572,185.09842060760138
1867.8054,162.22483831851696
1869.4528,193.00324191317713
1871.0994,178.58396483387833
1872.7453,185.86733859288552
1874.3905,178.85369291662482
1876.0349,189.6933556728518
1877.6786,195.6366529407851
1879.3215,201.53390890271203
1880.9637,186.68544578455567
1882.6051,193.2415837968997
1884.2458,192.8526412834749
1885.8858,196.61893465559933
1887.525,202.29077839606452
1889.1634,183.96848502147805
1890.8011,193.05236502553907
1892.4381,186.04272706226493
1894.0743,193.0898778551491
1895.7098,184.59412226726045
1897.3446,193.10576323076975
1898.9786,195.5751018319088
1900.6118,212.80243722585237
1902.2443,195.1880666120278
1903.8761,207.78228506183768
1905.5071,179.6853856948087
1907.1374,200.89765955264238
1908.7669,195.51939588018922
1910.3957,191.35088191332443
1912.0237,184.54240293273142
1913.651,201.29424230558516
1915.2776,198.75668155363928
1916.9034,184.03000018570356
1918.5285,190.51447572302095
1920.1528,182.01038384653748
1921.7764,192.31799833205423
1923.3992,183.93759113526949
1925.0213,189.2194322887026
1926.6427,183.11378998549844
1928.2633,161.9709305266083
1929.8832,181.94111838184654
1931.5023,180.47461640132178
1933.1207,177.6216856157298
1934.7383,185.232585251023
1936.3552,175.75757275693513
1937.9714,173.09690373087687
1939.5868,159.90083201268453
1941.2015,162.6196097112247
1942.8154,166.8034873363581
1944.4286,154.60271377175195
1946.041,150.96753623303857
1947.6528,160.3482003898248
1949.2637,164.89495040204065
1950.8739,164.25802882613607
1952.4834,148.23767656961172
1954.0921,167.98413289739028
1955.7001,161.24763559201665
1957.3074,150.92842075619546
1958.9139,154.4767228801552
1960.5197,150.59277494484377
1962.1247,148.12680838644155
1963.729,144.0790531352036
1965.3325,146.39973764011665
1966.9353,146.3890889093791
1968.5374,140.8973324871913
1970.1387,110.7246924538631
1971.7393,126.92139148073238
1973.3392,138.73765113189302
1974.9383,130.52369170222437
1976.5366,117.5297320992322
1978.1342,128.6559899251838
1979.7311,129.40268160705273
1981.3273,123.72002228525207
1982.9227,127.30822580617178
1984.5173,121.16750477899996
1986.1112,140.8480705398456
1987.7044,128.65013321314063
1989.2968,117.92390151484005
1990.8885,121.86958287439711
1992.4795,130.33738354203115
1994.0697,123.4775085492629
1995.6592,119.04016162424205
1997.2479,119.87554526034228
1998.8359,117.7838607605363
2000.4232,124.1653082290427
2002.0097,125.27008659224202
2003.5955,101.24839353486368
2005.1805,123.55042548893744
2006.7648,127.27637787400909
2008.3484,125.07644487412153
2009.9312,137.05081940055607
2011.5133,126.19969311383011
2013.0946,115.07325630395417
2014.6752,128.02169799894318
2016.2551,111.49520607607928
2017.8342,120.39396713242786
2019.4126,110.5681666501032
2020.9902,124.86798890728278
2022.5672,116.64361707646276
2024.1433,124.29523308145917
2025.7188,124.47301767965382
2027.2935,124.87715038547731
2028.8674,118.5578094686316
2030.4406,109.21517195004844
2032.0131,97.39941366508447
2033.5849,106.36070935694488
2035.1559,102.54923279484342
2036.7261,108.76515668438583
2038.2957,114.35865270568729
2039.8645,110.67989145121237
2041.4325,110.17904236984145
2042.9998,113.106273803656
2044.5664,124.3117529929475
2046.1323,118.54564604694588
2047.6974,108.808117831765
2049.2617,125.19933202806078
2050.8254,115.96945122840975
2052.3883,118.81863677339743
2053.9504,112.19704884391422
2055.5118,113.104846432665
2057.0725,131.04218741038562
2058.6325,115.20922851676323
2060.1917,108.05612518106363
2061.7502,115.63303168046286
2063.3079,111.44010121157635
2064.8649,104.37748581469145
2066.4212,110.59533641569487
2067.9767,117.94380289669971
2069.5315,117.273034033866
2071.0856,107.13317742391746
2072.6389,103.87437949084915
2074.1915,103.39678558732567
2075.7433,94.05054002726843
2077.2945,102.53578609063356
2078.8448,99.65266611687184
2080.3945,97.70132142007674
2081.9434,91.88189231781553
2083.4916,91.14451815064444
2085.039,97.73933734029993
2086.5857,82.06648739707475
2088.1317,101.22610485386622
2089.677,103.31832542290863
2091.2215,94.89328380417624
2092.7652,87.05111366446158
2094.3083,96.24194772162559
2095.8506,97.7159178230188
2097.3921,100.57315485357412
2098.933,95.66378872106634
2100.4731,102.68794832753952
2102.0124,99.1457616184016
2103.5511,114.98735551218124
2105.089,109.51285593595208
2106.6261,110.17238766691298
2108.1626,114.26607438713722
2109.6983,90.59403867697392
2111.2332,103.05640197411253
2112.7675,101.20328481030424
2114.301,104.28480668673728
2115.8337,104.45108609256818
2117.3657,102.60224047410748
2118.897,102.08838623315478
2120.4276,100.65963874548652
2121.9575,105.56611236599565
2123.4866,102.1579204429795
2125.0149,97.58517526907576
2126.5426,98.59798811534301
2128.0695,112.64646927698982
2129.5956,96.3307280632473
2131.1211,98.0508726568828
2132.6458,92.65701027735622
2134.1698,93.44924716362016
2135.693,92.92768862805747
2137.2155,103.14243904855971
2138.7373,105.59360187374295
2140.2584,93.23127952079994
2141.7787,97.10557335098838
2143.2983,102.51658379325363
2144.8171,80.66441030548572
2146.3353,93.04915132041015
2147.8527,86.27090446410807
2149.3693,91.47976643216953
2150.8853,91.52583305747771
2152.4005,87.65919925812
2153.9149,82.67995903692645
2155.4287,83.88820552013658
2156.9417,102.98403100719247
2158.454,96.76752695865298
2159.9655,95.28878380523906
2161.4764,95.54789100999642
2162.9865,88.04493708308541
2164.4958,82.1300095791878
2166.0045,88.05319517253861
2167.5124,90.9145797160736
2169.0195,90.61424818219825
2170.526,94.0522846341737
2172.0317,95.82877222911839
2173.5367,86.79379318362817
2175.0409,89.69742875601219
2176.5445,87.48975933664042
2178.0473,88.42086441891092
2179.5494,85.79082262132306
2181.0507,93.99971167816784
2182.5513,86.14760846582908
2184.0512,93.78458892069511
2185.5504,91.61072811767917
2187.0488,87.7261001938491
2188.5465,91.68077837016699
2190.0435,82.17483499033347
2191.5397,75.55834148124177
2193.0353,80.58136844803721
2194.5301,85.14398574028155
2196.0241,88.19626240172465
2197.5175,82.68826662467745
2199.0101,81.17006571948855
2200.502,80.89172616962696
2201.9931,72.40331364686222
2203.4835,69.10489301404823
2204.9733,66.39652841000611
2206.4622,76.52828328250985
2207.9505,76.9502204153664
2209.438,63.16240182710112
2210.9248,69.96488876673766
2212.4109,69.3077418516757
2213.8962,63.59102099966731
2215.3809,69.26478543538883
2216.8648,57.629093747605566
2218.3479,65.1840038324367
2219.8304,65.8795730097113
2221.3121,56.86585794741927
2222.7931,59.992914654756305
2224.2733,54.21079857225982
2225.7529,49.669564540537976
2227.2317,46.819266858093215
2228.7098,66.85995932673154
2230.1872,58.4916952800686
2231.6638,55.46452738311905
2233.1397,49.97850771598223
2234.6149,55.28368780411165
2236.0894,60.180118673176594
2237.5632,54.91785079601027
2239.0362,45.79693404364457
2240.5085,52.5174177379331
2241.9801,36.12935074276038
2243.4509,54.63278139683757
2244.921,55.627757677582395
2246.3904,39.414327016086645
2247.8591,48.79253628716424
2249.3271,36.762431971486194
2250.7943,45.57406006179917
2252.2608,41.677466183226215
2253.7266,48.672695505150614
2255.1917,39.609792780182715
2256.656,32.53880227420427
2258.1197,40.80976785700159
2259.5826,47.12273307297278
2261.0447,50.777741058419
2262.5062,34.62483447841464
2263.9669,52.21405549025667
2265.4269,42.19544590499504
2266.8862,38.46904701153858
2268.3448,47.48489967684145
2269.8026,26.443044383167944
2271.2598,43.99352113793475
2272.7162,41.8863696841272
2274.1719,40.97162932479705
2275.6268,49.599338944131205
2277.0811,45.41953701660236
2278.5346,43.88226152068842
2279.9874,53.1375499806727
2281.4395,52.185439482017046
2282.8908,37.92596657880836
2284.3414,51.70916730327963
2285.7914,53.03507730840374
2287.2406,48.453731730063964
2288.689,51.61516517379232
2290.1368,46.969411760584535
2291.5838,45.11650509528545
2293.0302,42.15647831304659
2294.4758,51.939364097854195
2295.9206,52.81519471213096
2297.3648,52.48400189890663
2298.8082,50.19581687305845
2300.251,49.300670324625116
2301.693,41.49859244168647
2303.1343,43.98961291931619
2304.5748,57.77376103760139
2306.0147,35.451065636734484
2307.4538,43.22155497917106
2308.8922,51.68525697285622
2310.3299,50.84219909352055
2311.7669,52.99240830004328
2313.2031,34.485911042881526
2314.6387,45.572733242567665
2316.0735,37.60290047477747
2317.5076,42.07643785945993
2318.941,45.79337014053522
2320.3737,54.8037216411617
2321.8056,45.70751622656371
2323.2369,45.254777213928264
2324.6674,47.19552746336785
2326.0972,46.07978938244719
2327.5263,52.30758490677704
2328.9547,48.52893551116995
2330.3823,50.29386214736269
2331.8092,52.00238528180239
2333.2355,43.604524877997164
2334.661,36.20030037943161
2336.0858,41.089730793545414
2337.5098,51.072834765776406
2338.9332,55.94963053066476
2340.3558,45.87013581202382
2341.7778,43.78436777417073
2343.199,52.492343122721195
2344.6195,49.39407812544914
2346.0393,46.739588525206045
2347.4583,47.27888957090249
2348.8767,41.91199604405347
2350.2943,56.488922253385226
2351.7113,60.30968208850595
2353.1275,55.97428887413389
2354.543,55.582755331891576
2355.9578,57.635093623659714
2357.3718,62.031315355489596
2358.7852,48.62143155708304
2360.1978,54.055452637828466
2361.6098,65.6333885209026
2363.021,51.1552485889265
2364.4315,59.57104156818764
2365.8413,55.130775673422704
2367.2504,50.78445852365758
2368.6587,58.382097186609826
2370.0664,50.92369822215437
2371.4733,54.109267606345384
2372.8795,63.63881080600072
2374.285,56.212332746846414
2375.6899,53.029837718219596
2377.0939,42.9913294473331
2378.4973,57.39681113110214
2379.9,67.79628553653174
2381.3019,48.089754856658374
2382.7032,55.67722060655592
2384.1037,53.75868382039857
2385.5035,39.38414497558938
2386.9027,52.70360401194216
2388.3011,50.4170604754313
2389.6987,52.724513384993315
2391.0957,43.07596125539635
2392.492,45.72140207416328
2393.8876,44.060833398058094
2395.2824,45.644252326632795
2396.6765,44.321655518829175
2398.07,33.69303917714683
2399.4627,47.708399060869624
2400.8547,37.917730592350836
2402.246,45.8210287168597
2403.6366,47.01828800048884
2405.0265,34.00950255112184
2406.4156,36.3446660064626
2407.8041,46.873771664118976
2409.1918,42.99681245825195
2410.5789,38.713780854284096
2411.9652,42.524668887671396
2413.3508,38.27946820673287
2414.7358,39.67817003454263
2416.12,42.17076521138097
2417.5035,44.80724418074692
2418.8863,39.93759696443192
2420.2684,46.461813136155115
2421.6497,45.57988187026035
2423.0304,33.441791876473985
2424.4104,47.647531408724376
2425.7896,41.197088386522864
2427.1682,51.69045025290552
2428.546,49.827604038938375
2429.9232,45.65853625878265
2431.2996,47.73323292832413
2432.6753,51.201679606863536
2434.0503,49.21386137637012
2435.4246,43.6697628067966
2436.7982,42.31936797595756
2438.1711,37.91266052497076
2439.5433,45.499623671760446
2440.9148,42.730240255124954
2442.2856,41.954492658867025
2443.6557,36.722362839487005
2445.025,42.13383233394097
2446.3937,43.0888823119617
2447.7617,38.887493521943725
2449.1289,39.17964628139373
2450.4955,42.01532051894333
2451.8613,39.79449577142782
2453.2265,41.71715115552922
2454.5909,45.133265389985354
2455.9546,49.742816776362474
2457.3177,39.94578316489458
2458.68,42.24214190838791
2460.0416,41.231869960191375
2461.4025,46.81494385123301
2462.7627,52.14133970012222
2464.1222,50.76103315732007
2465.4811,51.02399935187441
2466.8392,57.9302129052229
2468.1966,52.029647928564145
2469.5533,51.47227795379479
2470.9093,53.65807599251502
2472.2645,64.43701454160248
2473.6191,58.65906556135519
2474.973,55.97420036770097
2476.3262,55.582389689977276
2477.6787,60.28360369778011
2479.0305,59.677812004882526
2480.3816,55.71498362222201
2481.7319,60.44508696395815
2483.0816,58.318089887100996
2484.4306,55.5839596442097
2485.7789,51.24266290466301
2487.1264,53.89416578200098
2488.4733,56.4384338773375
2489.8195,62.32543225284519
2491.165,48.355125406312595
2492.5097,54.127477212273675
2493.8538,46.792451061711745
2495.1972,52.400009804335355
2496.5398,50.10011582192885
2497.8818,54.19273097227688
2499.2231,59.9278166121635
2500.5637,44.95533355644545
2501.9035,53.42524202070172
2503.2427,59.337501770958056
2504.5812,49.692072038988385
2505.919,53.63891146319202
2507.256,58.277978185047914
2508.5924,53.359229809646195
2509.9281,47.132623359297895
2511.2631,54.498115322722356
2512.5974,56.605661717313296
2513.9309,56.05521801548309
2515.2638,53.09673912358812
2516.596,57.13017938743303
2517.9275,65.70549262185546
2519.2583,56.52263207039118
2520.5884,56.88155031952192
2521.9178,59.38219939050259
2523.2465,50.524530735773965
2524.5745,47.708495213954734
2525.9018,58.98404317841914
2527.2284,73.85112450545637
2528.5543,54.45968848151574
2529.8796,66.85968365453596
2531.2041,57.00105802785879
2532.5279,65.03375893622945
2533.851,63.707733144383155
2535.1735,73.22292676671816
2536.4952,54.47928528055593
2537.8163,68.22675343098922
2539.1366,65.46527541831824
2540.4562,68.54479476057645
2541.7752,71.21525432114402
2543.0935,74.52659627795367
2544.411,63.92876209678536
2545.7279,79.12169249815383
2547.0441,75.10532756328564
2548.3596,77.82960658219076
2549.6744,79.99446809382607
2550.9885,79.04984985885221
2552.3019,69.69568883798615
2553.6146,77.08192120144577
2554.9266,78.5084824224931
2556.2379,76.92530720357115
2557.5485,88.13232946203834
2558.8585,81.4294823460009
2560.1677,76.11669812224181
2561.4762,93.79390824324969
2562.7841,81.11104340034649
2564.0913,84.56803334691494
2565.3977,79.4648070252282
2566.7035,79.30129253187954
2568.0086,87.72741716881535
2569.313,88.99310744496881
2570.6167,83.09828899199965
2571.9197,95.79288655163691
2573.222,89.57682403462672
2574.5236,87.4500243937872
2575.8246,91.26240968616798
2577.1248,98.21390109431923
2578.4244,93.65441888816702
2579.7232,96.73388235549919
2581.0214,98.05220984755965
2582.3189,98.1593187482539
2583.6157,101.30512546096554
2584.9118,99.63954540748512
2586.2072,111.46249299655233
2587.5019,96.22388164051176
2588.7959,106.37362363708382
2590.0893,111.41163032175075
2591.3819,107.5378119662588
2592.6739,112.60207772823787
2593.9652,120.15433568994024
2595.2557,109.39449280759732
2596.5456,118.0724548358977
2597.8348,116.88812643558572
2599.1234,112.54141108668091
2600.4112,130.38221110032214
2601.6983,122.0104276622344
2602.9848,120.9759606543214
2604.2705,121.37870873838199
2605.5556,120.96856936645634
2606.84,127.345438776798
2608.1237,126.55921199797513
2609.4067,110.1097827851014
2610.689,130.14704362769874
2611.9707,110.27088591419158
2613.2516,117.58119973153384
2614.5319,115.82787406397131
2615.8115,114.7607967199383
2617.0903,105.22985434959048
2618.3685,110.53493245547622
2619.6461,112.12591548784576
2620.9229,116.50268679160058
2622.199,116.01512859038326
2623.4745,118.51312194280979
2624.7493,117.69654674734534
2626.0234,114.46528171732416
2627.2968,123.26920438911509
2628.5695,111.05819115443478
2629.8415,108.93211717230758
2631.1128,120.74085649117706
2632.3835,107.83428207016573
2633.6535,112.66226566098806
2634.9228,112.12467793701546
2636.1914,122.67138844499709
2637.4593,117.3522656104359
2638.7265,116.21717663212075
2639.9931,116.26598753531857
2641.259,115.29856318312443
2642.5242,108.76476727597424
2643.7887,109.61446236131826
2645.0525,115.29750989895956
2646.3156,113.56377025255688
2647.5781,115.96310263279429
2648.8398,108.89536511471863
2650.1009,109.61041461374555
2651.3613,107.70810695633793
2652.6211,108.88829687285454
2653.8801,108.30083801657327
2655.1385,104.94558295188926
2656.3961,103.42238316018938
2657.6531,112.73108907340497
2658.9094,127.12155008924356
2660.1651,107.04361447810265
2661.42,123.09712923916436
2662.6743,119.88194030117506
2663.9279,117.49789236191043
2665.1808,125.1448289203264
2666.433,126.12259230040058
2667.6846,125.03102357466253
2668.9354,125.46996255441638
2670.1856,142.3892478006561
2671.4351,139.0387166196764
2672.6839,140.76820489388024
2673.9321,141.5775471152831
2675.1795,142.11657636821906
2676.4263,145.38512432124685
2677.6724,148.1330212217606
2678.9179,150.66009586330313
2680.1626,158.21617555808803
2681.4067,149.65108611172786
2682.6501,151.714651747674
2683.8928,159.7066951928672
2685.1348,147.07703765710176
2686.3761,139.67549875310533
2687.6168,133.90189662283512
2688.8568,129.8560480114943
2690.0961,124.43776832526703
2691.3348,123.79687167177713
2692.5727,141.2331709142711
2693.81,122.19647767802701
2695.0466,119.8366021759914
2696.2826,124.90335339914634
2697.5178,139.19653914010826
2698.7524,128.56596594246048
2699.9863,124.46143895782097
2701.2195,129.53276205214786
2702.452,133.87973784678525
2703.6839,139.80216766774993
2704.9151,137.74985150226155
2706.1456,149.5225879395182
2707.3755,149.22017419122005
2708.6046,154.99240597384164
2709.8331,169.63907751165596
2711.0609,167.25998147901237
2712.2881,177.20490885386914
2713.5145,183.7736489415853
2714.7403,183.01598927547104
2715.9654,204.03171555110043
2717.1899,208.070611633888
2718.4136,230.93245934893173
2719.6367,237.36703844062333
2720.8591,240.97412634403054
2722.0809,258.20349812055076
2723.3019,276.8049264218399
2724.5223,283.2781813175195
2725.7421,274.4730301091614
2726.9611,284.43923726555613
2728.1795,280.47656451076386
2729.3972,279.0847707244527
2730.6142,261.8636119815252
2731.8306,240.8628415660363
2733.0462,232.98221014340493
2734.2612,215.3714659704218
2735.4756,204.9303549740555
2736.6892,183.00862092755995
2737.9022,166.05600555488627
2739.1145,154.27224874989952
2740.3262,143.0070887459044
2741.5372,126.71026223348429
2742.7475,123.83150447315109
2743.9571,106.77054945831458
2745.1661,94.87712994407002
2746.3744,87.05097761780667
2747.582,83.24182321814317
2748.7889,71.34939661318867
2749.9952,65.22342683863405
2751.2008,56.913642216677204
2752.4057,54.119770417281984
2753.61,46.491538541276554
2754.8136,53.72867314829193
2756.0165,40.63090033304377
2757.2188,37.44794565296161
2758.4204,35.37953425916635
2759.6213,38.72539092829925
2760.8215,35.28524008320744
2762.0211,30.40880575948404
2763.22,32.59581163987036
2764.4182,23.095981103020335
2765.6158,25.859037201629462
2766.8127,18.28470275743382
2768.009,15.322700333579292
2769.2045,9.722752310365081
2770.3994,12.734580914863386
2771.5936,-1.292091723080489
2772.7872,-0.35754360096711935
2773.9801,-6.562039808300824
2775.1723,-13.455841862725492
2776.3639,-7.6391457271078025
2777.5548,-8.61201294045486
2778.745,-13.774428726707924
2779.9346,-19.32629227579912
2781.1235,-15.66736517111815
2782.3117,-19.597215926394824
2783.4992,-12.6652565383813
2784.6861,-11.520703227642798
2785.8723,-11.81264568883114
2787.0579,-12.040058524773826
2788.2428,-0.15179832996795994
2789.427,-1.5466014187259134
2790.6106,0.6767958961576142
2791.7935,1.7696727524364633
2792.9757,10.583308281095924
2794.1573,12.91898159542518
2795.3382,27.72797170288004
2796.5184,39.211557481727255
2797.698,39.07101753295342
2798.8769,45.607630065430044
2800.0551,57.97267289731826
2801.2327,67.16742339070277
2802.4096,81.79315832794248
2803.5859,96.45115381972266
2804.7615,108.8426851587974
2805.9364,128.56902667340944
2807.1106,154.2814516033751
2808.2842,168.38123190282113
2809.4572,194.31963798305912
2810.6294,230.54793857158938
2811.801,256.36740045271586
2812.972,296.97928810526355
2814.1423,330.5848634443839
2815.3119,376.3353854154359
2816.4808,417.53210965792994
2817.6491,455.22628804802287
2818.8167,514.1191682865511
2819.9837,556.461993522088
2821.15,613.9560017620156
2822.3157,664.8524254490965
2823.4807,728.5024908865335
2824.645,786.6074177290053
2825.8086,833.2684183461662
2826.9716,879.0366972415958
2828.134,937.5634505861901
2829.2957,983.1498657604786
2830.4567,1016.947120769356
2831.617,1037.906383786219
2832.7767,1048.6288128149931
2833.9358,1051.8155554805403
2835.0941,1050.2677489214348
2836.2519,1024.0865197580952
2837.4089,1006.1229841082627
2838.5653,991.1782478488147
2839.7211,975.9034067953978
2840.8761,973.799546851877
2842.0306,991.5677441630838
2843.1843,1002.0090651358548
2844.3374,1039.2745662613493
2845.4899,1084.1652940106364
2846.6417,1123.03228446204
2847.7928,1189.6265628522317
2848.9433,1252.39914318756
2850.0931,1318.8010275781082
2851.2422,1382.3332056099687
2852.3907,1436.146653681224
2853.5385,1491.6923343666256
2854.6857,1540.4211958794563
2855.8323,1599.0341715160785
2856.9781,1647.8821791686407
2858.1233,1697.0161207389515
2859.2679,1735.8868816499971
2860.4118,1791.245330354603
2861.555,1836.6423179467265
2862.6976,1879.0786776078708
2863.8395,1914.3052241531175
2864.9808,1936.4727536067612
2866.1214,1958.2320428500445
2867.2614,1968.4338493994833
2868.4007,1988.928911189272
2869.5393,1999.1179464692677
2870.6773,2008.5516536000387
2871.8146,2036.0307109509738
2872.9513,2014.3557768059447
2874.0874,2015.4774890885183
2875.2227,2005.5464655787027
2876.3574,1981.1633039017315
2877.4915,1967.5785816273756
2878.6249,1925.3428565137715
2879.7577,1920.3566666432716
2880.8898,1899.0705308447987
2882.0212,1873.4349487437098
2883.152,1849.4004009746561
2884.2821,1851.0173494379405
2885.4116,1845.8362375398624
2886.5405,1849.9574901765466
2887.6686,1848.8315137857571
2888.7962,1855.6086963056832
2889.923,1856.489407186199
2891.0493,1876.2739973210914
2892.1748,1884.9127990392553
2893.2997,1897.6561259068449
2894.424,1899.9042726408861
2895.5476,1916.7075149818454
2896.6706,1938.8661096711448
2897.7929,1955.5802942831338
2898.9145,2002.3502870034986
2900.0355,2014.5262864621245
2901.1559,2062.258471265394
2902.2756,2094.646999874426
2903.3946,2112.692010127757
2904.513,2130.5436189174516
2905.6308,2159.451922008655
2906.7479,2194.516993861078
2907.8643,2215.6888873399103
2908.9801,2241.9676333651732
2910.0953,2232.453240699999
2911.2098,2234.5456956878443
2912.3236,2226.6449623476333
2913.4368,2223.600982352835
2914.5494,2198.4636751104663
2915.6613,2173.1329377915354
2916.7725,2149.3586455824156
2917.8831,2120.240651938149
2918.9931,2099.2287888201936
2920.1024,2066.7228669876004
2921.211,2047.7726762071325
2922.319,2024.5279855783247
2923.4264,2017.188543722985
2924.5331,2013.704079017642
2925.6391,1992.3742996669394
2926.7445,1997.19889373848
2927.8493,1997.9775293761236
2928.9534,2022.7098547517421
2930.0569,2013.4954980574314
2931.1597,2024.3840672581905
2932.2619,2016.8251501840623
2933.3634,2013.6183144212519
2934.4643,2016.8131073877098
2935.5645,2011.0590563652067
2936.6641,1988.205668467381
2937.763,1956.1524306972815
2938.8613,1921.4488101758998
2939.959,1885.2942544627049
2941.056,1824.488191902678
2942.1523,1756.6800319878575
2943.248,1664.0191659653992
2944.3431,1580.2049675156613
2945.4375,1487.4367936788078
2946.5313,1389.4639856929552
2947.6244,1286.835869921852
2948.7169,1192.4017588346062
2949.8087,1101.8609520319678
2950.8999,1024.2627371906708
2951.9904,942.8063909688375
2953.0803,876.9911797819651
2954.1696,806.5663606174863
2955.2582,768.1811816929225
2956.3462,705.3348831601315
2957.4335,667.1266974891607
2958.5202,648.4558500967082
2959.6062,622.8715597282061
2960.6916,595.6230386445278
2961.7764,585.9094928778325
2962.8605,569.030122504049
2963.9439,549.9841217400116
2965.0267,548.8706791122542
2966.1089,539.0389776474692
2967.1905,541.5381948836437
2968.2714,540.2675029683743
2969.3516,541.6760686338765
2970.4312,550.1130532096907
2971.5102,554.3776126085969
2972.5885,560.918897242245
2973.6662,564.4360519785089
2974.7432,558.2782160760737
2975.8196,569.6445231492639
2976.8954,565.3341012296227
2977.9705,550.8460726522479
2979.045,547.3795540988972
2980.1188,532.9836567428665
2981.192,522.8574862836579
2982.2645,506.10014309093617
2983.3364,488.61072230579214
2984.4077,466.5383140083152
2985.4783,451.08200339248776
2986.5483,419.74087098690916
2987.6177,392.763992809359
2988.6864,356.0004406802085
2989.7545,332.8992824921894
2990.8219,298.7095825780292
2991.8887,269.2804019414622
2992.9548,247.96079859912754
2994.0204,224.09982787486013
2995.0852,185.29654261288715
2996.1495,162.04999341643816
2997.2131,145.85922903577682
2998.276,120.87329660066746
2999.3383,102.69124178228208
3000.4,82.01210904306043
3001.4611,60.934941818530035
3002.5215,53.65878272409765
3003.5812,47.53267376582062
3004.6404,35.20565641316938
3005.6989,20.126771660287886
3006.7567,13.09506014926319
3007.8139,7.209562320914642
3008.8705,3.2693184851113415
3009.9264,-0.37663112037307656
3010.9818,0.5707537095419752
3012.0364,-8.589483057518294
3013.0905,-10.358297459635992
3014.1439,-11.436559725957409
3015.1966,-11.275036606236995
3016.2487,-10.824380598997777
3017.3002,-7.935131565147003
3018.3511,-8.807721230030097
3019.4013,-12.442502047028256
3020.4509,-6.33973848038795
3021.4998,-0.04957069376041545
3022.5481,-3.8720755168099004
3023.5958,-1.95732928398985
3024.6428,1.094630352280717
3025.6892,9.633785293301742
3026.735,13.860117429427078
3027.7802,7.0236085546726486
3028.8247,16.724240324453433
3029.8685,19.56199432394817
3030.9118,20.386851971093733
3031.9544,26.048794488206738
3032.9963,36.14780289373607
3034.0376,39.08385794564259
3035.0783,40.15694004040955
3036.1184,50.06702918368143
3037.1578,58.86410497953335
3038.1966,56.39814653137029
3039.2348,65.66913235395663
3040.2723,61.17704039807569
3041.3092,75.37184795781934
3042.3455,71.90353171550942
3043.3811,79.22206759974932
3044.4161,80.87743082010729
3045.4505,74.61959579393084
3046.4842,82.74853612979354
3047.5173,77.364224690073
3048.5498,71.31663350966198
3049.5816,78.00573384981084
3050.6128,79.4314962586036
3051.6434,73.99389050406688
3052.6734,77.14288555991277
3053.7027,79.32844965991433
3054.7314,83.00055026641576
3055.7594,79.25915404847677
3056.7868,75.95422684515177
3057.8136,76.63573370290368
3058.8398,81.30363890865345
3059.8653,83.30790598296517
3060.8902,80.04849763336631
3061.9145,79.32537573430557
3062.9381,84.68850135974674
3063.9612,73.43783479040002
3064.9835,82.67333546009075
3066.0053,76.59496206826611
3067.0264,78.15267248764019
3068.0469,77.64642382497766
3069.0668,70.42617240551635
3070.086,71.24187377803025
3071.1046,65.34348278703129
3072.1226,58.93095356461316
3073.1399,61.05423958943476
3074.1567,56.96329375084571
3075.1727,50.05806832765322
3076.1882,42.08851502903178
3077.203,45.35458506357523
3078.2173,43.50622921899236
3079.2308,36.29339782944626
3080.2438,32.21604079403778
3081.2561,27.27410764893409
3082.2678,21.017547608141797
3083.2789,19.346309612926603
3084.2893,23.360342394378677
3085.2991,12.259594490125323
3086.3083,18.944014204190438
3087.3169,13.663549718002002
3088.3248,12.368149023548028
3089.3321,8.55775997618116
3090.3388,9.482330307572624
3091.3449,5.391807663816053
3092.3503,6.686139596181761
3093.3551,5.1152736020221425
3094.3593,0.029157111828453708
3095.3629,-0.47226249506070417
3096.3658,5.81096186941366
3097.3681,3.37878201121282
3098.3698,0.23114967818847276
3099.3708,-3.1819834155955107
3100.3713,0.889332134739476
3101.3711,-0.9049224779138854
3102.3702,-2.9647660695561626
3103.3688,-2.9902084160124787
3104.3667,1.4187703249049832
3105.364,2.5622198675660854
3106.3607,1.8401899121529084
3107.3568,-1.8472698667744964
3108.3522,-1.850109813058026
3109.347,-1.1182618163136908
3110.3412,-1.8016392835603483
3111.3348,-1.5501444503815662
3112.3277,7.286338446015577
3113.32,3.707940654366979
3114.3117,4.714793350545136
3115.3028,7.857027673343282
3116.2932,1.5347747144066943
3117.2831,4.898165486810484
3118.2723,7.447330988281919
3119.2608,5.032402167566715
3120.2488,12.153509898937443
3121.2361,11.56078500634257
3122.2229,7.254358192195724
3123.209,10.03436004330274
3124.1944,9.00092107392598
3125.1793,15.65417169798431
3126.1635,14.444242239387421
3127.1471,11.071262865503456
3128.1301,9.03536359925802
3129.1125,16.7366743528642
3130.0942,13.02532494818152
3131.0753,15.901445039702708
3132.0558,17.015164151667207
3133.0357,18.51661164930016
3134.015,18.45591672767503
3134.9936,17.283208396699393
3135.9716,20.64861548172165
3136.949,24.452266635257928
3137.9258,20.894290303338394
3138.902,22.4748146874705
3139.8775,22.1439677802189
3140.8524,22.251877349400218
3141.8267,24.69867094139134
3142.8004,23.88447588005046
3143.7735,31.059419242249035
3144.7459,27.673627866013874
3145.7178,26.877228278777594
3146.689,30.370346731236694
3147.6596,33.2031092053154
3148.6295,35.125641379234565
3149.5989,29.338068599183927
3150.5676,32.84051586009693
3151.5357,38.43310786352636
3152.5032,34.31596898261989
3153.4701,34.4892232061942
3154.4364,39.25299417990625
3155.402,40.35740520452087
3156.367,40.50257918827302
3157.3315,40.688638635823565
3158.2952,40.315705646807686
3159.2584,42.18390191397421
3160.221,42.8933487269149
3161.1829,42.04416695338254
3162.1442,45.13647703219648
3163.105,41.82039898173445
3164.065,44.146052369009396
3165.0245,46.56355634283034
3165.9834,51.073029610545746
3166.9416,52.224590413868555
3167.8993,51.41835648378142
3168.8563,50.504445029021156
3169.8127,54.632972744140964
3170.7684,53.35405581864967
3171.7236,55.81780989572636
3172.6782,59.62435008500964
3173.6321,60.573790937959984
3174.5854,57.21624640979446
3175.5381,56.35182984999219
3176.4902,60.530654035869844
3177.4417,60.40283118122585
3178.3926,61.168472894552096
3179.3428,63.127690180312165
3180.2924,63.73059343128491
3181.2415,64.52729240897233
3182.1899,66.46789623757046
3183.1377,66.90251339600248
3184.0848,61.53125169851254
3185.0314,68.30421829031974
3185.9773,72.0715197013306
3186.9227,67.88326177840955
3187.8674,70.38954964770573
3188.8115,71.94048775653575
3189.755,73.53617984832066
3190.6979,72.87672894707676
3191.6402,74.71223734145843
3192.5818,78.39280659135287
3193.5229,75.46853750952484
3194.4633,76.28953012481107
3195.4031,77.60588371136289
3196.3423,81.46769678043638
3197.2809,80.97506706722875
3198.2189,80.27809149226023
3199.1563,70.02686616630042
3200.0931,82.37148639733797
3201.0292,85.36204679309289
3201.9648,84.3986411375703
3202.8997,81.93136236115485
3203.834,87.7103025502448
3204.7677,87.83555297192478
3205.7008,86.65720401617638
3206.6333,95.77534519462564
3207.5652,91.29006515232658
3208.4964,89.65145157657975
3209.4271,91.75959124178502
3210.3571,94.26457002582775
3211.2865,95.66647288899742
3212.2154,95.21538384893773
3213.1436,98.0113859666277
3214.0712,95.60456135089245
3214.9982,97.79499113044326
3215.9246,97.98275547794583
3216.8503,99.41793358811586
3217.7755,104.05060367584147
3218.7001,103.28084296183154
3219.624,101.80872762628883
3220.5473,104.58433281660763
3221.4701,104.80773266209503
3222.3922,108.32900024621469
3223.3137,108.79820760435298
3224.2346,108.1654256886062
3225.1549,109.83072436308856
3226.0746,109.84417241026
3226.9937,115.20583751427323
3227.9121,115.16578626083918
3228.83,118.67408408361042
3229.7473,114.0807952645816
3230.6639,115.68598289900646
3231.5799,115.43970894133086
3232.4954,117.84203418914079
3233.4102,120.14301828562512
3234.3244,116.64271969555234
3235.238,119.39119568226076
3236.151,116.63850234266141
3237.0634,122.08469457975339
3237.9752,123.57982613015072
3238.8864,122.37394950962043
3239.797,124.7171159981313
3240.7069,124.00937565191256
3241.6163,126.75077728002226
3242.5251,129.2413684514246
3243.4332,127.48119546757593
3244.3408,126.72030333751897
3245.2477,128.85873579548434
3246.154,131.59653530849965
3247.0598,131.13374305500503
3247.9649,130.72039889747523
3248.8694,132.40654138704755
3249.7733,131.9422077676552
3250.6766,136.477433959166
3251.5793,136.5122545620257
3252.4814,136.5967028119056
3253.3829,139.3808105793545
3254.2838,140.06460836895403
3255.1841,140.09812529147783
3256.0838,138.0813890570533
3256.9829,140.1144259748267
3257.8814,142.0472609731303
3258.7792,143.2799175791522
3259.6765,143.16241789960768
3260.5731,144.34478260841288
3261.4692,147.27703094785977
3262.3647,146.25918071679237
3263.2595,147.29124824128425
3264.1538,144.8232483848173
3265.0474,146.70519453796078
3265.9404,147.13709864305144
3266.8329,146.36897117537413
3267.7247,150.85082113884255
3268.616,154.4326560736807
3269.5066,149.41448201160432
3270.3966,147.6963034400024
3271.286,151.6281233521193
