RamanShift,CorrectedData
30.1047,2017.200542895444
32.3739,1879.5087388203408
34.6426,1745.7669145732318
36.9109,1608.5250311870245
39.1787,1471.8830322369565
41.4461,1337.4908452130146
43.7131,1202.798382886355
45.9796,1070.105544653225
48.2456,932.8122178818865
50.5112,794.6182792395452
52.7764,660.223596065285
55.0411,526.3280277520063
57.3054,398.881427090373
59.5692,263.48364160776873
61.8326,131.48451484276285
64.0955,4.383887699088092
66.3579,-129.76840023436785
68.6199,-254.67250941255617
70.8815,-358.57730390410967
73.1426,-420.2791035992924
75.4032,-345.4706462011029
77.6634,50.05952917570448
79.9231,1162.2263346681311
82.1824,3782.6946819125837
84.4412,8607.479470923206
86.6995,15336.945563887197
88.9574,21943.557736916962
91.2148,26500.880612755453
93.4717,28562.278594710042
95.7282,28994.215821079302
97.9842,28834.956144539017
100.2398,28187.163127822812
102.4949,27437.20004531476
104.7495,26573.0798895273
107.0036,25656.81537860087
109.2573,24787.568964945112
111.5105,23991.05284440152
113.7632,23146.128964935906
116.0154,22410.15903460353
118.2672,21867.604529998393
120.5185,21290.27670361289
122.7693,20858.08658926337
125.0197,20426.99500786343
127.2696,20044.41257174579
129.519,19811.54968897322
131.7679,19462.016567164377
134.0163,19210.473215822418
136.2642,18861.929449830328
138.5117,18501.194891966366
140.7587,18149.27897638952
143.0052,17845.890952246795
145.2512,17488.289887192444
147.4967,17120.53467042179
149.7417,16870.934016247273
151.9863,16600.146467775976
154.2304,16441.080399405662
156.4739,16146.644019532614
158.717,16008.545372142324
160.9596,15697.192339753838
163.2017,15373.842644800756
165.4433,14932.053852744755
167.6844,14501.783375309084
169.925,14096.98847489646
172.1651,13622.176268891764
174.4047,13212.953733709997
176.6439,12833.8277095444
178.8825,12496.35490445867
181.1206,12241.791898178246
183.3582,11972.945145465
185.5954,11779.12097866291
187.832,11600.425610386477
190.0681,11413.865135459011
192.3037,11311.945532699561
194.5388,11202.672666788527
196.7734,11139.452289286868
199.0075,11130.4400397288
201.2411,11160.041446254028
203.4742,11110.961925697859
205.7068,11207.206783295176
207.9389,11201.881213171262
210.1704,11258.240297379316
212.4015,11265.88900595373
214.632,11338.032196346507
216.862,11459.97461335076
219.0915,11481.870888379279
221.3205,11607.525538245112
223.549,11753.242964942607
225.777,11959.977454390852
228.0044,12189.733174976518
230.2314,12533.9641754865
232.4578,12841.82438281037
234.6837,13079.267598498043
236.909,13217.397495681207
239.1339,13048.367616698883
241.3582,12764.781371716104
243.582,12347.34204041425
245.8053,11913.0527748269
248.0281,11532.4166035142
250.2503,11239.13643590578
252.472,11016.015066107115
254.6932,10902.355175832308
256.9139,10699.259336635334
259.134,10666.530011046621
261.3536,10570.119554604005
263.5727,10550.130216180038
265.7912,10444.06413894607
268.0092,10422.573360572162
270.2267,10348.40981428773
272.4436,10207.825329096459
274.6601,10089.57163051795
276.8759,9920.850341993553
279.0913,9836.312986068902
281.3061,9688.610986081134
283.5204,9673.945667004251
285.7341,9650.568256926164
287.9473,9699.829887195327
290.16,9850.281592654512
292.3721,10024.824311148204
294.5837,10384.908882018071
296.7947,10639.38604435754
299.0052,10733.806433410962
301.2152,10531.970578028826
303.4246,10116.778899723553
305.6334,9559.481714687872
307.8418,8943.229237946725
310.0495,8461.821588930245
312.2568,8084.408797636268
314.4635,7775.290809444437
316.6696,7609.867488890295
318.8752,7444.988622756495
321.0802,7408.903921727015
323.2847,7463.913022035955
325.4887,7459.915485828382
327.692,7314.06080061023
329.8949,7158.048379288279
332.0972,6827.4275616287105
334.2989,6525.09761581724
336.5001,6154.707741765316
338.7007,5900.707074133414
340.9008,5739.094686034941
343.1003,5529.119591576235
345.2992,5416.880747472702
347.4976,5347.477055148562
349.6955,5250.257361859223
351.8927,5298.220461385341
354.0895,5182.1150950050105
356.2856,5209.239951014131
358.4812,5087.593665887445
360.6763,5064.92482400731
362.8707,4988.231958880135
365.0646,4975.063553363105
367.258,4944.768040431065
369.4508,4891.293803308239
371.643,4944.539175771179
373.8346,4861.502442683488
376.0257,4826.381839463391
378.2162,4637.625552914093
380.4062,4523.081721574983
382.5956,4336.448437609208
384.7844,4187.823747949098
386.9726,4023.7056561625195
389.1603,3955.4921239390987
391.3474,3840.081072731409
393.5339,3763.820384437109
395.7199,3637.207902553033
397.9052,3617.391432937835
400.09,3594.318745078097
402.2743,3636.4875722865036
404.4579,3671.345611932553
406.641,3797.8405250208853
408.8235,3962.1199358426966
411.0054,4238.031430710787
413.1868,4621.522556316777
415.3675,4855.490816971967
417.5477,4997.583670772448
419.7273,4975.598527259419
421.9064,4826.732745998255
424.0848,4635.983636798359
426.2627,4360.648461201807
428.4399,4082.82443439083
430.6166,3659.3587279412095
432.7928,3256.6484726004746
434.9683,2898.79076252256
437.1432,2646.3326592949343
439.3176,2431.7711955171508
441.4914,2269.903377325463
443.6645,2237.1761865383924
445.8371,2118.1865822754553
448.0091,2020.5315012844185
450.1806,1931.1078591311853
452.3514,1835.612551176364
454.5216,1800.0924534694932
456.6913,1688.944423704008
458.8603,1719.715301572407
461.0288,1754.3019098777695
463.1967,1718.7510542260243
465.3639,1830.5595226800833
467.5306,1857.7240861153841
469.6967,1931.3914971017584
471.8622,2064.4084896318163
474.0271,2150.8717783842585
476.1914,2219.3780573937147
478.3551,2174.623999186104
480.5182,2153.0062540935432
482.6807,2135.4714507019307
484.8426,2245.2661960671103
487.0039,2531.1870758902187
489.1647,2866.880653419732
491.3248,3281.7934665922585
493.4843,3412.472024675615
495.6432,3374.8628041196826
497.8015,3243.16224724962
499.9592,3226.9167626419694
502.1163,3160.522726441661
504.2728,2914.4264825244427
506.4287,2566.5243431608505
508.5839,2154.512591477156
510.7386,1808.6374849343993
512.8927,1646.8952594485054
515.0461,1534.132132849023
517.199,1485.1943064965599
519.3512,1479.577966410412
521.5029,1563.4292837579305
523.6539,1614.4444149107148
525.8043,1642.0695006060741
527.9541,1616.6006654368757
530.1033,1566.1840175753023
532.2519,1590.6156490275425
534.3999,1698.8416361379714
536.5472,1916.0580393448145
538.694,2378.260902097878
540.8401,2933.5462486864126
542.9856,3395.510079617052
545.1305,3496.3983660609847
547.2748,3342.657045234333
549.4185,3006.5320193892258
551.5615,2651.3691573512515
553.704,2535.4642978806623
555.8458,2457.3632532240445
557.987,2510.411810273341
560.1276,2484.5557313468707
562.2675,2525.2407536588435
564.4069,2610.5625895779303
566.5456,2584.4669262204116
568.6837,2503.549424596935
570.8212,2194.3057198735005
572.958,1832.2814221806075
575.0942,1551.372119705724
577.2299,1339.6733823135037
579.3648,1282.5307643549022
581.4992,1316.589806784159
583.6329,1515.596037730218
585.766,1723.3449721561483
587.8985,1799.732109869081
590.0304,1771.852933442704
592.1616,1703.5529074533915
594.2922,1581.327478758998
596.4222,1413.9220771818655
598.5515,1281.8321167310642
600.6802,1118.3029972764489
602.8083,898.3301058695579
604.9358,819.0588183789114
607.0626,772.9845016897343
609.1888,765.9025144966727
611.3144,693.6582077645435
613.4393,593.796924799135
615.5636,529.2640019696701
617.6873,445.70476970741584
619.8103,422.16455315103303
621.9327,296.4886729821337
624.0544,264.6724456607044
626.1756,242.2611846818545
628.2961,194.75020089397367
630.4159,125.38480272286324
632.5351,122.9102966468381
634.6537,68.8219878903692
636.7716,61.16518044882832
638.8889,79.53517762937554
641.0056,101.62728212753791
643.1216,90.98679584348429
645.237,162.85901966112942
647.3518,139.58925355450992
649.4659,150.2727958690848
651.5793,131.1049435544337
653.6922,115.33099205742838
655.8043,111.94623551389668
657.9159,96.94596690636536
660.0268,23.025478097915766
662.137,-64.66994001782223
664.2466,-62.295226571761305
666.3556,-40.904674642111786
668.4639,-52.60195497780296
670.5716,29.40967030995307
672.6786,74.97746460343842
674.785,109.64839748232407
676.8907,162.1194377765205
678.9958,257.1875532194608
681.1002,170.64970992340022
683.204,201.95287142872257
685.3072,157.84399956932248
687.4097,58.92005415956737
689.5115,72.17799343538718
691.6127,11.664775043547706
693.7132,-22.52264409095733
695.8131,-89.13742357424053
697.9123,-56.782498011216376
700.0109,-63.00991152394272
702.1089,-64.42114097733429
704.2061,-60.81703376729638
706.3028,-21.597793722536153
708.3987,22.53698289039312
710.4941,116.28791556687793
712.5887,291.85539865782994
714.6827,547.7398253513056
716.7761,880.2915859168097
718.8688,1238.8110651464558
720.9608,1443.798639029461
723.0522,1494.5046711669493
725.1429,1345.3295107220765
727.233,1118.7734919129762
729.3224,925.9869355044866
731.4112,655.4701510736959
733.4993,459.12343893784055
735.5867,273.247092859463
737.6735,176.2414020098695
739.7596,120.05665282790505
741.845,94.94312999001704
743.9298,32.70111697207176
746.014,55.98089630054528
748.0974,100.98275017490232
750.1802,49.30696023481505
752.2624,96.95380711014514
754.3439,98.97357093769824
756.4247,184.56653088476742
758.5048,280.0329651289103
760.5843,525.0231500020236
762.6631,835.3873590356852
764.7413,1272.625860511238
766.8188,1891.9389143561493
768.8956,2346.8767677716423
770.9718,2680.989649039562
773.0473,2477.127762972992
775.1221,2175.441287575133
777.1962,1817.4303760779294
779.2697,1656.2951599589214
781.3426,1679.485752521352
783.4147,1913.552250505527
785.4862,2232.2447338569073
787.557,2244.163263385428
789.6271,1881.8578775785827
791.6966,1366.5785924822485
793.7654,844.7254053237266
795.8335,507.2982996645442
797.901,343.3472506189828
799.9678,282.9222282283408
802.0339,314.57319910045044
804.0993,373.95012701392625
806.1641,366.65297260166335
808.2282,304.1816927570435
810.2916,232.93624070695296
812.3544,146.36656663647227
814.4164,70.0226184013336
816.4778,121.80434239359965
818.5385,137.1116843051277
820.5986,220.19458860973828
822.658,339.10299841014785
824.7166,445.98685460712295
826.7747,790.7460947104082
828.832,978.130651769905
830.8886,1103.8904509280437
832.9446,1287.7254075459823
834.9999,1272.9354259459578
837.0545,1304.6703975729688
839.1085,1245.930201142659
841.1618,1230.614702323961
843.2143,1155.6737543265335
845.2662,1058.0071980538924
847.3175,1021.8648628528099
849.368,915.6465674899991
851.4179,816.2521205135199
853.467,660.081321314985
855.5155,587.133961123498
857.5633,453.45982456735874
859.6105,391.6586904035321
861.6569,396.68033285437923
863.7027,324.92452222570137
865.7478,355.94102485650365
867.7922,377.82960383654427
869.8359,395.7900186961924
871.8789,534.8720251875129
873.9212,713.1753751046745
875.9629,862.699814893127
878.0039,1047.3950838665696
880.0441,1197.4109127116972
882.0837,1200.9970216412803
884.1226,1124.903118893977
886.1609,1068.7789006984822
888.1984,1009.474052034464
890.2352,1081.7382471938217
892.2714,1046.7211503737162
894.3069,1082.52241495395
896.3416,1008.0416838471319
898.3757,979.3785891406587
900.4091,985.3327528415284
902.4418,1012.7037871629509
904.4739,997.4412944648284
906.5052,1008.794866980028
908.5358,959.6140869670198
910.5658,817.5485265963289
912.595,670.3477484423784
914.6236,486.26130690409263
916.6515,430.988749676937
918.6786,470.67961959378226
920.7051,556.1834551775937
922.7309,686.9997902445793
924.756,709.0281530491229
926.7804,872.7680649755894
928.8041,762.7190403180721
930.8272,848.7805846429874
932.8495,737.802195889577
934.8711,754.1333635092706
936.892,618.5735695754847
938.9123,458.672288620317
940.9318,392.1789889901156
942.9506,281.14313444452273
944.9688,208.21418482140143
946.9862,145.89159714719426
949.003,53.77482636621062
951.019,66.46332596386856
953.0344,132.50654888783538
955.0491,146.6039474211684
957.063,263.4549725218749
959.0763,414.7090736819446
961.0888,442.4156977588209
963.1007,565.9242874628799
965.1119,632.4342810803355
967.1223,666.1451112381692
969.1321,660.6062042390331
971.1412,710.9669797241331
973.1495,690.6268507286259
975.1572,772.3852231779892
977.1641,859.7414960914393
979.1704,831.8450607643754
981.1759,854.7452998947847
983.1808,936.741587862216
985.1849,1011.5332904987772
987.1884,1157.6197642691586
989.1911,1341.9503555227275
991.1932,1455.124399032662
993.1945,1460.4912161526627
995.1951,1424.2501136851788
997.1951,1442.900383827753
999.1943,1348.4413045354195
1001.1928,1317.5221393342217
1003.1906,1286.4421382658002
1005.1877,1389.4005381966017
1007.1841,1369.9465631286512
1009.1798,1306.7294231699925
1011.1748,1104.6483147292056
1013.1691,916.602421147607
1015.1627,719.6409147200138
1017.1556,484.9129585752489
1019.1477,415.76770864572245
1021.1392,310.2043160147332
1023.1299,314.97192760791586
1025.12,361.66968724888284
1027.1093,404.4467356115201
1029.0979,478.60220975304765
1031.0859,547.8352426862075
1033.0731,514.5949626377478
1035.0596,446.68049235606304
1037.0454,340.7409494436106
1039.0304,236.37544703604362
1041.0148,90.83309486162034
1042.9985,-10.836999715167622
1044.9814,17.114269761867035
1046.9636,-46.31388198947025
1048.9452,-75.572240422498
1050.926,-29.061128314868256
1052.9061,-19.380113477556733
1054.8855,-12.978473400875373
1056.8642,53.59470803219301
1058.8421,174.1404765936204
1060.8194,164.15987751943248
1062.7959,203.4039543042818
1064.7717,247.07374880122734
1066.7469,276.47030082928177
1068.7213,326.1946477367528
1070.695,299.59782410724074
1072.6679,254.5808612624278
1074.6402,234.2447875279904
1076.6117,265.2906286838297
1078.5826,241.91940816740316
1080.5527,227.68214676326534
1082.5221,320.6298628367913
1084.4908,513.9135724765692
1086.4587,689.2842885648861
1088.426,841.6430188449085
1090.3925,823.9407641669641
1092.3584,825.3285169649789
1094.3235,682.3072614334742
1096.2879,619.9279735137061
1098.2515,679.7916223238499
1100.2145,780.8491707828216
1102.1767,858.7515750116108
1104.1382,997.2997833227128
1106.099,1234.6947354411204
1108.0591,1453.5873611188435
1110.0185,1593.828577760938
1111.9771,1663.169288236615
1113.9351,1459.9603794767863
1115.8923,1188.902721780698
1117.8488,904.297170848
1119.8045,625.8945704893085
1121.7596,522.6457554722838
1123.7139,469.15155430564846
1125.6675,483.1627902716682
1127.6204,610.230281961125
1129.5726,585.9548431331823
1131.524,603.7872814446964
1133.4748,592.078398693011
1135.4248,539.1289906375823
1137.3741,565.5398471170884
1139.3226,531.9117525789079
1141.2705,532.1454858150246
1143.2176,378.09182029831936
1145.164,397.00152418022844
1147.1097,443.8253618312883
1149.0546,437.0140936520147
1150.9989,350.51847560468013
1152.9424,259.53925928143144
1154.8852,119.17719276923162
1156.8272,56.233021559652116
1158.7686,30.15748995252943
1160.7092,19.75134168536897
1162.6491,21.56532019414226
1164.5883,134.30016871729458
1166.5267,207.20663027763658
1168.4644,370.93544655497317
1170.4014,557.3373571570701
1172.3377,797.0630979823582
1174.2732,1059.3133993558586
1176.2081,1372.4889836319926
1178.1421,1655.4405625720428
1180.0755,1948.8688342124042
1182.0082,2042.124480035076
1183.9401,2045.5581620333833
1185.8713,1938.520521779421
1187.8017,1734.2621803897164
1189.7315,1477.1837395955954
1191.6605,1175.1357837857759
1193.5888,985.5188825771438
1195.5163,877.2335938352226
1197.4432,796.8804655703716
1199.3693,767.4100370206252
1201.2947,697.922839455201
1203.2193,712.269396469248
1205.1432,751.5002246786862
1207.0664,779.365833576765
1208.9889,837.8667251417392
1210.9106,863.553393558188
1212.8316,869.9763246320726
1214.7519,941.7859955338135
1216.6715,968.632874734074
1218.5903,1004.3174212856538
1220.5084,998.3900845550561
1222.4257,1012.9513038655969
1224.3424,926.2015085567109
1226.2583,1070.4411178383161
1228.1735,1154.6205416583143
1230.0879,1212.2901792601988
1232.0016,1359.7004183412537
1233.9146,1415.8516344758827
1235.8269,1337.3441896414697
1237.7384,1284.0784316569298
1239.6492,1076.854694967733
1241.5592,1018.223301178572
1243.4686,946.2345611256096
1245.3772,967.9887754627744
1247.285,963.5362353816599
1249.1922,957.0272223940046
1251.0986,975.2120083761729
1253.0042,973.8908556343013
1254.9092,1075.614016722393
1256.8134,1190.5317344555806
1258.7169,1298.8442408928458
1260.6196,1492.4517561878747
1262.5216,1727.5044875059139
1264.4229,1863.152627087693
1266.3234,2086.946349898899
1268.2232,2156.8858122737147
1270.1223,2194.671149676833
1272.0207,2207.852476004118
1273.9183,2213.1798832047207
1275.8151,2121.903441149265
1277.7113,2081.8231975766103
1279.6067,1979.239179006574
1281.5014,1915.0513911407543
1283.3953,1936.9598198883723
1285.2885,2048.414432008143
1287.181,2130.9151748892
1289.0727,2308.261975436537
1290.9637,2388.954739246001
1292.854,2559.643348830854
1294.7435,2689.527662814802
1296.6323,2866.607514225143
1298.5204,3066.7827091939034
1300.4077,3250.503025187041
1302.2943,3393.2182090026836
1304.1802,3447.977974933947
1306.0653,3267.3320033417695
1307.9497,3103.2799401073207
1309.8333,2946.471398438469
1311.7162,2863.9059605102884
1313.5984,2899.5831790331467
1315.4798,2906.752578078347
1317.3605,2977.213652721377
1319.2405,3064.365868970206
1321.1197,3040.808663060652
1322.9982,2925.5414405849115
1324.876,2885.6135767270935
1326.753,2769.7244174159096
1328.6293,2773.623279723932
1330.5048,2798.05945302649
1332.3796,2734.7821989627046
1334.2537,2724.5907511911028
1336.127,2677.634316022406
1337.9996,2696.3620725214278
1339.8714,2686.473172976657
1341.7426,2682.166742712965
1343.6129,2701.6418801904983
1345.4826,2659.9976570477447
1347.3515,2709.9331179067813
1349.2196,2635.497280789721
1351.087,2705.5891366193537
1352.9537,2760.7076499635186
1354.8197,2915.751758334154
1356.6849,3103.270371636114
1358.5493,3218.262370616765
1360.4131,3299.476604990763
1362.276,3293.5118922901383
1364.1383,3143.3670170521727
1365.9998,2934.4907308790316
1367.8606,2627.3817539392257
1369.7206,2348.188777056357
1371.5799,2119.010464780229
1373.4384,1979.7954581787635
1375.2962,1879.3423771297857
1377.1533,1569.749821713167
1379.0096,1305.1663732153665
1380.8652,1033.0405972253466
1382.7201,792.9210462804167
1384.5742,575.8062625874936
1386.4275,409.79478042429037
1388.2802,291.285128310461
1390.132,218.77583066770785
1391.9832,147.9154090049051
1393.8336,83.70238264316504
1395.6832,45.88526942446151
1397.5322,23.862586353754523
1399.3803,-8.117150022841088
1401.2278,-1.5054233978298726
1403.0745,-22.453636373393238
1404.9204,0.5368234874604241
1406.7656,-6.585207066460498
1408.6101,38.329103350781224
1410.4538,55.178651911330235
1412.2968,123.5123354040461
1414.139,186.32905006602232
1415.9805,334.1276908992222
1417.8213,400.60715104232804
1419.6613,532.6663202927539
1421.5006,668.0040844418472
1423.3391,962.569323954318
1425.1769,1261.2609126148382
1427.0139,1762.9777145823955
1428.8502,2382.4685814033874
1430.6858,2937.532346994427
1432.5206,3297.8678214474476
1434.3547,3607.423785479061
1436.188,3644.2489868272023
1438.0206,3577.4421371555873
1439.8524,3459.351911685444
1441.6835,3349.6269498635957
1443.5139,3296.8658565433525
1445.3435,3251.1172030817743
1447.1724,3236.72952786727
1449.0005,3151.251336777088
1450.8279,3122.2811033211765
1452.6545,3115.9672694969922
1454.4804,3187.258246079182
1456.3056,3217.7024126827546
1458.13,3104.7981170501153
1459.9536,2931.4436747466825
1461.7766,2598.0373702898814
1463.5987,2263.027458882736
1465.4202,1917.6121697478957
1467.2409,1561.5397094777527
1469.0608,1368.3582654885777
1470.88,1139.6160095812538
1472.6984,917.861099873091
1474.5161,694.4416830852533
1476.3331,595.3558967603003
1478.1493,478.20187149637604
1479.9648,426.57773193807407
1481.7795,344.4315979479652
1483.5935,323.9115851228489
1485.4067,280.1658056152155
1487.2192,275.94236833844116
1489.031,247.73937940424366
1490.842,249.75494216493098
1492.6522,257.88715749542826
1494.4618,208.6841237731278
1496.2705,214.1939367965424
1498.0785,214.91469027736275
1499.8858,219.99447578534455
1501.6924,158.33138274110752
1503.4981,169.2734983653263
1505.3032,176.81890829538133
1507.1075,176.71569647591969
1508.911,168.36194508340486
1510.7138,146.8057345271609
1512.5159,107.69514353289014
1514.3172,99.67824935825229
1516.1178,57.50312818394923
1517.9176,57.01785519391706
1519.7166,40.42050499706056
1521.515,36.40915163211139
1523.3126,71.18186873360355
1525.1094,23.03672957198978
1526.9055,18.671806705911877
1528.7008,-16.314827536349185
1530.4954,-51.175101013224776
1532.2893,-4.960778598033357
1534.0824,-55.47311392483607
1535.8747,-6.763311069524207
1537.6663,-4.632019931594186
1539.4572,-13.129822845068702
1541.2473,1.192744129901257
1543.0367,-13.36472389991286
1544.8253,-14.602631839668902
1546.6132,67.27874891905958
1548.4003,50.22929286498402
1550.1867,113.49887381403278
1551.9723,147.88736507984868
1553.7572,242.19463884109246
1555.5414,302.67056579755445
1557.3247,371.06501422708425
1559.1074,454.32784938083205
1560.8893,528.9089327993061
1562.6705,615.0581214797458
1564.4509,718.3252671303126
1566.2305,770.060215308602
1568.0094,925.4128043889596
1569.7876,970.8828650451305
1571.565,975.4702186967479
1573.3417,1028.424677054616
1575.1176,1057.0460420748386
1576.8928,1020.7341054292956
1578.6672,966.1886482194113
1580.4409,893.909441339274
1582.2138,804.7962460210929
1583.986,706.2488145579882
1585.7575,724.0168911951187
1587.5282,667.6002131151654
1589.2981,678.398510260653
1591.0673,711.8115058981093
1592.8358,745.0889165100834
1594.6035,762.380451461011
1596.3704,781.9858126644522
1598.1366,861.1046944101508
1599.9021,904.7867831679996
1601.6668,1000.7317567968548
1603.4308,1070.1892841077042
1605.194,1196.0090239042347
1606.9564,1362.9906242882425
1608.7182,1551.083721401439
1610.4791,1737.8379377556284
1612.2394,1906.802880351781
1613.9988,2109.7281388124866
1615.7576,2347.4632836923265
1617.5156,2598.2078644485973
1619.2728,2794.561407063966
1621.0293,2903.123411539036
1622.785,2925.593349928793
1624.54,2801.4706652569985
1626.2942,2677.7047712914864
1628.0477,2440.595053785384
1629.8005,2250.540871714791
1631.5525,2048.6415596498464
1633.3037,1900.746429655297
1635.0542,1749.404773309474
1636.804,1662.0658631832448
1638.553,1624.678954353436
1640.3013,1630.9932852762267
1642.0488,1594.6080781610071
1643.7955,1666.7725389072475
1645.5416,1739.2858574683414
1647.2868,1886.1972071299697
1649.0313,1966.9057437849533
1650.7751,2169.310604464148
1652.5181,2330.2109065293607
1654.2604,2519.1557456492883
1656.0019,2811.7441941905236
1657.7427,3112.525299328112
1659.4828,3419.0480801196627
1661.222,3628.3615244975335
1662.9606,3647.714586203614
1664.6984,3434.306182696182
1666.4354,3061.235194956389
1668.1717,2560.15046962232
1669.9072,2074.650822719712
1671.642,1721.4850446728196
1673.3761,1365.2019051593834
1675.1094,1119.4501566422987
1676.8419,905.3285379324498
1678.5737,719.2857766462239
1680.3048,613.5205913467253
1682.0351,526.3316934042086
1683.7646,464.7177880537238
1685.4934,399.077575267007
1687.2215,362.659750368628
1688.9488,311.46300469238304
1690.6754,257.03602594547374
1692.4012,241.02749872047934
1694.1263,223.9361050396219
1695.8506,212.41052451485484
1697.5742,192.1494345187748
1699.297,155.65151029987828
1701.0191,140.96542518517344
1702.7404,129.53985094515156
1704.461,90.42345794065295
1706.1808,82.26491523713412
1707.8999,81.56289099580863
1709.6182,71.61605255525501
1711.3358,59.1730664384213
1713.0527,57.23259845210123
1714.7688,31.993313811348344
1716.4841,18.953877158906835
1718.1987,30.21295281759012
1719.9126,41.96920492068239
1721.6257,22.121297299339858
1723.338,43.71789336503571
1725.0496,-7.042343691964561
1726.7605,9.639248881425374
1728.4706,-8.938595808695027
1730.18,-28.62714475260691
1731.8886,-2.1775756440274563
1733.5964,-5.990780191499653
1735.3036,-8.017628349591178
1737.0099,0.9410697750208783
1738.7156,-2.46541582824284
1740.4204,-17.237815179370955
1742.1246,-2.226833668844847
1743.8279,0.01699551862111548
1745.5306,20.893161444373618
1747.2325,4.351153169594909
1748.9336,-5.959540453450245
1750.634,-51.1894306159993
1752.3336,-42.7889689734875
1754.0325,-5.958095798940121
1755.7307,-1.3963239035801962
1757.4281,17.09689342274214
1759.1247,7.072116839441151
1760.8206,22.079906834964277
1762.5158,50.92082382704939
1764.2102,20.19542801263924
1765.9039,1.3042790794788743
1767.5968,15.497936513356763
1769.289,12.026959787019223
1770.9804,14.84190821824268
1772.6711,44.89334100454289
1774.361,49.53181719501845
1776.0502,58.707895389839905
1777.7386,80.67213369386627
1779.4263,58.67508962487773
1781.1132,80.31731989394393
1782.7994,76.39938062538022
1784.4849,87.57182714033297
1786.1696,81.98521399595666
1787.8535,83.64009487369913
1789.5367,78.93702263514751
1791.2192,106.02654930550761
1792.9009,81.45922612060713
1794.5818,104.83560325601593
1796.2621,93.10623007272716
1797.9415,86.2216548833685
1799.6202,91.58242506951592
1801.2982,123.38908715052457
1802.9755,123.34218672992938
1804.6519,158.09226817738
1806.3277,109.63987462910882
1808.0027,115.33554764042856
1809.6769,120.47982767026224
1811.3504,126.87325402417264
1813.0231,127.56636480292582
1814.6951,147.50969683855874
1816.3664,183.30378568744527
1818.0369,183.99916543086783
1819.7067,172.6963683170734
1821.3757,163.39592475431618
1823.044,186.39836342388844
1824.7115,185.95421137313315
1826.3783,174.56399378541118
1828.0443,164.9782339845451
1829.7096,186.0974535487194
1831.3741,187.07217240633963
1833.0379,182.50290862483962
1834.701,183.49017840093256
1836.3633,239.28449610630832
1838.0248,183.0363742777581
1839.6856,211.14632305923533
1841.3457,214.71485076432964
1843.005,232.74246359517383
1844.6636,240.8796656067534
1846.3214,251.6269585266282
1847.9785,245.63484167356546
1849.6349,258.453811850065
1851.2904,266.43436340228436
1852.9453,274.27698809184585
1854.5994,262.8321750160312
1856.2528,273.15041052935794
1857.9054,277.03217835802025
1859.5572,309.22795949671126
1861.2083,314.0382321698098
1862.8587,319.563471509412
1864.5084,306.25414950723643
1866.1572,303.41073495937417
1867.8054,312.08369359937933
1869.4528,325.42348812670025
1871.0994,301.6305781199544
1872.7453,318.1554199035254
1874.3905,307.14846678549384
1876.0349,293.81016889238526
1877.6786,327.3909732792463
1879.3215,346.0913240630216
1880.9637,345.8616620867524
1882.6051,334.0524247325666
1884.2458,339.21404592398176
1885.8858,334.2969562439903
1887.525,337.15158288344446
1889.1634,332.17834969022806
1890.8011,316.0276771407189
1892.4381,333.4999823895123
1894.0743,362.4956794309246
1895.7098,361.96517892428346
1897.3446,360.50888790395857
1898.9786,360.0772097846757
1900.6118,354.57054437607076
1902.2443,351.93928788702124
1903.8761,368.3838329807004
1905.5071,343.0045688008913
1907.1374,355.45188080753996
1908.7669,337.7261510305534
1910.3957,345.5277579453232
1912.0237,313.80707664998044
1913.651,328.6644787873802
1915.2776,321.5003328623088
1916.9034,313.0150040929111
1918.5285,316.5588544823295
1920.1528,291.0822429035625
1921.7764,297.28552506402593
1923.3992,314.5690537603132
1925.0213,274.2831788161657
1926.6427,253.92824690963607
1928.2633,250.7546019759502
1929.8832,291.51258541104744
1931.5023,271.7525361033313
1933.1207,268.5747900260776
1934.7383,257.7296804350408
1936.3552,257.8175379002314
1937.9714,296.288690414367
1939.5868,244.1434633919971
1941.2015,257.48217928478607
1942.8154,228.5051581029693
1944.4286,216.81271728196316
1946.041,235.5551719721343
1947.6528,190.28283515572457
1949.2637,218.946017459426
1950.8739,204.99502760710675
1952.4834,229.33017213317635
1954.0921,222.25175552210112
1955.7001,202.86007996504395
1957.3074,209.00544543065007
1958.9139,193.08814985897152
1960.5197,209.95848910000677
1962.1247,180.06675707287832
1963.729,164.01324559712702
1965.3325,151.09824469162595
1966.9353,152.0220427351187
1968.5374,167.9849265953644
1970.1387,150.08718161990691
1971.7393,157.17909147644423
1973.3392,149.6109383318053
1974.9383,151.53300278103052
1976.5366,144.74556392305567
1978.1342,151.69889934148523
1979.7311,145.04328517247723
1981.3273,144.7789960352029
1982.9227,148.85630509840303
1984.5173,163.72548408302737
1986.1112,137.13680322146774
1987.7044,134.39053110886198
1989.2968,132.33693496898104
1990.8885,135.2262806816998
1992.4795,126.45883280352064
1994.0697,135.73485453869034
1995.6592,146.65460782686387
1997.2479,140.41835325035208
1998.8359,161.07634992491876
2000.4232,141.72885556215078
2002.0097,117.52612626287373
2003.5955,114.51841671062539
2005.1805,116.60598041369121
2006.7648,104.78906973517223
2008.3484,121.96793587211141
2009.9312,143.14282897367048
2011.5133,124.36399796932801
2013.0946,132.4816903571409
2014.6752,124.04615239152554
2016.2551,125.65762900208756
2017.8342,104.46636387797662
2019.4126,120.27259945176229
2020.9902,121.12657711135398
2022.5672,116.6785370419384
2024.1433,121.37871821743465
2025.7188,115.4773584449822
2027.2935,134.47469431793252
2028.8674,129.12096127486893
2030.4406,124.16639340963047
2032.0131,104.76122352484526
2033.5849,86.80568318148016
2035.1559,110.90000289289037
2036.7261,95.34441230437824
2038.2957,102.93913995224557
2039.8645,108.28441341935286
2041.4325,122.93045925917704
2042.9998,112.22750294235175
2044.5664,129.17576871021265
2046.1323,122.12547968182116
2047.6974,113.62685768448682
2049.2617,115.23012332426879
2050.8254,114.73549607095538
2052.3883,114.79319424203823
2053.9504,131.3034350076614
2055.5118,123.81643439003346
2057.0725,107.83240709833899
2058.6325,140.70156660359135
2060.1917,143.5241252984897
2061.7502,126.35029416871566
2063.3079,134.18028276471614
2064.8649,123.81429937343728
2066.4212,126.20255094002277
2067.9767,122.5452431714757
2069.5315,110.99258051277866
2071.0856,84.04476618346416
2072.6389,88.8020022931405
2074.1915,87.81449011097266
2075.7433,88.73243001810533
2077.2945,86.00602151754083
2078.8448,82.18546322495786
2080.3945,68.17095289597728
2081.9434,98.66268746436435
2083.4916,90.46086318217385
2085.039,97.86567531483888
2086.5857,97.42731822318001
2088.1317,82.4459852893633
2089.677,69.52186892128339
2091.2215,90.70516070237682
2092.7652,64.79605152085969
2094.3083,82.2447313579014
2095.8506,88.25138954671002
2097.3921,103.91621459804719
2098.933,94.73939414016513
2100.4731,118.72111476215832
2102.0124,105.2615621057339
2103.5511,94.9609206253881
2105.089,120.86937372300417
2106.6261,129.93710385085888
2108.1626,108.41429225253978
2109.6983,89.1511188722634
2111.2332,116.49776257010672
2112.7675,119.30440131463638
2114.301,100.57121190944235
2115.8337,117.54836996507129
2117.3657,112.53605008636077
2118.897,113.23442570266616
2120.4276,102.09366911798315
2121.9575,98.66395150397238
2123.4866,98.94544301135284
2125.0149,102.03831280421036
2126.5426,98.44272905717571
2128.0695,102.25885892450151
2129.5956,118.78686857601133
2131.1211,114.92692315894601
2132.6458,114.3791866326801
2134.1698,117.443821807321
2135.693,104.97099034919029
2137.2155,129.96085275016958
2138.7373,108.56356845243681
2140.2584,120.72929559855947
2141.7787,122.10819124547288
2143.2983,116.15041124282106
2144.8171,103.20611021917375
2146.3353,96.72544164159717
2147.8527,94.60855794509644
2149.3693,109.90561059742276
2150.8853,93.91675012024643
2152.4005,100.69212593618431
2153.9149,108.53188652868766
2155.4287,112.58617937429017
2156.9417,101.45515086420937
2158.454,104.38894626380397
2159.9655,108.08770982388842
2161.4764,113.45158475138533
2162.9865,93.18071317234444
2164.4958,111.77523607829835
2166.0045,107.43529352897212
2167.5124,110.81102446634213
2169.0195,127.85256675803248
2170.526,116.26005716356258
2172.0317,115.93363116392402
2173.5367,117.62342307751351
2175.0409,103.67956606339158
2176.5445,128.1021921043848
2178.0473,120.0414321465264
2179.5494,104.94741585482734
2181.0507,101.32027169388402
2182.5513,112.51012707882046
2184.0512,106.61710841156264
2185.5504,104.74134096893613
2187.0488,90.1829489615966
2188.5465,111.24205555278559
2190.0435,98.36878300391709
2191.5397,91.56325246398774
2193.0353,101.52558409830863
2194.5301,97.25589715656315
2196.0241,93.75430987317941
2197.5175,91.77093951003053
2199.0101,86.05590239144749
2200.502,78.25931392405164
2201.9931,92.18128865390827
2203.4835,72.32194034449003
2204.9733,81.98138183745914
2206.4622,105.85972525126044
2207.9505,90.35708188452509
2209.438,78.6735619772926
2210.9248,77.55927486603059
2212.4109,79.26432910047333
2213.8962,58.188832454764
2215.3809,67.08289191040376
2216.8648,75.446613867005
2218.3479,74.48010405335481
2219.8304,66.13346744377577
2221.3121,65.7068082677929
2222.7931,62.80023009359729
2224.2733,62.41383583231436
2225.7529,69.59772776706814
2227.2317,80.70200755684618
2228.7098,66.02677616465917
2230.1872,45.622133746499
2231.6638,69.58817979809191
2233.1397,58.57501335894813
2234.6149,48.33273277269382
2236.0894,54.56143579721038
2237.5632,50.31121970705135
2239.0362,40.48218123115839
2240.5085,48.87441659535989
2241.9801,56.48802162066386
2243.4509,67.92309163933396
2244.921,51.529721418751706
2246.3904,45.55800504707031
2247.8591,52.30803609715076
2249.3271,50.3799076862756
2250.7943,49.27371240864932
2252.2608,37.43954235467845
2253.7266,41.27748912203651
2255.1917,56.88764393400379
2256.656,39.8700976010864
2258.1197,19.374940364913982
2259.5826,24.10226206841753
2261.0447,66.20215236077956
2262.5062,62.7747006501595
2263.9669,44.26999568269639
2265.4269,43.53812557678066
2266.8862,47.529178008107465
2268.3448,51.74324021698931
2269.8026,51.18039896844948
2271.2598,51.29074051008138
2272.7162,44.37435057767834
2274.1719,60.23131439412782
2275.6268,61.811716738577616
2277.0811,61.86564178786193
2278.5346,65.94317310070073
2279.9874,58.99439361715804
2281.4395,59.419385617868556
2282.8908,68.41823079352207
2284.3414,67.89101024061438
2285.7914,69.68780437145824
2287.2406,54.85869291945892
2288.689,71.70375492114317
2290.1368,65.5730688644544
2291.5838,53.96671252029819
2293.0302,74.58476300385564
2294.4758,49.327296890640355
2295.9206,64.14439001032133
2297.3648,61.98611769929448
2298.8082,60.252554652513936
2300.251,72.09377494507453
2301.693,50.159852049546316
2303.1343,62.850858717563824
2304.5748,71.56686719916661
2306.0147,70.05794911588418
2307.4538,70.27417537357815
2308.8922,63.5656161775305
2310.3299,75.0823410302819
2311.7669,57.02441879871776
2313.2031,70.04191759890273
2314.6387,45.33490497665707
2316.0735,45.30344777738037
2317.5076,60.79761239312529
2318.941,60.117464762909094
2320.3737,49.013070217774384
2321.8056,61.03449348759068
2323.2369,71.73179881209762
2324.6674,63.00504982069333
2326.0972,55.95430942546409
2327.5263,60.37963990844264
2328.9547,66.08110299212285
2330.3823,52.00875979520151
2331.8092,50.66267077556404
2333.2355,56.84289587100966
2334.661,68.44949451271304
2336.0858,61.58252556341995
2337.5098,57.49204720137823
2338.9332,64.17811698901232
2340.3558,62.74079191382725
2341.7778,74.63012832154845
2343.199,67.64618193049319
2344.6195,58.03900771267763
2346.0393,60.25865996365883
2347.4583,71.90519239860305
2348.8767,74.22865813009139
2350.2943,65.62910955165398
2351.7113,74.10659831453404
2353.1275,81.16117541368703
2354.543,84.44289110300042
2355.9578,71.60179482475269
2357.3718,79.38793517679369
2358.7852,65.50136004095702
2360.1978,68.29211650519619
2361.6098,64.01025100245306
2363.021,66.40580928274858
2364.4315,90.22883645599859
2365.8413,77.37937696806239
2367.2504,88.50747436251368
2368.6587,63.96317140913288
2370.0664,58.5465099926314
2371.4733,69.55753135809073
2372.8795,72.64627616512735
2374.285,71.46278437778483
2375.6899,53.857095233649034
2377.0939,59.92924725568173
2378.4973,50.6292784282723
2379.9,57.607226136521604
2381.3019,58.063127259240446
2382.7032,50.147018099170054
2384.1037,56.108934378419235
2385.5035,57.34891131763334
2386.9027,63.966983576367966
2388.3011,62.96318524069147
2389.6987,64.38754975700522
2391.0957,60.29010994208147
2392.492,59.82089796881701
2393.8876,43.77994540720647
2395.2824,60.417283229041004
2396.6765,44.682941968309024
2398.07,47.17695155483125
2399.4627,45.79934147160111
2400.8547,47.400140729845134
2402.246,39.47937788279205
2403.6366,42.33708100967715
2405.0265,51.07327779493971
2406.4156,53.98799549965452
2407.8041,41.13126087416731
2409.1918,32.65310012894588
2410.5789,38.05353906314531
2411.9652,39.982603149388524
2413.3508,28.0903174797686
2414.7358,37.92670674654755
2416.12,28.19179536108004
2417.5035,42.53560735545898
2418.8863,35.70816647985566
2420.2684,26.859496059088542
2421.6497,39.63961906089389
2423.0304,24.148558184416743
2424.4104,45.03633573240495
2425.7896,38.702973766122795
2427.1682,37.848493896472064
2428.546,42.07291734732598
2429.9232,55.82626496407511
2431.2996,42.60855717138111
2432.6753,39.86981383564489
2434.0503,32.66005439718174
2435.4246,32.77929789761174
2436.7982,28.67756305195462
2438.1711,38.3048682474373
2439.5433,32.81123158451055
2440.9148,37.84667078057964
2442.2856,33.51120322493807
2443.6557,40.20484592841285
2445.025,40.72761556672117
2446.3937,55.17952841353167
2447.7617,40.96060033523804
2449.1289,42.62084664644112
2450.4955,35.31028225213686
2451.8613,38.478921631111916
2453.2265,45.026778909053064
2454.5909,54.25386782685496
2455.9546,50.310201675147255
2457.3177,50.89579320202074
2458.68,40.160654652466064
2460.0416,50.40479776251664
2461.4025,54.97823386659957
2462.7627,38.28097379509404
2464.1222,63.81302782859666
2465.4811,46.07440586489702
2466.8392,63.11511716365271
2468.1966,75.68517052378047
2469.5533,70.83457411304539
2470.9093,56.41333534236287
2472.2645,65.42146091430345
2473.6191,64.30895696730522
2474.973,55.02582898559422
2476.3262,66.82208181030637
2477.6787,67.54771973232027
2479.0305,56.45274637429429
2480.3816,55.387164683409765
2481.7319,57.100977042322256
2483.0816,61.444185279815656
2484.4306,51.31679065366552
2485.7789,59.3187938072067
2487.1264,50.000194870607174
2488.4733,46.310993380848004
2489.8195,51.00118837490891
2491.165,48.420778426660945
2492.5097,53.06976159996452
2493.8538,49.79813547447179
2495.1972,45.8558970991387
2496.5398,53.29304302493938
2497.8818,59.25956934429064
2499.2231,50.955471616679006
2500.5637,39.78074480899795
2501.9035,38.13538337858563
2503.2427,52.41938138497403
2504.5812,43.032732506343564
2505.919,49.57542989668082
2507.256,51.59746627964614
2508.5924,52.54883388314579
2509.9281,52.97952441911343
2511.2631,52.93952907399421
2512.5974,49.5288385044405
2513.9309,45.24744283771088
2515.2638,38.69533170577665
2516.596,69.62249428813539
2517.9275,48.778919377333295
2519.2583,59.81459506969122
2520.5884,47.82950897374235
2521.9178,55.323648099874845
2523.2465,51.24699898018298
2524.5745,41.5495475935229
2525.9018,42.83127940628401
2527.2284,60.64217946935992
2528.5543,49.63223240533307
2529.8796,50.30142223036523
2531.2041,56.499732464296585
2532.5279,61.47714612395339
2533.851,61.48364566116493
2535.1735,58.46921291298986
2536.4952,51.8838291016516
2537.8163,67.57747486468134
2539.1366,61.55013032077363
2540.4562,71.70177491284812
2541.7752,69.0823874683249
2543.0935,68.44194609760757
2544.411,79.43042822027587
2545.7279,73.9478105714918
2547.0441,80.74406909211211
2548.3596,65.71917898351876
2549.6744,78.92311463965234
2550.9885,72.805849797262
2552.3019,67.36735740386735
2553.6146,73.70760967892988
2554.9266,75.12657816823867
2556.2379,82.37423368050804
2557.5485,86.45054627318905
2558.8585,68.20548517999055
2560.1677,92.2890187701164
2561.4762,87.75111473071661
2562.7841,89.19173982605184
2564.0913,89.61085994287077
2565.3977,87.40844007600504
2566.7035,89.08444432417764
2568.0086,96.83883591202925
2569.313,101.57157717335531
2570.6167,98.73262947356488
2571.9197,97.82195316235061
2573.222,107.48950760207958
2574.5236,110.88525117690074
2575.8246,103.0091411960675
2577.1248,111.06113385998196
2578.4244,95.44118433895505
2579.7232,119.04924669268689
2581.0214,117.53527402646569
2582.3189,111.84921825508854
2583.6157,121.24103011800003
2584.9118,128.3106592361528
2586.2072,120.05805401809062
2587.5019,128.93316158925063
2588.7959,130.28592787449134
2590.0893,121.86629750933844
2591.3819,134.12421382645994
2592.6739,129.60961893986268
2593.9652,145.32245362231106
2595.2557,144.8126573504726
2596.5456,141.63016814779166
2597.8348,137.0249225895859
2599.1234,135.69685583487217
2600.4112,137.59590167241777
2601.6983,137.1719925340226
2602.9848,145.47505947552781
2604.2705,131.10503218105532
2605.5556,154.86183887997709
2606.84,147.49540649061623
2608.1237,144.60566038267734
2609.4067,137.29252445091174
2610.689,134.05592114401452
2611.9707,133.5957715377558
2613.2516,131.8119953673472
2614.5319,135.55451103204382
2615.8115,129.87323561298194
2617.0903,124.1180848357535
2618.3685,126.23897312721783
2619.6461,130.58581367305442
2620.9229,134.45851839655347
2622.199,117.90699791514771
2623.4745,144.53116150168398
2624.7493,130.48091724994038
2626.0234,126.75617180838458
2627.2968,137.70683052067534
2628.5695,132.08279746291032
2629.8415,127.08397533412017
2631.1128,130.86026551250802
2632.3835,137.26156810543762
2633.6535,123.28778191166998
2634.9228,132.88880435735086
2636.1914,127.16453163574874
2637.4593,140.41485861124397
2638.7265,140.7396788765725
2639.9931,131.88888462032196
2641.259,136.71236662368483
2642.5242,128.36001434896366
2643.7887,127.78171589133854
2645.0525,135.27735806239025
2646.3156,126.6468263958825
2647.5781,135.2400050728063
2648.8398,126.10677700768383
2650.1009,123.94702376263876
2651.3613,131.76062563872733
2652.6211,132.69746169753512
2653.8801,130.85740968304367
2655.1385,125.94034601225962
2656.3961,126.6461457936166
2657.6531,127.52468287614397
2658.9094,129.7258298424108
2660.1651,129.64945799973952
2661.42,126.39543735819416
2662.6743,124.86363663134466
2663.9279,142.70392326880756
2665.1808,141.91616347156173
2666.433,146.2502220135484
2667.6846,150.95596224954784
2668.9354,144.68324607183808
2670.1856,150.68193386313874
2671.4351,143.20188455933612
2672.6839,159.34295558949975
2673.9321,152.3050029506794
2675.1795,156.3378810464958
2676.4263,166.89144275751983
2677.6724,165.16553940094445
2678.9179,167.76002062504745
2680.1626,153.62473442645387
2681.4067,167.20952712418807
2682.6501,157.31424350102748
2683.8928,161.13872666765383
2685.1348,159.83281816160707
2686.3761,153.54635790904013
2687.6168,154.17918423777837
2688.8568,150.131133940185
2690.0961,148.6020422668305
2691.3348,142.0417429669758
2692.5727,134.90006830386142
2693.81,141.42684912031064
2695.0466,138.27191491014673
2696.2826,136.03509375292492
2697.5178,137.7662123454818
2698.7524,142.1650960243037
2699.9863,146.58156874821634
2701.2195,147.01545305439436
2702.452,147.1165700141978
2703.6839,156.78473922883177
2704.9151,167.01977882833626
2706.1456,161.17150537490443
2707.3755,165.48973376053232
2708.6046,162.7242772655011
2709.8331,167.22494751519412
2711.0609,183.89155450775365
2712.2881,183.62390656907064
2713.5145,195.57181018612232
2714.7403,206.6350700096466
2715.9654,216.0134887346636
2717.1899,214.75686698984396
2718.4136,235.06500324372303
2719.6367,246.08769381726825
2720.8591,250.2247326807975
2722.0809,262.8759113437508
2723.3019,272.74101881332206
2724.5223,275.8198414679458
2725.7421,286.26216295864674
2726.9611,284.51776417825124
2728.1795,282.3364231569643
2729.3972,276.06791507981404
2730.6142,254.3620123084637
2731.8306,251.61848444389898
2733.0462,235.4370985434847
2734.2612,218.21761914840238
2735.4756,199.759808445462
2736.6892,185.4134264392983
2737.9022,168.22823113694835
2739.1145,145.50397869131552
2740.3262,136.09042357302098
2741.5372,119.98731879764648
2742.7475,111.79441601986991
2743.9571,110.9114656944962
2745.1661,97.03821715838637
2746.3744,85.97441863928748
2747.582,73.71981739456464
2748.7889,69.57415982183988
2749.9952,63.03719158153683
2751.2008,47.308657638337536
2752.4057,53.58830232655362
2753.61,48.225869507409925
2754.8136,40.77110250624844
2756.0165,45.873744166153415
2757.2188,39.08353692249909
2758.4204,32.900222751923025
2759.6213,36.773543240227696
2760.8215,31.903239644213727
2762.0211,32.9390528529467
2763.22,30.480723436460153
2764.4182,24.477991635398325
2765.6158,11.68059738559873
2766.8127,7.088280378119407
2768.009,15.150780187213286
2769.2045,13.267836316250396
2770.3994,3.4891881170935903
2771.5936,2.014574808927364
2772.7872,-2.05626442395544
2773.9801,-10.823590417406649
2775.1723,-12.587643465196948
2776.3639,-15.748555733428702
2777.5548,-14.35633363764623
2778.745,-16.210826265322567
2779.9346,-18.361739284157693
2781.1235,-12.05861641569777
2782.3117,-18.950817947713745
2783.4992,-13.637583702397706
2784.6861,-11.867964183271624
2785.8723,-3.690873654396455
2787.0579,-3.005107818871352
2788.2428,-6.209425507967467
2789.427,2.04744446807058
2790.6106,6.066835331159723
2791.7935,13.150080282743716
2792.9757,11.548512463597945
2794.1573,23.41346488299837
2795.3382,35.396270434735925
2796.5184,50.948261778467895
2797.698,71.27077121989055
2798.8769,83.21513055521643
2800.0551,82.33267086795558
2801.2327,96.32472240946618
2802.4096,111.99261460777996
2803.5859,123.98767592768286
2804.7615,140.51123371403298
2805.9364,168.9146140718144
2807.1106,188.399141700899
2808.2842,219.9161396120129
2809.4572,240.66692893189042
2810.6294,259.1528285881061
2811.801,308.6251551015648
2812.972,353.7352224016438
2814.1423,388.4343413314689
2815.3119,427.9238191968137
2816.4808,470.65495941910854
2817.6491,529.379061140547
2818.8167,561.1474187967733
2819.9837,614.6613215296409
2821.15,655.1220528695296
2822.3157,695.3308902002073
2823.4807,744.8891043542211
2824.645,795.9979592108107
2825.8086,844.1587112003251
2826.9716,875.3226087931347
2828.134,926.1908920180222
2829.2957,952.7647921505451
2830.4567,989.2455312043533
2831.617,1007.634321665448
2832.7767,1029.9823661273765
2833.9358,1014.5408571073428
2835.0941,1004.110976822728
2836.2519,992.6438973455037
2837.4089,985.0407807065328
2838.5653,967.0527790102401
2839.7211,965.7310345106434
2840.8761,970.3266797912328
2842.0306,997.7408377781887
2843.1843,1027.1246216944246
2844.3374,1064.8791347854476
2845.4899,1119.5054700255168
2846.6417,1183.4547097401028
2847.7928,1254.3279250596208
2848.9433,1318.9261752799398
2850.0931,1393.8505071536492
2851.2422,1477.251954244078
2852.3907,1540.48153617605
2853.5385,1597.1402578018692
2854.6857,1653.8291085690253
2855.8323,1690.1490619536048
2856.9781,1750.3010748934048
2858.1233,1788.1860874247322
2859.2679,1824.3550220808816
2860.4118,1880.1587835132884
2861.555,1912.0982581298383
2862.6976,1956.4243135368308
2863.8395,1995.2377982195824
2864.9808,2002.7895410991666
2866.1214,2021.3803511442807
2867.2614,2038.0610172957267
2868.4007,2038.6823082805045
2869.5393,2055.6449724450035
2870.6773,2065.849737748791
2871.8146,2104.3473115949864
2872.9513,2083.08838072821
2874.0874,2104.6236108496096
2875.2227,2063.4036468294507
2876.3574,2051.1791124917627
2877.4915,2010.200611026539
2878.6249,2001.2187251119826
2879.7577,1961.3340173242916
2880.8898,1933.8970302274756
2882.0212,1914.9082867722047
2883.152,1912.2182905701798
2884.2821,1906.3275260840187
2885.4116,1879.7864586541577
2886.5405,1900.2455345577569
2887.6686,1897.6551812741134
2888.7962,1920.2658072800696
2889.923,1915.5778020759149
2891.0493,1940.1415359592827
2892.1748,1939.2573600720284
2893.2997,1946.6256061545919
2894.424,1975.996586554842
2895.5476,1985.3205941543895
2896.6706,2000.1479020748816
2897.7929,2029.0287635847583
2898.9145,2067.463411950982
2900.0355,2087.102060150227
2901.1559,2121.694900484535
2902.2756,2162.2921043849256
2903.3946,2191.2938220654714
2904.513,2207.2501821173246
2905.6308,2241.111291218698
2906.7479,2276.3772339753054
2907.8643,2289.5480725817474
2908.9801,2308.6738464688515
2910.0953,2310.904572171965
2911.2098,2313.2902431396965
2912.3236,2309.080829711611
2913.4368,2306.1762790943694
2914.5494,2281.8765154038274
2915.6613,2248.581439694076
2916.7725,2228.6909302004433
2917.8831,2197.6548426724426
2918.9931,2168.8230105726784
2920.1024,2133.1452453872084
2921.211,2121.721336913859
2922.319,2111.051053619006
2923.4264,2092.58414275181
2924.5331,2070.1703304509238
2925.6391,2060.209321929159
2926.7445,2073.9008016976245
2927.8493,2054.694433665334
2928.9534,2065.0398610022976
2930.0569,2049.586706331577
2931.1597,2048.7345716258387
2932.2619,2055.633038361881
2933.3634,2045.631667529158
2934.4643,2036.3799995607935
2935.5645,2017.4275544335949
2936.6641,1986.6238317605698
2937.763,1964.5683109804497
2938.8613,1917.7604516657302
2939.959,1860.4996937432231
2941.056,1806.1854579621368
2942.1523,1718.8171464666834
2943.248,1642.6941433392205
2944.3431,1542.7658154739352
2945.4375,1439.481513338074
2946.5313,1345.890571971225
2947.6244,1247.242312018162
2948.7169,1147.3860406647532
2949.8087,1055.5710526244438
2950.8999,964.4466311368201
2951.9904,899.4620488857568
2953.0803,821.4665689106633
2954.1696,770.1094452563287
2955.2582,712.8399237528776
2956.3462,671.7572425293395
2957.4335,631.0106325863463
2958.5202,607.7993182069571
2959.6062,583.0225173641256
2960.6916,563.6794419528128
2961.7764,553.0192980377543
2962.8605,534.2912860468923
2963.9439,518.8946008779758
2965.0267,518.4284320858413
2966.1089,518.0919640363803
2967.1905,512.8843759111994
2968.2714,521.2548417109858
2969.3516,515.7025303075843
2970.4312,525.7266053602909
2971.5102,529.2262253713766
2972.5885,533.2005435858462
2973.6662,525.0487079564427
2974.7432,532.6698611039037
2975.8196,518.8631403984795
2976.8954,520.8776778837221
2977.9705,512.2626004145525
2979.045,515.9670296371146
2980.1188,495.09008207492616
2981.192,476.7808690918355
2982.2645,472.48849710079
2983.3364,443.0120677469291
2984.4077,415.00067795050745
2985.4783,381.25342020165954
2986.5483,362.8693828405137
2987.6177,334.09765039466413
2988.6864,302.1373037630119
2989.7545,276.3874205034813
2990.8219,248.0470751526234
2991.8887,217.41533948311576
2992.9548,197.49128278716523
2994.0204,166.27397218282533
2995.0852,145.2624728132373
2996.1495,125.85584815880304
2997.2131,101.55316024730041
2998.276,86.45346984794924
2999.3383,62.305836714438215
3000.4,53.80931973592135
3001.4611,39.51297717849479
3002.5215,32.215866770161824
3003.5812,23.067045843796222
3004.6404,11.36557141011383
3005.6989,6.610500249159827
3006.7567,-6.849110972675362
3007.8139,-4.264205655106366
3008.8705,-6.335658775229149
3009.9264,-0.864302710725724
3010.9818,-7.900906546046713
3012.0364,-12.846230731258629
3013.0905,-8.45095678637324
3014.1439,-9.465637897556917
3015.1966,-4.24074282591846
3016.2487,-14.376645770844448
3017.3002,-2.673678566700687
3018.3511,-5.482029425162409
3019.4013,0.9981401521438329
3020.4509,4.9167234290652
3021.4998,2.373613659468333
3022.5481,14.918704048052518
3023.5958,17.20188777578221
3024.6428,18.873057874435062
3025.6892,26.282107203770238
3026.735,31.32892843481659
3027.7802,39.11341397578201
3028.8247,37.23545592158587
3029.8685,47.394945976012195
3030.9118,50.441775470491166
3031.9544,56.92583526250371
3032.9963,70.54701570511304
3034.0376,67.55520658212458
3035.0783,73.85029697187406
3036.1184,85.58217527714544
3037.1578,100.3007291622198
3038.1966,106.4558454355572
3039.2348,107.79740990261075
3040.2723,115.02530730427571
3041.3092,118.03942130347309
3042.3455,116.58963441287142
3043.3811,116.97582796474535
3044.4161,111.9978821254731
3045.4505,122.90567589167523
3046.4842,108.79908713999333
3047.5173,112.27799251801281
3048.5498,116.79226758532803
3049.5816,105.99178677875403
3050.6128,104.92642336718285
3051.6434,102.29604955958911
3052.6734,106.75053651568322
3053.7027,105.28975437221533
3054.7314,104.56357219843034
3055.7594,97.27185801067594
3056.7868,102.01447877966456
3057.8136,95.6913005033901
3058.8398,96.55218815970267
3059.8653,96.89700576953919
3060.8902,100.92561638831495
3061.9145,96.78788210247535
3062.9381,88.73366398920984
3063.9612,85.46282215782941
3064.9835,78.82521583030888
3066.0053,78.67070337399491
3067.0264,79.74914236798259
3068.0469,83.66038960465994
3069.0668,79.75430107892362
3070.086,74.83073194906666
3071.1046,71.9895365758394
3072.1226,67.53056857168474
3073.1399,67.70368082915058
3074.1567,52.358725565479176
3075.1727,53.99555432087601
3076.1882,43.764018111959274
3077.203,43.61396741539187
3078.2173,35.34525227019651
3079.2308,32.757722279256086
3080.2438,28.2012266920014
3081.2561,20.875614430285964
3082.2678,18.78073413395157
3083.2789,7.166434234083567
3084.2893,11.18256297396033
3085.2991,7.0789685251959895
3086.3083,9.305498947579053
3087.3169,4.862002230108658
3088.3248,2.9483262687290335
3089.3321,6.614318910764666
3090.3388,3.259827974056634
3091.3449,-5.4152987896968625
3092.3503,4.388786338604461
3093.3551,1.9219851768954754
3094.3593,-2.165800500776413
3095.3629,-4.074668939583773
3096.3658,-0.8546967483521257
3097.3681,-2.7059198299644436
3098.3698,-6.1783655488833915
3099.3708,-1.222034237432581
3100.3713,-1.3368645060638755
3101.3711,-4.772782757107166
3102.3702,-2.0297020376160617
3103.3688,-1.0574877145445498
3104.3667,4.09401512187668
3105.364,-1.0750280542809492
3106.3607,6.185548190114105
3107.3568,2.0259200277233163
3108.3522,5.946263569352766
3109.347,7.746754905549267
3110.3412,0.32757006739717554
3111.3348,8.888885008513427
3112.3277,6.030872410089842
3113.32,8.453704864429568
3114.3117,6.507554903527165
3115.3028,11.842594974840353
3116.2932,12.908997460751323
3117.2831,14.956934625216377
3118.2723,17.786578603101987
3119.2608,12.798101379705457
3120.2488,14.241674762458388
3121.2361,15.317470430811568
3122.2229,16.77565992179919
3123.209,18.016414619280766
3124.1944,20.689905739359403
3125.1793,24.646304317974028
3126.1635,25.035781184164733
3127.1471,26.408506920508586
3128.1301,26.66465185922479
3129.1125,22.704386068447747
3130.0942,28.727879349664818
3131.0753,29.835301277319104
3132.0558,30.276821138574917
3133.0357,31.202607922243544
3134.015,23.41283031436822
3134.9936,33.50765668896602
3135.9716,27.83725518592601
3136.949,39.40179361006071
3137.9258,35.901439487810165
3138.902,41.53635995159658
3139.8775,37.90672177482776
3140.8524,39.962691315547886
3141.8267,36.604434552734205
3142.8004,42.182117065736946
3143.7735,38.99590406786214
3144.7459,45.59596035059468
3145.7178,47.68245031546047
3146.689,42.855537908025894
3147.6596,49.365386597032824
3148.6295,51.112159422667844
3149.5989,47.346018931463675
3150.5676,51.117127158831465
3151.5357,48.475645666722386
3152.5032,51.77173550591627
3153.4701,49.755557242436495
3154.4364,55.327270924589186
3155.402,57.28703610312499
3156.367,54.08501177552196
3157.3315,63.57135636638782
3158.2952,55.79622775948022
3159.2584,57.20978320284331
3160.221,65.66217938655895
3161.1829,61.40357242861123
3162.1442,64.18411779036248
3163.105,60.953970319139344
3164.065,67.0132842204273
3165.0245,65.31221309017214
3165.9834,67.45090985418692
3166.9416,65.12952678516258
3167.8993,73.698215481281
3168.8563,66.90712688942877
3169.8127,71.10641121951043
3170.7684,74.04621801235935
3171.7236,75.02669609774475
3172.6782,75.89799356497376
3173.6321,76.06025775308663
3174.5854,76.36363524214364
3175.5381,79.90827185160263
3176.4902,83.344312637285
3177.4417,76.72190185592954
3178.3926,79.69118293083196
3179.3428,85.55229851806891
3180.2924,83.05539047680526
3181.2415,88.050599810683
3182.1899,86.43806669279016
3183.1377,90.36793041570881
3184.0848,86.8903294076404
3185.0314,91.35540119310707
3185.9773,89.01328242772779
3186.9227,94.96410885356738
3187.8674,94.608015322558
3188.8115,98.84513573699064
3189.755,92.6756030530762
3190.6979,97.54954923857426
3191.6402,99.51710533448833
3192.5818,99.72840140632653
3193.5229,102.73356652442588
3194.4633,102.93272876183943
3195.4031,101.12601516428457
3196.3423,108.06355174815141
3197.2809,108.59546351856997
3198.2189,104.37187440003477
3199.1563,107.29290723108569
3200.0931,111.15868380654389
3201.0292,112.46932484830147
3201.9648,111.9249499666637
3202.8997,117.8256776472426
3203.834,115.27162525640068
3204.7677,115.01290898224377
3205.7008,116.59964386016134
3206.6333,115.83194377541385
3207.5652,119.40992144726529
3208.4964,116.43368843666023
3209.4271,122.70335511044404
3210.3571,124.3190306711252
3211.2865,125.48082309417865
3212.2154,126.33883911188896
3213.1436,126.49318420173256
3214.0712,126.79396257779743
3214.9982,128.7912771892397
3215.9246,126.93522971727589
3216.8503,133.22592055520977
3217.7755,127.06344882699273
3218.7001,132.14791232431702
3219.624,135.97940756824033
3220.5473,131.90802975834134
3221.4701,138.88387273440443
3222.3922,138.50702901713387
3223.3137,139.52758973839508
3224.2346,138.6456446449832
3225.1549,143.36128208841748
3226.0746,139.77458903376063
3226.9937,141.5856510124626
3227.9121,144.04455215822742
3228.83,150.4013751889026
3229.7473,145.90620138189
3230.6639,144.409110510578
3231.5799,146.31018088929255
3232.4954,151.0094893882689
3233.4102,149.6071114146401
3234.3244,150.85312086544454
3235.238,151.64759014164935
3236.151,157.69059013569046
3237.0634,155.83219022352785
3237.9752,155.02245820421564
3238.8864,160.81146031848593
3239.797,159.64926125684627
3240.7069,158.68592410168958
3241.6163,159.22151033891618
3242.5251,161.056079867567
3243.4332,160.1396909944679
3244.3408,163.07240041588398
3245.2477,163.25426322668312
3246.154,165.63533289100943
3247.0598,166.06566124046418
3247.9649,167.99529845029537
3248.8694,169.52429303509427
3249.7733,171.55269182949934
3250.6766,172.28053997290584
3251.5793,171.45788088918235
3252.4814,172.78475627939181
3253.3829,171.96120613001838
3254.2838,177.43726869969868
3255.1841,179.16298052745717
3256.0838,177.4883763779456
3256.9829,175.51348922418592
3257.8814,177.38835026431633
3258.7792,182.01298894133998
3259.6765,184.53743292437662
3260.5731,180.711708062416
3261.4692,184.43583835907344
3262.3647,181.75984601084724
3263.2595,184.23375136987713
3264.1538,182.2075729707044
3265.0474,183.58132750553278
3265.9404,183.6050298444901
3266.8329,184.97869302189102
3267.7247,190.1523282359998
3268.616,185.57594483529365
3269.5066,185.59955026672665
3270.3966,189.37315012149318
3271.286,184.14674813479223
