RamanShift,CorrectedData
30.1047,1625.1699813856108
32.3739,1510.9349781842539
34.6426,1398.3999587311964
36.9109,1286.5148916653893
39.1787,1174.8797316417836
41.4461,1063.6944204501797
43.7131,950.3088881315819
45.9796,844.4730540900485
48.2456,726.9368282265492
50.5112,622.2501119973217
52.7764,508.5627995892356
55.0411,398.12477896665905
57.3054,292.58593300833195
59.5692,183.09614061174622
61.8326,72.45527774853451
64.0955,-32.53678144063204
66.3579,-138.58016353963507
68.6199,-241.47467008990955
70.8815,-324.9187182170571
73.1426,-362.7583127147251
75.4032,-272.6862124385664
77.6634,127.50844771131051
79.9231,1222.2392569700582
82.1824,3726.769803297746
84.4412,8357.963662432048
86.6995,14800.284372842947
88.9574,21071.045389420782
91.2148,25373.560019053057
93.4717,27317.241357916817
95.7282,27627.70224845351
97.9842,27429.25525993217
100.2398,26801.712685344817
102.4949,26004.236543390907
104.7495,25133.988584752773
107.0036,24214.580300070396
109.2573,23359.472928643856
111.5105,22570.37746762744
113.7632,21687.1546805807
116.0154,20990.815105359427
118.2672,20456.019062947853
120.5185,19878.12666442207
122.7693,19413.747816297975
125.0197,19018.0422263102
127.2696,18600.169408055914
129.519,18350.338684951843
131.7679,18050.809194413036
134.0163,17728.339890351155
136.2642,17449.839546169766
138.5117,17095.066757989047
140.7587,16717.32994743078
143.0052,16401.537365166078
145.2512,16044.697094692765
147.4967,15700.167055493283
149.7417,15466.005006603105
151.9863,15184.468550056044
154.2304,15016.76513322585
156.4739,14776.902051641606
158.717,14588.63645066474
160.9596,14323.625327887657
163.2017,13975.075535016409
165.4433,13584.293780520791
167.6844,13153.886633119844
169.925,12738.160525689673
172.1651,12265.321759567527
174.4047,11894.32650870903
176.6439,11566.780824416612
178.8825,11194.040639049428
181.1206,10936.361769298841
183.3582,10672.449919915796
185.5954,10491.110686287626
187.832,10307.049557077169
190.0681,10195.271916036156
192.3037,10095.683043845826
194.5388,9968.588119234708
196.7734,9910.092219974495
199.0075,9889.100324151004
201.2411,9944.667310749132
203.4742,9918.197959862777
205.7068,10001.696952139166
207.9389,9995.518869043557
210.1704,10072.368192024234
212.4015,10098.849302574294
214.632,10193.01648146316
216.862,10271.623908471767
219.0915,10337.575661450883
221.3205,10476.525715535037
223.549,10607.827942483014
225.777,10821.236109288342
228.0044,11045.703876866271
230.2314,11360.98479791969
232.4578,11665.732314694453
234.6837,11901.699755826567
236.909,12061.640333294725
239.1339,11888.257140060627
241.3582,11659.003148469574
243.582,11258.981211984303
245.8053,10875.794067477513
248.0281,10499.894339232105
250.2503,10220.38454277304
252.472,9996.767088626335
254.6932,9912.594285114179
256.9139,9770.268340591088
259.134,9718.141364285646
261.3536,9712.315367723753
263.5727,9684.542265249904
265.7912,9593.973874085434
268.0092,9617.661914606264
270.2267,9508.308011248575
272.4436,9451.113692271936
274.6601,9288.180390852844
276.8759,9149.359445656652
279.0913,9045.202102466927
281.3061,8914.45951557364
283.5204,8860.982748814746
285.7341,8864.77277688362
287.9473,8925.330485863797
290.16,9075.456673191104
292.3721,9290.352047048063
294.5837,9611.867224862639
296.7947,9852.352731159286
299.0052,10008.158994343776
301.2152,9815.33634429836
303.4246,9462.03501082371
305.6334,8834.00512556713
307.8418,8281.796725555594
310.0495,7802.159759476026
312.2568,7393.044093197388
314.4635,7078.099514567057
316.6696,6912.825737501958
318.8752,6724.672405138046
321.0802,6755.139091483019
323.2847,6781.47530329785
325.4887,6730.380479792131
327.692,6622.103992360702
329.8949,6472.8451450945995
332.0972,6171.453175863824
334.2989,5875.527257809932
336.5001,5516.016502359958
338.7007,5238.419962185664
340.9008,5088.8866347986495
343.1003,4910.7654653263235
345.2992,4800.105348007231
347.4976,4690.955127972271
349.6955,4632.163602351291
351.8927,4646.079521364596
354.0895,4571.251588910858
356.2856,4562.578462427959
358.4812,4476.908753641275
360.6763,4492.9910286504055
362.8707,4406.223808785864
365.0646,4361.205570448274
367.258,4328.034745976016
369.4508,4322.059724095439
371.643,4377.7788502525345
373.8346,4299.590426672694
376.0257,4240.142711803543
378.2162,4136.233921096789
380.4062,4020.9622276027203
382.5956,3864.7757630092947
384.7844,3699.6726187948625
386.9726,3540.1508477900206
389.1603,3426.308465828659
391.3474,3327.3434533431573
393.5339,3323.80375650281
395.7199,3229.787288203488
397.9052,3183.941928103024
400.09,3164.2655235613856
402.2743,3211.3558900991193
404.4579,3263.2108115941373
406.641,3419.8780398107792
408.8235,3561.1052938812863
411.0054,3828.440258739116
413.1868,4183.180583706697
415.3675,4406.973879822042
417.5477,4590.017716291373
419.7273,4587.359618251183
421.9064,4426.997064937783
424.0848,4257.827489713905
426.2627,4029.348281672299
428.4399,3712.0567873274595
430.6166,3307.050312900401
432.7928,2886.2761274915865
434.9683,2556.0314671309934
437.1432,2296.7135389858213
439.3176,2120.7195246629835
441.4914,1959.2465828022414
443.6645,1915.0918508361738
445.8371,1826.9024466049013
448.0091,1733.725468797622
450.1806,1674.8079978345177
452.3514,1583.297096798522
454.5216,1575.2898120244954
456.6913,1470.2331740143181
458.8603,1485.1241975169924
461.0288,1502.1098825791705
463.1967,1501.3872143962872
465.3639,1564.1031631426704
467.5306,1632.1046839787814
469.6967,1730.088716424063
471.8622,1864.2521836769192
474.0271,1971.6419916348696
476.1914,1975.305027552933
478.3551,1956.4881589697015
480.5182,1969.138233670732
482.6807,1955.1520798767124
484.8426,2073.8265061169423
487.0039,2313.9583013692227
489.1647,2708.0442338730954
491.3248,3082.0310487285187
493.4843,3236.165463955027
495.6432,3200.894166751852
497.8015,3079.4638119565716
499.9592,3084.021022397834
502.1163,2979.0123901096576
504.2728,2709.1844762858473
506.4287,2386.5838123301055
508.5839,1963.7569025542816
510.7386,1620.1502274044033
512.8927,1476.710247688934
515.0461,1330.9834080148376
517.199,1321.416138221979
519.3512,1336.5548548403876
521.5029,1424.5459611859515
523.6539,1517.8358472089967
525.8043,1504.6708886144006
527.9541,1513.497445928695
530.1033,1488.2118646316994
532.2519,1448.6604750682745
534.3999,1545.8395927011734
536.5472,1795.5455185065493
538.694,2225.624538002172
540.8401,2733.422918750355
542.9856,3159.936906057177
545.1305,3321.012717894504
547.2748,3177.696540634837
549.4185,2794.4845274405525
551.5615,2501.5727996970727
553.704,2362.007450844976
555.8458,2321.7845493091263
557.987,2347.350139894299
560.1276,2373.650244187458
562.2675,2493.0808603020523
564.4069,2561.587962615049
566.5456,2611.0175005726123
568.6837,2562.715398005037
570.8212,2258.0775526324396
572.958,1863.6498365478037
575.0942,1514.7280992633478
577.2299,1299.7081716547927
579.3648,1241.7358694505856
581.4992,1234.0569953820977
583.6329,1463.7673397633462
585.766,1678.1126805677923
587.8985,1800.5387811312175
590.0304,1762.1913880082793
592.1616,1678.9662297482646
594.2922,1580.2090172785356
596.4222,1423.9654447368011
598.5515,1262.3811904586819
600.6802,1093.5019185401652
602.8083,873.0232804534189
604.9358,873.9909167356091
607.0626,789.8004591936624
609.1888,774.6975308946166
611.3144,757.1777470075158
613.4393,702.2367149544316
615.5636,614.7200345856763
617.6873,554.9232987292089
619.8103,510.8420940657943
621.9327,386.62200172696976
624.0544,333.1585977358591
626.1756,287.69745424937173
628.2961,206.13414009284133
630.4159,188.26422121464566
632.5351,135.23326150181674
634.6537,89.98682295874642
636.7716,84.37046623750939
638.8889,89.47975109030631
641.0056,127.36023642562941
643.1216,109.65748025719222
645.237,106.81703932510936
647.3518,110.33446927292425
649.4659,176.20532467603334
651.5793,118.77515900649814
653.6922,104.6395239743415
655.8043,81.6439701018353
657.9159,87.9840468648672
660.0268,54.40530292288531
662.137,8.753286055514764
664.2466,-13.926456501667417
666.3556,-35.73846495840553
668.4639,-77.88714039915249
670.5716,-4.076526881097379
672.6786,59.2401096310914
674.785,73.25954389723302
676.8907,166.8285500847578
678.9958,228.7439016285025
681.1002,184.4523702950264
683.204,199.70072556344348
685.3072,173.53573506836256
687.4097,112.75416444738767
689.5115,85.25277760276185
691.6127,39.778337309209746
693.7132,-35.72239451106543
695.8131,-73.15265633363924
697.9123,-31.76532976737144
700.0109,-68.6125656260956
702.1089,-53.19619738800975
704.2061,-65.6673730918028
706.3028,-34.976709346157804
708.3987,26.425833257304475
710.4941,110.29064354428374
712.5887,270.66811007621254
714.6827,558.7586203116534
716.7761,863.1125590024785
718.8688,1183.7303053130054
720.9608,1364.1622297764225
723.0522,1441.4586910886046
725.1429,1319.8700343038363
727.233,1130.6965900618125
729.3224,939.1386758035478
731.4112,699.1965976630745
733.4993,470.87065238305877
735.5867,355.4111297142081
737.6735,230.46831469852805
739.7596,144.4924888239202
741.845,74.68393127362106
743.9298,50.64291978595247
746.014,63.26973135239132
748.0974,99.76464245801253
750.1802,64.57792895520288
752.2624,107.60986569871238
754.3439,143.91072689752036
756.4247,217.1307856845251
758.5048,331.0703137535329
760.5843,578.1295806270518
762.6631,923.458852516882
764.7413,1405.1583898535355
766.8188,1945.228443832948
768.8956,2461.66925159948
770.9718,2783.831030845202
773.0473,2644.8139746455163
775.1221,2355.3682482375134
777.1962,1992.3939904101517
779.2697,1828.2413163987185
781.3426,1863.8603215145577
783.4147,2095.851082786614
785.4862,2368.46365860524
787.557,2376.548086402274
789.6271,2022.554379924939
791.6966,1472.5325291549816
793.7654,945.4825038486179
795.8335,630.0042590367357
797.901,418.99774029541004
799.9678,344.6628869006836
802.0339,355.99963393864164
804.0993,404.40791304875165
806.1641,392.6376523105082
808.2282,319.2887757593271
810.2916,258.8612035042552
812.3544,160.40485246146272
814.4164,72.76963695851009
816.4778,132.90546971891672
818.5385,136.11226273850843
820.5986,235.18992668405917
822.658,404.9383708612331
824.7166,521.3575022238001
826.7747,815.947223676163
828.832,1090.1574329091454
830.8886,1232.2380194541201
832.9446,1397.1388619408863
834.9999,1400.0098266768655
837.0545,1401.8007659980995
839.1085,1326.6615182405458
841.1618,1263.1419077221562
843.2143,1225.391745494262
845.2662,1071.4108299767977
847.3175,1029.1489473357888
849.368,921.6058730231434
851.4179,840.5313721993007
853.467,695.4752008086543
855.5155,578.3371063902869
857.5633,487.8168295285486
859.6105,442.9141050244307
861.6569,383.4286628007558
863.7027,327.21022835121585
865.7478,307.05852333523217
867.7922,359.52326614012054
869.8359,383.0041720826375
871.8789,487.20095288430275
873.9212,617.9633164366005
875.9629,828.8909657590157
878.0039,1000.233597691411
880.0441,1113.3909007847433
882.0837,1133.2125535876548
884.1226,1064.4482235148644
886.1609,1006.9475666489925
888.1984,951.7102284281664
890.2352,1039.7858442210636
892.2714,977.474039879251
894.3069,979.3744308564474
896.3416,882.7866228316452
898.3757,886.1102116900893
900.4091,843.4947844891631
902.4418,862.4899194251575
904.4739,881.5451862594255
906.5052,914.4101461284245
908.5358,836.9343513531676
910.5658,707.5673451105777
912.595,516.4586622082334
914.6236,364.40783037805704
916.6515,336.2143721873945
918.6786,320.17780655952447
920.7051,413.79764905558477
922.7309,521.6234120349436
924.756,567.354603718999
926.7804,691.690727112913
928.8041,603.5812795483107
930.8272,712.8757514399131
932.8495,629.6236271666294
934.8711,604.7243839786297
936.892,473.82749282983787
938.9123,356.23241862694704
940.9318,241.18862153837654
942.9506,182.64555817023574
944.9688,95.20268271675741
946.9862,48.70944754571974
949.003,-8.834695927127541
951.019,-18.630296773124428
953.0344,-0.027815805002319394
955.0491,18.2224722811643
957.063,149.12029306716613
959.0763,251.06537195257442
961.0888,322.8074328457569
963.1007,429.49619714443725
965.1119,444.58138301827603
967.1223,534.512704341978
969.1321,514.43987054444
971.1412,557.2625857094372
973.1495,592.7305487763497
975.1572,599.1434531119357
977.1641,677.9009861556588
979.1704,635.4028293555439
981.1759,682.2986573806174
983.1808,731.8881385458881
985.1849,816.2209343433897
987.1884,959.7466989462773
989.1911,1099.6650783654986
991.1932,1246.9757090145395
993.1945,1282.5282163102474
995.1951,1246.6222131997238
997.1951,1215.5072998047872
999.1943,1169.083063781056
1001.1928,1136.0490806290672
1003.1906,1154.6549141585365
1005.1877,1218.850116818705
1007.1841,1236.9342295122697
1009.1798,1193.856780953436
1011.1748,1024.8172874870725
1013.1691,829.5652535194895
1015.1627,619.4001732088327
1017.1556,431.52153241760607
1019.1477,362.1288108143126
1021.1392,253.82148375224824
1023.1299,246.64902296341825
1025.12,282.610897641629
1027.1093,320.50657451418556
1029.0979,406.8355174823155
1031.0859,496.0971872421778
1033.0731,481.29104042158724
1035.0596,467.01652868739075
1037.0454,324.77309889353273
1039.0304,214.06019322378415
1041.0148,115.77725061419915
1042.9985,46.9737078602393
1044.9814,19.49900059959691
1046.9636,-44.69743599976027
1048.9452,-58.96616696482852
1050.926,3.4426892047649744
1052.9061,-19.420396918612823
1054.8855,-31.70495479701276
1056.8642,48.589680117278476
1058.8421,137.06448910445397
1060.8194,159.47045295881253
1062.7959,182.80855110401717
1064.7717,250.87976136903126
1066.7469,267.9350597547418
1068.7213,327.975419753242
1070.695,332.8018121772784
1072.6679,279.46520455983955
1074.6402,283.8165611059012
1076.6117,272.0068432258031
1078.5826,230.23700949172962
1080.5527,218.3580157558008
1082.5221,293.1208155677632
1084.4908,446.9263602937972
1086.4587,631.1255983688716
1088.426,752.8194737587164
1090.3925,782.1089241178015
1092.3584,754.5448795724151
1094.3235,647.8282624277563
1096.2879,595.9099874435869
1098.2515,647.7909629013866
1100.2145,757.522091123552
1102.1767,821.3042679545779
1104.1382,1050.0383816637477
1106.099,1268.0753123072973
1108.0591,1469.0159294410896
1110.0185,1627.161089940233
1111.9771,1669.2116359896809
1113.9351,1499.168393502774
1115.8923,1258.8321717007457
1117.8488,975.6037648131478
1119.8045,731.3339544812206
1121.7596,657.8735125901785
1123.7139,557.8732037118989
1125.6675,578.7337858395294
1127.6204,652.1560113874893
1129.5726,664.490626982868
1131.524,637.2883727312001
1133.4748,631.0499820931236
1135.4248,568.8261821564101
1137.3741,560.0676936983182
1139.3226,489.87523180787684
1141.2705,478.9495059734363
1143.2176,393.5912207845995
1145.164,426.8510760414774
1147.1097,437.47976760826896
1149.0546,410.8779870806775
1150.9989,369.8464216796201
1152.9424,208.38575451724319
1154.8852,74.99666500723106
1156.8272,16.17983047942289
1158.7686,-8.264072486310397
1160.7092,-2.284367471886071
1162.6491,-20.280295501157525
1164.5883,63.34892522285918
1166.5267,165.15427909727987
1168.4644,331.28674988574494
1170.4014,530.1973197003499
1172.3377,783.086967340334
1174.2732,1037.3566663029687
1176.2081,1376.6573822546598
1178.1421,1639.4900704882457
1180.0755,1921.7556725300037
1182.0082,2054.305113511309
1183.9401,2106.7892993459955
1185.8713,1976.4091154048529
1187.8017,1756.0154259907686
1189.7315,1519.7590756425507
1191.6605,1207.3408913388575
1193.5888,989.4116848607537
1195.5163,892.5222559159029
1197.4432,819.1233943178631
1199.3693,799.8158809549823
1201.2947,740.7504885243779
1203.2193,725.1279817250179
1205.1432,772.7991178483753
1207.0664,825.064646934652
1208.9889,850.8753112960621
1210.9106,873.8318449941835
1212.8316,932.0349735818472
1214.7519,1005.9354138735653
1216.6715,1019.9838733635133
1218.5903,1041.3810494865156
1220.5084,1045.477629477562
1222.4257,1063.1742901578345
1224.3424,1053.6716978937475
1226.2583,1136.1705084199784
1228.1735,1272.9713669344892
1230.0879,1329.3749072735409
1232.0016,1467.081750543688
1233.9146,1524.842504557746
1235.8269,1472.8077624577109
1237.7384,1394.2281021371618
1239.6492,1221.9040867616059
1241.5592,1140.8362655542733
1243.4686,1057.2251755193574
1245.3772,1140.4213422526936
1247.285,1140.5252807778706
1249.1922,1139.53749471427
1251.0986,1178.5584762760136
1253.0042,1204.3387062818747
1254.9092,1270.7286537650361
1256.8134,1331.0287757152964
1258.7169,1536.5895164151734
1260.6196,1708.461306836909
1262.5216,1922.8445625868444
1264.4229,2085.089682186728
1266.3234,2276.7970449298627
1268.2232,2409.317009258655
1270.1223,2426.7999108475524
1272.0207,2425.4960612778195
1273.9183,2386.3057478627434
1275.8151,2373.429233660647
1277.7113,2335.9167578668075
1279.6067,2243.1685359422117
1281.5014,2231.5347599886827
1283.3953,2267.565599676369
1285.2885,2361.3612023600763
1287.181,2488.771692718963
1289.0727,2667.0471718185854
1290.9637,2762.4877158367835
1292.854,2950.4433742809324
1294.7435,3053.4141690335164
1296.6323,3194.1000924726013
1298.5204,3404.0011064420996
1300.4077,3564.7171408449394
1302.2943,3672.0480915440385
1304.1802,3682.2438187551506
1306.0653,3520.3541459735625
1307.9497,3310.9788598721134
1309.8333,3127.167711920116
1311.7162,2990.370420477093
1313.5984,3013.5366726309003
1315.4798,3030.166125565689
1317.3605,3095.108406330246
1319.2405,3175.7631116717093
1321.1197,3094.679807386121
1322.9982,2987.9080275119104
1324.876,2926.8472751407025
1326.753,2811.147023485044
1328.6293,2771.1567164890184
1330.5048,2773.0257699852427
1332.3796,2715.7035720947606
1334.2537,2680.039483208375
1336.127,2642.3328365598372
1337.9996,2681.8829385825284
1339.8714,2674.0390692865003
1341.7426,2622.0004818629786
1343.6129,2672.31640276281
1345.4826,2643.736032216837
1347.3515,2633.458543732748
1349.2196,2631.3830843808773
1351.087,2680.308774896983
1352.9537,2725.3847097029884
1354.8197,2866.859956417742
1356.6849,3059.73355540625
1358.5493,3156.404518364923
1360.4131,3264.021826392849
1362.276,3231.0344290250596
1364.1383,3165.0412431563836
1365.9998,2955.94115337131
1367.8606,2632.983012603916
1369.7206,2354.4656442288688
1371.5799,2137.737845291009
1373.4384,1967.0483892905158
1375.2962,1777.3460283502081
1377.1533,1577.3294949224146
1379.0096,1268.447503686015
1380.8652,998.2487535465953
1382.7201,750.3819307252725
1384.5742,532.6457114606801
1386.4275,381.03876448764277
1388.2802,250.40975321453516
1390.132,183.60733723936028
1391.9832,162.48017365602755
1393.8336,92.17691772238504
1395.6832,40.346223071472195
1397.5322,-2.0132575854331662
1399.3803,3.847128059491297
1401.2278,-26.07394757349357
1403.0745,12.772187897408003
1404.9204,11.534467332714485
1406.7656,27.411823465230555
1408.6101,73.10318891242241
1410.4538,115.95749601763782
1412.2968,168.87367639319928
1414.139,214.3006604918628
1415.9805,352.88737707763903
1417.8213,440.8327527715428
1419.6613,580.8357106657186
1421.5006,758.5951694439827
1423.3391,1024.5100419817936
1425.1769,1312.6292335686649
1427.0139,1820.2516392490124
1428.8502,2404.7261409409693
1430.6858,3002.301602360163
1432.5206,3377.17686317496
1434.3547,3651.8507330307075
1436.188,3733.7219878009982
1438.0206,3657.2393668409204
1439.8524,3519.4015721683427
1441.6835,3412.0572692287424
1443.5139,3329.3050882735915
1445.3435,3300.143625433797
1447.1724,3318.4714435472197
1449.0005,3249.037072450288
1450.8279,3186.239008794728
1452.6545,3159.3257167419015
1454.4804,3224.5456285907876
1456.3056,3265.497145047113
1458.13,3177.778634571143
1459.9536,2997.8884329681896
1461.7766,2704.7748442657776
1463.5987,2315.9361425125553
1465.4202,1948.1205747094318
1467.2409,1641.0263646979565
1469.0608,1383.501716838471
1470.88,1158.0448190810675
1472.6984,947.2538455408194
1474.5161,761.0769587523573
1476.3331,662.1123117777806
1478.1493,541.458050068426
1479.9648,470.71231245450144
1481.7795,382.0232323516375
1483.5935,315.7389384683447
1485.4067,298.5575556929107
1487.2192,301.1772057562375
1489.031,275.5460074036637
1490.842,216.31207636875843
1492.6522,231.2735256296346
1494.4618,208.17846600128905
1496.2705,180.27500598598272
1498.0785,200.06125200419774
1499.8858,168.58530867366608
1501.6924,172.2452786115191
1503.4981,188.18926274903606
1505.3032,188.31536029504787
1507.1075,145.27166857649172
1508.911,135.6562830371622
1510.7138,101.26729766813878
1512.5159,86.85280510394841
1514.3172,79.51089696643794
1516.1178,55.139664008929685
1517.9176,45.28719618964715
1519.7166,23.001582915418112
1521.515,8.580913140209304
1523.3126,42.02327558797333
1525.1094,13.026758896859974
1526.9055,7.439451284790266
1528.7008,-22.240559160580233
1530.4954,-63.91518442598135
1532.2893,-38.9361143149672
1534.0824,-48.90440011839746
1535.8747,-7.5707041553541785
1537.6663,-33.185200189962416
1539.4572,-7.797986355013563
1541.2473,0.8411707368468342
1543.0367,7.682582374845879
1544.8253,-8.27344016018833
1546.6132,55.67341433574984
1548.4003,50.37353971832272
1550.1867,114.87732928646619
1551.9723,171.98517583537978
1553.7572,255.74747101150206
1555.5414,290.21460474141713
1557.3247,380.4369643942464
1559.1074,474.26493443696927
1560.8893,609.4488955322049
1562.6705,696.7392235999323
1564.4509,815.6362884656482
1566.2305,891.6904529874573
1568.0094,960.1020718671098
1569.7876,1027.3214908894497
1571.565,1035.3990462383008
1573.3417,1062.8350638242719
1575.1176,1080.979859203986
1576.8928,1064.7337373057107
1578.6672,1020.1969922479293
1580.4409,962.9699075017816
1582.2138,879.6027563364369
1583.986,839.7958023913798
1585.7575,819.399300510071
1587.5282,776.6134971380143
1589.2981,806.4386305267271
1591.0673,793.2249311615997
1592.8358,835.3226214636379
1594.6035,883.1319159215909
1596.3704,924.8530206709947
1598.1366,989.7861330160631
1599.9021,1056.131441012485
1601.6668,1136.739122818095
1603.4308,1251.6593460294225
1605.194,1379.4422668756015
1606.9564,1549.8880290691832
1608.7182,1736.8967625282894
1610.4791,1928.2685816721742
1612.2394,2125.953583551128
1613.9988,2336.2518459327584
1615.7576,2572.4634253251415
1617.5156,2805.388354873836
1619.2728,2975.7266419997723
1621.0293,3078.0282660699977
1622.785,3108.593176694293
1624.54,2978.171292702159
1626.2942,2857.46250183717
1628.0477,2608.466662061187
1629.8005,2398.0836027614523
1631.5525,2176.713127240547
1633.3037,1990.2550148202145
1635.0542,1862.7090230550748
1636.804,1790.1248895971994
1638.553,1737.502333471578
1640.3013,1719.0910558019532
1642.0488,1740.040740337049
1643.7955,1780.951053634676
1645.5416,1862.7216448522431
1647.2868,1985.6021453376507
1649.0313,2092.3421678115847
1650.7751,2238.991305138712
1652.5181,2433.8991292602877
1654.2604,2632.565189727652
1656.0019,2898.7890117531597
1657.7427,3225.1700942235175
1659.4828,3531.357907037541
1661.222,3706.9018878423485
1662.9606,3706.2514389714797
1664.6984,3525.4559256894618
1666.4354,3157.1146761983046
1668.1717,2645.2269834454655
1669.9072,2129.492108807255
1671.642,1750.259287207722
1673.3761,1376.6277322759934
1675.1094,1142.0966401386104
1676.8419,917.2651931558357
1678.5737,758.0325622669652
1680.3048,615.3979092386517
1682.0351,522.2603882572193
1683.7646,432.1691473550136
1685.4934,394.4233293417792
1687.2215,330.67207270557446
1688.9488,295.91451199022686
1690.6754,238.8497784328465
1692.4012,260.82700031140666
1694.1263,243.0453035153796
1695.8506,210.30381132596995
1697.5742,184.65164459393782
1699.297,165.9379220670071
1701.0191,148.21176064638985
1702.7404,143.12227557392634
1704.461,89.6185806093381
1706.1808,87.34978808112919
1707.8999,84.96500942161583
1709.6182,64.71335518962132
1711.3358,76.09393509432084
1713.0527,47.555858197758425
1714.7688,55.94823280103901
1716.4841,17.5701667297144
1718.1987,30.070767249855635
1719.9126,22.849141451839387
1721.6257,40.15439612533373
1723.338,37.08563783151658
1725.0496,9.541972730025918
1726.7605,17.872506609643096
1728.4706,31.026345163732003
1730.18,1.552593906936636
1731.8886,-6.599641956360756
1733.5964,25.26874276270064
1735.3036,15.256919183403625
1737.0099,32.71405817234336
1738.7156,13.839330443552171
1740.4204,-11.318093616077022
1742.1246,-0.35904375804148003
1743.8279,8.81576333391331
1745.5306,9.50561456288142
1747.2325,10.30979674379978
1748.9336,-12.522403403449061
1750.634,-33.891699262074326
1752.3336,-31.548679116482162
1754.0325,-0.6435926730082429
1755.7307,-6.176374466685047
1757.4281,-10.296952603060163
1759.1247,6.494806514296215
1760.8206,23.549139348371682
1762.5158,24.816282297205362
1764.2102,-19.00352847664999
1765.9039,5.739942941198933
1767.5968,18.047122310389568
1769.289,14.868435333163688
1770.9804,17.104307531300947
1772.6711,25.105164277892072
1774.361,13.821430774993132
1776.0502,29.35353197360473
1777.7386,45.75189268651502
1779.4263,23.71693743297783
1781.1132,44.5490902747315
1782.7994,54.648775036347615
1784.4849,60.51641509690489
1786.1696,49.45243328899869
1787.8535,59.557251840064964
1789.5367,48.73129248301484
1791.2192,68.77497635519649
1792.9009,58.78872410664735
1794.5818,63.272955699664635
1796.2621,68.82809050866126
1797.9415,89.40454727532324
1799.6202,77.05274405305772
1801.2982,71.17309800122803
1802.9755,85.61602550867246
1804.6519,84.83194225250281
1806.3277,70.87126305367565
1808.0027,67.33440188483019
1809.6769,92.07177200989463
1811.3504,81.38378601945806
1813.0231,85.77085558339422
1814.6951,73.53339155774302
1816.3664,128.3718039408359
1818.0369,108.98650199567055
1819.7067,99.92789370153241
1821.3757,117.99638594784574
1823.044,124.6423846247535
1824.7115,125.61629444243772
1826.3783,123.91851886465884
1828.0443,110.99946009902033
1829.7096,129.10951911394113
1831.3741,144.54909576784667
1833.0379,134.11858862807276
1834.701,122.91839481646457
1836.3633,152.29891011368636
1838.0248,153.26052907121993
1839.6856,145.30364471756548
1841.3457,152.82864854861782
1843.005,174.28593060723597
1844.6636,176.6258794080013
1846.3214,181.3488817226389
1847.9785,180.65532255661765
1849.6349,172.74558510192037
1851.2904,187.02005074397766
1852.9453,191.92909914076608
1854.5994,194.92310808006187
1856.2528,192.75245343035567
1857.9054,197.6675091109073
1859.5572,218.66864711345443
1861.2083,234.80623745306275
1862.8587,252.4806479581148
1864.5084,224.29224410893403
1866.1572,228.09138886103938
1867.8054,228.0284429270314
1869.4528,223.6037647385947
1871.0994,221.81771044713423
1872.7453,241.7206339680206
1874.3905,219.31288699844663
1876.0349,225.3948188184022
1877.6786,260.2167765147524
1879.3215,256.6791049204139
1880.9637,243.83214626614244
1882.6051,258.22624021590036
1884.2458,248.46172399533498
1885.8858,245.63893224782714
1887.525,245.50819713214514
1889.1634,250.56984835066942
1890.8011,253.12421315070242
1892.4381,241.17161627385212
1894.0743,251.6623799304898
1895.7098,235.7968239192669
1897.3446,249.72526552221643
1898.9786,253.49801966340965
1900.6118,281.4153987696636
1902.2443,264.7277127328189
1903.8761,262.0852686305607
1905.5071,236.63837089330264
1907.1374,233.93732133060712
1908.7669,259.13241938565625
1910.3957,248.97396216226298
1912.0237,237.01224417291905
1913.651,225.1475574403794
1915.2776,243.78019161727752
1916.9034,240.61043410477487
1918.5285,230.98856986623014
1920.1528,210.9148814589007
1921.7764,234.83964913015734
1923.3992,213.91315101822147
1925.0213,202.5856629129221
1926.6427,197.9074584649552
1928.2633,160.82880929916428
1929.8832,256.74998506132215
1931.5023,224.02125378891742
1933.1207,212.29288095193715
1934.7383,207.96512978015653
1936.3552,202.73826138042114
1937.9714,196.7625347799276
1939.5868,194.8382069784875
1941.2015,162.2155330082951
1942.8154,170.994765953159
1944.4286,172.2261572747384
1946.041,167.30995672474728
1947.6528,162.2464123326372
1949.2637,170.9357704547665
1950.8739,162.37827582502996
1952.4834,160.12417146797088
1954.0921,177.7736987843482
1955.7001,165.82709757368684
1957.3074,175.03460585777157
1958.9139,161.64646000011908
1960.5197,155.46289461390006
1962.1247,141.9841426958228
1963.729,140.56043568796395
1965.3325,141.14200361256553
1966.9353,147.1290750862645
1968.5374,130.02187731427966
1970.1387,129.3706360305432
1971.7393,103.07557566876812
1973.3392,119.18691936896221
1974.9383,102.20488924037772
1976.5366,108.02970620040287
1978.1342,118.16159014438017
1979.7311,115.35075988735571
1981.3273,125.44743306276041
1982.9227,109.75182615052063
1984.5173,130.5141543760883
1986.1112,95.9846318673981
1987.7044,123.06347144724668
1989.2968,107.35088497858897
1990.8885,131.74708309374546
1992.4795,106.60227535152762
1994.0697,107.06666999327717
1995.6592,111.19047419431627
1997.2479,111.62389405930253
1998.8359,113.26713458098857
2000.4232,86.07039963589295
2002.0097,111.93389196786438
2003.5955,112.60781346004842
2005.1805,117.09236487625458
2006.7648,92.63774585421015
2008.3484,102.74415486072576
2009.9312,104.36178943623327
2011.5133,81.44084609372567
2013.0946,92.38152030257834
2014.6752,116.48400671775971
2016.2551,102.9984990704238
2017.8342,92.72518992688629
2019.4126,101.864270823482
2020.9902,103.41593236929566
2022.5672,94.43036415477263
2024.1433,102.40775473619988
2025.7188,83.54829172556083
2027.2935,102.60216171076218
2028.8674,112.26955044423084
2030.4406,94.25064265237506
2032.0131,90.84562193891134
2033.5849,81.25467096504963
2035.1559,107.57797148354257
2036.7261,106.71570443460132
2038.2957,79.01804968265742
2039.8645,90.0851860249868
2041.4325,104.01729146868593
2042.9998,91.5145431200026
2044.5664,103.97711704501444
2046.1323,100.75518839465394
2047.6974,84.64893128008634
2049.2617,107.90851880492573
2050.8254,98.88412322629893
2052.3883,118.22591572225201
2053.9504,114.6840664819888
2055.5118,110.30874451245427
2057.0725,96.20011767375627
2058.6325,104.95835272291333
2060.1917,96.9836154549489
2061.7502,100.12607061530116
2063.3079,100.63588197957506
2064.8649,90.01321232211603
2066.4212,91.3582234109117
2067.9767,83.12107611381862
2069.5315,89.95193038511388
2071.0856,97.35094534786413
2072.6389,89.56827922562115
2074.1915,75.15408926842656
2075.7433,74.70853183064173
2077.2945,62.6317625150873
2078.8448,65.32393617750358
2080.3945,69.03520704731181
2081.9434,69.31572870069704
2083.4916,72.46565402349097
2085.039,77.6851352083695
2086.5857,94.22432372335334
2088.1317,74.68337025961182
2089.677,61.06242456607151
2091.2215,67.06163564482813
2092.7652,65.08115188735337
2094.3083,73.42112101450539
2095.8506,74.63169009633111
2097.3921,73.3130054686676
2098.933,74.11521272103846
2100.4731,81.23845670983701
2102.0124,79.88288155030523
2103.5511,80.69863054530288
2105.089,83.43584619885951
2106.6261,93.44467020801676
2108.1626,94.87524343546238
2109.6983,88.37770580943743
2111.2332,92.70219630943166
2112.7675,89.04885303115861
2114.301,96.16781314331183
2115.8337,93.05921292409948
2117.3657,81.27318769005569
2118.897,81.85987182712324
2120.4276,97.26939890851645
2121.9575,78.20190168885256
2123.4866,99.3075119500586
2125.0149,96.3363606920384
2126.5426,100.63857792162707
2128.0695,80.1142926822954
2129.5956,80.31363301112788
2131.1211,90.78672614406787
2132.6458,100.63369851392417
2134.1698,92.75467564563996
2135.693,94.5497820578239
2137.2155,94.86914134154085
2138.7373,94.9128761423558
2140.2584,98.33110815714554
2141.7787,96.47395813365847
2143.2983,104.44154583633372
2144.8171,84.6339900648718
2146.3353,86.80140857455763
2147.8527,70.89391827433883
2149.3693,104.66163520514965
2150.8853,85.95467469898631
2152.4005,78.623151041229
2153.9149,102.41717765771045
2155.4287,96.33686718803301
2156.9417,72.1823312476281
2158.454,82.95368048855971
2159.9655,87.00102484107128
2161.4764,82.32447340586896
2162.9865,75.07413441365361
2164.4958,85.35011527188044
2166.0045,86.75252263726361
2167.5124,95.48146231301644
2169.0195,82.63703923482808
2170.526,87.21935738357615
2172.0317,90.92851991376892
2173.5367,94.31462910772234
2175.0409,102.42778633846956
2176.5445,97.41809203589764
2178.0473,82.08564560561581
2179.5494,81.03054547905504
2181.0507,85.4528892667895
2182.5513,80.25277376908889
2184.0512,113.5302949316947
2185.5504,101.93554789782047
2187.0488,81.16862667537953
2188.5465,83.92962425292853
2190.0435,81.46863280734124
2191.5397,82.93574367619703
2193.0353,85.38104738239053
2194.5301,78.05463361946022
2196.0241,81.10659122713605
2197.5175,79.83700826460063
2199.0101,72.14597197997273
2200.502,65.43356882300259
2201.9931,59.79988452198086
2203.4835,61.4450041508635
2204.9733,58.41901218561043
2206.4622,81.87199248773277
2207.9505,60.404028334553004
2209.438,63.21520218467322
2210.9248,71.70559589265713
2212.4109,65.5252906809178
2213.8962,52.074367054815866
2215.3809,59.90290486445883
2216.8648,55.910983439213396
2218.3479,51.34868150941702
2219.8304,42.46607724629803
2221.3121,52.11324830759804
2222.7931,61.39027192640151
2224.2733,48.24722481465869
2225.7529,47.68418307042066
2227.2317,68.60122230926618
2228.7098,60.69841766993477
2230.1872,37.325843605154205
2231.6638,55.783573960669855
2233.1397,47.92168220896974
2234.6149,62.34024126470922
2236.0894,55.039323563325524
2237.5632,53.519000916854566
2239.0362,50.67934458693935
2240.5085,50.870425300035095
2241.9801,33.09231327580437
2243.4509,54.845078225208
2244.921,38.17878952828687
2246.3904,40.19351601663038
2247.8591,38.23932614004525
2249.3271,34.21628794640128
2250.7943,26.9744691011756
2252.2608,28.913936927684972
2253.7266,27.584758479501943
2255.1917,39.237000521058235
2256.656,30.320729540940192
2258.1197,47.68601163536459
2259.5826,43.682912597344966
2261.0447,39.81149774303549
2262.5062,44.07183195176367
2263.9669,53.41397970474054
2265.4269,42.58800504246028
2266.8862,44.3439714712772
2268.3448,46.181942071668345
2269.8026,42.65197948067089
2271.2598,42.204145873505695
2272.7162,38.53850299887563
2274.1719,39.30511218344418
2275.6268,40.404034368493285
2277.0811,50.73533010225265
2278.5346,51.349059528912676
2279.9874,52.895282285310714
2281.4395,63.57405749479676
2282.8908,58.78544375176625
2284.3414,42.47949901487527
2285.7914,43.856280654926195
2287.2406,49.365845617927334
2288.689,59.75825041132248
2290.1368,36.483551048898335
2291.5838,55.44180294685884
2293.0302,56.58306115657251
2294.4758,40.0073801749877
2295.9206,46.91481393322738
2297.3648,47.65541596233925
2298.8082,45.02923932422391
2300.251,54.0363366042302
2301.693,54.57675993741714
2303.1343,59.35056091848219
2304.5748,61.307790596356426
2306.0147,53.64849942646606
2307.4538,49.922737251160015
2308.8922,62.93055337630358
2310.3299,44.12199660853503
2311.7669,62.69711512519075
2313.2031,49.405956662385506
2314.6387,56.548568329263844
2316.0735,45.17499674091073
2317.5076,40.18528794692702
2318.941,61.579487545165875
2320.3737,43.05764073162891
2321.8056,47.06979208652365
2323.2369,49.515985759481964
2324.6674,58.59626542943852
2326.0972,48.86067428016804
2327.5263,45.509254909483616
2328.9547,54.24204942659185
2330.3823,58.55909948560793
2331.8092,60.1104461982261
2333.2355,51.24613009055133
2334.661,54.61619108758373
2336.0858,55.620668601861325
2337.5098,63.8096014997609
2338.9332,60.533028091451115
2340.3558,43.44098604900773
2341.7778,60.13351243917646
2343.199,48.610643894295436
2344.6195,57.47241644537007
2346.0393,49.11886563729922
2347.4583,60.85002644025917
2348.8767,60.46593333324131
2350.2943,72.56662018673615
2351.7113,50.25212026657687
2353.1275,59.82246611293135
2354.543,69.52768976344692
2355.9578,69.6178226575471
2357.3718,72.99289553937638
2358.7852,61.152938456900074
2360.1978,60.747980728157245
2361.6098,60.628051059658674
2363.021,64.39317755043771
2364.4315,64.84338769324722
2365.8413,65.37870833691113
2367.2504,78.89916568182048
2368.6587,61.15478527457935
2370.0664,49.69559187279992
2371.4733,71.12160962254666
2372.8795,66.18286217292962
2374.285,71.27937246184251
2375.6899,56.11116276535358
2377.0939,71.3282546467326
2378.4973,57.58066910814114
2379.9,51.268426438459755
2381.3019,70.09154635076356
2382.7032,55.05004804544478
2384.1037,63.44395002197871
2385.5035,50.873270229341415
2386.9027,48.43802598206844
2388.3011,57.388234085966815
2389.6987,57.52391086246348
2391.0957,59.34507205910586
2392.492,41.90173284820139
2393.8876,34.74390780861086
2395.2824,37.22161110017828
2396.6765,32.68485653530615
2398.07,50.03365755418395
2399.4627,40.418027270153516
2400.8547,39.28797829621749
2402.246,24.54352284119841
2403.6366,39.884672721040715
2405.0265,47.6114395062541
2406.4156,36.22383436850237
2407.8041,39.971868003332474
2409.1918,53.855550744052834
2410.5789,33.72489252424862
2411.9652,31.529902738951932
2413.3508,48.12059044594798
2414.7358,39.146964387723756
2416.12,39.45903282555878
2417.5035,37.60680362926655
2418.8863,49.990284274069836
2420.2684,36.6594818591243
2421.6497,30.764402983684477
2423.0304,32.25505388041097
2424.4104,39.78144047432056
2425.7896,37.24356836788115
2427.1682,45.84144276574625
2428.546,43.175068500135694
2429.9232,39.19444994485457
2431.2996,43.84959104195832
2432.6753,51.34049534155906
2434.0503,48.41716595527305
2435.4246,41.929605481313274
2436.7982,40.97781603372141
2438.1711,45.61179930724438
2439.5433,45.581556586850866
2440.9148,23.087088701392304
2442.2856,34.778396023906225
2443.6557,35.90547869655961
2445.025,36.41833651373554
2446.3937,38.61696891076349
2447.7617,29.70137495878953
2449.1289,38.92155334279141
2450.4955,43.27750245073253
2451.8613,34.81922028136273
2453.2265,52.94670440065693
2454.5909,44.50995202639706
2455.9546,48.85895984690001
2457.3177,44.69372410538381
2458.68,53.26424055647749
2460.0416,48.82050450787415
2461.4025,51.21251073462554
2462.7627,56.49025352357853
2464.1222,52.10372664945703
2465.4811,52.7029233220826
2466.8392,48.8378362302401
2468.1966,46.55845753568451
2469.5533,61.114778911793564
2470.9093,54.40679156636088
2472.2645,66.33448609603352
2473.6191,60.547852553390385
2474.973,62.446880327666804
2476.3262,66.13155820262023
2477.6787,56.751874337539675
2479.0305,51.40781623040016
2480.3816,46.99937081165808
2481.7319,60.476524497691116
2483.0816,63.189263234884265
2484.4306,63.137572364856396
2485.7789,47.671436597335514
2487.1264,46.84084001067458
2488.4733,61.39576620651292
2489.8195,60.786198318081915
2491.165,49.56211886465644
2492.5097,56.02350975764966
2493.8538,48.72035241285471
2495.1972,50.90262768583011
2496.5398,40.320315944931735
2497.8818,52.773397049490086
2499.2231,45.461850455632884
2500.5637,52.98565509175546
2501.9035,49.24478943163422
2503.2427,62.13923141918872
2504.5812,50.11895850589258
2505.919,54.98394752182685
2507.256,67.23417479588375
2508.5924,50.01961610711692
2509.9281,57.69024656223746
2511.2631,56.69604076776341
2512.5974,59.88697275330924
2513.9309,62.21301598152991
2515.2638,58.974143316211894
2516.596,60.87032699901101
2517.9275,58.8015386818422
2519.2583,47.56774940791752
2520.5884,43.118929632434174
2521.9178,61.65504933491161
2523.2465,69.37607806368123
2524.5745,61.38198475052309
2525.9018,43.0727376334587
2527.2284,46.498304336689216
2528.5543,70.25865205368973
2529.8796,58.30374751295153
2531.2041,60.93355674038048
2532.5279,60.59804517884572
2533.851,77.64717766188028
2535.1735,59.78091841703849
2536.4952,57.29923089540421
2537.8163,65.4520779502518
2539.1366,66.8394218618646
2540.4562,57.3612242560057
2541.7752,66.71744609004486
2543.0935,72.40804774773937
2544.411,72.6329889456722
2545.7279,68.94222867634653
2547.0441,74.13572520593516
2548.3596,76.31343611118996
2549.6744,84.22531822750557
2550.9885,57.971327627142045
2552.3019,71.80141954010651
2553.6146,83.46554861669279
2554.9266,74.51366878918225
2556.2379,78.74573315520001
2557.5485,86.41169406723634
2558.8585,76.61150309032473
2560.1677,85.24511092538182
2561.4762,86.81246750721039
2562.7841,71.813521918162
2564.0913,79.1482223724629
2565.3977,85.66651636620463
2566.7035,87.11835060399721
2568.0086,89.75367093378532
2569.313,86.17242233233105
2570.6167,88.6745488788597
2571.9197,88.95999379087448
2573.222,93.22869939913244
2574.5236,93.78060714479238
2575.8246,97.51565753672503
2577.1248,87.933790145996
2578.4244,108.48494356851484
2579.7232,107.36905552085364
2581.0214,103.88606263473571
2582.3189,113.63590046819422
2583.6157,108.2185035404018
2584.9118,110.73380523417268
2586.2072,115.28173785013666
2587.5019,120.06223258158593
2588.7959,125.42521946899524
2590.0893,124.52062735221762
2591.3819,118.24838381685413
2592.6739,123.00841520329993
2593.9652,130.05064666946612
2595.2557,126.62500214318027
2596.5456,127.08140425176293
2597.8348,131.019774356286
2599.1234,128.29003254700785
2600.4112,140.24209760398912
2601.6983,138.37588702439086
2602.9848,123.14131690295403
2604.2705,131.03830195066064
2605.5556,133.21675564708028
2606.84,135.57659016139985
2608.1237,140.91771633063888
2609.4067,124.54004363605168
2610.689,125.14348014971654
2611.9707,127.1279326983115
2613.2516,129.34330685708062
2614.5319,117.0895069299894
2615.8115,126.56643592757052
2617.0903,129.72399568946275
2618.3685,130.01208678963997
2619.6461,122.48060850483648
2620.9229,126.47945881166561
2622.199,126.95853446193462
2623.4745,122.06773094265759
2624.7493,127.30694247126314
2626.0234,126.07606204450394
2627.2968,131.02498138606302
2628.5695,126.85359095886349
2629.8415,128.56177991557888
2631.1128,129.14943614034746
2632.3835,120.31644623168961
2633.6535,126.71269549663225
2634.9228,131.2880680390383
2636.1914,134.69244669564432
2637.4593,118.37571299030651
2638.7265,130.6377470999563
2639.9931,126.2284280177688
2641.259,123.79763343054185
2642.5242,134.24523976278897
2643.7887,123.32112220104796
2645.0525,128.8751545894046
2646.3156,125.15720953873347
2647.5781,126.61715837115878
2648.8398,124.20487115723267
2650.1009,127.92021670133636
2651.3613,127.76306256580244
2652.6211,118.73327503376163
2653.8801,122.73071911071486
2655.1385,120.75525861483015
2656.3961,119.90675613696874
2657.6531,123.08507306044021
2658.9094,123.8400695694869
2660.1651,132.7216046175007
2661.42,123.97953591947339
2662.6743,135.4637198631808
2663.9279,131.9240115966037
2665.1808,140.81026491308614
2666.433,137.52233228673344
2667.6846,139.41006478354836
2668.9354,141.27331209431088
2670.1856,147.91192251570124
2671.4351,148.62574293166688
2672.6839,144.6646187470369
2673.9321,141.22839388038255
2675.1795,140.71691080362984
2676.4263,156.43001057642073
2677.6724,156.31753285122807
2678.9179,168.37931571622607
2680.1626,149.2151956964134
2681.4067,155.37500763299636
2682.6501,160.00858487503
2683.8928,153.2657592178191
2685.1348,145.146360856584
2686.3761,145.250218453888
2687.6168,150.62715922083135
2688.8568,141.52700891601307
2690.0961,134.49959179176108
2691.3348,141.39473068513405
2692.5727,138.61224708819498
2693.81,130.30196107906
2695.0466,136.81369134972306
2696.2826,133.3972552891588
2697.5178,127.90246891820539
2698.7524,132.62914692372829
2699.9863,143.17710271356907
2701.2195,136.64614836927797
2702.452,136.5360945406345
2703.6839,154.1967505109568
2704.9151,149.77792419820287
2706.1456,147.32942197836383
2707.3755,156.45104872965226
2708.6046,174.24260785698664
2709.8331,176.75390120077589
2711.0609,175.9847288590031
2712.2881,192.48488916211215
2713.5145,192.00417868069962
2714.7403,200.04239206051386
2715.9654,210.9493220272617
2717.1899,231.52475930622631
2718.4136,230.1184925131979
2719.6367,246.88030794871918
2720.8591,247.10998961214852
2722.0809,266.65731903404117
2723.3019,266.17207527385256
2724.5223,282.6040347244651
2725.7421,283.50297111704094
2726.9611,282.7186553567029
2728.1795,288.6508555135439
2729.3972,277.799336830471
2730.6142,263.16386166388247
2731.8306,252.2441895921844
2733.0462,231.74007756214337
2734.2612,223.3012799980853
2735.4756,195.97754900693542
2736.6892,180.61863446260588
2737.9022,163.7242842792342
2739.1145,154.19424456477134
2740.3262,134.97825978992637
2741.5372,129.42607288346642
2742.7475,113.73742542437606
2743.9571,112.61205769737944
2745.1661,88.19970884982638
2746.3744,86.50011690294684
2747.582,84.11301899597379
2748.7889,62.238151403139
2749.9952,64.82524955754502
2751.2008,58.97404826991317
2752.4057,47.58428170271236
2753.61,54.00568342867132
2754.8136,46.187986544676505
2756.0165,37.98092360755811
2757.2188,35.084226712267196
2758.4204,38.197627573945965
2759.6213,35.1708575568955
2760.8215,37.253647643440786
2762.0211,25.045728464198874
2763.22,23.19683027725125
2764.4182,27.106683090222532
2765.6158,11.575016678769202
2766.8127,10.251560547481063
2768.009,14.586044085197955
2769.2045,14.678196578243956
2770.3994,4.527747167082907
2771.5936,-4.315575154602925
2772.7872,-2.402041438408105
2773.9801,-16.93187962333127
2775.1723,-9.105293651977377
2776.3639,-1.1723183174747192
2777.5548,-27.33289745106822
2778.745,-13.936963172543415
2779.9346,-10.234174546040776
2781.1235,-13.674051405438945
2782.3117,-25.656011345213756
2783.4992,-10.52933535606769
2784.6861,-2.5430481251509036
2785.8723,-10.096069151553479
2787.0579,-5.937292529315414
2788.2428,-5.665511492746077
2789.427,7.920540037396677
2790.6106,10.172184738815076
2791.7935,11.390745210006003
2792.9757,21.87754394774538
2794.1573,27.73390333490238
2795.3382,37.261145535570336
2796.5184,45.31059243650384
2797.698,58.433565551844936
2798.8769,78.3813859426316
2800.0551,82.5553740855654
2801.2327,92.60684967353689
2802.4096,114.08713157388229
2803.5859,125.74753772787017
2804.7615,146.48938493589856
2805.9364,159.2639887408908
2807.1106,183.87266322087578
2808.2842,219.0667208612441
2809.4572,242.4474723086596
2810.6294,272.8662260191194
2811.801,303.27428802414613
2812.972,343.32296162660066
2814.1423,381.26354709660086
2815.3119,428.3973412710361
2816.4808,469.1756371741609
2817.6491,524.6497235462562
2818.8167,559.4208844358476
2819.9837,614.9903986449634
2821.15,661.6595393814243
2822.3157,710.6295737031465
2823.4807,752.701762051452
2824.645,805.8273577613672
2825.8086,845.5076066409019
2826.9716,895.8937464397925
2828.134,923.3870064526996
2829.2957,966.1386070153471
2830.4567,991.4997592295888
2831.617,1005.5216645358927
2832.7767,1021.2555144597294
2833.9358,1015.6524904713536
2835.0941,1009.2137638284654
2836.2519,1003.1904956322397
2837.4089,986.4338368917141
2838.5653,980.7949285840222
2839.7211,976.2749018219589
2840.8761,966.4748779103708
2842.0306,1005.3959683913558
2843.1843,1025.3392751422634
2844.3374,1055.6058899864838
2845.4899,1107.8968944940145
2846.6417,1172.9133596787947
2847.7928,1248.1563454757948
2848.9433,1315.276900090853
2850.0931,1400.226059248243
2851.2422,1471.104845519471
2852.3907,1522.0642674737824
2853.5385,1581.7053189693745
2854.6857,1631.4789786438032
2855.8323,1701.9862093175702
2856.9781,1738.8779574963892
2858.1233,1776.2551526661105
2859.2679,1840.818706923807
2860.4118,1877.3195146039993
2861.555,1903.7084516330224
2862.6976,1955.5363751640148
2863.8395,1983.2541233130332
2864.9808,2014.6625146407687
2866.1214,2010.2123478753738
2867.2614,2024.4044015983743
2868.4007,2043.5894342891743
2869.5393,2049.2681841831336
2870.6773,2074.3413690797183
2871.8146,2073.7596862857126
2872.9513,2071.373812364486
2874.0874,2075.984403141814
2875.2227,2072.492093729731
2876.3574,2043.8974984804327
2877.4915,2019.9012110211902
2878.6249,1992.4538045403024
2879.7577,1975.355832027055
2880.8898,1926.857826546197
2882.0212,1938.2603014089188
2883.152,1927.813750657833
2884.2821,1895.5686489529498
2885.4116,1893.1754516761416
2886.5405,1904.0845952535954
2887.6686,1907.7964971797433
2888.7962,1911.711555908172
2889.923,1913.0801508145041
2891.0493,1937.752642157247
2892.1748,1935.9793710641075
2893.2997,1951.0106592852649
2894.424,1959.146809211106
2895.5476,1968.0381037219106
2896.6706,2006.1348061064914
2897.7929,2046.2871599732798
2898.9145,2072.79538886936
2900.0355,2078.2596958789445
2901.1559,2116.0802633582925
2902.2756,2167.1072528810655
2903.3946,2188.990804860124
2904.513,2210.2310380372555
2905.6308,2247.228049264339
2906.7479,2275.631913290945
2907.8643,2301.1426823943602
2908.9801,2313.910386095556
2910.0953,2322.6850309040765
2911.2098,2312.016600190361
2912.3236,2305.6550540980006
2913.4368,2290.0503296504194
2914.5494,2271.6523408144926
2915.6613,2238.4609786565925
2916.7725,2231.0761115265673
2917.8831,2218.2475853896563
2918.9931,2171.925223900339
2920.1024,2153.4588285306177
2921.211,2104.248179033244
2922.319,2102.4930336263806
2923.4264,2100.29312948571
2924.5331,2078.0481827619824
2925.6391,2070.1578886030184
2926.7445,2065.8719213761583
2927.8493,2064.739934747163
2928.9534,2057.6115617230726
2930.0569,2046.1364146635306
2931.1597,2056.0140853520643
2932.2619,2055.5441451108372
2933.3634,2051.4261447018735
2934.4643,2020.5596143317543
2935.5645,2026.7440636928013
2936.6641,1993.2789822717386
2937.763,1960.0638392878523
2938.8613,1915.848084027637
2939.959,1868.981146176951
2941.056,1799.7124362631725
2942.1523,1728.9413461238678
2943.248,1634.4172495994806
2944.3431,1559.0895032410394
2945.4375,1456.3074472554015
2946.5313,1360.0204062585285
2947.6244,1259.527690303309
2948.7169,1161.2785958424267
2949.8087,1085.4724067332895
2950.8999,976.6083952205188
2951.9904,908.2358226940132
2953.0803,842.8539407775872
2954.1696,780.6619920126975
2955.2582,738.8592105122618
2956.3462,685.5448225825778
2957.4335,655.2180471413516
2958.5202,610.0780962508406
2959.6062,588.9241754211226
2960.6916,568.9554840614944
2961.7764,554.8212156920117
2962.8605,553.7705581431755
2963.9439,530.3026936972751
2965.0267,523.6167990988952
2966.1089,514.9120457895926
2967.1905,516.237599974758
2968.2714,508.7426227106604
2969.3516,520.2262698911935
2970.4312,528.3376923228265
2971.5102,531.226035609765
2972.5885,533.5404400728397
2973.6662,537.5800407206207
2974.7432,537.2439672262744
2975.8196,548.981343887167
2976.8954,530.8412896282257
2977.9705,525.0229178845644
2979.045,523.1753367828845
2980.1188,504.1976491996588
2981.192,487.78895277960714
2982.2645,473.79834012547315
2983.3364,457.1248989621122
2984.4077,431.06771227639615
2985.4783,400.5758584839475
2986.5483,377.2484116897132
2987.6177,345.7344419928811
2988.6864,323.5330157201555
2989.7545,285.74319574089657
2990.8219,260.26404168913416
2991.8887,224.19461034146718
2992.9548,200.73395587185382
2994.0204,173.93113021230602
2995.0852,154.48518328749662
2996.1495,130.4951632827872
2997.2131,113.16011683868828
2998.276,91.7790892907584
2999.3383,78.20112484295521
3000.4,56.87526678144536
3001.4611,43.75055761038482
3002.5215,35.07603926517629
3003.5812,22.500753243718236
3004.6404,13.823740693148693
3005.6989,9.994042535598737
3006.7567,-1.5893004450373382
3007.8139,-2.0272475648055206
3008.8705,-3.6707422626402604
3009.9264,-11.020707725273269
3010.9818,-9.728030468721727
3012.0364,-9.393486912132403
3013.0905,-13.91775629162862
3014.1439,-13.601424002398971
3015.1966,-5.594936401247651
3016.2487,-5.998603966753308
3017.3002,-9.76268128408043
3018.3511,3.3126369876601984
3019.4013,2.3272537185427495
3020.4509,3.681071745515453
3021.4998,10.423993882254194
3022.5481,12.305922905624868
3023.5958,8.276761488253385
3024.6428,24.286412179707497
3025.6892,22.08477744678703
3026.735,28.22175951342888
3027.7802,34.49726038272195
3028.8247,34.46118177553848
3029.8685,47.06342506777821
3030.9118,47.00389129072971
3031.9544,48.832481005048066
3032.9963,65.4490943013493
3034.0376,75.30363078192488
3035.0783,75.99598939457525
3036.1184,89.67606833406472
3037.1578,92.5937650351978
3038.1966,106.44897603601868
3039.2348,99.8415969486341
3040.2723,108.52152232066129
3041.3092,113.83864570130129
3042.3455,105.04285955454043
3043.3811,105.03405520597875
3044.4161,115.5121229307876
3045.4505,111.22695195379805
3046.4842,110.57843034471978
3047.5173,100.71644506099358
3048.5498,107.690881954276
3049.5816,105.70162586905946
3050.6128,104.09856057292774
3051.6434,104.73156877644868
3052.6734,95.7505321492045
3053.7027,97.70533131346218
3054.7314,95.0458459339834
3055.7594,94.87195469847671
3056.7868,91.3335353441924
3057.8136,88.9804646596615
3058.8398,94.41261852007995
3059.8653,93.92987191083893
3060.8902,87.9820988732036
3061.9145,93.46917250914078
3062.9381,85.6909650407963
3063.9612,88.44734775562443
3064.9835,88.73819108417007
3066.0053,78.31336457250478
3067.0264,72.52273687931842
3068.0469,79.26617588016728
3069.0668,74.29354872538056
3070.086,69.70472177262576
3071.1046,67.59956063663515
3072.1226,64.9779302350936
3073.1399,62.63969480969098
3074.1567,57.63471795233772
3075.1727,45.51286262854762
3076.1882,42.5239912274871
3077.203,37.517965683194234
3078.2173,37.89464750446757
3079.2308,20.003897824925843
3080.2438,28.79557739924178
3081.2561,21.969546782049065
3082.2678,13.525666240025998
3083.2789,19.36379582015553
3084.2893,10.533795434164006
3085.2991,12.685524800140172
3086.3083,11.568843530834783
3087.3169,4.883611112143512
3088.3248,4.479686914273714
3089.3321,2.206930258596742
3090.3388,-1.2847995783125157
3091.3449,-3.14564334194867
3092.3503,-6.175728942658452
3093.3551,3.6248471341883715
3094.3593,0.2560500987537182
3095.3629,-0.9321548750487239
3096.3658,-1.3898051712459392
3097.3681,-2.7669288616378083
3098.3698,-3.813540133870788
3099.3708,-3.1796255339719437
3100.3713,-1.7651335107026682
3101.3711,-1.8699807483652648
3102.3702,2.7059337024215893
3103.3688,-1.6872705278530873
3104.3667,0.7005261642403582
3105.364,1.1694602379640457
3106.3607,2.1696681455751445
3107.3568,-1.0987136723637434
3108.3522,-1.085548796986643
3109.347,3.6093101667219685
3110.3412,1.8860214584099708
3111.3348,3.9447432816323555
3112.3277,6.8356338210838885
3113.32,7.458851222011958
3114.3117,11.064553561307832
3115.3028,9.502898841274003
3116.2932,7.4240449535676305
3117.2831,7.928149694816682
3118.2723,7.965370787408858
3119.2608,10.385865874450502
3120.2488,12.539792519394325
3121.2361,13.32730818183444
3122.2229,8.598570195967056
3123.209,15.203735762715297
3124.1944,12.842961997016602
3125.1793,19.81640586177133
3126.1635,22.5742241914501
3127.1471,22.316573622359584
3128.1301,22.143610565064307
3129.1125,18.70549120696313
3130.0942,27.302371514019
3131.0753,20.5844072651399
3132.0558,20.751753966210345
3133.0357,24.50456691727075
3134.015,27.443001210844074
3134.9936,29.86721169440773
3135.9716,27.927352941009133
3136.949,32.12357922502349
3137.9258,31.60604454155265
3138.902,35.32490256446266
3139.8775,34.73030665155922
3140.8524,31.922409807399035
3141.8267,30.801364689235896
3142.8004,36.567323635099456
3143.7735,37.920438675005855
3144.7459,42.560861473298004
3145.7178,39.48874331511449
3146.689,39.8042350599853
3147.6596,40.60748717255311
3148.6295,45.598649719418304
3149.5989,46.22787236110645
3150.5676,44.64530430215673
3151.5357,45.9010942848296
3152.5032,48.29539060493249
3153.4701,48.72834109926208
3154.4364,48.90009312166093
3155.402,46.1107935386884
3156.367,47.560588727902854
3157.3315,50.99962460575483
3158.2952,52.72804661308895
3159.2584,50.345999680753664
3160.221,51.95362821231706
3161.1829,61.20107610788719
3162.1442,58.18848674803593
3163.105,60.21600290132439
3164.065,59.23376675442877
3165.0245,61.441919891865396
3165.9834,64.94060330581287
3166.9416,61.07995737403061
3167.8993,61.76012182487213
3168.8563,61.831235775891344
3169.8127,61.29343772704099
3170.7684,65.64686555996147
3171.7236,66.9416565433588
3172.6782,67.47794728947042
3173.6321,70.70587374111724
3174.5854,71.8755711663407
3175.5381,71.18717412612354
3176.4902,72.24081646269283
3177.4417,74.83663130640396
3178.3926,75.07475106520415
3179.3428,74.50530739867433
3180.2924,79.12843121564798
3181.2415,79.49425267990544
3182.1899,79.05290116394279
3183.1377,83.35450524531359
3184.0848,84.6991927110424
3185.0314,83.1370905146088
3185.9773,83.66832476250039
3186.9227,83.64302072983394
3187.8674,88.16130285504295
3188.8115,83.32329474013079
3189.755,85.07911910548776
3190.6979,89.57889783827127
3191.6402,90.97275197484757
3192.5818,91.26080165579387
3193.5229,90.09316611195996
3194.4633,96.61996366158758
3195.4031,92.24131172198682
3196.3423,90.5573267442681
3197.2809,95.41812425712878
3198.2189,95.82381888369292
3199.1563,104.97452429290335
3200.0931,101.47035319546471
3201.0292,101.0114172523364
3201.9648,97.69782710977431
3202.8997,103.52969240392015
3203.834,100.8071217939373
3204.7677,105.2802229036923
3205.7008,106.19910234898045
3206.6333,108.71386569279477
3207.5652,103.22461743613731
3208.4964,109.88146099287142
3209.4271,114.18449874461436
3210.3571,114.13383197416866
3211.2865,119.67956082249194
3212.2154,114.62178428920348
3213.1436,120.41060017712694
3214.0712,118.09610514286814
3214.9982,119.72839463892689
3215.9246,114.90756293684188
3216.8503,113.83370311086793
3217.7755,119.15690708618416
3218.7001,119.47726564963267
3219.624,120.49486839648642
3220.5473,126.00980372724577
3221.4701,128.6221588374623
3222.3922,130.08201966258963
3223.3137,128.53947085185968
3224.2346,126.64459575368424
3225.1549,133.6474764310803
3226.0746,135.448193680619
3226.9937,135.84682696239656
3227.9121,134.24345438202738
3228.83,132.08815268665742
3229.7473,133.7309972809982
3230.6639,135.72206224887958
3231.5799,135.16142033682158
3232.4954,141.8991429341234
3233.4102,138.63530007847018
3234.3244,136.41996038855547
3235.238,141.80319109671984
3236.151,143.48505807110416
3237.0634,147.2656257618174
3237.9752,142.49495718411794
3238.8864,146.97311388060777
3239.797,148.2001559689395
3240.7069,147.17614209703436
3241.6163,149.5011294308122
3242.5251,150.37517366443126
3243.4332,152.69832899703852
3244.3408,154.47064812402903
3245.2477,153.34218221381474
3246.154,157.51298089010095
3247.0598,155.78309224317115
3247.9649,158.9525627881789
3248.8694,153.77143748244686
3249.7733,159.93975969377198
3250.6766,157.75757125223686
3251.5793,160.2749123885264
3252.4814,160.34182175574983
3253.3829,163.50833640426714
3254.2838,158.97449178102
3255.1841,164.64032169786674
3256.0838,161.05585837692053
3256.9829,162.77113239389152
3257.8814,168.03617271393105
3258.7792,163.50100667447913
3259.6765,170.2156599326139
3260.5731,168.23015651040342
3261.4692,171.4445187277591
3262.3647,170.55876722229073
3263.2595,170.3729209171628
3264.1538,173.6369970299521
3265.0474,171.5010110745062
3265.9404,169.4649768283026
3266.8329,174.22890635380867
3267.7247,169.94281001884195
3268.616,175.056696448931
3269.5066,174.97057257017616
3270.3966,171.83444355811065
3271.286,170.74831283856204
