RamanShift,CorrectedData
30.1047,1351.0651814345
32.3739,1256.136213846494
34.6426,1160.907232747836
36.9109,1064.8282120665124
39.1787,967.5991141214364
41.4461,873.9198905832388
43.7131,780.7404834465597
45.9796,687.9608259668391
48.2456,592.6808435921121
50.5112,499.80045489080436
52.7764,402.96957250453363
55.0411,314.48810407691246
57.3054,216.5059532218577
59.5692,127.373020408405
61.8326,34.33920394053038
64.0955,-51.24559915152034
66.3579,-137.6314921808933
68.6199,-229.06806651719924
70.8815,-293.8535385914421
73.1426,-315.1838364446417
75.4032,-215.20195252096727
77.6634,187.4522694219379
79.9231,1274.3911354939355
82.1824,3704.476949930365
84.4412,8215.872004222654
86.6995,14399.788552817461
88.9574,20439.83876800273
91.2148,24599.084678068513
93.4717,26416.088106906478
95.7282,26660.410632417443
97.9842,26347.963568341365
100.2398,25626.157961814064
102.4949,24778.054596491744
104.7495,23847.813999769038
107.0036,22890.496451260016
109.2573,22016.661992100613
111.5105,21156.170434521813
113.7632,20343.731370587964
116.0154,19649.704180801724
118.2672,19153.89804222843
120.5185,18610.37193543638
122.7693,18194.1346494549
125.0197,17807.594787209586
127.2696,17420.110769684707
129.519,17130.190839788564
131.7679,16775.593066228364
134.0163,16468.92534640941
136.2642,16092.195409981068
138.5117,15713.36082190346
140.7587,15291.178986214749
143.0052,14950.7571498195
145.2512,14574.45240671048
147.4967,14191.221701372897
149.7417,13928.571832547423
151.9863,13657.109457062521
154.2304,13474.141092460937
156.4739,13217.67311971433
158.717,13026.961785052941
160.9596,12772.01320253029
163.2017,12454.683355930276
165.4433,12075.428101316664
167.6844,11662.1031702064
169.925,11237.464173362137
172.1651,10769.816604925505
174.4047,10407.515846663491
176.6439,10107.067172644916
178.8825,9755.175752863448
181.1206,9556.346656242087
183.3582,9312.984854152077
185.5954,9123.495222401187
187.832,8964.332543667355
190.0681,8823.85150939355
192.3037,8726.15672137944
194.5388,8672.602693186167
196.7734,8598.043851113307
199.0075,8576.084534734422
201.2411,8647.428997642623
203.4742,8629.531407670189
205.7068,8703.795846175108
207.9389,8714.326308220065
210.1704,8839.876701829777
212.4015,8828.400847885707
214.632,8926.202478870557
216.862,9031.785238983011
219.0915,9076.152683159744
221.3205,9141.358276019579
223.549,9259.755391419805
225.777,9372.897311804143
228.0044,9559.037227018758
230.2314,9761.978233180844
232.4578,9955.073330817217
234.6837,10151.775422834922
236.909,10204.637312590277
239.1339,10090.861701921842
241.3582,9928.401190621817
243.582,9617.458277573782
245.8053,9324.685362377306
248.0281,9095.884748457389
250.2503,8929.758645992171
252.472,8743.559174200955
254.6932,8730.388363005452
256.9139,8658.698154891801
259.134,8696.49040504226
261.3536,8769.366882052098
263.5727,8848.529267551694
265.7912,8938.729155477751
268.0092,9053.118051281688
270.2267,9044.497371027626
272.4436,9015.518440248525
274.6601,8909.38249403236
276.8759,8794.540677311932
279.0913,8606.844045926216
281.3061,8435.443567768794
283.5204,8413.190124664805
285.7341,8351.03451408496
287.9473,8364.97744936807
290.16,8446.769560342613
292.3721,8617.211393187288
294.5837,8871.953409613108
296.7947,9109.74598515898
299.0052,9259.889406644272
301.2152,9059.033869790901
303.4246,8756.229477721885
305.6334,8246.076242969919
307.8418,7703.424090505399
310.0495,7246.572862837978
312.2568,6852.622325443062
314.4635,6456.8721713303385
316.6696,6237.222024983272
318.8752,6039.071446316619
321.0802,5994.969932872911
323.2847,6021.766921803977
325.4887,5995.811790311949
327.692,5901.50385538129
329.8949,5761.892374038342
332.0972,5499.726544294419
334.2989,5198.255506541918
336.5001,4881.678346175973
338.7007,4657.394096609167
340.9008,4440.551742437296
343.1003,4270.100221682231
345.2992,4149.288427960324
347.4976,4057.5152121869323
349.6955,3970.8293837845285
351.8927,3994.079711600438
354.0895,3849.314924773702
356.2856,3840.4837125025715
358.4812,3728.984725492148
360.6763,3717.3665760426993
362.8707,3667.577839164662
365.0646,3684.067052694809
367.258,3674.0827177941446
369.4508,3676.9732987830066
371.643,3730.5372232409118
373.8346,3724.8728819776425
376.0257,3693.7286284976126
378.2162,3638.152779056507
380.4062,3525.9436129727274
382.5956,3394.649373183158
384.7844,3252.268267365258
386.9726,3127.4484692499955
389.1603,2974.488120045671
391.3474,2877.6353296861
393.5339,2826.1881783602203
395.7199,2736.894717480618
397.9052,2739.602970198004
400.09,2758.1609322941385
402.2743,2857.2665721547673
404.4579,2936.217830584028
406.641,3070.0126198133894
408.8235,3254.248822712143
411.0054,3459.174291449468
413.1868,3760.4868456520544
415.3675,3904.684270354852
417.5477,3983.7643129879525
419.7273,3949.9746819346074
421.9064,3855.863045740427
424.0848,3706.6770334512858
426.2627,3486.3142355544205
428.4399,3209.2222054703107
430.6166,2805.248461756306
432.7928,2446.2404908775334
434.9683,2115.345751246652
437.1432,1853.5116768139178
439.3176,1673.2356803761304
441.4914,1560.5651561949799
443.6645,1497.7974817997965
445.8371,1408.9300191142702
448.0091,1319.1601150841088
450.1806,1282.4851025657335
452.3514,1249.752301223969
454.5216,1208.7090178987837
456.6913,1173.9025469326316
458.8603,1222.280170580876
461.0288,1230.839159359859
463.1967,1211.426771563125
465.3639,1251.5402531758264
467.5306,1282.926838068859
469.6967,1338.9837475977092
471.8622,1388.3081902886206
474.0271,1494.2973612779933
476.1914,1529.7484418191634
478.3551,1522.8585982224868
480.5182,1526.5749815008494
482.6807,1556.7447274385613
484.8426,1699.1649565541811
487.0039,1988.0327737988318
489.1647,2341.295267131989
491.3248,2724.2995046328124
493.4843,2842.8425309675204
495.6432,2805.8213635593384
497.8015,2650.832991403069
499.9592,2598.6743754353174
502.1163,2434.242450084348
504.2728,2171.284123791698
506.4287,1878.046280656492
508.5839,1499.875783065003
510.7386,1246.969474623058
512.8927,1105.2241839377239
515.0461,999.1367271463878
517.199,1001.3039093341849
519.3512,1119.572525594891
521.5029,1247.5893610092535
523.6539,1399.4011894622872
525.8043,1464.0547723631225
527.9541,1407.8468571268877
530.1033,1295.174176528155
532.2519,1236.9334492630478
534.3999,1295.3713810759546
536.5472,1434.5346653419365
538.694,1823.8699824823489
540.8401,2242.723998573194
542.9856,2573.1433614517955
545.1305,2640.574696528238
547.2748,2520.3146034811816
549.4185,2258.409655583544
551.5615,2016.3064009050995
553.704,1930.1513649315384
555.8458,1904.7410529854842
557.987,2049.6719510880503
560.1276,2165.990526212947
562.2675,2381.79322483718
564.4069,2680.426471777844
566.5456,2877.9366680341154
568.6837,2917.1201878009124
570.8212,2527.9233764937944
572.958,2010.5425503571205
575.0942,1565.0740003560295
577.2299,1242.513997350241
579.3648,1122.458796548739
581.4992,1144.8046407353668
583.6329,1285.9477614693915
585.766,1469.384378862036
587.8985,1600.7107001650475
590.0304,1599.0229179363323
592.1616,1560.0172087266928
594.2922,1452.1897330967058
596.4222,1235.636636006784
598.5515,1059.6040478954383
600.6802,904.4880868448254
602.8083,731.9848603410683
604.9358,687.0404668254123
607.0626,688.7509974192562
609.1888,751.11253637361
611.3144,792.2211610519771
613.4393,785.8229413067402
615.5636,808.9139390680939
617.6873,781.690208408003
619.8103,712.7477953093021
621.9327,581.0327379379287
624.0544,470.84106733234876
626.1756,361.1688087207076
628.2961,293.9119826227452
630.4159,167.3666059465304
632.5351,152.3786926610046
634.6537,125.34425506145271
636.7716,158.60930391937654
638.8889,150.46984875283488
641.0056,164.72189749379686
643.1216,165.51145656953304
645.237,180.884530760115
647.3518,133.63712319048864
649.4659,128.41523517678434
651.5793,63.06486669876358
653.6922,57.13201645204572
655.8043,47.362682501607196
657.9159,76.05286234111009
660.0268,-24.601447009405092
662.137,3.9457507095794426
664.2466,10.340697526029544
666.3556,-5.720403950130276
668.4639,-44.99145441255678
670.5716,-38.276297408070604
672.6786,1.3716729811330879
674.785,-0.5505549469417019
676.8907,54.003993402691776
678.9958,87.03229812506834
681.1002,93.78133877518485
683.204,30.298094037707415
685.3072,35.37954165952033
687.4097,12.122659084525367
689.5115,-8.525576597168765
691.6127,-8.91818841667191
693.7132,-82.90811423458399
695.8131,-89.04820281881257
697.9123,-50.89047468520221
700.0109,-49.23606075805765
702.1089,-45.18558356585709
704.2061,-0.7391737688340072
706.3028,25.103489376748257
708.3987,87.84273399896665
710.4941,135.27888797488777
712.5887,268.36227830314056
714.6827,460.39323062958283
716.7761,698.0220679164468
718.8688,983.549108522051
720.9608,1148.524663824479
723.0522,1259.649035366332
725.1429,1214.6725132049833
727.233,1100.8453748013126
729.3224,1022.3178854694852
731.4112,853.890299515213
733.4993,726.312861021037
735.5867,498.63580553061365
737.6735,357.6093613244702
739.7596,240.03375169678293
741.845,155.85919636563813
743.9298,96.58591264878669
746.014,117.71411630539842
748.0974,119.14402212879031
750.1802,115.52584373514037
752.2624,129.509793549194
754.3439,188.04608284043934
756.4247,257.5849215832859
758.5048,429.376517871684
760.5843,702.671077223742
762.6631,1096.5188008638052
764.7413,1610.8198829895246
766.8188,2262.124506833352
768.8956,2747.7828395195465
770.9718,3115.9950255511267
773.0473,3003.3111819532824
775.1221,2728.231394591263
777.1962,2394.855719297211
779.2697,2243.4341846209736
781.3426,2290.466795163831
783.4147,2474.403533092742
785.4862,2676.9443576699923
787.557,2603.189203413842
789.6271,2198.1379780731077
791.6966,1631.3405633647271
793.7654,1067.5968190242638
795.8335,752.3065884738808
797.901,490.36970445978113
799.9678,396.38599220509604
802.0339,369.20527202927406
804.0993,347.0273602878988
806.1641,349.1020696445066
808.2282,316.6792092923606
810.2916,226.65858493371888
812.3544,153.18999910404455
814.4164,111.17325207222348
816.4778,111.20814257525308
818.5385,139.74446823839025
820.5986,278.6320255748251
822.658,463.570609700304
824.7166,713.1100129442584
826.7747,1086.6500230004222
828.832,1442.4904204314207
830.8886,1719.6309749333996
832.9446,1849.5714417776016
834.9999,1821.7115590389622
837.0545,1648.6010462967151
839.1085,1525.5396049129795
841.1618,1341.5269197638809
843.2143,1228.5626604701465
845.2662,1083.2464832372516
847.3175,1025.9780319850415
849.368,891.2569398009
851.4179,778.3828295124258
853.467,685.2553150346466
855.5155,643.9740024987714
857.5633,565.7384911834597
859.6105,469.1983739276402
861.6569,415.7532379128643
863.7027,331.80266562869474
865.7478,325.34623540717075
867.7922,318.6335222623111
869.8359,361.064097954677
871.8789,418.9375310585074
873.9212,540.1033865374065
875.9629,683.5612251656203
878.0039,845.7106023163615
880.0441,940.201066527241
882.0837,995.6321578787629
884.1226,976.7534070494203
886.1609,956.4143347613899
888.1984,992.0144519693222
890.2352,1048.7032600637249
892.2714,1033.5302505149684
894.3069,1017.0949043063974
896.3416,893.9466920860523
898.3757,816.4350743310406
900.4091,778.9595025790022
902.4418,805.6694202032304
904.4739,828.2642627874302
906.5052,910.2934578586155
908.5358,839.1564246611633
910.5658,709.0025733365201
912.595,535.3313056345633
914.6236,331.8920162151571
916.6515,230.18409438486378
918.6786,214.35692613132596
920.7051,270.7098951403532
922.7309,357.9923829541931
924.756,412.753768407998
926.7804,527.4934267570097
928.8041,495.11072912892814
930.8272,588.1050413765242
932.8495,523.1257244014669
934.8711,494.422133224376
936.892,432.29361763462293
938.9123,361.88952247736415
940.9318,306.95918827483183
942.9506,265.80195193036343
944.9688,193.1171472777096
946.9862,129.9541054926176
949.003,22.512155819651525
951.019,-8.709373796147702
953.0344,-5.761155634852912
955.0491,7.206225030098722
957.063,66.64224047921016
959.0763,190.64636292092473
961.0888,245.61806389727826
963.1007,304.15681304384634
965.1119,365.56207754002753
967.1223,390.4333215236693
969.1321,401.17000547699354
971.1412,447.0215859778982
973.1495,451.48751559258926
975.1572,458.51724241706324
977.1641,545.1102100324388
979.1704,508.2158574346795
981.1759,497.38361816863835
983.1808,557.0629206970316
985.1849,588.1031885087323
987.1884,696.5538395219974
989.1911,879.2142857740491
991.1932,959.5839323365799
993.1945,990.3121754891472
995.1951,952.7984019154665
997.1951,940.6419883961335
999.1943,927.4423021837629
1001.1928,890.9487011245492
1003.1906,911.7605337902696
1005.1877,1021.527139843216
1007.1841,1035.1478498280849
1009.1798,1035.5219840742993
1011.1748,913.2988525598066
1013.1691,760.1277549073475
1015.1627,538.107981606674
1017.1556,345.4388155462675
1019.1477,274.4695342335417
1021.1392,198.04941172152394
1023.1299,180.57771931855132
1025.12,189.90372635247877
1027.1093,262.87670034537405
1029.0979,369.29590692028796
1031.0859,453.2606090715053
1033.0731,461.9700661003517
1035.0596,445.47353277554976
1037.0454,297.8202592461312
1039.0304,213.65949120640107
1041.0148,84.84047137246671
1042.9985,13.812440323850751
1044.9814,-24.825362208319348
1046.9636,-77.4736966310411
1048.9452,-55.783075345954785
1050.926,-14.953236792474854
1052.9061,-4.333362137094809
1054.8855,25.527516836516952
1056.8642,87.43041163498128
1058.8421,137.9263335096366
1060.8194,177.61629283753246
1062.7959,208.8012986164631
1064.7717,277.58235806807716
1066.7469,313.0104763259951
1068.7213,361.8866557480342
1070.695,426.61189556191493
1072.6679,400.58719137650587
1074.6402,405.31353453455995
1076.6117,356.49191237295963
1078.5826,336.323308175457
1080.5527,287.4087016608828
1082.5221,300.6490691848503
1084.4908,380.5453842288789
1086.4587,501.09861726800955
1088.426,587.009734971838
1090.3925,586.1796989989889
1092.3584,578.2594651379804
1094.3235,516.4499833155496
1096.2879,591.8021976758428
1098.2515,623.8670471985079
1100.2145,772.4454649451854
1102.1767,934.6383777388473
1104.1382,1111.2967046780195
1106.099,1360.0213555148348
1108.0591,1570.8132288884808
1110.0185,1761.6232098379242
1111.9771,1816.0021676940105
1113.9351,1681.4509541713542
1115.8923,1449.4704028245505
1117.8488,1253.9113303936902
1119.8045,1040.4245391241657
1121.7596,937.910818722261
1123.7139,829.4709484900286
1125.6675,826.9556983504135
1127.6204,899.2158299316616
1129.5726,843.5020965924559
1131.524,836.5652426993274
1133.4748,719.5560041837907
1135.4248,644.6251086117118
1137.3741,599.3232763533997
1139.3226,519.9012213329188
1141.2705,494.6596514811099
1143.2176,387.79926952979986
1145.164,361.72077326423096
1147.1097,355.32485659165104
1149.0546,326.01220980211656
1150.9989,243.58351963244422
1152.9424,136.6394695593226
1154.8852,33.48074062361775
1156.8272,-31.34198750019823
1158.7686,-22.228035472457123
1160.7092,-21.276410847029183
1162.6491,-19.235899119728856
1164.5883,110.54492676497284
1166.5267,223.71768602923294
1168.4644,361.9339967897595
1170.4014,581.9454749260876
1172.3377,834.9037326984162
1174.2732,1115.560376547497
1176.2081,1477.3170045650495
1178.1421,1846.7752036872007
1180.0755,2277.986546076918
1182.0082,2489.052585429419
1183.9401,2593.2748526600717
1185.8713,2464.304853793703
1187.8017,2232.9940689224004
1189.7315,1898.3939534952078
1191.6605,1579.7059406312273
1193.5888,1372.8314444656298
1195.5163,1238.7218633365355
1197.4432,1150.6285818537508
1199.3693,1115.7029722398693
1201.2947,1105.696395211202
1203.2193,1078.7102003270356
1205.1432,1105.3457260896885
1207.0664,1109.404300214379
1208.9889,1111.3372393628779
1210.9106,1136.7458491029156
1212.8316,1155.2314238888575
1214.7519,1197.9952468076117
1216.6715,1249.638589393775
1218.5903,1311.212711201999
1220.5084,1339.2188592905513
1222.4257,1392.1082676055812
1224.3424,1399.8821567010455
1226.2583,1514.3417332098197
1228.1735,1630.3381897659601
1230.0879,1746.1227038601155
1232.0016,1905.896436679559
1233.9146,1975.810531950341
1235.8269,1940.2161143395515
1237.7384,1898.0642887561826
1239.6492,1753.706140707065
1241.5592,1679.242736718399
1243.4686,1639.9751257793268
1245.3772,1737.3043400865754
1247.285,1844.7313954371257
1249.1922,1919.757290254929
1251.0986,2028.2330045166254
1253.0042,2060.2594990012803
1254.9092,2125.887714205637
1256.8134,2252.8685700238384
1258.7169,2403.002965091164
1260.6196,2571.4417755142167
1262.5216,2813.185853369563
1264.4229,3005.236025019367
1266.3234,3218.493088693933
1268.2232,3291.2578125712043
1270.1223,3352.9309326442017
1272.0207,3403.2131519933628
1273.9183,3398.2551401698147
1275.8151,3348.157532692563
1277.7113,3319.820931098062
1279.6067,3303.345903441199
1281.5014,3399.032984578658
1283.3953,3576.0826763336645
1285.2885,3844.9954465391093
1287.181,4128.971727267075
1289.0727,4448.611912139684
1290.9637,4609.316353489348
1292.854,4819.635359162363
1294.7435,4911.7191909118665
1296.6323,4938.2180622946435
1298.5204,4954.632137750294
1300.4077,4999.8615323362465
1302.2943,4979.806311563607
1304.1802,4893.666490944885
1306.0653,4608.242036194519
1307.9497,4272.4328640903
1309.8333,3975.7888453275955
1311.7162,3812.6098078774467
1313.5984,3723.99553995301
1315.4798,3671.495791641346
1317.3605,3679.160275789567
1319.2405,3674.388668529824
1321.1197,3553.1306092026753
1322.9982,3325.2857004047964
1324.876,3150.253509201564
1326.753,3009.3335694055004
1328.6293,2897.3753833266
1330.5048,2831.8784231815243
1332.3796,2764.1421322131937
1334.2537,2699.0659253457397
1336.127,2704.5991898618813
1337.9996,2678.591286053683
1339.8714,2692.3915471672262
1341.7426,2676.599279662687
1343.6129,2737.21376307633
1345.4826,2723.4342501784286
1347.3515,2709.7599663671263
1349.2196,2739.5901098062204
1351.087,2757.973851561921
1352.9537,2828.560335304541
1354.8197,2933.498677124662
1356.6849,3131.487964827267
1358.5493,3299.5772568823613
1360.4131,3422.7155804450667
1362.276,3485.5519296747407
1364.1383,3486.6352645035913
1365.9998,3223.9145100083115
1367.8606,2903.588556399245
1369.7206,2576.506261647599
1371.5799,2291.3664546886903
1373.4384,2076.817938692784
1375.2962,1937.209493916478
1377.1533,1668.7898798482074
1379.0096,1329.4578366043097
1380.8652,1022.9620876132358
1382.7201,788.0013430088638
1384.5742,584.0243026954504
1386.4275,390.7796586972563
1388.2802,286.3660971982972
1390.132,210.48230047479592
1391.9832,160.62694793932678
1393.8336,60.64871689963729
1395.6832,41.34628305721344
1397.5322,24.51832150705377
1399.3803,34.41350693070308
1401.2278,29.730513764521675
1403.0745,31.668016100738896
1404.9204,2.8246877342899097
1406.7656,81.3492021434322
1408.6101,109.24023277817287
1410.4538,144.89645227503388
1412.2968,239.01653217812964
1414.139,298.99914258262106
1415.9805,368.59295119351555
1417.8213,462.99662272582464
1419.6613,606.8588182086423
1421.5006,796.0281940410932
1423.3391,1041.153400553725
1425.1769,1339.48308011681
1427.0139,1786.5658646890915
1428.8502,2382.9003728344796
1430.6858,2916.9352052512368
1432.5206,3347.618938808615
1434.3547,3588.8501212065203
1436.188,3675.577266668677
1438.0206,3589.0488535303066
1439.8524,3434.9133233708726
1441.6835,3333.369081879351
1443.5139,3258.0645003955888
1445.3435,3205.547916925747
1447.1724,3206.967636895344
1449.0005,3137.871933674418
1450.8279,3076.45904856334
1452.6545,3105.6771914837645
1454.4804,3135.7745415927657
1456.3056,3139.9992469906447
1458.13,3112.3994244199675
1459.9536,2931.8731592233034
1461.7766,2646.3685056192235
1463.5987,2317.083488507573
1465.4202,1993.5661063245152
1467.2409,1655.6143343353788
1469.0608,1409.52612786984
1470.88,1138.199425701433
1472.6984,940.982152508438
1474.5161,779.2722215871472
1476.3331,633.1175368240356
1478.1493,540.4659943128609
1479.9648,475.31548381620723
1481.7795,386.8638896920065
1483.5935,351.3590915450368
1485.4067,326.34896511143506
1487.2192,304.73138261375607
1489.031,288.7542130110669
1490.842,258.61532221512425
1492.6522,241.8125732501494
1494.4618,224.69382655421487
1496.2705,215.0069401472747
1498.0785,222.29976980234733
1499.8858,204.7701691423872
1501.6924,173.06598956735525
1503.4981,157.53508042951307
1505.3032,135.77528935046485
1507.1075,152.7844623764695
1508.911,123.91044419603622
1510.7138,106.10107796983175
1512.5159,71.00420561941974
1514.3172,39.817668005365704
1516.1178,43.13930527819957
1517.9176,21.416957190274843
1519.7166,17.64846306255822
1521.515,-2.8683379981503094
1523.3126,-14.635607061532028
1525.1094,4.494523457423384
1526.9055,-21.82993264655761
1528.7008,-12.160961623693765
1530.4954,-70.60033164318156
1532.2893,-27.599689386214777
1534.0824,-60.15997623668136
1535.8747,-22.131857857575596
1537.6663,-29.915398913730314
1539.4572,-31.510442972715282
1541.2473,-4.0665347472740905
1543.0367,10.017095839178182
1544.8253,25.341259487897332
1546.6132,82.60676679997596
1548.4003,97.06442812309524
1550.1867,150.91505297887306
1551.9723,234.15944991828292
1553.7572,332.148425983155
1555.5414,429.8827858737277
1557.3247,532.81333096876
1559.1074,684.1908583481836
1560.8893,822.5661597638
1562.6705,935.240020125505
1564.4509,1087.0132161175352
1566.2305,1146.6365150717338
1568.0094,1219.2606734498104
1569.7876,1235.086436247112
1571.565,1249.664536266373
1573.3417,1271.795693959477
1575.1176,1264.1806172816723
1576.8928,1256.6700014702474
1578.6672,1247.414529120685
1580.4409,1217.0648702617664
1582.2138,1200.4216824481273
1583.986,1191.4356110637582
1585.7575,1212.7572894884415
1587.5282,1233.3373391876148
1589.2981,1281.226369499147
1591.0673,1345.3249774275519
1592.8358,1424.6837471650751
1594.6035,1533.903249450722
1596.3704,1572.3340407766582
1598.1366,1669.626662296021
1599.9021,1776.831639438612
1601.6668,1893.699480937964
1603.4308,2009.4806777592967
1605.194,2155.4757019308436
1606.9564,2351.5350053860275
1608.7182,2582.3090185035253
1610.4791,2818.1481481466644
1612.2394,3084.802775355688
1613.9988,3340.423252989356
1615.7576,3581.409903058402
1617.5156,3827.4130141693313
1619.2728,3941.582839114548
1621.0293,3994.5195924123327
1622.785,3912.873449165141
1624.54,3701.0945445302277
1626.2942,3479.0829745361216
1628.0477,3158.738798200403
1629.8005,2923.1620397498273
1631.5525,2680.452691823767
1633.3037,2477.9607178299784
1635.0542,2346.186054371691
1636.804,2211.3786132725354
1638.553,2142.5882828942795
1640.3013,2128.414929484912
1642.0488,2134.75839786654
1643.7955,2184.668511577127
1645.5416,2256.645072807052
1647.2868,2377.7878619000176
1649.0313,2497.7466366332737
1650.7751,2661.771131006194
1652.5181,2842.2110540406957
1654.2604,3045.666088140979
1656.0019,3302.4858872891346
1657.7427,3589.420075010601
1659.4828,3884.418241805961
1661.222,4038.9799422815995
1662.9606,4010.1046921997204
1664.6984,3778.2419669327346
1666.4354,3407.741201752003
1668.1717,2872.551794146473
1669.9072,2342.4731075276823
1671.642,1915.5544765816512
1673.3761,1557.3452125696667
1675.1094,1274.6946075974793
1676.8419,1049.1519381973812
1678.5737,861.9164681547272
1680.3048,740.4874507633494
1682.0351,614.2641306979158
1683.7646,540.3457452282228
1685.4934,469.3315254814279
1687.2215,415.8206971812324
1688.9488,343.76248135802325
1690.6754,299.7560948839846
1692.4012,314.55075119367666
1694.1263,292.6456607241089
1695.8506,251.3900307667791
1697.5742,231.48306568673706
1699.297,199.67396733513124
1701.0191,167.7119352482805
1702.7404,171.14616696576468
1704.461,128.22585835004975
1706.1808,122.50020355214201
1707.8999,124.66839544079266
1709.6182,111.97962565974922
1711.3358,93.23308460607586
1713.0527,86.42796155704218
1714.7688,64.61344485758855
1716.4841,51.63872198838271
1718.1987,75.00297978396065
1719.9126,60.005404562473814
1721.6257,34.695181892045184
1723.338,52.22149674074535
1725.0496,41.48353372969177
1726.7605,43.98047695779496
1728.4706,30.46151010913036
1730.18,33.97581642797286
1731.8886,58.17257885397885
1733.5964,28.500979987053142
1735.3036,43.81020184537647
1737.0099,30.19942616211847
1738.7156,41.56783423235265
1740.4204,21.56460704916026
1742.1246,12.988925189949441
1743.8279,5.039969016484065
1745.5306,12.366918760644694
1747.2325,-20.48104539608812
1748.9336,-7.65474339589673
1750.634,-9.854790575323932
1752.3336,-31.331725800027925
1754.0325,-13.285989486314975
1755.7307,-12.567709046547861
1757.4281,-7.776879166061917
1759.1247,-15.113368978773906
1760.8206,10.173030072415713
1762.5158,5.932677527155647
1764.2102,4.8159328233714405
1765.9039,13.223155339662299
1767.5968,-0.3452955935281352
1769.289,10.510939222016532
1770.9804,-2.8077775659867257
1772.6711,8.098916585071493
1774.361,13.13141226749849
1776.0502,19.440099992614705
1777.7386,22.575370140426458
1779.4263,24.887612896541214
1781.1132,45.577218220817485
1782.7994,26.894575824239837
1784.4849,44.190074962020844
1786.1696,33.914104620433136
1787.8535,33.81705334384969
1789.5367,48.599309337506384
1791.2192,57.81126046847203
1792.9009,45.003294117826044
1794.5818,62.27579708853773
1796.2621,51.57915573354421
1797.9415,60.31375578302686
1799.6202,52.679982451379146
1801.2982,61.328220349857475
1802.9755,62.80885356291856
1804.6519,65.622265561743
1806.3277,64.56883918942822
1808.0027,47.048956632846966
1809.6769,57.46299943318627
1811.3504,87.0113486611499
1813.0231,95.34438481281359
1814.6951,89.01248751414278
1816.3664,88.3160354376596
1818.0369,104.75540636576625
1819.7067,105.13097719770576
1821.3757,98.79312378517352
1823.044,119.69222092855398
1824.7115,107.87864244030652
1826.3783,107.75276093596494
1828.0443,92.81494795228173
1829.7096,111.11557394848523
1831.3741,139.6050084556564
1833.0379,133.48361989372006
1834.701,129.90177528655386
1836.3633,130.30984032320157
1838.0248,119.9081793936898
1839.6856,135.44715558495227
1841.3457,142.37713078484012
1843.005,121.3484655267398
1844.6636,144.31151892026446
1846.3214,150.11664886154676
1847.9785,160.6642118036052
1849.6349,164.75456269829647
1851.2904,153.68805489083616
1852.9453,166.56504007889907
1854.5994,153.13586842328186
1856.2528,188.80088841913175
1857.9054,171.91044703023908
1859.5572,165.91488933238452
1861.2083,174.46455868224803
1862.8587,209.00979677735904
1864.5084,183.25094357060607
1866.1572,195.0883369247813
1867.8054,175.2723128701664
1869.4528,185.70320548616291
1871.0994,185.38134709944916
1872.7453,203.50706817967648
1874.3905,193.78069734268547
1876.0349,190.45256116925066
1877.6786,209.12298430233886
1879.3215,208.84228948039663
1880.9637,209.9107973506416
1882.6051,199.97882647187134
1884.2458,232.4466933037761
1885.8858,216.1647123062612
1887.525,220.5331956147702
1889.1634,195.20245320309914
1890.8011,190.1727928397131
1892.4381,210.94452034105643
1894.0743,202.71793962184574
1895.7098,221.69335248735388
1897.3446,219.47105871567965
1898.9786,208.5513558679895
1900.6118,211.38453931073946
1902.2443,222.87090232487526
1903.8761,226.1607360774983
1905.5071,191.1543295070037
1907.1374,203.3519692901814
1908.7669,221.4539401922766
1910.3957,219.2105249450169
1912.0237,197.4220040655914
1913.651,203.43865587908522
1915.2776,203.7107567363655
1916.9034,210.88858095391288
1918.5285,205.27240081110222
1920.1528,205.01248647842112
1921.7764,200.05910607363558
1923.3992,196.26252566438598
1925.0213,177.17300931772434
1926.6427,168.19081913808077
1928.2633,149.76621545815533
1929.8832,225.2494569287428
1931.5023,190.14080070297769
1933.1207,175.0405016814998
1934.7383,199.1488128635442
1936.3552,171.21598549794408
1937.9714,169.8922688420471
1939.5868,184.87791044104188
1941.2015,186.27315614119652
1942.8154,173.27824994000093
1944.4286,162.79343397221282
1946.041,139.21894863981015
1947.6528,144.10503271683547
1949.2637,167.05192358514432
1950.8739,147.65985718554066
1952.4834,132.52906778831266
1954.0921,158.20978818715048
1955.7001,157.75224985045634
1957.3074,157.7066826645355
1958.9139,149.92331493817255
1960.5197,138.40237340308886
1962.1247,137.2940832917734
1963.729,143.3986684526958
1965.3325,126.11635136138511
1966.9353,135.29735305938584
1968.5374,144.99189332707738
1970.1387,131.95019059187052
1971.7393,124.02246183125862
1973.3392,116.80892270323375
1974.9383,105.25978762556906
1976.5366,124.5252698479494
1978.1342,118.15558156746329
1979.7311,133.05093373594764
1981.3273,117.6115361236848
1982.9227,127.73759717045004
1984.5173,127.0293241399063
1986.1112,100.23692301834171
1987.7044,109.16059852175249
1989.2968,106.25055436376715
1990.8885,102.05699316640903
1992.4795,117.78011648919846
1994.0697,120.42012487108605
1995.6592,97.877217673225
1997.2479,100.35159305256866
1998.8359,116.44344818729542
2000.4232,110.2529792520736
2002.0097,105.58038125713574
2003.5955,110.02584811018596
2005.1805,120.18957266312509
2006.7648,113.72174666759702
2008.3484,112.62256067335056
2009.9312,111.74220409291866
2011.5133,110.18086521260966
2013.0946,113.3887312013112
2014.6752,104.31598812610264
2016.2551,98.86282092017882
2017.8342,117.92941347357373
2019.4126,98.66594868769653
2020.9902,89.92260828466351
2022.5672,96.29957299993202
2024.1433,98.24702266973736
2025.7188,114.16513616732027
2027.2935,99.10409138345312
2028.8674,102.96406506725907
2030.4406,102.84523297682108
2032.0131,84.29776984058162
2033.5849,76.62184935853111
2035.1559,92.66764438768541
2036.7261,105.6353270188406
2038.2957,103.5750684161194
2039.8645,109.08703868729481
2041.4325,123.42140690438782
2042.9998,107.42834104855046
2044.5664,101.50800786672107
2046.1323,111.76057303155267
2047.6974,97.53620120062214
2049.2617,108.48505591390222
2050.8254,95.45729973600419
2052.3883,99.903094146689
2053.9504,133.42259967114614
2055.5118,114.21597583553466
2057.0725,102.8833808317886
2058.6325,95.1249717096839
2060.1917,110.14090449016203
2061.7502,112.13133424291527
2063.3079,94.54641493622876
2064.8649,74.6362994170745
2066.4212,93.25113958696238
2067.9767,113.19108660104212
2069.5315,101.45629068195376
2071.0856,98.64690092042747
2072.6389,97.51306539263396
2074.1915,79.5049311882749
2075.7433,83.57264442192218
2077.2945,94.96635041309855
2078.8448,75.88619364560145
2080.3945,76.4823176535665
2081.9434,92.35486521226812
2083.4916,79.70397833215884
2085.039,67.52979810014585
2086.5857,79.03246480609505
2088.1317,82.5121180645765
2089.677,70.81889669983593
2091.2215,76.70293871099966
2092.7652,74.11438138900576
2094.3083,97.35336125776348
2095.8506,81.8700141000395
2097.3921,95.21447472506543
2098.933,81.63687712337423
2100.4731,95.48735433335514
2102.0124,83.61603857703085
2103.5511,98.02306112154884
2105.089,92.00855239790053
2106.6261,97.77264185684726
2108.1626,83.36545802906585
2109.6983,95.43712846750987
2111.2332,107.8877798914782
2112.7675,102.41753806589895
2114.301,109.57652767682293
2115.8337,97.2148723861269
2117.3657,86.78269475992556
2118.897,98.18011639218457
2120.4276,88.70725800904438
2121.9575,90.81423935484645
2123.4866,97.6011792868594
2125.0149,93.66819575421141
2126.5426,75.71540573001948
2128.0695,90.04292525071605
2129.5956,87.65086959558539
2131.1211,98.08935314348037
2132.6458,94.90848939674879
2134.1698,91.10839087684326
2135.693,95.58916915613509
2137.2155,103.95093489590909
2138.7373,100.59379780156087
2140.2584,90.21786653897743
2141.7787,91.3732487681109
2143.2983,91.11005124673557
2144.8171,71.27837981889343
2146.3353,95.22833941752651
2147.8527,78.31003426279312
2149.3693,97.72356762257141
2150.8853,84.86904198163984
2152.4005,73.54655884754175
2153.9149,88.45621887913512
2155.4287,92.79812199981143
2156.9417,79.07236724840095
2158.454,78.62905273575598
2159.9655,81.76827578200528
2161.4764,86.19013292098771
2162.9865,80.04471986886165
2164.4958,82.68213147988081
2166.0045,87.85246180785771
2167.5124,93.70580407978196
2169.0195,83.09225064412112
2170.526,82.2118929122853
2172.0317,96.26482146476292
2173.5367,101.75112605992354
2175.0409,84.72089549348993
2176.5445,98.3742175436737
2178.0473,85.96117914147953
2179.5494,88.23186623417132
2181.0507,79.23636390940146
2182.5513,96.52475637250564
2184.0512,76.54712703645691
2185.5504,82.35355834898155
2187.0488,87.84413199233336
2188.5465,77.1189288252333
2190.0435,75.32802882796227
2191.5397,80.87151120961198
2193.0353,81.39945442599537
2194.5301,72.8119361242102
2196.0241,71.65903313736135
2197.5175,74.94082157043681
2199.0101,73.45737681183368
2200.502,70.35877350054125
2201.9931,65.24508554097883
2203.4835,66.16638613397572
2204.9733,68.37274782791337
2206.4622,64.46424250950872
2207.9505,69.14094138175278
2209.438,65.45291500299572
2210.9248,62.35023324017857
2212.4109,63.9329653057157
2213.8962,48.60117978852031
2215.3809,58.2549446381779
2216.8648,58.84432731826291
2218.3479,58.06939470980046
2219.8304,58.430213105373696
2221.3121,58.37684821687071
2222.7931,59.059365171879335
2224.2733,53.427828514221346
2225.7529,60.48230219712468
2227.2317,49.47284963954144
2228.7098,64.19953365560036
2230.1872,57.662416564704245
2231.6638,52.01156004425957
2233.1397,63.597025195050946
2234.6149,49.71887259774758
2236.0894,51.57716219704821
2237.5632,45.12195344046563
2239.0362,50.203305259741
2240.5085,53.07127613539569
2241.9801,38.82592404592015
2243.4509,41.367306439093
2244.921,49.19548037443292
2246.3904,40.61050249778782
2247.8591,37.76242896305121
2249.3271,40.85131551801237
2250.7943,26.227217532837358
2252.2608,41.14018996917957
2253.7266,48.39028752642275
2255.1917,43.777564492550255
2256.656,43.352074671644914
2258.1197,35.063871430015524
2259.5826,39.063007700449816
2261.0447,39.09953606509839
2262.5062,33.323508715483285
2263.9669,56.334977452132534
2265.4269,37.333993742340226
2266.8862,43.57060849005302
2268.3448,45.79487222587727
2269.8026,39.556835044714944
2271.2598,45.50654658352096
2272.7162,34.84405608368206
2274.1719,38.26941233152161
2275.6268,40.93266376492238
2277.0811,51.08385843907399
2278.5346,47.32304399984014
2279.9874,51.450267582246624
2281.4395,48.1655758480897
2282.8908,41.86901494466224
2284.3414,49.1606305376024
2285.7914,54.59046787385887
2287.2406,41.75857170877498
2288.689,29.01498625179238
2290.1368,50.359755294766956
2291.5838,51.49292233940605
2293.0302,42.914530383819965
2294.4758,48.57462191118884
2295.9206,39.3732389755487
2297.3648,46.26042314518986
2298.8082,47.08621559467247
2300.251,44.8506570359516
2301.693,47.10378771012279
2303.1343,62.64564740977539
2304.5748,51.97627545646128
2306.0147,48.945710545277734
2307.4538,50.503990851560275
2308.8922,43.00115406118766
2310.3299,51.73723735499948
2311.7669,32.76227748382303
2313.2031,37.826310681114364
2314.6387,45.62937285270709
2316.0735,35.121499526173466
2317.5076,56.0527257727922
2318.941,52.27308631262781
2320.3737,48.33261530521713
2321.8056,54.731346387366784
2323.2369,44.869312712557075
2324.6674,49.49654688695773
2326.0972,57.863081068044494
2327.5263,47.61894691832845
2328.9547,50.56417552169091
2330.3823,37.94879748582434
2331.8092,57.62284291277888
2333.2355,45.986341525118405
2334.661,47.889322469179206
2336.0858,54.48181443143426
2337.5098,48.06384561946493
2338.9332,56.9854436960336
2340.3558,54.146635843266495
2341.7778,53.29744867343766
2343.199,59.08790825735446
2344.6195,46.61804013285018
2346.0393,61.937869246880155
2347.4583,40.29742008021867
2348.8767,50.6467164942635
2350.2943,53.03578194743909
2351.7113,62.26463939170458
2353.1275,55.48331124865945
2354.543,75.14181931726011
2355.9578,58.640184841630344
2357.3718,56.37842831447483
2358.7852,55.45656964209866
2360.1978,59.8746281670235
2361.6098,52.18262267720752
2363.021,64.33057136186335
2364.4315,58.86849188837641
2365.8413,57.89640128082783
2367.2504,64.61431597461615
2368.6587,57.972251826177626
2370.0664,49.07022404580425
2371.4733,54.50824726406631
2372.8795,56.63633562083328
2374.285,63.00450271089403
2375.6899,52.56276156267427
2377.0939,50.91112457455483
2378.4973,43.29960361929034
2379.9,42.77821006052454
2381.3019,49.9969548289082
2382.7032,50.50584842730859
2384.1037,49.00490085862498
2385.5035,48.99412162069689
2386.9027,56.32351972131778
2388.3011,56.343103678338366
2389.6987,57.252881446374204
2391.0957,58.4028604166092
2392.492,52.84304740769835
2393.8876,40.223448654269305
2395.2824,45.54406986251797
2396.6765,39.204916336405404
2398.07,34.755992924454176
2399.4627,53.497304083137124
2400.8547,51.92885392136668
2402.246,40.10064601308159
2403.6366,34.76268341293462
2405.0265,39.264968774570434
2406.4156,48.407504404007796
2407.8041,35.190292214615965
2409.1918,35.76333363569006
2410.5789,42.02662974462373
2411.9652,50.63018126117731
2413.3508,35.82398848484445
2414.7358,36.558051208819506
2416.12,38.08236886805571
2417.5035,40.44694053192552
2418.8863,42.95176488897937
2420.2684,38.096840223298386
2421.6497,32.4321643894491
2423.0304,40.507734861030485
2424.4104,40.37354878732049
2425.7896,39.92960291252075
2427.1682,41.225893577097395
2428.546,38.562416722224725
2429.9232,43.98916787681719
2431.2996,44.85614218416708
2432.6753,39.66333434767512
2434.0503,42.560738622181816
2435.4246,43.24834886589406
2436.7982,45.82615851141304
2438.1711,41.84416055885549
2439.5433,43.202347550079594
2440.9148,37.55071160850048
2442.2856,49.03924442551124
2443.6557,35.117937316998905
2445.025,39.48678110845867
2446.3937,41.24576627420697
2447.7617,40.79488289369306
2449.1289,35.08412063390824
2450.4955,39.26346875389663
2451.8613,45.53291616186084
2453.2265,48.242451373369704
2454.5909,50.542062448663046
2455.9546,58.2317369655575
2457.3177,44.26146199644836
2458.68,41.48122403141292
2460.0416,38.24100911791538
2461.4025,48.24080288860705
2462.7627,47.580590593729994
2464.1222,49.810357001119655
2465.4811,53.280086402804955
2466.8392,55.089762592711395
2468.1966,49.83936883196452
2469.5533,66.5788878307917
2470.9093,62.90830180102785
2472.2645,62.97759228872019
2473.6191,60.836740210831294
2474.973,52.13572585455108
2476.3262,57.124528898700646
2477.6787,57.053128500745515
2479.0305,53.12150324690606
2480.3816,64.52963115287343
2481.7319,56.82748970312423
2483.0816,57.265055736838576
2484.4306,54.14230552492245
2485.7789,49.90921476563085
2487.1264,50.915758615795994
2488.4733,52.711911733158786
2489.8195,53.997648266302804
2491.165,48.72294183669328
2492.5097,51.987765525818986
2493.8538,52.39209192794078
2495.1972,48.28589311744122
2496.5398,43.31914064478292
2497.8818,46.341805577569744
2499.2231,51.90385855021566
2500.5637,48.90526973371652
2501.9035,57.146008780030115
2503.2427,56.926044852061864
2504.5812,57.94534654125664
2505.919,51.553881869799625
2507.256,57.50161828042337
2508.5924,56.488522700321596
2509.9281,46.61456148167167
2511.2631,55.77970041176707
2512.5974,55.333904811755815
2513.9309,46.72713944498901
2515.2638,47.55936852147977
2516.596,56.83055578397091
2517.9275,53.99066449961276
2519.2583,55.3396573672502
2520.5884,54.07749654582233
2521.9178,56.80414364087267
2523.2465,59.26955971717007
2524.5745,61.073705271442236
2525.9018,52.816540207721346
2527.2284,58.64802381930281
2528.5543,59.768114871316584
2529.8796,67.12677154241237
2531.2041,56.07395141355971
2532.5279,65.35961139446044
2533.851,67.03370783407797
2535.1735,61.44619642777923
2536.4952,59.49703220059496
2537.8163,62.636169563094654
2539.1366,73.41356233087788
2540.4562,68.2791636931828
2541.7752,76.13292610511303
2543.0935,69.57480133898025
2544.411,63.00474040576705
2545.7279,72.97269362070847
2547.0441,77.128610668992
2548.3596,75.02244050607896
2549.6744,79.65413131614514
2550.9885,71.62363053314209
2552.3019,75.1808847944809
2553.6146,68.22584002133704
2554.9266,76.458441383077
2556.2379,75.52863336680912
2557.5485,80.33635969505792
2558.8585,75.2315633350621
2560.1677,72.61418645069682
2561.4762,73.58417045352269
2562.7841,90.04145602895846
2564.0913,78.7359831265818
2565.3977,88.3176907955559
2566.7035,80.73651729768426
2568.0086,98.04240001159371
2569.313,85.43527550854628
2570.6167,84.4650793793802
2571.9197,88.48174636058195
2573.222,87.98521034398766
2574.5236,88.42540433661577
2575.8246,91.60226046563366
2577.1248,95.6157099739554
2578.4244,97.26568318847251
2579.7232,104.15210947992045
2581.0214,96.02491724637821
2582.3189,97.2340338444044
2583.6157,99.67938567030797
2584.9118,110.46089814805782
2586.2072,107.42849570482952
2587.5019,107.28210166318956
2588.7959,106.22163827142094
2590.0893,106.14702670498536
2591.3819,109.2581870771287
2592.6739,113.75503843962656
2593.9652,120.53749875167341
2595.2557,121.00548483491377
2596.5456,112.65891230561715
2597.8348,119.0476955699994
2599.1234,115.5217479076872
2600.4112,112.1309814078304
2601.6983,125.82530700436234
2602.9848,123.20463450990678
2604.2705,123.86887247883499
2605.5556,124.41792823347214
2606.84,120.60170785745493
2608.1237,121.27011619024199
2609.4067,121.82305686527468
2610.689,124.66043230329365
2611.9707,117.48214370680932
2613.2516,126.9880910317288
2614.5319,112.82817305913738
2615.8115,109.15228730024069
2617.0903,120.26033013796257
2618.3685,118.95219686370478
2619.6461,112.87778156626587
2620.9229,117.58697714492257
2622.199,113.02967537017457
2623.4745,117.95576683665172
2624.7493,113.76514100868758
2626.0234,111.70768617105864
2627.2968,119.13328947089087
2628.5695,118.84183693823331
2629.8415,113.13321341180324
2631.1128,117.85730254189912
2632.3835,122.96398684748772
2633.6535,124.0531476689631
2634.9228,115.6746651170804
2636.1914,114.32841806206386
2637.4593,113.6642842173909
2638.7265,113.53214015325568
2639.9931,114.38186130321003
2641.259,118.36332196548517
2642.5242,118.32639529449386
2643.7887,119.77095326101562
2645.0525,118.49686665256718
2646.3156,116.80400505895545
2647.5781,113.94223688501927
2648.8398,113.91142936755716
2650.1009,107.96144860394566
2651.3613,112.19215955244772
2652.6211,105.85342609171244
2653.8801,110.24511097846766
2655.1385,113.31707591090765
2656.3961,112.56918148477564
2657.6531,125.30128716264562
2658.9094,114.6632512813992
2660.1651,121.0549309249061
2661.42,117.676182030404
2662.6743,116.12685932458157
2663.9279,125.35681635736569
2665.1808,124.56590551741465
2666.433,128.20397793981863
2667.6846,139.9208835140097
2668.9354,129.4164708473802
2670.1856,132.24058714811406
2671.4351,136.84307833023138
2672.6839,137.42378898534628
2673.9321,143.98256233664245
2675.1795,149.11924023306688
2676.4263,149.33366308374104
2677.6724,138.77566980659458
2678.9179,150.6450978262203
2680.1626,138.5417831794548
2681.4067,148.9655603966845
2682.6501,152.66626262287832
2683.8928,145.59372151334992
2685.1348,143.84776719675097
2686.3761,136.078228345796
2687.6168,142.13493219472286
2688.8568,129.4177046169866
2690.0961,129.57637006469383
2691.3348,134.41075169577448
2692.5727,133.77067137239453
2693.81,131.90594961261297
2695.0466,128.2664055967823
2696.2826,123.95185718619564
2697.5178,128.16212095948174
2698.7524,124.79701225575104
2699.9863,131.00634513249258
2701.2195,127.08993239922563
2702.452,136.29758555540627
2703.6839,145.12911482959214
2704.9151,149.6843290873651
2706.1456,151.7630357430163
2707.3755,145.21504071399374
2708.6046,156.44014840011585
2709.8331,167.9881617490505
2711.0609,170.35888214406452
2712.2881,170.80210928854342
2713.5145,175.0176411822838
2714.7403,187.8552741170614
2715.9654,202.8148026344761
2717.1899,209.4960193975752
2718.4136,214.39871504125836
2719.6367,235.27267810546516
2720.8591,238.26769498614829
2722.0809,249.33354972653387
2723.3019,261.17002398717113
2724.5223,273.2768969352745
2725.7421,287.65394512635805
2726.9611,285.4009423831677
2728.1795,273.21765965191014
2729.3972,268.4038650247827
2730.6142,262.1593238618061
2731.8306,241.18379883896307
2733.0462,225.827050010643
2734.2612,215.28883501939754
2735.4756,191.4189092495085
2736.6892,171.76702593236928
2737.9022,161.33293638518455
2739.1145,152.4663902074891
2740.3262,130.81713538548843
2741.5372,130.58491838072462
2742.7475,114.91948434656865
2743.9571,107.77057713054228
2745.1661,85.887939430973
2746.3744,85.17131286848291
2747.582,73.97043820481406
2748.7889,68.13505534999672
2749.9952,65.11490347435677
2751.2008,55.85972106686961
2752.4057,54.76924596536219
2753.61,42.99321544906479
2754.8136,42.231366249515304
2756.0165,38.433434668319705
2757.2188,40.99915658477062
2758.4204,34.47826749382682
2759.6213,31.920502480455752
2760.8215,36.12559628484212
2762.0211,26.34328332796565
2763.22,25.023297669550857
2764.4182,23.515373105889125
2765.6158,25.81924318303902
2766.8127,16.134641211906114
2768.009,13.711300245203574
2769.2045,6.248953174298322
2770.3994,5.697332753444357
2771.5936,5.006171674406573
2772.7872,-2.8247974280236576
2773.9801,-10.54584196911594
2775.1723,-11.907201144414557
2776.3639,-7.159008796502576
2777.5548,-7.951279815024236
2778.745,-14.183957571125802
2779.9346,-10.90690600266862
2781.1235,-22.0198473497785
2782.3117,-14.022394892590569
2783.4992,-21.313941932965463
2784.6861,-13.593741689039348
2785.8723,-5.410834452668382
2787.0579,-9.514124714230206
2788.2428,-2.75246290986604
2789.427,4.775395570388014
2790.6106,0.7707228335999616
2791.7935,2.1347909390843824
2792.9757,15.76887193844891
2794.1573,20.72423786195384
2795.3382,33.60216058217111
2796.5184,37.30391176443027
2797.698,48.28076273803913
2798.8769,61.733984459266594
2800.0551,67.26484740157423
2801.2327,87.3246214210834
2802.4096,99.0645757012677
2803.5859,115.48597855235573
2804.7615,121.29009729392988
2805.9364,140.0281980907115
2807.1106,168.001545894522
2808.2842,188.1114042569011
2809.4572,211.1590350493741
2810.6294,246.44569826235158
2811.801,274.8226517746547
2812.972,312.6411510006476
2814.1423,349.1024486064688
2815.3119,389.55779413184496
2816.4808,435.75843362547937
2817.6491,475.3056092404979
2818.8167,529.1005587724418
2819.9837,569.4945152637962
2821.15,627.6387064660414
2822.3157,671.2843544357132
2823.4807,718.3826749529601
2824.645,776.0848770850872
2825.8086,826.4421627155734
2826.9716,866.6057259670487
2828.134,912.3267526977219
2829.2957,944.0564200997447
2830.4567,987.5958962420024
2831.617,1008.2963397528154
2832.7767,1019.1588993845462
2833.9358,1020.0347138065933
2835.0941,1002.1249114967674
2836.2519,987.2806107325313
2837.4089,974.6029197700997
2838.5653,959.6429369928819
2839.7211,947.851751038258
2840.8761,945.9304409471785
2842.0306,970.2300762820772
2843.1843,989.9017171460844
2844.3374,1012.1964139400294
2845.4899,1066.415207165725
2846.6417,1131.2591272030204
2847.7928,1192.4791937676127
2848.9433,1257.1264152626084
2850.0931,1320.2017881663216
2851.2422,1390.5562963858029
2852.3907,1457.940910626085
2853.5385,1497.6565876866382
2854.6857,1545.454269787524
2855.8323,1606.4348841722383
2856.9781,1653.2993426297353
2858.1233,1709.048540884619
2859.2679,1748.8333581285021
2860.4118,1785.0046564625113
2861.555,1814.0132804994391
2862.6976,1865.0600570020335
2863.8395,1904.4957945929082
2864.9808,1923.4712832440784
2866.1214,1926.2872938826006
2867.2614,1944.84457820082
2868.4007,1960.4438686282083
2869.5393,1997.2858781457917
2870.6773,1993.5713001301583
2871.8146,2004.8008079850376
2872.9513,2002.5250551784466
2874.0874,2006.2946751303953
2875.2227,1987.1602812356432
2876.3574,1956.3724668260043
2877.4915,1953.8818053616894
2878.6249,1922.2388507391834
2879.7577,1887.1441373161565
2880.8898,1861.6981802278883
2882.0212,1855.3014757382193
2883.152,1829.7045014940084
2884.2821,1838.5077165890993
2885.4116,1821.961561820293
2886.5405,1829.8164595993112
2887.6686,1833.5228141182636
2888.7962,1820.4310112710923
2889.923,1845.2914186165142
2891.0493,1844.5543855089354
2892.1748,1858.2702428498487
2893.2997,1877.6393030952017
2894.424,1897.011860118242
2895.5476,1907.7381890158235
2896.6706,1939.9185459146822
2897.7929,1949.2031678641738
2898.9145,1994.492272514467
2900.0355,1996.9360580237008
2901.1559,2037.1347026050903
2902.2756,2067.788364502492
2903.3946,2106.1471815884156
2904.513,2117.2612710574876
2905.6308,2149.430729042861
2906.7479,2163.355630505079
2907.8643,2219.5860289103757
2908.9801,2222.02195609143
2910.0953,2233.6634216850616
2911.2098,2221.21041310787
2912.3236,2210.112895439821
2913.4368,2214.9208115487777
2914.5494,2198.684082201473
2915.6613,2157.8026060154325
2916.7725,2135.276259621342
2917.8831,2118.0048980718625
2918.9931,2092.2883550668917
2920.1024,2050.9764431262784
2921.211,2042.5689538469899
2922.319,2015.3656583162278
2923.4264,2010.5163071955058
2924.5331,2004.9206309926803
2925.6391,1990.4283401104458
2926.7445,1981.1891249022913
2927.8493,1996.1026558174217
2928.9534,1987.8185834931526
2930.0569,1977.0865386057712
2931.1597,1983.9061319533812
2932.2619,1985.7269545632207
2933.3634,2005.598577623466
2934.4643,1989.0705524650257
2935.5645,1963.942410362822
2936.6641,1955.4136627010726
2937.763,1913.3838012245703
2938.8613,1878.6522981239727
2939.959,1839.6686064560972
2941.056,1765.282160491242
2942.1523,1702.3423761030162
2943.248,1618.3486515122108
2944.3431,1528.6503679161915
2945.4375,1426.196890328838
2946.5313,1340.0375684775274
2947.6244,1243.5717378276674
2948.7169,1151.898720444291
2949.8087,1060.4178259567145
2950.8999,977.2283524752665
2951.9904,897.2795875060988
2953.0803,829.7208087830791
2954.1696,775.0012850672799
2955.2582,724.420276822565
2956.3462,691.6770367627861
2957.4335,645.5708103575926
2958.5202,615.0508361598642
2959.6062,579.566346266772
2960.6916,565.4165666249801
2961.7764,555.8507173854885
2962.8605,544.9680130451322
2963.9439,528.017662542239
2965.0267,525.6488693654572
2966.1089,511.5608317232593
2967.1905,522.352742567629
2968.2714,522.5237897349432
2969.3516,516.37315583805
2970.4312,527.0500182645615
2971.5102,532.6535492383576
2972.5885,533.1329157128191
2973.6662,544.8872793147909
2974.7432,540.6157963397891
2975.8196,533.5176176344562
2976.8954,526.5918886392778
2977.9705,527.1377494595631
2979.045,525.8543349347025
2980.1188,510.5907746327093
2981.192,498.84619286305315
2982.2645,476.1697088292964
2983.3364,453.4604367465388
2984.4077,435.3174860681843
2985.4783,413.53996171303186
2986.5483,395.52696424670614
2987.6177,352.3275900994321
2988.6864,326.19093174616535
2989.7545,298.16607813858593
2990.8219,268.30211496646484
2991.8887,239.94812493791233
2992.9548,207.8531880780182
2994.0204,186.96638201239114
2995.0852,162.7367822881082
2996.1495,141.81346258258293
2997.2131,113.94549494586113
2998.276,106.63195000985468
2999.3383,86.72189726702027
3000.4,61.61440514349579
3001.4611,53.05854119820037
3002.5215,46.75337237390909
3003.5812,30.097965082811697
3004.6404,22.041385269564557
3005.6989,18.88269857784462
3006.7567,14.270970430915384
3007.8139,7.1552660632136735
3008.8705,-0.11534943353336757
3009.9264,-0.8918110391506957
3010.9818,-5.325053732309243
3012.0364,-17.266003582487997
3013.0905,-7.265533461879443
3014.1439,-11.624343755300913
3015.1966,-4.0430622648906365
3016.2487,-9.97220066559288
3017.3002,-12.112230242159853
3018.3511,-5.163522657060184
3019.4013,-9.276328571582042
3020.4509,-2.900847063422816
3021.4998,-2.937184539757652
3022.5481,-0.18541842829972666
3023.5958,1.4544031857109871
3024.6428,0.18223406936448328
3025.6892,7.048027975206708
3026.735,16.501738653961638
3027.7802,11.193319785872859
3028.8247,18.872724886166736
3029.8685,29.339907358136713
3030.9118,36.144820416349205
3031.9544,34.187416981971865
3032.9963,49.71764961472445
3034.0376,51.63547053245293
3035.0783,56.34083145582758
3036.1184,62.33368358916397
3037.1578,71.36397757336948
3038.1966,76.93166342601484
3039.2348,83.18669045103127
3040.2723,85.57900718303324
3041.3092,84.35856132476846
3042.3455,86.12529972319459
3043.3811,89.27916838168375
3044.4161,93.8201124423552
3045.4505,90.84807615453661
3046.4842,91.01300282935455
3047.5173,92.1648348694552
3048.5498,84.65351376735515
3049.5816,89.42898009392286
3050.6128,84.24117357349172
3051.6434,87.6900330361056
3052.6734,87.37549646939652
3053.7027,81.44750098409662
3054.7314,82.25598281718294
3055.7594,83.40087739115779
3056.7868,79.78211930596404
3057.8136,83.99964232753598
3058.8398,79.8533794239869
3059.8653,78.69326272343386
3060.8902,83.66922355546018
3061.9145,83.08119246271661
3062.9381,80.37909915116211
3063.9612,78.51287249594355
3064.9835,81.28244056841692
3066.0053,77.63773065480979
3067.0264,76.67866922852522
3068.0469,79.05518198658916
3069.0668,70.1671938592408
3070.086,68.16462898616788
3071.1046,68.39741080538613
3072.1226,54.21546207326537
3073.1399,59.76870486220122
3074.1567,49.40706070243505
3075.1727,44.230450526521054
3076.1882,36.03879477294316
3077.203,43.73201343788094
3078.2173,32.860026157126185
3079.2308,32.07275212915039
3080.2438,23.270110223825043
3081.2561,28.702018990294278
3082.2678,16.418396745001303
3083.2789,18.31916151736911
3084.2893,7.504231172636963
3085.2991,6.8735233928526895
3086.3083,8.626955785021778
3087.3169,8.56444588741445
3088.3248,5.7859111520315025
3089.3321,6.341268945229359
3090.3388,0.4804365755054789
3091.3449,2.953331287944792
3092.3503,1.3598703228280726
3093.3551,-0.20002910909704497
3094.3593,-3.276449810681413
3095.3629,-1.7194725864852956
3096.3658,-3.6291455093354443
3097.3681,3.7945005254722446
3098.3698,-0.7985291221943669
3099.3708,-1.0082291304124738
3100.3713,2.7654138000467015
3101.3711,-0.527576959379104
3102.3702,4.862821935093649
3103.3688,-1.1133609022575683
3104.3667,1.793903094216489
3105.364,-0.7153463873594035
3106.3607,-0.7410696767993841
3107.3568,-4.433219957607491
3108.3522,-0.7917430100016531
3109.347,-0.6165403263325686
3110.3412,5.192494510561659
3111.3348,1.2354740770805392
3112.3277,-2.7874891023011514
3113.32,4.073717484536672
3114.3117,1.519234196730082
3115.3028,5.049201352678125
3116.2932,4.863759255587638
3117.2831,7.01304815817349
3118.2723,11.79720826451313
3119.2608,10.816379708553427
3120.2488,9.27070250626943
3121.2361,8.510316565472323
3122.2229,12.685361701266459
3123.209,14.5959776436531
3124.1944,11.942303995780037
3125.1793,13.974480214835353
3126.1635,12.6426456385841
3127.1471,18.196939465046654
3128.1301,16.337500765816998
3129.1125,14.814468430519838
3130.0942,16.727981185405156
3131.0753,24.678177608578295
3132.0558,17.315196110864946
3133.0357,20.889174856309054
3134.015,20.700251835803
3134.9936,21.19856483134734
3135.9716,25.784251417940283
3136.949,18.30744895859432
3137.9258,23.318294558479522
3138.902,22.91692513969157
3139.8775,27.3534773911433
3140.8524,28.078087772578314
3141.8267,31.390892470205543
3142.8004,29.79202738945294
3143.7735,30.13162812183974
3144.7459,35.15982996096474
3145.7178,32.276767899110666
3146.689,34.08257657696193
3147.6596,35.77739031243533
3148.6295,35.96134308262194
3149.5989,34.93456850683896
3150.5676,39.347199844790254
3151.5357,37.89937000683406
3152.5032,40.691211509856714
3153.4701,43.72285649175082
3154.4364,44.34443668349694
3155.402,43.05608337884712
3156.367,43.75792742810903
3157.3315,42.85009925102955
3158.2952,43.48272882977628
3159.2584,47.00594571801588
3160.221,43.91987903458774
3161.1829,47.324657428271806
3162.1442,48.17040910864924
3163.105,48.207261812054696
3164.065,52.53534279311877
3165.0245,51.10477882439949
3165.9834,54.21569615310145
3166.9416,53.91822051538156
3167.8993,56.36247710523977
3168.8563,55.448590577493825
3169.8127,55.776685023336796
3170.7684,58.3968839794759
3171.7236,57.45931042485151
3172.6782,59.414086754435196
3173.6321,58.86133478860548
3174.5854,64.65117575360003
3175.5381,64.28373028704316
3176.4902,62.65911838004742
3177.4417,64.67745938088817
3178.3926,68.53887201124954
3179.3428,70.9934743460411
3180.2924,70.09138377478374
3181.2415,63.7327169770636
3182.1899,70.467589931553
3183.1377,73.69611797959708
3184.0848,65.96841575786513
3185.0314,72.58459716606518
3185.9773,71.34477544422123
3186.9227,76.89906310651116
3187.8674,75.49757195366527
3188.8115,75.84041301742316
3189.755,76.92769657454873
3190.6979,80.6095321434018
3191.6402,76.73602847306515
3192.5818,82.30729350652635
3193.5229,85.77343441941265
3194.4633,85.98455756427838
3195.4031,85.94076843594351
3196.3423,82.79217166938248
3197.2809,89.138871040162
3198.2189,90.03096949592712
3199.1563,87.86856909293415
3200.0931,88.7517709871297
3201.0292,88.48067545577473
3201.9648,88.80538188861244
3202.8997,89.87598879057931
3203.834,93.19259377855798
3204.7677,91.80529357067118
3205.7008,99.21418395311575
3206.6333,95.76935979403555
3207.5652,96.57091496943262
3208.4964,97.8689423976154
3209.4271,95.81353403118318
3210.3571,101.95478084404581
3211.2865,97.69277285197776
3212.2154,98.97759905120577
3213.1436,105.40934746102876
3214.0712,103.2881051109697
3214.9982,104.21395797645808
3215.9246,103.98699100004231
3216.8503,105.20728808213124
3217.7755,110.17493208326377
3218.7001,107.59000481190593
3219.624,109.25258697477442
3220.5473,109.61275820268585
3221.4701,113.77059703393095
3222.3922,114.0261809106729
3223.3137,113.07958613736885
3224.2346,114.68088787821408
3225.1549,118.68016016660809
3226.0746,117.8274758891414
3226.9937,118.72290674560296
3227.9121,119.3165232575069
3228.83,119.65839475913828
3229.7473,120.39858939161691
3230.6639,124.58717409947859
3231.5799,126.37421462327326
3232.4954,125.15977545767912
3233.4102,130.84391983363219
3234.3244,123.42670973047069
3235.238,127.05820581909364
3236.151,125.63846753613298
3237.0634,131.96755304763855
3237.9752,130.79551926327545
3238.8864,128.6724217730333
3239.797,131.89831485894655
3240.7069,132.9732515163252
3241.6163,135.04728342149627
3242.5251,132.57046092105406
3243.4332,135.74283301112007
3244.3408,136.01444736211118
3245.2477,139.58535028701579
3246.154,139.50558673867792
3247.0598,144.47520027408797
3247.9649,140.54423305518048
3248.8694,143.51272579913785
3249.7733,140.23071781770022
3250.6766,141.4482469874803
3251.5793,142.96534978278365
3252.4814,147.9320612634333
3253.3829,147.29841505959885
3254.2838,145.06444332212914
3255.1841,150.2801767288888
3256.0838,147.89564450709798
3256.9829,145.660874381175
3257.8814,151.42589259658172
3258.7792,153.24072394217114
3259.6765,154.4053916925375
3260.5731,154.61991758986767
3261.4692,155.0343218322945
3262.3647,154.09862307175172
3263.2595,151.7628384098298
3264.1538,155.57698340713296
3265.0474,153.69107210663702
3265.9404,155.50511699554792
3266.8329,156.9191290241608
3267.7247,154.7831175877197
3268.616,158.6970905122772
3269.5066,157.6610540760548
3270.3966,155.97501297030288
3271.286,155.48897030966128
