RamanShift,CorrectedData
30.1047,1371.8162302301287
32.3739,1277.9124073911419
34.6426,1178.8585708339922
36.9109,1080.4546940613943
39.1787,983.600738787475
41.4461,893.4466559218151
43.7131,794.0923865379872
45.9796,698.7878627750972
48.2456,600.7330088313263
50.5112,506.8277419169764
52.7764,411.42197323501944
55.0411,316.21560892014975
57.3054,223.85855099284151
59.5692,129.05069831141287
61.8326,37.441947495596295
64.0955,-57.41780612538261
66.3579,-144.8786675967179
68.6199,-228.8901683597202
70.8815,-297.7003925178112
73.1426,-320.455137561631
75.4032,-214.6972269548982
77.6634,186.73371718549208
79.9231,1315.3502175679423
82.1824,3841.0147950335167
84.4412,8430.939957269778
86.6995,14808.788173554145
88.9574,20923.721828854632
91.2148,25096.503160051376
93.4717,26927.39419478729
95.7282,27171.156709740273
97.9842,26835.00221231426
100.2398,26067.64193820164
102.4949,25230.486854744762
104.7495,24266.097668609575
107.0036,23289.734834157152
109.2573,22375.358563087582
111.5105,21502.97883420362
113.7632,20659.955402554428
116.0154,20004.397808159385
118.2672,19464.515384438313
120.5185,18952.317264767065
122.7693,18467.212387876334
125.0197,18126.609502973643
127.2696,17734.0671745944
129.519,17448.993786007904
131.7679,17111.747543142803
134.0163,16748.28647743779
136.2642,16389.7184492141
138.5117,15959.051151310097
140.7587,15543.392112666967
143.0052,15168.948702635385
145.2512,14786.528135132103
147.4967,14412.187472384394
149.7417,14111.18362875424
151.9863,13859.223374481762
154.2304,13664.263338695235
156.4739,13434.21001193071
158.717,13246.719748081607
160.9596,12947.198766699246
163.2017,12606.053154867755
165.4433,12238.838870199266
167.6844,11789.961744245393
169.925,11392.227486169355
172.1651,10951.491687234757
174.4047,10588.409824782932
176.6439,10241.137266640291
178.8825,9915.029274749162
181.1206,9672.341008640493
183.3582,9412.077528694947
185.5954,9213.14379856977
187.832,9051.544687801439
190.0681,8955.384973794997
192.3037,8868.169343440042
194.5388,8772.852394072326
196.7734,8720.088634345908
199.0075,8697.332485186324
201.2411,8776.288280318227
203.4742,8735.960266492948
205.7068,8836.102602698942
207.9389,8874.56936056506
210.1704,8956.714523359133
212.4015,8959.241985603301
214.632,9049.505552252554
216.862,9163.358938669477
219.0915,9195.655769721592
221.3205,9245.899578642839
223.549,9363.893806710603
225.777,9521.141802743272
228.0044,9618.04682192031
230.2314,9884.212024209748
232.4578,10046.740473399163
234.6837,10197.835134434008
236.909,10289.148871792338
239.1339,10168.684447973861
241.3582,9942.344522586805
243.582,9671.831653552552
245.8053,9409.94829936904
248.0281,9190.446821815902
250.2503,8979.279488573278
252.472,8861.498475416858
254.6932,8829.955868329534
256.9139,8802.603664679224
259.134,8838.84377353429
261.3536,8939.528015937063
263.5727,9100.208124541434
265.7912,9127.485742606017
268.0092,9220.262422387344
270.2267,9249.039624867106
272.4436,9206.968718824352
274.6601,9131.300980547761
276.8759,9000.13759425631
279.0913,8853.079652855977
281.3061,8682.878159251368
283.5204,8630.584027816309
285.7341,8511.948086095832
287.9473,8555.471075329142
290.16,8600.103651635965
292.3721,8772.446385581323
294.5837,9016.64976172921
296.7947,9215.56417691915
299.0052,9378.689937824187
301.2152,9244.22725896171
303.4246,8915.976261062222
305.6334,8431.236972413952
307.8418,7925.709332145381
310.0495,7421.4931950726295
312.2568,6994.688336754711
314.4635,6618.994458535732
316.6696,6349.411191812907
318.8752,6173.188101793525
321.0802,6086.524690190756
323.2847,6089.070396985899
325.4887,6080.974601295007
327.692,5992.786621343434
329.8949,5881.355714546788
332.0972,5602.281078392811
334.2989,5317.411851555704
336.5001,5003.247116686856
338.7007,4716.885903263541
340.9008,4552.127190730558
343.1003,4342.8199113638675
345.2992,4239.2629519181555
347.4976,4135.055155719905
349.6955,3984.6953237029866
351.8927,4013.0822154507114
354.0895,3892.314550699459
356.2856,3861.7910090547757
358.4812,3823.2102311990766
360.6763,3799.8708191968726
362.8707,3728.021336880576
365.0646,3677.7103100839013
367.258,3720.0862273603634
369.4508,3715.947540486368
371.643,3809.6426640374684
373.8346,3771.7699754297446
376.0257,3772.827813982849
378.2162,3716.0644812987375
380.4062,3612.87824125109
382.5956,3396.4173205529514
384.7844,3291.5299097885963
386.9726,3140.464165578129
389.1603,3032.818211626369
391.3474,2929.590140233495
393.5339,2900.1280133715063
395.7199,2815.979863716502
397.9052,2841.793694943306
400.09,2858.167482566949
402.2743,2913.499173684526
404.4579,2999.636686811471
406.641,3161.027911328216
408.8235,3301.670706618832
411.0054,3529.56290045712
413.1868,3797.452287600172
415.3675,3939.786627509462
417.5477,4044.3136416719462
419.7273,3982.781012176718
421.9064,3889.136380669732
424.0848,3728.577348969149
426.2627,3519.4514800017605
428.4399,3250.656299408589
430.6166,2890.5892976361592
432.7928,2498.94793262444
434.9683,2139.2796334075156
437.1432,1898.0818040299946
439.3176,1716.0018271436911
441.4914,1570.2370664196042
443.6645,1515.4348683687222
445.8371,1425.2925637996632
448.0091,1352.207468366696
450.1806,1314.1268834711736
452.3514,1239.398096992376
454.5216,1272.268383668319
456.6913,1189.235005843042
458.8603,1221.3452131378945
461.0288,1265.8962432818862
463.1967,1217.7853217905758
465.3639,1300.4596615205628
467.5306,1295.9164631505992
469.6967,1356.4529143548407
471.8622,1425.6661898482926
474.0271,1496.603450781442
476.1914,1541.611844048115
478.3551,1506.7885015761094
480.5182,1509.680539877114
482.6807,1585.5850603949384
484.8426,1706.999149476591
487.0039,1979.969877613241
489.1647,2346.794298226072
491.3248,2729.2194449365725
493.4843,2865.3923278983
495.6432,2802.6099299726266
497.8015,2675.119205367
499.9592,2633.5170802627817
502.1163,2479.3504540901376
504.2728,2215.116199944079
506.4287,1903.3611661261111
508.5839,1503.6821787865829
510.7386,1221.0760450422422
512.8927,1061.5395569730154
515.0461,1000.669494448075
517.199,1009.0126267211999
519.3512,1079.8657130394768
521.5029,1275.57550255987
523.6539,1447.2887336406911
525.8043,1530.6521318844989
527.9541,1482.4124084209743
530.1033,1355.8662590732747
532.2519,1276.2603648404456
534.3999,1287.1913931628842
536.5472,1448.4059987183846
538.694,1764.6508233128388
540.8401,2195.2224942680714
542.9856,2533.9676212594186
545.1305,2591.7327920100033
547.2748,2515.714568903264
549.4185,2228.1094884053273
551.5615,1991.6640618251768
553.704,1924.374778190706
555.8458,1924.1881066131737
557.987,2035.7004969600912
560.1276,2164.008379857096
562.2675,2388.058165572831
564.4069,2693.39624273586
566.5456,2937.9689760941765
568.6837,2994.0727034618085
570.8212,2672.7537332731117
572.958,2114.9083440217146
575.0942,1621.2827874737213
577.2299,1283.9732942461615
579.3648,1164.2760787432326
581.4992,1151.4873425294063
583.6329,1281.7032755264026
585.766,1462.7200561410737
587.8985,1641.5838499632391
590.0304,1634.740807955519
592.1616,1600.1870646647003
594.2922,1471.2187382901611
596.4222,1249.6819310294213
598.5515,1047.5227303678112
600.6802,897.7372112938483
602.8083,751.8214383208342
604.9358,732.4714669846999
607.0626,709.1333453031657
609.1888,757.8031139692466
611.3144,800.8768065846343
613.4393,846.5004491729942
615.5636,855.8200597492414
617.6873,820.6816478632918
619.8103,769.8312145068703
621.9327,607.0147524648892
624.0544,487.82824682395403
626.1756,388.317676600529
628.2961,273.67901593280294
630.4159,225.85823507580062
632.5351,201.5013015477598
634.6537,152.85418060833763
636.7716,142.11283550217922
638.8889,195.32322794539687
641.0056,197.53131823296462
643.1216,188.38306470664065
645.237,195.37442373287377
647.3518,145.70134979428622
649.4659,111.45979541977431
651.5793,93.19571168122638
653.6922,64.1050485359483
655.8043,101.33375500929287
657.9159,76.72777948555995
660.0268,30.483069335727123
662.137,8.29557116349315
664.2466,18.91123126774255
666.3556,8.225913074600612
668.4639,-39.5645201789157
670.5716,-37.86428743266151
672.6786,-5.927212376949683
674.785,6.343259562134335
676.8907,16.943742171348276
678.9958,90.12078586826465
681.1002,71.6709409010291
683.204,52.490756616583894
685.3072,27.576781645178926
687.4097,-9.32443590783987
689.5115,-28.116348212890443
691.6127,-23.852314289273636
693.7132,-73.38541227398309
695.8131,-81.01848201939356
697.9123,-58.15363025762417
700.0109,-61.692154346172174
702.1089,-43.484770687768105
704.2061,8.418420619467724
706.3028,73.01775389026261
708.3987,110.6635633551632
710.4941,184.95618251454653
712.5887,282.1459437621579
714.6827,442.73317764219064
716.7761,680.7682118773773
718.8688,998.0513697631104
720.9608,1137.2329677871185
723.0522,1258.9133124566179
725.1429,1205.6926989065068
727.233,1157.5714096825523
729.3224,1083.4997152736123
731.4112,932.6278745928448
733.4993,750.9061357184182
735.5867,570.0847374022269
737.6735,404.3139108871055
739.7596,294.693881715044
741.845,185.67487138490105
743.9298,121.95709844860721
746.014,118.04077960135874
748.0974,101.02613031877627
750.1802,104.11336489609312
752.2624,163.85269661828534
754.3439,210.34433772920238
756.4247,322.88849883417424
758.5048,493.1853884350967
760.5843,754.6852118049865
762.6631,1122.6381692850227
764.7413,1676.7944536695413
766.8188,2339.304246526497
768.8956,2857.467712655911
770.9718,3185.984993464759
773.0473,3115.206201785364
775.1221,2818.7814185902025
777.1962,2526.1606936996886
779.2697,2342.044048746435
781.3426,2395.7314801014436
783.4147,2573.822960715299
785.4862,2791.2684395812666
787.557,2689.9678399544046
789.6271,2293.271057177082
791.6966,1727.8779596920067
793.7654,1142.1883930091717
795.8335,787.7021853597907
797.901,545.7691535532231
799.9678,441.6891065217951
802.0339,390.01184774014655
804.0993,386.9871762660332
806.1641,361.11488725710115
808.2282,291.59477200112633
810.2916,234.97661817473636
812.3544,135.21021053862933
814.4164,94.395331503727
816.4778,120.33176212886428
818.5385,144.21928252892212
820.5986,295.6576716154759
822.658,507.696706857907
824.7166,744.3861627690258
826.7747,1161.1258087846836
828.832,1545.66540689688
830.8886,1831.704707486355
832.9446,2006.343445477205
834.9999,1955.1813374764934
837.0545,1793.4180800278464
839.1085,1605.7533501230846
841.1618,1401.136806819859
843.2143,1259.3180931182906
845.2662,1102.2968380071397
847.3175,1038.8726578819915
849.368,911.1951581154517
851.4179,811.3139336914064
853.467,701.5285704817998
855.5155,659.4386462454368
857.5633,549.9437317258471
859.6105,470.84339107218875
861.6569,414.4871829341755
863.7027,360.9246612530915
865.7478,310.45537582535326
867.7922,342.8288728381358
869.8359,344.59469537405494
871.8789,427.3023830874572
873.9212,542.4014721867406
875.9629,672.7914946072924
878.0039,863.4219768604817
880.0441,954.8424387297655
882.0837,996.402391364385
884.1226,1000.4013363651684
886.1609,980.9387653689246
888.1984,1016.0641600084655
890.2352,1121.4769921072148
892.2714,1102.6767233279788
894.3069,1062.1128041187894
896.3416,979.7346739009099
898.3757,891.3417614744812
900.4091,842.9834858423055
902.4418,853.0092570937722
904.4739,865.5684768884421
906.5052,949.3105383557904
908.5358,861.4848259696118
910.5658,720.1907147105994
912.595,532.0775709446007
914.6236,335.29475383555837
916.6515,294.6416172266454
918.6786,238.26751160809727
920.7051,312.7717845237348
922.7309,366.5037811347138
924.756,445.7128434744827
926.7804,545.6983099114514
928.8041,497.1595143569084
930.8272,560.3957852651656
932.8495,529.1064461189399
934.8711,519.8408147969931
936.892,435.1482038870363
938.9123,368.8779207783755
940.9318,342.27926850884614
942.9506,278.95154642749185
944.9688,262.2940504605849
946.9862,153.7560737448821
949.003,58.83690679420579
951.019,18.38583858482707
953.0344,-18.447842495352234
955.0491,40.53515175772009
957.063,81.73429384202973
959.0763,216.94905585022025
961.0888,271.87890905760105
963.1007,341.2233225699929
965.1119,382.38176277443563
967.1223,417.503692645736
969.1321,434.8385713349053
971.1412,415.285853817908
973.1495,458.5449907223392
975.1572,477.36542852294406
977.1641,521.0966091090177
979.1704,499.48796959620813
981.1759,490.1889418892024
983.1808,523.198952897812
985.1849,606.767424629963
987.1884,687.5937738615994
989.1911,841.6774113010015
991.1932,955.617740780508
993.1945,1011.7141577156981
995.1951,952.5160479659753
997.1951,951.0727872736043
999.1943,892.6337418556923
1001.1928,893.0982684186201
1003.1906,914.815714742439
1005.1877,1000.2354196762317
1007.1841,1052.106712920935
1009.1798,1057.4789141751353
1011.1748,943.9013326163495
1013.1691,783.0232668473163
1015.1627,589.2940060317633
1017.1556,368.9128315031958
1019.1477,276.07901870217756
1021.1392,172.49183938015085
1023.1299,163.10056252776485
1025.12,170.8544554107557
1027.1093,236.70278366386265
1029.0979,365.09481121327553
1031.0859,477.17979961816854
1033.0731,493.0570067867684
1035.0596,441.3256858555105
1037.0454,305.33508503027224
1039.0304,215.53444810367728
1041.0148,76.22301581501233
1042.9985,17.850026748219534
1044.9814,-26.78528127498066
1046.9636,-47.58367061136778
1048.9452,-55.74563603277784
1050.926,-43.37119695017827
1052.9061,7.190184124354346
1054.8855,5.439477957001145
1056.8642,59.8776552420386
1058.8421,128.40568661935686
1060.8194,168.57454213007077
1062.7959,233.88519053125128
1064.7717,251.93859889421765
1066.7469,331.13573195145364
1068.7213,376.87755191606084
1070.695,458.6650176898038
1072.6679,460.5990844056687
1074.6402,455.8807026100021
1076.6117,416.9608182431584
1078.5826,380.94037268669126
1080.5527,309.4703031525514
1082.5221,307.15154304328644
1084.4908,407.83502266674986
1086.4587,487.47166925927377
1088.426,560.6624059788464
1090.3925,575.6581511087352
1092.3584,580.5598173255839
1094.3235,545.2183115494572
1096.2879,577.9845348948184
1098.2515,653.3593830239679
1100.2145,772.393745819365
1102.1767,939.8385066298852
1104.1382,1168.8945410804627
1106.099,1409.9627153976471
1108.0591,1624.8438841190473
1110.0185,1772.7888876826437
1111.9771,1835.2985502779957
1113.9351,1723.1236783667719
1115.8923,1553.2650600576653
1117.8488,1342.7734662281364
1119.8045,1079.9996522229958
1121.7596,964.3443599593247
1123.7139,884.8083205542098
1125.6675,894.2422554813074
1127.6204,968.5468773661869
1129.5726,956.9728898919984
1131.524,890.7709870564377
1133.4748,805.841853287473
1135.4248,685.0861641053743
1137.3741,608.2045869720005
1139.3226,520.3977824983522
1141.2705,463.41640521338377
1143.2176,380.6611044420788
1145.164,370.18252487527207
1147.1097,332.33130739717853
1149.0546,301.35808919019655
1150.9989,234.01350411341264
1152.9424,119.49818301233063
1154.8852,33.36275439232304
1156.8272,-49.942154436201236
1158.7686,-29.61591649645925
1160.7092,-30.50740588955705
1162.6491,-0.9152008535966161
1164.5883,119.31242514229598
1166.5267,210.62720777183677
1168.4644,385.73088151562115
1170.4014,581.6751787479698
1172.3377,846.0618279859027
1174.2732,1159.9925519296903
1176.2081,1508.1690648189833
1178.1421,1899.2430692935213
1180.0755,2315.8662529113553
1182.0082,2583.740284238116
1183.9401,2721.9168086807767
1185.8713,2590.847445808915
1187.8017,2312.233787972933
1189.7315,2011.177401614772
1191.6605,1659.1298300540293
1193.5888,1459.1925964985385
1195.5163,1299.8672075648374
1197.4432,1223.6051552775461
1199.3693,1186.6079186626175
1201.2947,1169.5269645099524
1203.2193,1134.913747743376
1205.1432,1169.8197115914609
1207.0664,1145.4962879336472
1208.9889,1173.3948969511766
1210.9106,1204.8169473703365
1212.8316,1205.6138361834655
1214.7519,1255.6869483347327
1216.6715,1283.6376567121824
1218.5903,1356.1173216469906
1220.5084,1397.477290633964
1222.4257,1479.5188976067402
1224.3424,1501.893462524191
1226.2583,1601.8022905500038
1228.1735,1692.3966718289394
1230.0879,1829.1278804877384
1232.0016,1984.7971737291737
1233.9146,2098.255790464753
1235.8269,2066.65494975802
1237.7384,2004.1458496899704
1239.6492,1838.5296676750513
1241.5592,1767.8075610862634
1243.4686,1798.5806689113033
1245.3772,1884.3001124598159
1247.285,2009.566995055633
1249.1922,2132.7324011795954
1251.0986,2222.547395216876
1253.0042,2236.663020225329
1254.9092,2318.1802970373483
1256.8134,2422.150224118699
1258.7169,2583.023776753347
1260.6196,2779.151906003768
1262.5216,3016.385537102198
1264.4229,3204.2755674893706
1266.3234,3387.4728644421575
1268.2232,3511.678263194679
1270.1223,3573.5425651063324
1272.0207,3605.9665364197317
1273.9183,3583.3009076420713
1275.8151,3524.3963732208886
1277.7113,3499.253591770719
1279.6067,3535.2231866621405
1281.5014,3648.805746273183
1283.3953,3850.251823629669
1285.2885,4177.661935269354
1287.181,4489.536559227483
1289.0727,4822.076131762689
1290.9637,5011.531044238243
1292.854,5226.301639796664
1294.7435,5301.538211465169
1296.6323,5315.091000007958
1298.5204,5317.060193173851
1300.4077,5296.895925560766
1302.2943,5261.598278596017
1304.1802,5130.917280737971
1306.0653,4838.002907829014
1307.9497,4480.755084402359
1309.8333,4216.823686611195
1311.7162,3986.5585458011537
1313.5984,3918.6094511496485
1315.4798,3840.826151968502
1317.3605,3832.8083583834523
1319.2405,3815.2057421119825
1321.1197,3665.5179365434906
1322.9982,3433.594536915318
1324.876,3270.3351018096255
1326.753,3107.789155472634
1328.6293,3012.106189447217
1330.5048,2939.9356641983577
1332.3796,2811.8270100699847
1334.2537,2748.079628006675
1336.127,2701.492890834732
1337.9996,2751.8161438996704
1339.8714,2762.148705532074
1341.7426,2764.3898665443703
1343.6129,2803.988890127501
1345.4826,2768.595011828522
1347.3515,2773.5074391545986
1349.2196,2760.725351926945
1351.087,2838.9979022317093
1352.9537,2882.5742145477925
1354.8197,3059.4033849641146
1356.6849,3225.2844807438596
1358.5493,3341.8165385561806
1360.4131,3489.8485628173985
1362.276,3582.4295245256653
1364.1383,3545.008359780655
1365.9998,3343.8339688577507
1367.8606,3029.9552165822533
1369.7206,2695.0709343411254
1371.5799,2420.4299232217836
1373.4384,2178.0809573609313
1375.2962,2016.5227866909809
1377.1533,1688.3541393635387
1379.0096,1378.9737233649848
1380.8652,1101.3302297981627
1382.7201,817.3223359761705
1384.5742,622.1987081988136
1386.4275,419.0080045926752
1388.2802,303.09887706236077
1390.132,200.4199733223868
1391.9832,154.16993805630045
1393.8336,92.29741394344819
1395.6832,70.75104212147198
1397.5322,33.129462805049116
1399.3803,31.731315501350764
1401.2278,31.805239386250832
1403.0745,39.04987331832308
1404.9204,56.313855838088784
1406.7656,73.74582509556785
1408.6101,97.24441867766109
1410.4538,173.4082734337935
1412.2968,222.08602524096568
1414.139,310.67630824209664
1415.9805,399.22775435924814
1417.8213,470.4889924077179
1419.6613,592.2586472105231
1421.5006,793.3853388858006
1423.3391,1019.4176816291001
1425.1769,1338.704281702121
1427.0139,1819.69373517239
1428.8502,2393.33462472039
1430.6858,2938.925514829667
1432.5206,3362.3149460504246
1434.3547,3615.7014295436184
1436.188,3655.5334428470615
1438.0206,3563.4094273415503
1439.8524,3452.177787852559
1441.6835,3374.086893571466
1443.5139,3278.285079167881
1445.3435,3223.770645570552
1447.1724,3235.141860925374
1449.0005,3181.046961140546
1450.8279,3133.6841497728474
1452.6545,3105.401598568591
1454.4804,3177.2974479372515
1456.3056,3192.7698072342864
1458.13,3129.1667540421913
1459.9536,2960.286334015762
1461.7766,2708.4765615181313
1463.5987,2354.035421309569
1465.4202,2013.7108710655812
1467.2409,1707.750844921332
1469.0608,1431.2532568748666
1470.88,1199.5160038467275
1472.6984,996.9869684449286
1474.5161,789.8140212823328
1476.3331,659.7950230019278
1478.1493,562.927826348573
1479.9648,484.66027746917916
1481.7795,411.6902168813749
1483.5935,374.2154802561972
1485.4067,332.03389914778563
1487.2192,340.8933013681308
1489.031,295.8915114088859
1490.842,282.82635035277417
1492.6522,268.84563632361005
1494.4618,223.34718461694683
1496.2705,241.12880783988476
1498.0785,224.83831636606192
1499.8858,222.07351815783204
1501.6924,164.63221892917227
1503.4981,180.4122221733296
1505.3032,168.66132973723234
1507.1075,160.82734166369482
1508.911,112.75805630891773
1510.7138,108.1012704208324
1512.5159,86.95477961979213
1514.3172,49.66637844513389
1516.1178,40.13386056665877
1517.9176,22.10501915750683
1519.7166,19.477646989488676
1521.515,-4.650463386633419
1523.3126,-16.981519614871104
1525.1094,-12.017682881113615
1526.9055,-33.96094472587265
1528.7008,-37.31317663300979
1530.4954,-75.77591081655828
1532.2893,-40.050306731911405
1534.0824,-48.68676683311878
1535.8747,-21.185293471667137
1537.6663,-0.9954026182467715
1539.4572,-13.116398602469417
1541.2473,4.052424190125748
1543.0367,31.261902406815352
1544.8253,51.3128726543564
1546.6132,108.90617122688855
1548.4003,97.49263390542455
1550.1867,166.82309538191566
1551.9723,227.0483893733899
1553.7572,344.61934792865577
1555.5414,441.63680082603514
1557.3247,558.8015743976648
1559.1074,689.2644905593133
1560.8893,847.62636563874
1562.6705,1003.438009071062
1564.4509,1117.2502218151358
1566.2305,1180.8137947954438
1568.0094,1246.3795077639707
1569.7876,1286.2481286645625
1571.565,1287.3204129772694
1573.3417,1305.047103319669
1575.1176,1296.5789294361257
1576.8928,1294.8666080205485
1578.6672,1308.7108428010597
1580.4409,1280.962324557122
1582.2138,1252.3717309810927
1583.986,1261.8397269557145
1585.7575,1311.5669648400117
1587.5282,1330.804084374604
1589.2981,1375.1517121844545
1591.0673,1436.860461586476
1592.8358,1547.1809321460605
1594.6035,1651.01370906
1596.3704,1734.259362053289
1598.1366,1791.0184443407952
1599.9021,1918.291491794802
1601.6668,2014.1290223774104
1603.4308,2165.531534867813
1605.194,2322.8995079039087
1606.9564,2497.73339846828
1608.7182,2733.7836403145247
1610.4791,2992.9006422189095
1612.2394,3249.4347856198647
1613.9988,3543.636422026817
1615.7576,3795.605870454847
1617.5156,4011.693414482682
1619.2728,4144.999299732988
1621.0293,4167.923731711508
1622.785,4083.616874473987
1624.54,3894.7288503969457
1626.2942,3647.9597410207307
1628.0477,3326.7095889384063
1629.8005,3023.6784002634486
1631.5525,2782.8161478422326
1633.3037,2582.322774284361
1635.0542,2433.5481943712757
1636.804,2303.042297061198
1638.553,2223.4049469768697
1640.3013,2205.4359857106174
1642.0488,2191.73523262072
1643.7955,2252.6024850110944
1645.5416,2323.9375182683107
1647.2868,2445.940085252917
1649.0313,2578.4099155860877
1650.7751,2735.1467144296003
1652.5181,2937.150161161131
1654.2604,3124.219907806899
1656.0019,3367.505577021624
1657.7427,3647.106760217828
1659.4828,3974.623015132979
1661.222,4115.75386303348
1662.9606,4092.248785439505
1664.6984,3889.8072227136963
1666.4354,3503.228574296204
1668.1717,2972.312200729115
1669.9072,2432.9574275222203
1671.642,1960.7635504621994
1673.3761,1612.8298410061598
1675.1094,1298.755551003579
1676.8419,1062.2899161756386
1678.5737,902.5821592559687
1680.3048,753.3814923553036
1682.0351,664.7871185585527
1683.7646,536.248233416818
1685.4934,482.1640258333291
1687.2215,432.78367934884045
1688.9488,368.90637268246337
1690.6754,324.4312802254781
1692.4012,313.60757268010093
1694.1263,279.6344175042377
1695.8506,255.46097901972098
1697.5742,221.93641875204685
1699.297,199.95989567209745
1701.0191,173.98056653139338
1702.7404,165.14758608186276
1704.461,153.06010733562562
1706.1808,115.81728165332697
1707.8999,115.41825886501374
1709.6182,105.36218764256228
1711.3358,87.24821550367051
1713.0527,76.17548891241313
1714.7688,67.94315346038638
1716.4841,64.20035397743504
1718.1987,51.19623461397259
1719.9126,53.17993887841385
1721.6257,39.250609767213064
1723.338,58.70738974503092
1725.0496,41.64942088402131
1726.7605,44.72584466926946
1728.4706,32.335802169368435
1730.18,25.578434005656163
1731.8886,34.952880476110295
1733.5964,31.258281622927825
1735.3036,48.29377713878148
1737.0099,34.80850640375775
1738.7156,27.601608315014346
1740.4204,7.8722214216249995
1742.1246,7.3194839966445215
1743.8279,3.1425342344145974
1745.5306,-4.9094897439199485
1747.2325,-14.537449848629876
1748.9336,-8.592158944190487
1750.634,-18.624284665949745
1752.3336,-5.93440881359038
1754.0325,-24.82292713019251
1755.7307,-30.14017607408914
1757.4281,-6.536244122578864
1759.1247,-2.860918652604596
1760.8206,-6.063921744032996
1762.5158,31.70505310385215
1764.2102,14.596372970338962
1765.9039,-2.7895953823290256
1767.5968,-0.0024853378745319787
1769.289,9.508097588040982
1770.9804,1.1425478797873438
1772.6711,10.20125992665362
1774.361,7.534628106512173
1776.0502,13.093046695219527
1777.7386,28.17690989329003
1779.4263,22.236611770312265
1781.1132,33.02254611410626
1782.7994,10.935106490130238
1784.4849,24.574686133614705
1786.1696,30.391678170440173
1787.8535,57.93647548073841
1789.5367,42.959470640730615
1791.2192,40.0110556472755
1792.9009,26.5916220676354
1794.5818,44.80156106896629
1796.2621,44.791263552512646
1797.9415,43.06111997149765
1799.6202,58.161520331240354
1801.2982,46.69285420644337
1802.9755,71.95551059019454
1804.6519,61.44987800864965
1806.3277,45.72634426841432
1808.0027,49.73529656159644
1809.6769,76.52712162304397
1811.3504,64.15220569025496
1813.0231,44.310934235455534
1814.6951,73.45369208935153
1816.3664,83.78086363954117
1818.0369,95.74283253908743
1819.7067,111.839981603247
1821.3757,105.22269268984655
1823.044,98.04134653831716
1824.7115,115.04632283586307
1826.3783,78.08800028927817
1828.0443,106.81675645489713
1829.7096,105.8329681081741
1831.3741,107.58701095639753
1833.0379,119.22925964852539
1834.701,107.76008775765013
1836.3633,118.42986766457034
1838.0248,117.48897067248936
1839.6856,112.28776690031236
1841.3457,127.67662529205745
1843.005,144.75591366886465
1844.6636,153.52599857511132
1846.3214,146.23724510761576
1847.9785,151.8400168279395
1849.6349,147.28467583527254
1851.2904,159.87158271041017
1852.9453,177.60109656129816
1854.5994,154.07357489716787
1856.2528,170.2893734512445
1857.9054,174.89884641601884
1859.5572,183.40234628109283
1861.2083,182.60022378708027
1862.8587,192.04282784057568
1864.5084,193.48050552217228
1866.1572,184.61360199203637
1867.8054,179.14246047553206
1869.4528,193.96742235188913
1871.0994,186.4888272089138
1872.7453,200.10701269474248
1874.3905,211.2723145926193
1876.0349,205.63506668472246
1877.6786,205.29560064050656
1879.3215,208.45424607307768
1880.9637,218.16133054258898
1882.6051,238.61717952465142
1884.2458,222.47211631326354
1885.8858,196.92646181625423
1887.525,212.58053471673202
1889.1634,210.43465172854303
1890.8011,213.6891274397267
1892.4381,199.34427433398014
1894.0743,204.55040275810916
1895.7098,214.15782106547476
1897.3446,200.31683556393682
1898.9786,214.0277504197802
1900.6118,211.89086779612308
1902.2443,206.50648771580927
1903.8761,197.32490808277225
1905.5071,195.096424735887
1907.1374,196.0713315407802
1908.7669,219.09992041211717
1910.3957,208.73248130384945
1912.0237,205.86930197893116
1913.651,201.76066811299143
1915.2776,207.35686332296882
1916.9034,210.1081692081966
1918.5285,207.0148652944422
1920.1528,191.82722900639055
1921.7764,203.04553569858172
1923.3992,193.8700588072802
1925.0213,186.45106973829616
1926.6427,188.18883795874217
1928.2633,151.93363107122104
1929.8832,211.33571479644752
1931.5023,192.79535333580452
1933.1207,193.91280877731606
1934.7383,182.68834128105254
1936.3552,183.67220906795956
1937.9714,179.46466853209904
1939.5868,190.56597423081485
1941.2015,172.4263789268034
1942.8154,165.6961334771022
1944.4286,175.62548701448668
1946.041,158.16468701477334
1947.6528,153.6139791975229
1949.2637,156.67360770065216
1950.8739,141.84381512594018
1952.4834,168.3748425084309
1954.0921,164.11692946473204
1955.7001,171.27031392770505
1957.3074,155.3852321890431
1958.9139,148.9119188277382
1960.5197,153.4006068689314
1962.1247,155.40152784864586
1963.729,128.1149117689015
1965.3325,138.99098707770236
1966.9353,126.07998094190543
1968.5374,135.18211913845926
1970.1387,138.49762618351497
1971.7393,134.3767252414027
1973.3392,130.41963809147865
1974.9383,139.02658516933525
1976.5366,124.04778560637078
1978.1342,121.63345714371917
1979.7311,129.88381628203751
1981.3273,123.59907830564953
1982.9227,103.42945720004445
1984.5173,112.72516571471851
1986.1112,105.43641556487637
1987.7044,100.66341733847003
1989.2968,117.25638056908792
1990.8885,125.91551378368558
1992.4795,112.54102433665548
1994.0697,111.18311832323798
1995.6592,119.94200071326304
1997.2479,119.21787536472993
1998.8359,105.0609449362205
2000.4232,105.47141089413753
2002.0097,105.39947365427406
2003.5955,94.09533257771136
2005.1805,99.10918597153568
2006.7648,110.74123120188142
2008.3484,103.79166464379205
2009.9312,137.1106815648982
2011.5133,113.7484761949172
2013.0946,120.85524139246081
2014.6752,104.58116887865708
2016.2551,123.72644916608306
2017.8342,108.2412717215052
2019.4126,88.07582477442884
2020.9902,99.88029547194719
2022.5672,110.15487008039509
2024.1433,102.04973386730717
2025.7188,105.61507099866867
2027.2935,98.70106461996966
2028.8674,101.65789682054947
2030.4406,91.78574870273769
2032.0131,94.18480035228731
2033.5849,102.30523093709462
2035.1559,91.14721868320748
2036.7261,86.8609407936251
2038.2957,105.7465735598721
2039.8645,104.80429240486683
2041.4325,97.28427169406314
2042.9998,100.4366847448714
2044.5664,104.41170390186335
2046.1323,110.5595005052437
2047.6974,98.58024485110127
2049.2617,119.77410612993208
2050.8254,111.34125254643004
2052.3883,140.38185110755012
2053.9504,127.54606770683358
2055.5118,148.03406683400635
2057.0725,129.54601170333262
2058.6325,131.0320640487389
2060.1917,131.19238430869336
2061.7502,136.2771316113458
2063.3079,115.8864637729248
2064.8649,107.62053724688712
2066.4212,99.97950732782647
2067.9767,105.26352823413026
2069.5315,115.77275318439251
2071.0856,97.55733434457261
2072.6389,99.31742272290603
2074.1915,85.90316835205476
2075.7433,87.86472027150785
2077.2945,83.65222666172622
2078.8448,80.86583482452261
2080.3945,90.85569122519064
2081.9434,93.42194152036564
2083.4916,99.16473045813063
2085.039,92.98420185234636
2086.5857,94.180498525232
2088.1317,96.90376236916427
2089.677,109.15413433471622
2091.2215,95.83175440342438
2092.7652,99.93676146528378
2094.3083,94.61929345197268
2095.8506,97.22948729580412
2097.3921,103.21747898289777
2098.933,86.53340352708165
2100.4731,76.72739491001039
2102.0124,99.39958624800465
2103.5511,88.90010989011307
2105.089,94.97909719138852
2106.6261,91.08667861788672
2108.1626,93.87298368587062
2109.6983,83.23814100073969
2111.2332,102.68227822916333
2112.7675,95.25552220543068
2114.301,84.90799873700962
2115.8337,104.53983267881085
2117.3657,101.65114803667029
2118.897,83.19206777102454
2120.4276,83.56271382580007
2121.9575,89.51320731300666
2123.4866,94.19366850902588
2125.0149,94.804216795108
2126.5426,94.09497061056754
2128.0695,82.06604744667857
2129.5956,98.3675638537652
2131.1211,103.14963556149496
2132.6458,93.51237731585888
2134.1698,94.70590283135334
2135.693,93.33032488735307
2137.2155,95.93575531617489
2138.7373,92.17230501683343
2140.2584,101.44008392898832
2141.7787,103.93920107057511
2143.2983,90.21976444512802
2144.8171,78.93188101679107
2146.3353,104.42565684751071
2147.8527,79.15119720991561
2149.3693,103.75860633237608
2150.8853,104.09798765175537
2152.4005,70.86944356733056
2153.9149,87.37307543739962
2155.4287,78.75898391156579
2156.9417,79.22726876570323
2158.454,86.12802898809787
2159.9655,79.71136277476216
2161.4764,85.3273674604311
2162.9865,83.67613958272477
2164.4958,82.4077748259906
2166.0045,88.82236803781552
2167.5124,88.87001324170933
2169.0195,98.50080357295838
2170.526,102.7648312781489
2172.0317,91.41218761886012
2173.5367,88.04296282902396
2175.0409,73.75724622845155
2176.5445,98.405126256524
2178.0473,91.88669061505061
2179.5494,83.10202602179334
2181.0507,91.95121827564799
2182.5513,76.98435234449062
2184.0512,85.45151227668703
2185.5504,94.00278135076042
2187.0488,78.48824199071782
2188.5465,87.30797568054095
2190.0435,76.86206311932915
2191.5397,94.6505841331034
2193.0353,75.32361777926371
2194.5301,86.03124216870583
2196.0241,81.17353465909036
2197.5175,75.90057174776439
2199.0101,77.61242912034186
2200.502,76.55918170342966
2201.9931,78.59090364751091
2203.4835,60.907668337476935
2204.9733,59.659548372309246
2206.4622,71.446615741914
2207.9505,69.81894183960458
2209.438,74.47659734422814
2210.9248,66.36965223644506
2212.4109,66.64817575214897
2213.8962,69.36223646353778
2215.3809,66.06190227632942
2216.8648,61.74724040261913
2218.3479,52.618317393885945
2219.8304,62.72519918413718
2221.3121,60.96795118119735
2222.7931,65.49663816564134
2224.2733,49.911324308365465
2225.7529,54.512073125300276
2227.2317,51.19894763326397
2228.7098,59.122010303955676
2230.1872,40.78132309708462
2231.6638,58.52694738114042
2233.1397,63.55894411679856
2234.6149,59.3773736794667
2236.0894,47.78229580896436
2237.5632,43.67376965133781
2239.0362,49.90185387481188
2240.5085,50.16660671087334
2241.9801,43.71808589199259
2243.4509,57.6563486489747
2244.921,48.43145177544557
2246.3904,44.893451488468145
2247.8591,27.242403520791186
2249.3271,36.72836315622908
2250.7943,44.55138540617327
2252.2608,40.81152491473222
2253.7266,38.05883588049983
2255.1917,34.09337209395494
2256.656,45.01518696498965
2258.1197,39.62433356256247
2259.5826,33.57086450548081
2261.0447,30.654832016310593
2262.5062,33.92628798190981
2263.9669,33.33528398258909
2265.4269,41.48187125939785
2266.8862,42.71610072003318
2268.3448,34.38802285737461
2269.8026,39.797687737141814
2271.2598,53.94514508117368
2272.7162,39.23044421333384
2274.1719,44.90363391803385
2275.6268,43.96476258738244
2277.0811,46.81387816445408
2278.5346,48.90102815267596
2279.9874,54.72625958733738
2281.4395,44.739619014717164
2282.8908,39.49115243383426
2284.3414,52.230905396311755
2285.7914,44.35892305886091
2287.2406,48.82525005588536
2288.689,43.02993057819913
2290.1368,49.77300832836272
2291.5838,58.754526578639116
2293.0302,44.72452810356117
2294.4758,49.733055090118114
2295.9206,41.03014927805452
2297.3648,44.16585190978458
2298.8082,44.590203817423344
2300.251,49.453245391426435
2301.693,45.85501657634836
2303.1343,51.19555682221289
2304.5748,52.77490512049485
2306.0147,41.19309995071376
2307.4538,46.850179264640246
2308.8922,42.1461806021141
2310.3299,44.23114103447483
2311.7669,58.40509721160174
2313.2031,50.51808534106249
2314.6387,50.0701410463746
2316.0735,45.11129944587492
2317.5076,50.091595157199436
2318.941,32.01106234687131
2320.3737,31.06973468049887
2321.8056,47.26764550358075
2323.2369,48.80482785091954
2324.6674,48.181314284641985
2326.0972,47.24713687882604
2327.5263,51.1023272257371
2328.9547,50.29691644516947
2330.3823,42.83093514589541
2331.8092,54.004413433719265
2333.2355,53.417380986136095
2334.661,50.9198669405971
2336.0858,50.211899900380104
2337.5098,47.44350795956484
2338.9332,53.76471871011245
2340.3558,43.77555926954847
2341.7778,49.976056217750056
2343.199,48.51623569683966
2344.6195,55.74612334917879
2346.0393,50.165744331965016
2347.4583,54.62512324493855
2348.8767,58.62428418618174
2350.2943,53.86325070752696
2351.7113,59.94204577456435
2353.1275,65.210691814254
2354.543,53.919210654136805
2355.9578,65.21762346964738
2357.3718,53.855950897027924
2358.7852,63.234212920344135
2360.1978,54.85242898510273
2361.6098,61.5106179044692
2363.021,62.55879794308612
2364.4315,55.14698675049385
2365.8413,55.12520135064392
2367.2504,52.74345821601901
2368.6587,53.401773267851695
2370.0664,47.400161899937984
2371.4733,68.68863897205779
2372.8795,56.8672188699893
2374.285,52.73591529262626
2375.6899,50.59474137019197
2377.0939,44.5937097055521
2378.4973,53.532832395625746
2379.9,60.462121091396284
2381.3019,51.88158690851742
2382.7032,51.24124035802288
2384.1037,51.491091432132635
2385.5035,51.48114961065403
2386.9027,49.31142385848625
2388.3011,52.28192262571679
2389.6987,40.64265386932061
2391.0957,51.24362502345434
2392.492,50.93484311584871
2393.8876,41.96631466179883
2395.2824,47.33804566725348
2396.6765,38.050041718500324
2398.07,48.20230792844859
2399.4627,39.84484902950794
2400.8547,44.17766927206526
2402.246,39.00077250805748
2403.6366,29.914162147647403
2405.0265,42.167841210988854
2406.4156,43.161812419095895
2407.8041,47.946078071307284
2409.1918,33.22064003534274
2410.5789,49.385499699462116
2411.9652,44.6406581197175
2413.3508,43.73611585830804
2414.7358,44.67187303102628
2416.12,24.747929316303725
2417.5035,32.61428394585346
2418.8863,45.67093590390982
2420.2684,38.31788384856509
2421.6497,37.85512598120317
2423.0304,32.88266012002623
2424.4104,48.60048370468826
2425.7896,37.10859384601895
2427.1682,45.956987168846354
2428.546,42.545659926912776
2429.9232,42.8246079143903
2431.2996,40.743826499995066
2432.6753,45.80331062419759
2434.0503,46.05305482002973
2435.4246,46.84305316249106
2436.7982,40.57329926605075
2438.1711,48.14378627674864
2439.5433,39.90450693489106
2440.9148,35.45545349934787
2442.2856,35.84661782994317
2443.6557,46.327991431948476
2445.025,38.84956545216846
2446.3937,31.761330574129488
2447.7617,38.563277092863245
2449.1289,42.90539498578801
2450.4955,41.43767384468947
2451.8613,36.1101028323003
2453.2265,47.3226706969765
2454.5909,41.925365825972904
2455.9546,44.4681761333195
2457.3177,41.401089113792295
2458.68,41.87409181748626
2460.0416,43.137170880485655
2461.4025,45.940312520135194
2462.7627,46.633502522408435
2464.1222,56.91672621387511
2465.4811,44.839968454771
2466.8392,45.45321353616441
2468.1966,49.35644530072523
2469.5533,52.899647136591284
2470.9093,60.03280193833666
2472.2645,64.90589207153926
2473.6191,60.81889930144848
2474.973,56.771804744255405
2476.3262,61.41458890796275
2477.6787,61.747231732855425
2479.0305,52.469712545073435
2480.3816,60.532010053284466
2481.7319,49.634102441459845
2483.0816,59.925967288251286
2484.4306,54.957581675970005
2485.7789,63.87892208766698
2487.1264,57.2899644568181
2488.4733,61.09068407810946
2489.8195,53.03105567332727
2491.165,53.71105335335142
2492.5097,56.53065069875265
2493.8538,53.889820752991454
2495.1972,46.83853599422264
2496.5398,50.026768361703034
2497.8818,49.45448932630575
2499.2231,49.92166985863662
2500.5637,46.578280434756834
2501.9035,48.97429103151205
2503.2427,54.00967115996491
2504.5812,52.18438984143609
2505.919,42.49841555715079
2507.256,51.75171626649103
2508.5924,61.094259503854346
2509.9281,44.87601228612277
2511.2631,53.596941019235146
2512.5974,51.35701166037097
2513.9309,49.35618963074103
2515.2638,50.444439837985556
2516.596,59.3217266961841
2517.9275,49.93801411497191
2519.2583,58.04326541076796
2520.5884,55.38744340061146
2521.9178,48.07051032110928
2523.2465,55.292427854994116
2524.5745,52.70315720429414
2525.9018,61.65265901811392
2527.2284,53.19089341852691
2528.5543,55.117819911080346
2529.8796,59.63339746941301
2531.2041,64.38758451598551
2532.5279,70.43033887692434
2533.851,67.66161773448118
2535.1735,72.58137756660471
2536.4952,66.13957417462791
2537.8163,74.7861626340707
2539.1366,55.5210973590581
2540.4562,75.89433201585382
2541.7752,66.25581971551162
2543.0935,71.30551281014175
2544.411,79.09336298929668
2545.7279,68.86932122947383
2547.0441,73.2833377162367
2548.3596,74.78536194645642
2549.6744,74.77534268417094
2550.9885,77.40322794556562
2552.3019,83.81896499907282
2553.6146,72.5725003390935
2554.9266,72.71377962183908
2556.2379,71.29274777779654
2557.5485,82.80934901031617
2558.8585,78.31352680982138
2560.1677,77.70522383864261
2561.4762,78.7843819759753
2562.7841,85.40094232396393
2564.0913,81.9548451969091
2565.3977,79.94603005510237
2566.7035,82.17443553928695
2568.0086,87.589999490747
2569.313,83.49265892902258
2570.6167,81.58234999775391
2571.9197,82.15900800565555
2573.222,93.17256744561905
2574.5236,84.07296198894574
2575.8246,83.71012437521267
2577.1248,87.03398650326733
2578.4244,103.44447943485625
2579.7232,97.84153336138695
2581.0214,99.57507743982228
2582.3189,93.24503984871023
2583.6157,112.65134777084825
2584.9118,101.29392745658356
2586.2072,106.97270402975084
2587.5019,105.98760160124505
2588.7959,107.98854321223484
2590.0893,121.67545084401343
2591.3819,120.74824539798851
2592.6739,112.3068465588143
2593.9652,117.05117280366255
2595.2557,114.98114148663728
2596.5456,122.99666879133099
2597.8348,125.59766975152513
2599.1234,121.63405817103558
2600.4112,125.70574659770148
2601.6983,125.56264636302251
2602.9848,134.7546675414411
2604.2705,131.78171895177388
2605.5556,131.993708065291
2606.84,126.09054103544679
2608.1237,125.67212269575782
2609.4067,125.73835661883572
2610.689,125.93914512057074
2611.9707,121.57438925946974
2613.2516,119.44398883464874
2614.5319,123.34784242948069
2615.8115,120.43584743289875
2617.0903,112.70790000035834
2618.3685,115.8138950829566
2619.6461,116.70372650471222
2620.9229,111.32728693150443
2622.199,117.98446786217619
2623.4745,119.62515968229764
2624.7493,107.24925159759425
2626.0234,112.4566316175401
2627.2968,119.04718667911743
2628.5695,118.3708025947418
2629.8415,114.27736398635807
2631.1128,115.51675429220302
2632.3835,114.48885580774026
2633.6535,113.44354967326638
2634.9228,117.7307158841893
2636.1914,120.30023330148288
2637.4593,120.50197960881303
2638.7265,114.58583128684427
2639.9931,116.15166361122135
2641.259,116.39935071173159
2642.5242,119.37876555664559
2643.7887,121.53977995024036
2645.0525,118.93226450300517
2646.3156,104.20608861003177
2647.5781,103.46112047708982
2648.8398,110.14722726788818
2650.1009,110.86427511152499
2651.3613,113.41212903562632
2652.6211,121.19065295917585
2653.8801,115.34970966703611
2655.1385,123.4891607321639
2656.3961,118.75886657401907
2657.6531,115.40868637717051
2658.9094,112.28847813859875
2660.1651,117.4980987011977
2661.42,112.13740378497687
2662.6743,126.80624793496486
2663.9279,130.4044845748166
2665.1808,125.88196586012532
2666.433,134.38854264243923
2667.6846,124.92406451448812
2668.9354,137.58837972511583
2670.1856,129.1313352739262
2671.4351,139.75277678463954
2672.6839,144.50254858966343
2673.9321,144.53049362387776
2675.1795,140.68645337713758
2676.4263,150.7202678939924
2677.6724,159.38177581212847
2678.9179,143.27081426202915
2680.1626,156.88721878036074
2681.4067,141.08082347108177
2682.6501,145.951460869279
2683.8928,150.1989620992308
2685.1348,141.8731568257009
2686.3761,141.87387321146423
2687.6168,139.25093800056402
2688.8568,132.9541765183053
2690.0961,131.4334126974844
2691.3348,127.23846914135606
2692.5727,130.3691671388409
2693.81,127.02532670647531
2695.0466,125.30676655710386
2696.2826,136.16330413331855
2697.5178,124.64475562464395
2698.7524,133.450935858972
2699.9863,126.8816584177473
2701.2195,131.88673554790535
2702.452,133.7659782275656
2703.6839,135.2691961159801
2704.9151,143.39619753474165
2706.1456,148.94678945275098
2707.3755,159.27077740494747
2708.6046,149.917965436803
2709.8331,156.3381560010813
2711.0609,168.23115005136708
2712.2881,181.09674697786375
2713.5145,193.834744488463
2714.7403,190.3449384800898
2715.9654,201.22712291132143
2717.1899,215.5310898372867
2718.4136,226.9066293008433
2719.6367,229.5535291895386
2720.8591,255.27157512185374
2722.0809,253.8605504207352
2723.3019,260.0202358564136
2724.5223,279.8004096605141
2725.7421,286.45084746446
2726.9611,284.2713221016702
2728.1795,287.11160354105584
2729.3972,270.0714589088153
2730.6142,263.4006524600305
2731.8306,239.5989457490698
2733.0462,227.516097696295
2734.2612,222.75186482607887
2735.4756,202.85600138763334
2736.6892,184.97825940265204
2737.9022,169.56838886426897
2739.1145,155.72613791583547
2740.3262,143.35125300501988
2741.5372,126.99347902222917
2742.7475,117.20255942435824
2743.9571,107.87823639836779
2745.1661,97.32025095919278
2746.3744,87.82834304298672
2747.582,79.70225161270048
2748.7889,67.9917147530017
2749.9952,57.9464697515358
2751.2008,61.86625321603151
2752.4057,52.1508011747527
2753.61,58.5498490373019
2754.8136,42.413131691773515
2756.0165,44.49038344076405
2757.2188,46.78133816273828
2758.4204,34.68572929125787
2759.6213,38.55328979207161
2760.8215,35.63375228407108
2762.0211,31.326849000615425
2763.22,22.93231181872659
2764.4182,33.84987230215859
2765.6158,23.829261785342396
2766.8127,13.37021126421098
2768.009,17.82245149640562
2769.2045,10.985713105865557
2770.3994,15.309726538305881
2771.5936,5.5442221295849095
2772.7872,3.5889300624635325
2773.9801,-3.406419535739019
2775.1723,-8.192096573592494
2776.3639,-8.118336929535985
2777.5548,-11.235294642963709
2778.745,-9.593042651084033
2779.9346,-20.691541650512477
2781.1235,-17.130656503369096
2782.3117,-20.710045363272457
2783.4992,-14.429195248583596
2784.6861,-11.687386284309923
2785.8723,-10.933754447799402
2787.0579,-9.66731895941109
2788.2428,-10.336989811297258
2789.427,0.8084195809060475
2790.6106,8.120199068090642
2791.7935,10.99963849306505
2792.9757,16.698027617435855
2794.1573,20.616656092813628
2795.3382,26.70681340382896
2796.5184,35.61978882894607
2797.698,47.956871379561335
2798.8769,57.41934971087346
2800.0551,65.90851199851306
2801.2327,78.47564584391705
2802.4096,90.47203818943831
2803.5859,108.29897519267251
2804.7615,126.95774210649529
2805.9364,141.9496231007921
2807.1106,158.32590107587066
2808.2842,178.63785751254295
2809.4572,205.73677230836245
2810.6294,241.92392357450387
2811.801,276.5505873647745
2812.972,309.7680373137431
2814.1423,350.3775442904723
2815.3119,390.88037606634555
2816.4808,435.3277969089704
2817.6491,482.07106717715214
2818.8167,537.7114428764181
2819.9837,570.4501751915856
2821.15,624.3885099303573
2822.3157,677.5776871959353
2823.4807,727.6689408476365
2824.645,783.1134979690014
2825.8086,827.5625783668817
2826.9716,880.2173940169944
2828.134,930.2791486194304
2829.2957,979.449037072108
2830.4567,989.528244970153
2831.617,1022.7179481142023
2832.7767,1029.0693124096101
2833.9358,1020.8834935345527
2835.0941,1025.011636876513
2836.2519,1001.8048776141395
2837.4089,976.0643406759654
2838.5653,978.0411409724749
2839.7211,970.8863836535094
2840.8761,956.3511640884989
2842.0306,979.0365679380103
2843.1843,999.1436712990995
2844.3374,1046.0735404784568
2845.4899,1085.8772317913363
2846.6417,1138.3557910922568
2847.7928,1205.3102533769656
2848.9433,1267.1416422576517
2850.0931,1332.6509692934019
2851.2422,1394.0392333718876
2852.3907,1445.95742005427
2853.5385,1513.5065009613181
2854.6857,1552.7874332542276
2855.8323,1610.5511589591301
2856.9781,1663.2986045742823
2858.1233,1700.1806804924297
2859.2679,1753.4982804733331
2860.4118,1807.4522812749449
2861.555,1849.6935421202365
2862.6976,1871.1729041576564
2863.8395,1912.0911900387187
2864.9808,1944.7492037032077
2866.1214,1962.9477299699977
2867.2614,1981.83753421047
2868.4007,1996.5193621665292
2869.5393,2001.593939761706
2870.6773,2011.6119729543366
2871.8146,2028.1241476868179
2872.9513,2026.731129785428
2874.0874,2007.8835647952042
2875.2227,2019.082077993872
2876.3574,1994.2272745803216
2877.4915,1970.069739562624
2878.6249,1937.2100380065763
2879.7577,1913.298715277279
2880.8898,1901.4362973677325
2882.0212,1885.6732911379486
2883.152,1860.2101844335784
2884.2821,1844.6974462435392
2885.4116,1851.0355269546471
2886.5405,1848.4748585067446
2887.6686,1857.365854329319
2888.7962,1845.1589093671107
2889.923,1868.8543999911997
2891.0493,1879.2526841210783
2892.1748,1882.4041009876955
2893.2997,1878.8589710294732
2894.424,1903.117595860794
2895.5476,1921.880258307449
2896.6706,1939.3472221640568
2897.7929,1958.7187320064313
2898.9145,2000.1450130169167
2900.0355,2034.0262707906681
2901.1559,2072.0126909213927
2902.2756,2095.804438662535
2903.3946,2115.351658547413
2904.513,2140.7044741513
2905.6308,2155.3629878959537
2906.7479,2189.9772807960876
2907.8643,2211.4474123127848
2908.9801,2226.723420007357
2910.0953,2248.0553193266414
2911.2098,2249.5431034502394
2912.3236,2242.7867430772017
2913.4368,2239.0361864111474
2914.5494,2208.591359227827
2915.6613,2175.502164912631
2916.7725,2142.268484765036
2917.8831,2141.190178329498
2918.9931,2088.517083727787
2920.1024,2063.3990176697725
2921.211,2062.4857759801544
2922.319,2058.37713384964
2923.4264,2017.3228458440822
2924.5331,2022.9726459455624
2925.6391,2003.176247962932
2926.7445,2003.4833454753175
2927.8493,2012.343612030082
2928.9534,2014.3567011397572
2930.0569,2010.8222461934372
2931.1597,2009.28986043665
2932.2619,2002.7091370067014
2933.3634,2000.8296489480008
2934.4643,2005.850949277864
2935.5645,1988.7725710053126
2936.6641,1969.0440270808574
2937.763,1946.814810567285
2938.8613,1903.084394836941
2939.959,1857.0022337940236
2941.056,1794.267762311887
2942.1523,1724.2803966938636
2943.248,1646.9395353006084
2944.3431,1553.5445592499732
2945.4375,1466.9448331904136
2946.5313,1374.5897062349422
2947.6244,1259.0285128271223
2948.7169,1171.9105736646206
2949.8087,1079.0851968548188
2950.8999,974.4016787859935
2951.9904,931.0593050555692
2953.0803,843.207351516954
2954.1696,787.8950847129624
2955.2582,734.8217627543364
2956.3462,691.9366358728668
2957.4335,659.1889469521274
2958.5202,633.4779319563255
2959.6062,601.6028202577794
2960.6916,575.9628348940281
2961.7764,558.4571928865832
2962.8605,554.2851054973275
2963.9439,542.3957784035731
2965.0267,532.7884117397817
2966.1089,526.8122002164569
2967.1905,533.2663332162185
2968.2714,528.549994853566
2969.3516,524.5623639103347
2970.4312,539.5526138828608
2971.5102,532.0699130218563
2972.5885,541.7134241825081
2973.6662,556.9823048993038
2974.7432,559.7257072895975
2975.8196,546.8427779009204
2976.8954,549.3826576835472
2977.9705,542.7944821193246
2979.045,532.927381196273
2980.1188,515.3304794744687
2981.192,512.1028961847139
2982.2645,490.5437454045069
2983.3364,473.1021360903171
2984.4077,448.12717229317616
2985.4783,431.3179533330948
2986.5483,398.5735740488125
2987.6177,367.8931249658892
2988.6864,336.17569262414963
2989.7545,307.1703598844872
2990.8219,284.8762062460389
2991.8887,246.842308136238
2992.9548,220.56773913375582
2994.0204,195.70157034884107
2995.0852,170.04287068606504
2996.1495,149.34070709298373
2997.2131,126.64414481672532
2998.276,104.25224761101083
2999.3383,91.21407796312087
3000.4,65.07869731781352
3001.4611,58.54516620770676
3002.5215,53.36254451463162
3003.5812,38.82989153496726
3004.6404,25.79626603146778
3005.6989,21.660726378588265
3006.7567,12.072330692821538
3007.8139,2.1801368740536304
3008.8705,-2.7667972985522624
3009.9264,0.6305859323662162
3010.9818,-10.328628035524275
3012.0364,-3.6453538108625594
3013.0905,-13.120402819293645
3014.1439,-5.654550069378388
3015.1966,-11.048439496853518
3016.2487,-10.102658548500813
3017.3002,-9.117684297191602
3018.3511,-5.643892890238476
3019.4013,-6.581569389287949
3020.4509,-5.8309424734972595
3021.4998,0.9578249278541762
3022.5481,-2.6153718633974563
3023.5958,-2.7506375349946097
3024.6428,7.401949352884969
3025.6892,12.542337718932004
3026.735,13.870476407817762
3027.7802,19.086314138790385
3028.8247,20.73979949239333
3029.8685,30.130880858307137
3030.9118,33.50950641881434
3031.9544,39.42562405488911
3032.9963,43.07918131241024
3034.0376,55.27012534300127
3035.0783,56.29840286749396
3036.1184,58.41396005401907
3037.1578,68.26674250772356
3038.1966,72.50669524961489
3039.2348,83.68376261803348
3040.2723,78.29788822625255
3041.3092,79.09901485070804
3042.3455,85.83708448485731
3043.3811,86.06203833116791
3044.4161,90.02381673373657
3045.4505,89.32235917603987
3046.4842,90.65760424131662
3047.5173,89.32948961958158
3048.5498,89.98795209427419
3049.5816,76.48292755553888
3050.6128,90.86435099364081
3051.6434,86.43215663401594
3052.6734,86.38627779345705
3053.7027,83.17664692443566
3054.7314,80.45319561556056
3055.7594,77.91585462367402
3056.7868,85.86455390108648
3057.8136,87.04922262095033
3058.8398,85.16978909777214
3059.8653,80.47618077556677
3060.8902,80.61832424665113
3061.9145,80.14614529858034
3062.9381,81.05956891272672
3063.9612,81.35851926900119
3064.9835,81.0929197367193
3066.0053,73.8626928716115
3067.0264,80.16776041847913
3068.0469,75.60804338349698
3069.0668,72.08346197116231
3070.086,71.5439356298923
3071.1046,68.8893830872695
3072.1226,65.01972235543735
3073.1399,59.08487075764555
3074.1567,49.73474496694655
3075.1727,42.81926106554471
3076.1882,45.23833463829692
3077.203,45.74188084186744
3078.2173,45.17981438053738
3079.2308,35.70204950116943
3080.2438,26.808499998827983
3081.2561,23.349079311557603
3082.2678,23.373700609317666
3083.2789,15.332276828577307
3084.2893,21.974720672068543
3085.2991,8.100944689200816
3086.3083,13.410861209636465
3087.3169,9.754382482028518
3088.3248,13.23142062092154
3089.3321,5.1418876433164655
3090.3388,-2.014304566099838
3091.3449,-1.487244174059299
3092.3503,0.7230007756087673
3093.3551,0.7163770966441518
3094.3593,1.892831595556686
3095.3629,-3.747688928307582
3096.3658,0.8947623054691007
3097.3681,-0.6798304832831263
3098.3698,2.9785169163183696
3099.3708,-0.880204493337601
3100.3713,-4.05600373964711
3101.3711,-3.398881056763571
3102.3702,2.69120384063703
3103.3688,-2.3356748072995686
3104.3667,-1.9794427873395648
3105.364,8.55999744714211
3106.3607,-1.067236782596126
3107.3568,1.4889717591040608
3108.3522,-1.1712490304035725
3109.347,1.002228731345184
3110.3412,6.059544627592089
3111.3348,3.550838231556952
3112.3277,8.076249055864139
3113.32,5.535916577629706
3114.3117,1.879980193207416
3115.3028,5.308579243591737
3116.2932,8.571853050977523
3117.2831,2.9199408844739594
3118.2723,10.152981927471842
3119.2608,8.0711153341625
3120.2488,8.374480157207614
3121.2361,10.363215368557633
3122.2229,13.487459856418326
3123.209,14.597352405363324
3124.1944,12.243031665091763
3125.1793,10.524636139329175
3126.1635,15.892304209370963
3127.1471,12.496174151266274
3128.1301,15.93638408214133
3129.1125,17.21307199416063
3130.0942,16.82637572012493
3131.0753,14.976432920704156
3132.0558,20.2133810883046
3133.0357,21.08735756556831
3134.015,23.298499493003476
3134.9936,20.596943800244787
3135.9716,21.632827183941714
3136.949,24.156286134774035
3137.9258,23.667456927093568
3138.902,26.466475593689182
3139.8775,24.153477930675308
3140.8524,29.428599469501734
3141.8267,29.791975500083595
3142.8004,25.743741018049917
3143.7735,30.684030721110062
3144.7459,32.46297904953606
3145.7178,32.73072013675957
3146.689,25.337387791582557
3147.6596,32.08311549549984
3148.6295,36.41803647663245
3149.5989,36.89228364227016
3150.5676,34.85598953552254
3151.5357,38.05928633057631
3152.5032,39.95230585305838
3153.4701,37.98517954800279
3154.4364,39.558038460920585
3155.402,46.67101325747099
3156.367,43.474234207732906
3157.3315,44.7678311150752
3158.2952,45.7019333481244
3159.2584,46.676669827828746
3160.221,51.04216901811732
3161.1829,41.69855891615248
3162.1442,44.795967008674936
3163.105,52.0845203654399
3164.065,50.56434560824296
3165.0245,50.835568838034504
3165.9834,51.49831565012151
3166.9416,52.752711131455314
3167.8993,54.598879854004124
3168.8563,51.78694586220908
3169.8127,58.26703265452255
3170.7684,64.03926321152747
3171.7236,57.953759931136446
3172.6782,61.260644570869516
3173.6321,59.21003830870915
3174.5854,61.65206171003138
3175.5381,62.9868347481119
3176.4902,67.5144767797058
3177.4417,64.43510653169986
3178.3926,64.64884205583616
3179.3428,64.75580075950566
3180.2924,68.55609940361094
3181.2415,67.64985410149663
3182.1899,67.78718028094632
3183.1377,72.21819269324514
3184.0848,67.6430054118064
3185.0314,71.61173178786154
3185.9773,69.52448449621193
3186.9227,74.23137549554164
3187.8674,77.78251604928991
3188.8115,75.77801667858222
3189.755,78.11798712671897
3190.6979,79.30253637922036
3191.6402,76.73177264042667
3192.5818,82.70580332165292
3193.5229,80.97473506689637
3194.4633,80.5886736930963
3195.4031,84.59772420744454
3196.3423,81.20199081124632
3197.2809,87.40157685982953
3198.2189,81.54658489650225
3199.1563,84.63711659055672
3200.0931,91.67327279581933
3201.0292,91.20515351974538
3201.9648,90.98285785305737
3202.8997,92.3564839744263
3203.834,94.8761291526946
3204.7677,90.69188973313986
3205.7008,93.40386111227835
3206.6333,97.7621377797075
3207.5652,94.46681329098602
3208.4964,98.76798022405139
3209.4271,100.56573021217281
3210.3571,103.96015390093974
3211.2865,100.90134093028435
3212.2154,101.48937990053723
3213.1436,103.12435840301555
3214.0712,104.60636301414272
3214.9982,103.5354792790985
3215.9246,101.51179169699905
3216.8503,103.98538373160574
3217.7755,106.35633783156202
3218.7001,107.52473540565742
3219.624,106.89065679911823
3220.5473,114.75418128192322
3221.4701,117.1153870551447
3222.3922,113.22435117231312
3223.3137,113.48114951580504
3224.2346,114.13585683575353
3225.1549,115.98854674748007
3226.0746,119.43929172494765
3226.9937,116.68816308223376
3227.9121,119.38523093902288
3228.83,119.88056424811793
3229.7473,124.97423076846947
3230.6639,121.46629706022239
3231.5799,124.35682843377924
3232.4954,126.54588898487967
3233.4102,126.3335415656949
3234.3244,126.51984776293733
3235.238,125.85486789998382
3236.151,127.88866103501282
3237.0634,128.621284967654
3237.9752,128.75279621865045
3238.8864,128.23325002253227
3239.797,129.3627003263017
3240.7069,131.74119979462833
3241.6163,133.96879979855476
3242.5251,133.24555039171153
3243.4332,136.67150028804122
3244.3408,138.24669686903087
3245.2477,136.8711861494524
3246.154,136.29501276161085
3247.0598,137.36821996909921
3247.9649,137.6408496725605
3248.8694,138.56294239895527
3249.7733,142.63453729883565
3250.6766,143.15567213712424
3251.5793,144.12638325239823
3252.4814,146.096705551678
3253.3829,152.61667250072023
3254.2838,148.88631610431437
3255.1841,150.75566684108315
3256.0838,146.97475370078612
3256.9829,147.74360416562604
3257.8814,149.31224424805816
3258.7792,148.03069848310167
3259.6765,150.64898991265318
3260.5731,151.06714009830233
3261.4692,149.1351690951488
3262.3647,152.55309544762085
3263.2595,154.17093620879507
3264.1538,152.438706906217
3265.0474,155.40642152572275
3265.9404,157.47409252876147
3266.8329,155.64173082271796
3267.7247,154.65934574023606
3268.616,154.9269450575423
3269.5066,156.09453500426974
3270.3966,154.86212026078192
3271.286,157.07970394649712
