RamanShift,CorrectedData
30.1047,521.9014015440501
32.3739,481.7456554374664
34.6426,443.08990411186863
36.9109,401.7841375307863
39.1787,360.7783412268496
41.4461,321.37249671484733
43.7131,281.26658190178483
45.9796,247.4105714809423
48.2456,204.6544373329339
50.5112,167.74814886426782
52.7764,126.04167343490785
55.0411,90.58497672733633
57.3054,48.67802316361869
59.5692,14.470776259970641
61.8326,-26.186800954172355
64.0955,-62.844745594082596
66.3579,-94.20283316889095
68.6199,-130.01021136871987
70.8815,-147.6650867973885
73.1426,-142.41436725670454
75.4032,-42.303485374258855
77.6634,252.12354894188644
79.9231,1013.2231483954882
82.1824,2670.4017231690677
84.4412,5557.815673312915
86.6995,9407.821372173305
88.9574,12985.42513751835
91.2148,15339.033193037956
93.4717,16318.251632567773
95.7282,16322.386396553124
97.9842,15987.643262256814
100.2398,15343.027843717779
102.4949,14683.19559509853
104.7495,13996.501817131299
107.0036,13292.951663716356
109.2573,12683.250148788964
111.5105,12083.902153354858
113.7632,11539.062431587281
116.0154,11095.735616820451
118.2672,10806.47622699796
120.5185,10459.28866910605
122.7693,10226.327242066194
125.0197,9988.746140206988
127.2696,9766.999455593748
129.519,9583.341180404335
131.7679,9348.075209146613
134.0163,9113.90534049504
136.2642,8801.785279643316
138.5117,8515.268640646093
140.7587,8186.458949540169
143.0052,7880.709647209654
145.2512,7589.274092674075
147.4967,7272.40556614586
149.7417,7069.65727194469
151.9863,6885.082341666202
154.2304,6744.333836209455
156.4739,6604.514747622684
158.717,6501.428000510792
160.9596,6368.226453433532
163.2017,6180.012899936377
165.4433,5962.690069882543
167.6844,5688.560631335111
169.925,5444.327192730268
172.1651,5160.542305618592
174.4047,4950.758467107391
176.6439,4739.9781226985515
178.8825,4563.853668386375
181.1206,4421.837452765385
183.3582,4282.081778791567
185.5954,4203.4889052025355
187.832,4099.411047915091
190.0681,4034.250380811144
192.3037,3997.2090367784963
194.5388,3954.7391083624475
196.7734,3930.19264813621
199.0075,3936.8716691256045
201.2411,3963.7281450545283
203.4742,3988.5140102781615
205.7068,4065.381159514405
207.9389,4086.3814475960207
210.1704,4157.71668870196
212.4015,4220.0886561473635
214.632,4262.649081670204
216.862,4331.949654807574
219.0915,4355.042022470071
221.3205,4366.677788248802
223.549,4383.2085121844575
225.777,4392.185710650947
228.0044,4351.0108561901
230.2314,4330.335377421892
232.4578,4330.760659456189
234.6837,4328.5880440995015
236.909,4322.518829850739
239.1339,4264.454271922931
241.3582,4219.995582303917
243.582,4135.593930336998
245.8053,4067.7004431655164
248.0281,4029.3662065768835
250.2503,4015.942265681501
252.472,4039.1796252961126
254.6932,4108.52925007804
256.9139,4155.842064292807
259.134,4239.418951120652
261.3536,4362.860752183393
263.5727,4581.768266708656
265.7912,4775.892250295465
268.0092,4982.683412725162
270.2267,5170.192416020171
272.4436,5303.719872376086
274.6601,5331.66634228657
276.8759,5290.1323332081
279.0913,5238.9682992804865
281.3061,5144.774641742216
283.5204,5089.051709442099
285.7341,5043.799799781196
287.9473,5012.969159270054
290.16,4980.209983981224
292.3721,4965.622419857567
294.5837,5012.956563039852
296.7947,5065.362460012623
299.0052,5154.440107130857
301.2152,5165.539450095914
303.4246,5127.710383064747
305.6334,4918.6527485389215
307.8418,4659.9663377429015
310.0495,4373.55089271462
312.2568,4077.456108892351
314.4635,3737.681637978862
316.6696,3448.0270909023616
318.8752,3235.1420412142425
321.0802,3123.1260279856324
323.2847,3073.9785579362388
325.4887,3102.9491065545108
327.692,3115.587118589115
329.8949,3073.642007759228
332.0972,2970.4631566281523
334.2989,2838.8999170227726
336.5001,2666.3016110653416
338.7007,2511.217532489116
340.9008,2373.7969483643365
343.1003,2207.739100649075
345.2992,2061.943207563434
347.4976,1945.9584652501244
349.6955,1893.0340492324276
351.8927,1828.569115574047
354.0895,1728.3628014083442
356.2856,1686.8142255829935
358.4812,1614.4224896620417
360.6763,1587.336678341393
362.8707,1537.6558601727293
365.0646,1544.3290878343678
367.258,1586.3053986280693
369.4508,1614.1338144123065
371.643,1681.2133411824989
373.8346,1743.292968792729
376.0257,1853.5716702849468
378.2162,1888.398401268175
380.4062,1884.3220988157218
382.5956,1826.7416811169114
384.7844,1736.1060475178483
386.9726,1611.3140790972238
389.1603,1513.5646395726644
391.3474,1451.506576548666
393.5339,1447.7887224940805
395.7199,1416.359895362696
397.9052,1462.7188986304154
400.09,1511.364521609542
402.2743,1631.845538985196
404.4579,1770.310710328854
406.641,1902.308778893539
408.8235,1992.5384702291667
411.0054,2063.89849086257
413.1868,2118.4875273951966
415.3675,2165.6042457895155
417.5477,2106.947290823121
419.7273,2021.5652856175684
421.9064,1928.356832224943
424.0848,1891.370512481676
426.2627,1803.3048889406355
428.4399,1645.8585052409817
430.6166,1404.129886988827
432.7928,1185.8175433317
434.9683,957.5199693758323
437.1432,779.7356483692802
439.3176,685.0630539849044
441.4914,594.8506520982091
443.6645,566.49690173407
445.8371,515.8002559688575
448.0091,485.759162213978
450.1806,480.9220627228333
452.3514,484.03739489123836
454.5216,500.20359130579345
456.6913,502.66907971272485
458.8603,514.5822828562295
461.0288,536.8916184538157
463.1967,536.7954990771723
465.3639,525.6423319290734
467.5306,496.63051884434026
469.6967,462.20845640137395
471.8622,456.5745362122698
474.0271,474.02714526704403
476.1914,492.26466598997285
478.3551,506.38547606505836
480.5182,518.7379482536653
482.6807,594.1704502533012
484.8426,709.631344574098
487.0039,952.8689877844845
489.1647,1208.9817293565775
491.3248,1438.0679092338087
493.4843,1482.0758552697935
495.6432,1420.3538809374695
497.8015,1320.2002848890206
499.9592,1199.0633515730851
502.1163,1048.5413522363042
504.2728,846.6825461346853
506.4287,665.7351820388258
508.5839,447.4475002524978
510.7386,340.86773442212325
512.8927,289.8941137196498
515.0461,296.9748639083509
517.199,344.858207852556
519.3512,480.2923654468559
521.5029,711.3255531372579
523.6539,930.4559825668539
525.8043,1051.9318582654778
527.9541,988.1013754584101
530.1033,800.112718851612
532.2519,626.4640632700348
534.3999,540.5035755375038
536.5472,556.2794162132031
538.694,648.289740451286
540.8401,787.2826978431103
542.9856,900.4564314971385
545.1305,924.5090766490075
547.2748,872.9887595297978
549.4185,777.7935971254938
551.5615,729.2716976921984
553.704,758.2711617080795
555.8458,854.5400823585878
557.987,982.8765452464659
560.1276,1155.5786274290558
562.2675,1476.5443961349338
564.4069,1901.9219070368927
566.5456,2311.159201042282
568.6837,2487.454300039236
570.8212,2224.8552028042986
572.958,1683.8098832394717
575.0942,1175.2662929982089
577.2299,826.4723668958668
579.3648,636.3760279951457
581.4992,597.7251910940186
583.6329,637.6677646267035
585.766,752.0516510501657
587.8985,874.4747464446918
590.0304,928.084939370061
592.1616,968.1301096413008
594.2922,932.8581277925969
596.4222,795.3668546768313
598.5515,643.1041418183095
600.6802,537.5678327876703
602.8083,425.60576472451066
604.9358,401.7657693927531
607.0626,438.7956743002633
609.1888,498.69330293725125
611.3144,655.1564744059724
613.4393,796.533002821754
615.5636,954.1206957483619
617.6873,1006.7173527842342
619.8103,975.4207639866072
621.9327,823.6787093455478
624.0544,625.9889590969142
626.1756,467.4992752397793
628.2961,370.80741351332927
630.4159,307.56112498175844
632.5351,279.9081570011931
634.6537,296.8962538521482
636.7716,291.62315701605985
638.8889,334.6366050054021
641.0056,350.5843334164201
643.1216,344.96407449899107
645.237,347.12355699714954
647.3518,282.86050620529295
649.4659,212.52264394658323
651.5793,152.55768921558138
653.6922,137.26335888162157
655.8043,150.28736828846377
657.9159,134.7774314072367
660.0268,134.98126070619765
662.137,160.19656730583029
664.2466,172.47106097680353
666.3556,174.1024498878296
668.4639,142.4384404829052
670.5716,106.02673746501114
672.6786,66.46504411274327
674.785,3.3010626444338413
676.8907,-26.31750538623328
678.9958,-1.892958458582143
681.1002,-37.77733214006366
683.204,-27.122643087476717
685.3072,-44.53053056207045
687.4097,-38.00236286989366
689.5115,-28.98906345699561
691.6127,-22.54117612582195
693.7132,-36.95895507807472
695.8131,-16.39242932911111
697.9123,26.508741325672418
700.0109,54.29506085124649
702.1089,108.71703294750205
704.2061,166.7251607713779
706.3028,231.56994639264667
708.3987,293.6018902138285
710.4941,308.8214903217504
712.5887,338.97924186721775
714.6827,337.9756369128236
716.7761,383.21116413137497
718.8688,473.2863088159211
720.9608,550.9015524274037
723.0522,662.0573716939043
725.1429,764.4542378344868
727.233,888.692615447645
729.3224,985.0229614873342
731.4112,991.9957240205804
733.4993,917.9113412641882
735.5867,743.9702415150005
737.6735,550.5228438907534
739.7596,395.4695600694786
741.845,301.11079622398574
743.9298,228.79695457238904
746.014,226.9784343216943
748.0974,216.70563239094372
750.1802,226.02894342939635
752.2624,242.74875991925728
754.3439,285.41547208244356
756.4247,352.97946771338593
758.5048,470.9911317523647
760.5843,644.8508456098643
762.6631,897.558985986464
764.7413,1296.9159231342355
766.8188,1811.0720183296626
768.8956,2247.9776198800755
770.9718,2598.9830579820846
773.0473,2641.438640352525
775.1221,2497.444648718406
777.1962,2348.5013383923524
779.2697,2327.608939712549
781.3426,2439.1176595321667
783.4147,2576.3276814282935
785.4862,2592.789164586845
787.557,2461.9022424304594
789.6271,2063.1670224538866
791.6966,1569.333587532852
793.7654,1131.901999911419
795.8335,795.1723061403154
797.901,565.8445414512571
799.9678,446.66873312423195
802.0339,372.79490278079084
804.0993,336.4730675757937
806.1641,322.603240936156
808.2282,271.63543292406484
810.2916,218.16965037567388
812.3544,169.2558974107842
814.4164,124.794175967505
816.4778,151.38448629138657
818.5385,187.17682738003987
820.5986,300.1211967172294
822.658,469.4675899149561
824.7166,706.1659995840109
826.7747,1127.7164136405045
828.832,1561.6188129388956
830.8886,1945.7731670564772
832.9446,2148.3294299543586
834.9999,2077.2875361359156
837.0545,1834.9473986212342
839.1085,1522.3589096575224
841.1618,1218.8219431425205
843.2143,1005.636357750378
845.2662,850.9519999670265
847.3175,757.2687062220357
849.368,684.7863044354563
851.4179,630.4546149546541
853.467,575.0734512791369
855.5155,540.892620603865
857.5633,499.6619243730702
859.6105,444.2811586220587
861.6569,391.75011438951697
863.7027,336.11857827132644
865.7478,314.986332945864
867.7922,276.85315773032744
869.8359,258.16882879204786
871.8789,267.8831195298271
873.9212,275.2958007607822
875.9629,335.0066406231999
878.0039,431.0154045024087
880.0441,460.5718544336769
882.0837,535.1757481421196
884.1226,562.9768387471363
886.1609,661.0248740163715
888.1984,795.2195960877025
890.2352,919.2607404887599
892.2714,982.2480347949786
894.3069,968.0311973891899
896.3416,839.9599368317513
898.3757,696.6339520027054
900.4091,598.6529333825006
902.4418,577.8165644852461
904.4739,601.3245228385244
906.5052,675.6264801917537
908.5358,695.1221022811119
910.5658,629.9110480865111
912.595,487.1929696366442
914.6236,315.8175126610963
916.6515,195.28431801752276
918.6786,123.44302340540435
920.7051,100.49326457138386
922.7309,130.08467602767723
924.756,154.26689128156568
926.7804,190.73954253948568
928.8041,212.45226046520884
930.8272,275.0546738151079
932.8495,271.74640922103663
934.8711,274.27709056430785
936.892,285.8463390087668
938.9123,318.10377297549576
940.9318,378.34900802711354
942.9506,415.53165654520126
944.9688,402.5513271278519
946.9862,335.0576242178454
949.003,222.70014823244946
951.019,140.028496238358
953.0344,60.34226307526524
955.0491,51.19104218258144
957.063,52.72442639629571
959.0763,103.44200804048933
961.0888,144.39337891200103
963.1007,177.92812977325184
965.1119,171.84584994272973
967.1223,186.19612695964042
969.1321,173.0285466447349
971.1412,149.1426929568047
973.1495,127.58814812436049
975.1572,154.36449288448694
977.1641,174.0713066983908
979.1704,150.3081674836344
981.1759,148.42465141706953
983.1808,123.92033317246751
985.1849,133.394785939352
987.1884,174.54758166804322
989.1911,243.77829097491576
991.1932,272.0864827308669
993.1945,308.8717233690154
995.1951,287.73357660161764
997.1951,267.17160305221523
999.1943,245.1853604670141
1001.1928,282.3744039205044
1003.1906,324.6882860353262
1005.1877,435.77655661037625
1007.1841,519.4887621976686
1009.1798,590.0744449914582
1011.1748,560.1331419911121
1013.1691,462.3643842952538
1015.1627,337.76769740117834
1017.1556,210.7926021825374
1019.1477,118.88861613531117
1021.1392,48.80525464755419
1023.1299,11.292031918434986
1025.12,30.048461659072927
1027.1093,93.37405746766854
1029.0979,168.26833264194102
1031.0859,248.2307995458682
1033.0731,317.5109688607495
1035.0596,301.90834878557916
1037.0454,234.12244434424292
1039.0304,185.1527575415471
1041.0148,100.44878804107566
1042.9985,44.360033654884774
1044.9814,-7.114008809454845
1046.9636,-35.87384298797133
1048.9452,-30.01990144774527
1050.926,14.597741623833826
1052.9061,46.52931193818813
1054.8855,74.47503506076464
1056.8642,133.5351360917184
1058.8421,149.00983938645732
1060.8194,164.6993679650377
1062.7959,194.10394335741876
1064.7717,249.4737854465675
1066.7469,293.2591121744108
1068.7213,364.1101389881419
1070.695,456.0270784023601
1072.6679,516.9101392905695
1074.6402,556.4595259660045
1076.6117,547.5254375727982
1078.5826,450.3580676904894
1080.5527,340.4576044233654
1082.5221,229.974231372129
1084.4908,173.40812873291452
1086.4587,148.90947440211175
1088.426,156.72844454203096
1090.3925,167.11521382588808
1092.3584,202.26995535961714
1094.3235,231.14284057799887
1096.2879,321.8840388931185
1098.2515,423.593717405633
1100.2145,571.6220399973608
1102.1767,712.6691663141837
1104.1382,901.4852502857657
1106.099,1094.7204387150796
1108.0591,1281.9248693902491
1110.0185,1391.8986691521932
1111.9771,1471.5419520225878
1113.9351,1446.3548181041251
1115.8923,1402.5873527840813
1117.8488,1343.0396269861817
1119.8045,1238.4616976082802
1121.7596,1119.9036081178324
1123.7139,982.6153895976818
1125.6675,903.6970619316385
1127.6204,932.3486351773586
1129.5726,929.6201103555309
1131.524,888.6114791633586
1133.4748,776.0227240018448
1135.4248,618.4538183858836
1137.3741,479.45472807013994
1139.3226,367.82541262474706
1141.2705,339.71582682529106
1143.2176,331.22592176910484
1145.164,301.70564515636397
1147.1097,257.904941374984
1149.0546,180.97375179582968
1150.9989,90.61201521071416
1152.9424,12.269668601717058
1154.8852,-49.503351955202106
1156.8272,-69.70711050677983
1158.7686,-52.59117656126364
1160.7092,-39.20442325287013
1162.6491,-1.3951983299648418
1164.5883,90.3885421112791
1166.5267,151.34885591271313
1168.4644,280.83780001230707
1170.4014,403.55742983454365
1172.3377,600.3097979955296
1174.2732,782.7469530758017
1176.2081,1112.220937652799
1178.1421,1502.3337864764962
1180.0755,1949.3375231746604
1182.0082,2321.3841563517212
1183.9401,2469.5756751187337
1185.8713,2354.564045372914
1187.8017,2090.0012083157208
1189.7315,1739.1890816029713
1191.6605,1395.1295619904754
1193.5888,1160.5245288421534
1195.5163,1019.825847570632
1197.4432,914.0853719832944
1199.3693,849.8549456892665
1201.2947,802.8364031568226
1203.2193,785.5815703556905
1205.1432,784.8922652272317
1207.0664,763.0702978569971
1208.9889,745.8174704816133
1210.9106,765.2355777070015
1212.8316,772.9264066809128
1214.7519,788.791736898741
1216.6715,836.6333401266193
1218.5903,889.3529802427652
1220.5084,963.6524127590674
1222.4257,1054.6833842938845
1224.3424,1125.3476318290554
1226.2583,1273.3968817995888
1228.1735,1394.4828493870168
1230.0879,1535.2072370389005
1232.0016,1708.6717332579778
1233.9146,1889.1280111949163
1235.8269,1945.1277269136635
1237.7384,1961.3225175868924
1239.6492,1889.6140009359992
1241.5592,1853.5037750691554
1243.4686,1935.193419198395
1245.3772,2121.1844940007136
1247.285,2329.42854080117
1249.1922,2578.9770797129786
1251.0986,2760.531607555071
1253.0042,2902.2935953566084
1254.9092,3054.9644865414384
1256.8134,3174.4456955104747
1258.7169,3299.8886061149833
1260.6196,3384.1945704617774
1262.5216,3519.714907658784
1264.4229,3678.750902971987
1266.3234,3832.853806470223
1268.2232,3947.5748314348184
1270.1223,4010.165152818566
1272.0207,4026.5759060985138
1273.9183,3994.8581866500585
1275.8151,3969.763049582838
1277.7113,3959.341510057913
1279.6067,4049.044543538711
1281.5014,4323.623085895248
1283.3953,4761.8280325070955
1285.2885,5329.9602355175975
1287.181,5933.920499451815
1289.0727,6524.209575535211
1290.9637,6928.378155654043
1292.854,7211.776866452479
1294.7435,7214.206265290903
1296.6323,7075.4168374119345
1298.5204,6799.4089959161365
1300.4077,6489.733083149899
1302.2943,6153.439373465527
1304.1802,5747.478076317988
1306.0653,5293.599339627867
1307.9497,4841.853253840967
1309.8333,4428.439856467098
1311.7162,4120.509136597542
1313.5984,3941.3610390391837
1315.4798,3803.0954673938168
1317.3605,3720.4622858496286
1319.2405,3659.9613205638525
1321.1197,3470.792360489098
1322.9982,3205.1551579783645
1324.876,2939.499430676727
1326.753,2649.724864177713
1328.6293,2435.181114679856
1330.5048,2209.317811884444
1332.3796,2019.584561140955
1334.2537,1884.580945705694
1336.127,1791.5565286391156
1337.9996,1712.8608541558724
1339.8714,1689.0934485550492
1341.7426,1689.1038210071247
1343.6129,1684.5414637916474
1345.4826,1689.1558522971281
1347.3515,1713.1964450666628
1349.2196,1676.2626837517923
1351.087,1688.6539928720922
1352.9537,1732.1197801845128
1354.8197,1797.6594365594665
1356.6849,1916.1723355461663
1358.5493,2043.8578327172318
1360.4131,2221.815264483563
1362.276,2382.543946817478
1364.1383,2462.643173473145
1365.9998,2419.4622143792894
1367.8606,2232.40031483821
1369.7206,2043.1566959575825
1371.5799,1839.2805565210806
1373.4384,1658.5210748808145
1375.2962,1515.4774109960854
1377.1533,1313.6987082409896
1379.0096,1051.9340948348486
1380.8652,829.1326858599969
1382.7201,623.7935858794335
1384.5742,466.56589116483065
1386.4275,352.2986917499238
1388.2802,268.7410730027941
1390.132,194.2421167685361
1391.9832,163.45090220483826
1393.8336,105.36650652696608
1395.6832,87.58800531567886
1397.5322,71.51447309807418
1399.3803,50.044983525366206
1401.2278,42.32860953362797
1403.0745,37.36442355848203
1404.9204,30.501497612266576
1406.7656,32.13890333367635
1408.6101,41.375712056393695
1410.4538,73.21099479271061
1412.2968,105.59382214116249
1414.139,138.6732639681768
1415.9805,194.548389084242
1417.8213,236.91826491311758
1419.6613,347.7319569330789
1421.5006,457.2385282532209
1423.3391,597.3370385053227
1425.1769,827.8765427487783
1427.0139,1116.2560900696158
1428.8502,1496.8747212750973
1430.6858,1872.7314660099269
1432.5206,2145.5253389500604
1434.3547,2294.005336044147
1436.188,2344.920431785577
1438.0206,2304.2695777276917
1439.8524,2207.101701974627
1441.6835,2128.2657095878226
1443.5139,2076.9604835577065
1445.3435,2048.1848855920493
1447.1724,2043.2377566290206
1449.0005,2021.5179171249429
1450.8279,1987.8241671037613
1452.6545,1980.3552863742439
1454.4804,2020.810034866914
1456.3056,2057.937152708745
1458.13,2023.73535981861
1459.9536,1930.703355536014
1461.7766,1769.8398189631075
1463.5987,1570.0434098950095
1465.4202,1375.4627704284421
1467.2409,1157.7465269596933
1469.0608,993.8932921304277
1470.88,795.0516670048446
1472.6984,665.3202427082142
1474.5161,545.8476024152892
1476.3331,439.68232264762264
1478.1493,381.1729744682925
1479.9648,346.86812454355595
1481.7795,304.26633572794026
1483.5935,281.9161674072948
1485.4067,276.26617592480443
1487.2192,260.5649148044954
1489.031,254.96093480773425
1490.842,243.65278409023767
1492.6522,237.93900825811534
1494.4618,227.2681504809516
1496.2705,222.1387515489423
1498.0785,207.59934997960363
1499.8858,197.2484820690638
1501.6924,181.68468203745897
1503.4981,156.60648213243985
1505.3032,146.0624127848114
1507.1075,139.00100285931512
1508.911,97.87077976006958
1510.7138,85.42026950118543
1512.5159,80.29799711806754
1514.3172,52.552486791917545
1516.1178,36.63226190095838
1517.9176,13.635845297889318
1519.7166,8.011759469086883
1521.515,-15.741473235429112
1523.3126,-27.875330545756242
1525.1094,-14.541132934673442
1526.9055,-24.239922400409796
1528.7008,-17.522595675274715
1530.4954,-48.889807334753186
1532.2893,-21.342036903603002
1534.0824,-36.77927549740434
1535.8747,-15.301301024790064
1537.6663,-8.307523969429894
1539.4572,0.8027980450005998
1541.2473,4.080490386989368
1543.0367,36.47637841699816
1544.8253,49.89128745468497
1546.6132,97.67604245494613
1548.4003,111.73146787376754
1550.1867,177.9583871903742
1551.9723,222.45762276667574
1553.7572,308.3299951850013
1555.5414,399.3263228031028
1557.3247,512.2474208954332
1559.1074,677.7441007431835
1560.8893,811.7671685050718
1562.6705,971.3174235623765
1564.4509,1088.9956571787052
1566.2305,1171.4526509044958
1568.0094,1225.5391754002271
1569.7876,1251.7059896118544
1571.565,1243.2038402299431
1573.3417,1258.783461428001
1575.1176,1278.5455749474982
1576.8928,1326.0408899420713
1578.6672,1370.9701027799042
1580.4409,1441.7338965687723
1582.2138,1510.1329407067524
1583.986,1615.967890174582
1585.7575,1719.3893848516695
1587.5282,1830.7480484577459
1589.2981,1964.1444875186476
1591.0673,2047.929290252734
1592.8358,2173.203025236916
1594.6035,2250.6162405688174
1596.3704,2294.1194626140305
1598.1366,2380.063195231984
1599.9021,2419.897919340914
1601.6668,2460.4740920584254
1603.4308,2537.5921463031505
1605.194,2618.7524903889816
1606.9564,2760.655507253894
1608.7182,2962.601553648334
1610.4791,3207.340958716195
1612.2394,3480.074021975356
1613.9988,3777.701010870286
1615.7576,4070.872158044715
1617.5156,4275.187658365361
1619.2728,4377.797665990225
1621.0293,4302.652292325426
1622.785,4123.201604999112
1624.54,3813.695628612908
1626.2942,3465.6343465364234
1628.0477,3112.6677040023133
1629.8005,2775.3956115868887
1631.5525,2475.5179487397854
1633.3037,2233.434567156683
1635.0542,2014.0952937780858
1636.804,1840.1499332101498
1638.553,1706.7982699180798
1640.3013,1633.8900699655824
1642.0488,1560.975082348381
1643.7955,1568.5030397233
1645.5416,1572.7236591374126
1647.2868,1616.7866419527625
1649.0313,1668.9416738041568
1650.7751,1740.8384241585388
1652.5181,1830.7765457934345
1654.2604,1916.4056740779865
1656.0019,2040.5754260735725
1657.7427,2201.2353996775146
1659.4828,2410.2851723813815
1661.222,2529.3742996643864
1662.9606,2597.3523129028954
1664.6984,2517.0687181795292
1666.4354,2291.7729956033863
1668.1717,1969.564600112881
1669.9072,1605.3429637286954
1671.642,1303.2074987758688
1673.3761,1049.4076015260105
1675.1094,848.3426552186545
1676.8419,705.0120325992616
1678.5737,575.365097929865
1680.3048,489.2512084223781
1682.0351,416.41971553506437
1683.7646,349.6699658336754
1685.4934,304.1513017197676
1687.2215,271.16306209819754
1688.9488,228.20458283231028
1690.6754,221.12519707382125
1692.4012,179.72423569240095
1694.1263,157.45102734646798
1695.8506,146.25489889720006
1697.5742,131.43517563126488
1699.297,114.94118137278247
1701.0191,96.92223863152117
1702.7404,84.3276687678383
1704.461,70.75679217287029
1706.1808,63.25892839447624
1707.8999,72.733396272949
1709.6182,37.079514015993254
1711.3358,40.19659910397968
1713.0527,36.38396864648553
1714.7688,28.890939351121006
1716.4841,27.76682756165792
1718.1987,25.86094933295908
1719.9126,19.97262044221884
1721.6257,17.351156408023144
1723.338,16.145872549230944
1725.0496,10.506084011191206
1726.7605,23.6811057777943
1728.4706,12.370252727871502
1730.18,16.072839503443447
1731.8886,16.388180622828713
1733.5964,14.91559044361793
1735.3036,10.454383159520148
1737.0099,10.05387281508797
1738.7156,16.163373350331767
1740.4204,2.48219860472409
1742.1246,6.509662256104775
1743.8279,-3.1549220425085878
1745.5306,-5.062240703193993
1747.2325,-11.562948620359293
1748.9336,-10.257650116628838
1750.634,-11.396834000771378
1752.3336,-7.430886607631464
1754.0325,-19.16008041768282
1755.7307,-15.08461367684231
1757.4281,-2.2544932218254417
1759.1247,-6.269575194058007
1760.8206,4.620306787420304
1762.5158,10.86538173662484
1764.2102,7.315878621368711
1765.9039,1.722026300812331
1767.5968,10.634053560957454
1769.289,-3.7478108294142203
1770.9804,2.5766617921401576
1772.6711,17.207737528691723
1774.361,12.39568245754731
1776.0502,22.64076248393667
1777.7386,14.843243389133931
1779.4263,20.203390728005616
1781.1132,20.22146990698684
1782.7994,21.34774613047898
1784.4849,33.932484400670546
1786.1696,22.225949506272627
1787.8535,30.82840589667194
1789.5367,29.340117798995607
1791.2192,28.811349132086434
1792.9009,29.542363521387415
1794.5818,43.983424304229175
1796.2621,31.984794522518314
1797.9415,36.74673677832948
1799.6202,32.76951335388799
1801.2982,46.7033861639527
1802.9755,40.398616795587714
1804.6519,49.155466368820726
1806.3277,42.77419559969849
1808.0027,45.655064712712374
1809.6769,50.14833350461299
1811.3504,43.304261315600115
1813.0231,50.17310698439178
1814.6951,49.805128916662625
1816.3664,57.500585016357945
1818.0369,70.40973268937182
1819.7067,51.33282876659223
1821.3757,59.12012937481177
1823.044,65.97189012749413
1824.7115,70.78836604690264
1826.3783,75.01981149558219
1828.0443,63.86648012819546
1829.7096,70.07862484920679
1831.3741,76.55649792441682
1833.0379,73.75035091883979
1834.701,82.210434631927
1836.3633,74.88699912562606
1838.0248,82.83029363978244
1839.6856,84.0405666653703
1841.3457,84.768065865062
1843.005,77.56303806112555
1844.6636,92.52572922814761
1846.3214,85.95638456508573
1847.9785,99.60524834563921
1849.6349,96.87256398394516
1851.2904,101.00857389808743
1852.9453,103.71351953742555
1854.5994,100.93764134123398
1856.2528,107.83117871165268
1857.9054,93.19437004144584
1859.5572,100.22745264506557
1861.2083,108.93066290502111
1862.8587,109.80423620154738
1864.5084,112.5484068255721
1866.1572,117.51340796998238
1867.8054,102.54947170218225
1869.4528,119.1068289144423
1871.0994,109.73570947353892
1872.7453,114.58634205518115
1874.3905,106.30895423772154
1876.0349,116.25377245364996
1877.6786,113.4210220723669
1879.3215,116.76092730073537
1880.9637,115.923711211409
1882.6051,112.50959570943212
1884.2458,128.41880154061278
1885.8858,121.60154832566388
1887.525,121.00805440110992
1889.1634,119.58853688746137
1890.8011,124.7432116951486
1892.4381,121.07229353871719
1894.0743,122.57599588528126
1895.7098,130.75453099123274
1897.3446,125.70810988720348
1898.9786,122.23694229628086
1900.6118,130.94123668447128
1902.2443,126.77120029541311
1903.8761,126.57703906333268
1905.5071,119.2089576547462
1907.1374,127.61715947039863
1908.7669,118.60184671894717
1910.3957,124.46322033287777
1912.0237,125.75148005865822
1913.651,122.31682439812505
1915.2776,116.50945059559933
1916.9034,110.57955467223485
1918.5285,105.92733148409184
1920.1528,114.70297478143516
1921.7764,117.70667725525664
1923.3992,118.53863044951947
1925.0213,118.49902473112024
1926.6427,123.83804928156917
1928.2633,115.7558920973878
1929.8832,125.8027399367171
1931.5023,120.67877840014023
1933.1207,113.2341918302136
1934.7383,116.61916336270588
1936.3552,120.23387500104366
1937.9714,110.92850758246323
1939.5868,118.6032407418619
1941.2015,102.40825300485312
1942.8154,115.19372171101782
1944.4286,113.65982317585474
1946.041,102.60673256292557
1947.6528,123.63462389919448
1949.2637,108.54367018555854
1950.8739,111.23404318656958
1952.4834,125.75591358134318
1954.0921,114.35945093665487
1955.7001,108.74482356172109
1957.3074,115.26219862216442
1958.9139,105.96174219615989
1960.5197,106.2436192092606
1962.1247,113.50799352740319
1963.729,109.85502795408786
1965.3325,103.98488415773545
1966.9353,102.29772270821684
1968.5374,96.39370313555492
1970.1387,100.2729839467952
1971.7393,103.28572268504593
1973.3392,103.58207589068593
1974.9383,100.81219907123727
1976.5366,94.02624669840168
1978.1342,101.77437223575885
1979.7311,100.65672820662678
1981.3273,96.02346611658015
1982.9227,92.0747364646262
1984.5173,96.56068878953829
1986.1112,100.63147170934258
1987.7044,92.03723287645903
1989.2968,104.27811893699231
1990.8885,102.10427561667541
1992.4795,96.16584759846069
1994.0697,94.46297854425757
1995.6592,92.54581115431733
1997.2479,96.71448718426223
1998.8359,97.96914746425625
2000.4232,93.55993185731904
2002.0097,96.28697924677897
2003.5955,87.75042758036489
2005.1805,93.40041384293659
2006.7648,89.53707414184998
2008.3484,92.46054365045688
2009.9312,103.82095664673898
2011.5133,103.06844648407309
2013.0946,93.00314547762696
2014.6752,95.77518491188425
2016.2551,101.98469514129704
2017.8342,90.4818055625667
2019.4126,93.91664455254704
2020.9902,95.08933958327498
2022.5672,93.15001718762153
2024.1433,93.49880294756485
2025.7188,94.53582151358319
2027.2935,96.71119660116744
2028.8674,92.92505098044978
2030.4406,89.32750645445151
2032.0131,82.06868389694296
2033.5849,80.1487032884196
2035.1559,81.61768378869078
2036.7261,86.22574375607883
2038.2957,85.57300073272916
2039.8645,87.25957139853085
2041.4325,90.5355715776434
2042.9998,92.25111622163035
2044.5664,88.85631937670018
2046.1323,89.30129416654927
2047.6974,84.83615282631183
2049.2617,91.0610066981094
2050.8254,83.97596627570192
2052.3883,92.4811411422404
2053.9504,87.8266400411161
2055.5118,91.5125707909092
2057.0725,88.53904033193362
2058.6325,84.0061546893777
2060.1917,85.16401900304004
2061.7502,94.06273757265762
2063.3079,93.5024138463275
2064.8649,88.3831503315198
2066.4212,87.40504860067995
2067.9767,88.5682093424233
2069.5315,84.42273237131474
2071.0856,80.06871661623791
2072.6389,85.95626016184929
2074.1915,77.68546029211836
2075.7433,76.85641343145267
2077.2945,85.61921522740477
2078.8448,74.62396055896374
2080.3945,74.72074344892678
2081.9434,76.00965717385202
2083.4916,79.04079426309033
2085.039,80.06424648589666
2086.5857,79.73010482111783
2088.1317,76.63845944695879
2089.677,75.5893997443236
2091.2215,75.4830143277319
2092.7652,66.26939105581016
2094.3083,71.04861703235474
2095.8506,76.72077869846851
2097.3921,80.18596178476889
2098.933,82.69425125466523
2100.4731,82.44573126970772
2102.0124,84.24048516450387
2103.5511,79.02859544920443
2105.089,80.21014379155531
2106.6261,80.88521106901658
2108.1626,78.75387735694756
2109.6983,83.56622192185603
2111.2332,82.52232324271142
2112.7675,80.17225896282105
2114.301,73.9161059002688
2115.8337,73.15394007141686
2117.3657,78.63583675346626
2118.897,73.86187049207888
2120.4276,67.48211504655865
2121.9575,76.4966434375907
2123.4866,75.30552801103943
2125.0149,68.55884034780343
2126.5426,67.65665127572629
2128.0695,72.94903093706353
2129.5956,67.98604879750394
2131.1211,74.71777359324676
2132.6458,72.74427338063106
2134.1698,62.01561546881919
2135.693,69.23186643953045
2137.2155,68.74309225432921
2138.7373,69.69935818246131
2140.2584,67.70072880574207
2141.7787,69.34726800899318
2143.2983,66.83903900002986
2144.8171,62.42610429319393
2146.3353,68.05852573443781
2147.8527,72.43636454545344
2149.3693,69.80968126734786
2150.8853,65.1285357168648
2152.4005,69.54298701265213
2153.9149,67.85309362207272
2155.4287,62.308913317060046
2156.9417,65.36050319101673
2158.454,62.957919714256604
2159.9655,61.05121870348887
2161.4764,61.44045534584336
2162.9865,70.97568421793778
2164.4958,58.306959281985996
2166.0045,61.23433379044491
2167.5124,71.80786041270233
2169.0195,62.02759120580254
2170.526,68.54357750871213
2172.0317,55.305870040121135
2173.5367,62.414518833284774
2175.0409,56.31957336839946
2176.5445,64.37108250151721
2178.0473,67.369094525494
2179.5494,57.86365708947562
2181.0507,61.154817168917134
2182.5513,56.142621160637646
2184.0512,64.47711484990805
2185.5504,63.458343460573815
2187.0488,53.83635157170909
2188.5465,53.76118312780477
2190.0435,61.38288153498945
2191.5397,57.70148966177965
2193.0353,61.117049762863644
2194.5301,55.579603515915665
2196.0241,54.439191987439585
2197.5175,59.29585568814423
2199.0101,59.349634584346404
2200.502,59.00056804940493
2201.9931,48.44869486318328
2203.4835,47.44405321553893
2204.9733,48.486680811843826
2206.4622,56.82661488302915
2207.9505,50.86389217515966
2209.438,44.74854886603407
2210.9248,52.43062062481306
2212.4109,46.76014267317112
2213.8962,47.63714970847707
2215.3809,48.51167596049845
2216.8648,49.73375518263151
2218.3479,51.40342064315621
2219.8304,49.270705113014856
2221.3121,44.63564084911627
2222.7931,47.04825961566246
2224.2733,40.65859273049955
2225.7529,39.666671040991446
2227.2317,50.77252498791643
2228.7098,41.676184615386546
2230.1872,40.27767945978928
2231.6638,46.227038640750266
2233.1397,35.824290875118436
2234.6149,45.11946441747273
2236.0894,52.712587164149
2237.5632,43.003686560289566
2239.0362,42.49278952391023
2240.5085,36.42992254299065
2241.9801,33.915111680582754
2243.4509,39.59838263543952
2244.921,42.9797607671627
2246.3904,37.00927103937079
2247.8591,28.78693798588415
2249.3271,31.612785770431515
2250.7943,35.53683826887209
2252.2608,32.20911904093748
2253.7266,26.37965129099075
2255.1917,26.848457901303846
2256.656,25.265561490352752
2258.1197,28.63098440812871
2259.5826,26.24474875196779
2261.0447,27.90687633289656
2262.5062,28.467388699494677
2263.9669,33.676307121273
2265.4269,30.733652583068647
2266.8862,29.539445732955755
2268.3448,31.44370691167262
2269.8026,34.4964561645636
2271.2598,27.19771322253598
2272.7162,29.797497471533006
2274.1719,32.99582802552152
2275.6268,32.592723700493366
2277.0811,29.83820298248287
2278.5346,33.932284031596964
2279.9874,30.57498470956085
2281.4395,31.166322538776797
2282.8908,21.556314735897388
2284.3414,31.844978205912582
2285.7914,29.982329638249098
2287.2406,27.718385403884042
2288.689,31.303161573971636
2290.1368,30.786673942482025
2291.5838,30.96893799035371
2293.0302,31.249968890659204
2294.4758,25.929781506781865
2295.9206,34.10839038960563
2297.3648,31.085809830716414
2298.8082,34.76205378061684
2300.251,39.73713587895105
2301.693,31.511069417742874
2303.1343,29.48386729164463
2304.5748,26.205542080198256
2306.0147,33.726106068107526
2307.4538,29.395571278020668
2308.8922,32.813949395325835
2310.3299,28.931251811456093
2311.7669,31.14748958970563
2313.2031,28.46267350405634
2314.6387,26.77681401701591
2316.0735,27.189921306465465
2317.5076,25.002005282517928
2318.941,28.46307558338708
2320.3737,25.973141597266874
2321.8056,25.932212427720913
2323.2369,27.040296918581475
2324.6674,29.647403654359266
2326.0972,29.403540949162277
2327.5263,29.40871682062425
2328.9547,35.71293899234337
2330.3823,32.11621489383117
2331.8092,33.9685515974694
2333.2355,21.31995585447828
2334.661,32.97043407639285
2336.0858,18.819992461548907
2337.5098,28.168636878577956
2338.9332,30.416373007911773
2340.3558,30.963206248296046
2341.7778,27.709141694312393
2343.199,31.904184130911176
2344.6195,27.548338065951498
2346.0393,26.19160768825151
2347.4583,31.083996911145903
2348.8767,33.525509386053386
2350.2943,29.316148453553467
2351.7113,33.5559171189708
2353.1275,29.34481809446828
2354.543,30.382853756650263
2355.9578,37.37002618867274
2357.3718,28.05633716986273
2358.7852,22.94178810584731
2360.1978,33.72638012169034
2361.6098,31.810114113038196
2363.021,37.99299063827385
2364.4315,31.32500993767934
2365.8413,33.256171871607194
2367.2504,30.48647598716053
2368.6587,34.16592149888095
2370.0664,25.194507316445197
2371.4733,37.122232007871105
2372.8795,32.149093889231835
2374.285,29.77509090537842
2375.6899,35.250220679670974
2377.0939,26.77448053771883
2378.4973,28.197867452628998
2379.9,30.87037812976422
2381.3019,30.092008992508624
2382.7032,25.812756155542502
2384.1037,24.382615432626494
2385.5035,29.101582379393562
2386.9027,28.269652307651256
2388.3011,28.536820238191183
2389.6987,25.85308090910894
2391.0957,27.91842877313195
2392.492,27.63285802445762
2393.8876,22.34636257809956
2395.2824,19.05893607274288
2396.6765,24.97057192360967
2398.07,22.281263355332555
2399.4627,21.791003342838223
2400.8547,26.69978463824208
2402.246,20.80759977574934
2403.6366,29.214441022568394
2405.0265,31.470300437831952
2406.4156,23.225169788529
2407.8041,22.329040526945278
2409.1918,22.031903873114857
2410.5789,19.333750823781827
2411.9652,26.434572155371313
2413.3508,24.88435845097098
2414.7358,23.88310002932343
2416.12,20.830786960327316
2417.5035,26.92740907505123
2418.8863,18.27295599625546
2420.2684,28.517417077426046
2421.6497,18.510781489319356
2423.0304,20.45303811751711
2424.4104,32.94417566249382
2425.7896,20.334182620194895
2427.1682,25.023047157122733
2428.546,19.960757236439974
2429.9232,24.747300571078426
2431.2996,25.782664674362422
2432.6753,24.31683681214389
2434.0503,29.249803992448108
2435.4246,24.331552980132017
2436.7982,31.212070247554777
2438.1711,24.041342023760023
2439.5433,24.969354225670827
2440.9148,23.996092529797124
2442.2856,21.921542362955336
2443.6557,25.095688912001208
2445.025,21.968517144574832
2446.3937,19.290011777359723
2447.7617,22.91015730735421
2449.1289,24.17893803865661
2450.4955,27.546338046264054
2451.8613,22.46234116338445
2453.2265,18.27693094776265
2454.5909,17.640090732520378
2455.9546,17.15180366800996
2457.3177,18.712052728183323
2458.68,20.770820715474656
2460.0416,24.27809024519769
2461.4025,29.983843724958263
2462.7627,22.538063319581568
2464.1222,32.04073089405455
2465.4811,23.74182808798389
2466.8392,28.19133622056944
2468.1966,25.08923637359277
2469.5533,25.635509346922333
2470.9093,35.63013568953437
2472.2645,35.02309569405014
2473.6191,28.41436929678997
2474.973,23.55393608384344
2476.3262,32.591775357156564
2477.6787,35.42786618313619
2479.0305,32.312187302271525
2480.3816,33.94471710077329
2481.7319,32.72543364173032
2483.0816,33.25431464878437
2484.4306,33.68133751832295
2485.7789,31.35647931419072
2487.1264,30.779716763418946
2488.4733,33.30102627947423
2489.8195,28.870383968026204
2491.165,34.087765601734304
2492.5097,33.40314666455447
2493.8538,27.26650229956482
2495.1972,27.17780731581223
2496.5398,27.987036249678795
2497.8818,34.34416336576845
2499.2231,26.849162648814854
2500.5637,29.302007740110014
2501.9035,33.60267201245438
2503.2427,34.95112854562899
2504.5812,33.997350083387914
2505.919,38.64130901997447
2507.256,30.43297740965852
2508.5924,34.872326920296985
2509.9281,28.859328915417336
2511.2631,29.943954409823846
2512.5974,31.626174129727758
2513.9309,36.405958501900955
2515.2638,29.83327763685361
2516.596,31.15810128103658
2517.9275,34.73039888256784
2519.2583,34.9501395779846
2520.5884,37.06729215652041
2521.9178,30.43182505790736
2523.2465,36.14370635120514
2524.5745,34.35290380115521
2525.9018,35.70938481106219
2527.2284,38.46311644070187
2528.5543,33.06406539275622
2529.8796,37.46219798527619
2531.2041,36.85748020567206
2532.5279,38.74987766673229
2533.851,33.43935561267074
2535.1735,39.375878900202224
2536.4952,37.55941205164828
2537.8163,39.139919195571736
2539.1366,33.867364084941414
2540.4562,34.34171008132728
2541.7752,37.51292020762577
2543.0935,39.13095714331638
2544.411,43.54578319274958
2545.7279,38.107360268966374
2547.0441,36.8656498495497
2548.3596,42.72061303100918
2549.6744,42.67221054119784
2550.9885,36.82040268076304
2552.3019,39.66514932362975
2553.6146,41.856409975519
2554.9266,37.09414374550073
2556.2379,42.778309324080794
2557.5485,42.95886503082369
2558.8585,47.63576875751096
2560.1677,45.90897796633584
2561.4762,45.52844964313391
2562.7841,45.14414031465117
2564.0913,46.40600605234954
2565.3977,49.01400247624963
2566.7035,45.56808474231207
2568.0086,47.168207516357825
2569.313,50.6643250085271
2570.6167,53.45639095727813
2571.9197,51.54435859442623
2573.222,46.82818061722287
2574.5236,49.707809207476316
2575.8246,55.483196078712865
2577.1248,58.5542924473811
2578.4244,54.521048975097415
2579.7232,52.133415737935366
2581.0214,53.891342266758386
2582.3189,52.79477757109578
2583.6157,53.89367012156379
2584.9118,62.537967860830975
2586.2072,60.327618192629245
2587.5019,60.6625678953111
2588.7959,59.9427631439533
2590.0893,64.9181495070066
2591.3819,66.9386719534944
2592.6739,63.30427480325852
2593.9652,67.01490170675453
2595.2557,69.67049568139532
2596.5456,73.17099907444486
2597.8348,71.61635353646216
2599.1234,66.50649998629643
2600.4112,68.34137862663357
2601.6983,67.67092899509447
2602.9848,72.5450899458865
2604.2705,76.51379965650796
2605.5556,68.82699557900628
2606.84,71.38461440029096
2608.1237,70.98659211900167
2609.4067,72.78286401993194
2610.689,66.22336467800994
2611.9707,73.90802794033505
2613.2516,63.586786991773124
2614.5319,73.00957427811
2615.8115,64.17632160926365
2617.0903,64.33696006505653
2618.3685,60.3914200835481
2619.6461,60.93963145942831
2620.9229,64.88152338347331
2622.199,63.417024437062906
2623.4745,64.04606255276187
2624.7493,62.66856502896485
2626.0234,71.1844585236062
2627.2968,64.1436690679345
2628.5695,61.146121981354156
2629.8415,68.09174194183262
2631.1128,68.73045301587644
2632.3835,67.9121785890747
2633.6535,61.586841359712
2634.9228,59.004363346951465
2636.1914,67.91466595408767
2637.4593,63.817669994371784
2638.7265,62.71329560190827
2639.9931,64.9514622726251
2641.259,64.08208887531762
2642.5242,65.45509362926668
2643.7887,67.87039411293227
2645.0525,60.47790725022375
2646.3156,64.57754928634651
2647.5781,54.56923586172712
2648.8398,62.80288197101689
2650.1009,58.828402063174764
2651.3613,65.39570995913107
2652.6211,60.004718891532036
2653.8801,59.20534143906718
2655.1385,61.147489580378874
2656.3961,62.78107470205626
2657.6531,58.10600757921344
2658.9094,65.87219835915408
2660.1651,58.77955660812157
2661.42,61.52799123363749
2662.6743,68.76741055542817
2663.9279,62.99772227794003
2665.1808,65.76883341794576
2666.433,68.4806503622408
2667.6846,68.63307883993252
2668.9354,74.12602389532174
2670.1856,73.50938988637864
2671.4351,73.98308042981358
2672.6839,81.44699840724283
2673.9321,78.9510459604522
2675.1795,83.49512441675762
2676.4263,83.47913431396483
2677.6724,82.95297535492836
2678.9179,80.66654640771159
2680.1626,85.76974551084831
2681.4067,84.11246989620673
2682.6501,90.84461593795788
2683.8928,83.56607916914822
2685.1348,74.27675421437803
2686.3761,79.02653486258694
2687.6168,74.4653141599471
2688.8568,64.44298436236542
2690.0961,67.10943698109571
2691.3348,66.31456288296192
2692.5727,67.85825226369363
2693.81,68.39039465587496
2695.0466,64.36087891350752
2696.2826,68.019593206689
2697.5178,67.26642506190825
2698.7524,71.0012613254585
2699.9863,67.52398817096872
2701.2195,69.83449106205538
2702.452,76.58265478709524
2703.6839,75.11836343612009
2704.9151,86.79150033333539
2706.1456,86.00194805176312
2707.3755,82.44958829651026
2708.6046,94.73430191266468
2709.8331,95.20596892081826
2711.0609,101.26446839422005
2712.2881,103.75967845405961
2713.5145,104.84147620888174
2714.7403,115.95973772963464
2715.9654,119.61433803885163
2717.1899,124.75515099946887
2718.4136,134.6320492782794
2719.6367,146.29490429452477
2720.8591,139.19358612112626
2722.0809,156.37796336805604
2723.3019,159.14790325335048
2724.5223,165.65327143126672
2725.7421,174.3939319645829
2726.9611,169.31974725954467
2728.1795,169.6305779784584
2729.3972,160.22628309043318
2730.6142,152.2567198682724
2731.8306,146.77174398251668
2733.0462,135.22120958113956
2734.2612,120.75496934439721
2735.4756,111.97287460033374
2736.6892,101.42477546944352
2737.9022,100.36052095249252
2739.1145,87.5799590359988
2740.3262,88.58293670287554
2741.5372,75.36930006023613
2742.7475,70.63889432936489
2743.9571,66.69156397785329
2745.1661,60.52715276690398
2746.3744,59.29550379080416
2747.582,51.34645953856972
2748.7889,46.92986190626135
2749.9952,42.0955522764753
2751.2008,39.243371562509196
2752.4057,34.023160256705296
2753.61,30.53475845897222
2754.8136,29.42800592898689
2756.0165,27.25274212107888
2757.2188,27.80880619529779
2758.4204,22.196037039165986
2759.6213,20.614273262117933
2760.8215,19.613353251627643
2762.0211,24.84311518902669
2763.22,27.153397059513196
2764.4182,22.594036599854178
2765.6158,13.464871275282945
2766.8127,7.565738325092326
2768.009,10.696474853926787
2769.2045,10.906917890773315
2770.3994,5.346904357654211
2771.5936,7.216271067522683
2772.7872,2.5648547798631967
2773.9801,-1.6075078180025457
2775.1723,-5.950980064401193
2776.3639,-2.4157092386564614
2777.5548,-4.301783169801411
2778.745,-3.459265553933875
2779.9346,-9.538177112337848
2781.1235,-6.388504008234634
2782.3117,-2.610137118456123
2783.4992,-11.302903498679711
2784.6861,-7.316604129312708
2785.8723,-9.150927074756765
2787.0579,-7.805487306538453
2788.2428,-3.2798083784227856
2789.427,-4.823335867356775
2790.6106,-6.835482585001671
2791.7935,-3.7156131578935288
2792.9757,7.536976073902508
2794.1573,0.6230258892965708
2795.3382,0.04327699182942979
2796.5184,8.998470078811465
2797.698,12.339345847120626
2798.8769,21.716644903650433
2800.0551,23.031107731901272
2801.2327,27.03347459820708
2802.4096,35.474485538591125
2803.5859,44.35488031874161
2804.7615,43.775398349602085
2805.9364,52.836778598566866
2807.1106,65.4897595952765
2808.2842,75.83507934100368
2809.4572,97.6234751821234
2810.6294,115.10568370666022
2811.801,130.63244052640385
2812.972,148.40448010208706
2814.1423,173.7725355881185
2815.3119,200.28733865486197
2816.4808,228.94961923495617
2817.6491,254.7101052581666
2818.8167,287.9195223647627
2819.9837,321.27859364791317
2821.15,350.9880393215917
2822.3157,391.89857638698595
2823.4807,426.61091833540377
2824.645,463.275774739167
2825.8086,500.39385090448894
2826.9716,528.965847504825
2828.134,567.2424602096924
2829.2957,593.3243793989503
2830.4567,614.7122897800334
2831.617,632.5568701271326
2832.7767,635.708793067316
2833.9358,630.7187249020835
2835.0941,626.937325575847
2836.2519,610.6652487258316
2837.4089,591.4531417198892
2838.5653,582.5516458192194
2839.7211,579.26139637049
2840.8761,571.3830228948536
2842.0306,579.8171491208477
2843.1843,584.3643930631804
2844.3374,604.2253669383883
2845.4899,624.9006771193643
2846.6417,660.8409239367478
2847.7928,688.8967014721715
2848.9433,721.968597198859
2850.0931,755.7571917010674
2851.2422,790.7630583433679
2852.3907,818.4367629327597
2853.5385,857.4788633686117
2854.6857,878.2899093659257
2855.8323,906.4704420649146
2856.9781,935.3709938228925
2858.1233,967.9420879324696
2859.2679,1002.1842383325455
2860.4118,1022.0979492826004
2861.555,1057.7837150202713
2862.6976,1081.0420195622164
2863.8395,1100.6233363472563
2864.9808,1121.9281280037926
2866.1214,1137.1568461539928
2867.2614,1142.6099312007432
2868.4007,1152.2378121753625
2869.5393,1170.39090668307
2870.6773,1183.1696208067065
2871.8146,1179.6743489252055
2872.9513,1166.6554735858028
2874.0874,1165.813365538992
2875.2227,1166.9983838687124
2876.3574,1140.8108760007688
2877.4915,1125.1011776909834
2878.6249,1119.6696132870693
2879.7577,1100.9164958857282
2880.8898,1094.2921273869656
2882.0212,1080.6467986816228
2883.152,1074.8307897176198
2884.2821,1089.1943696364087
2885.4116,1071.3377968311338
2886.5405,1073.711318802996
2887.6686,1076.9151723398186
2888.7962,1082.149583492312
2889.923,1079.8647675420352
2891.0493,1093.010928949051
2892.1748,1101.7882613747754
2893.2997,1112.746947550515
2894.424,1114.7871591896937
2895.5476,1123.0590568782668
2896.6706,1131.762790054317
2897.7929,1143.5484969253387
2898.9145,1164.8663043811964
2900.0355,1178.8663278762713
2901.1559,1189.998671216281
2902.2756,1206.21342641828
2903.3946,1219.110673599336
2904.513,1239.4404808143827
2905.6308,1253.002903927247
2906.7479,1274.3479864073515
2907.8643,1279.6757591940896
2908.9801,1285.8362404833751
2910.0953,1284.4294356743653
2911.2098,1291.4053373078532
2912.3236,1277.8639250803399
2913.4368,1263.605165774271
2914.5494,1263.3790133934544
2915.6613,1243.4354093056468
2916.7725,1219.8742822448135
2917.8831,1199.6455485105664
2918.9931,1193.9491122037753
2920.1024,1169.3348654288548
2921.211,1156.152688350727
2922.319,1137.3524494409673
2923.4264,1132.1340056096242
2924.5331,1149.5472023932211
2925.6391,1135.6418740069416
2926.7445,1141.3178431704987
2927.8493,1125.924921247185
2928.9534,1129.562908187117
2930.0569,1147.4815926811598
2931.1597,1157.5307521245513
2932.2619,1158.4601524377126
2933.3634,1165.3195479657586
2934.4643,1168.708681469202
2935.5645,1170.5772840553605
2936.6641,1154.825075144465
2937.763,1145.851762450974
2938.8613,1135.5570421410957
2939.959,1103.79059892252
2941.056,1075.9021061473677
2942.1523,1043.8912261298526
2943.248,998.9076104251686
2944.3431,935.1509001495975
2945.4375,875.7707264303444
2946.5313,829.1667110431065
2947.6244,759.388467005873
2948.7169,710.635599044967
2949.8087,645.0077042928272
2950.8999,607.7543727755356
2951.9904,568.3251880690977
2953.0803,535.0197276719754
2954.1696,482.58756339937867
2955.2582,462.02826171632
2956.3462,426.1413842619366
2957.4335,403.2264880550831
2958.5202,387.7331258532006
2959.6062,377.0108463814654
2960.6916,353.2091944877226
2961.7764,350.2777112497089
2962.8605,347.86593421306924
2963.9439,338.22339742067163
2965.0267,343.4996314367249
2966.1089,333.44416344320405
2967.1905,340.2565171870881
2968.2714,331.336213080914
2969.3516,337.73276813465395
2970.4312,341.24569604491825
2971.5102,345.2745071309892
2972.5885,353.91870829969275
2973.6662,363.12780300510974
2974.7432,361.60129116213403
2975.8196,368.1386690543817
2976.8954,363.8894293494561
2977.9705,356.40306103357443
2979.045,350.77904945405913
2980.1188,344.76687639420265
2981.192,337.816020129507
2982.2645,331.9259554878057
2983.3364,318.79615391877246
2984.4077,300.5760835528213
2985.4783,287.365209332405
2986.5483,275.3629931942158
2987.6177,258.4688942012936
2988.6864,236.7323686630486
2989.7545,220.75287030420196
2990.8219,206.8798504821517
2991.8887,189.91275834676702
2992.9548,167.85104097911858
2994.0204,148.54414356114978
2995.0852,128.3915095962936
2996.1495,118.39258110254167
2997.2131,98.09679881397079
2998.276,94.40360228073177
2999.3383,81.66243007200802
3000.4,70.37271981294668
3001.4611,60.98390831207092
3002.5215,57.09543167417655
3003.5812,36.406725394220445
3004.6404,30.867224396205415
3005.6989,21.32636324006694
3006.7567,17.98357617706813
3007.8139,14.33829724520865
3008.8705,10.089960302652457
3009.9264,10.587999064180622
3010.9818,8.131847143674605
3012.0364,2.670938049135998
3013.0905,5.054705207247935
3014.1439,-3.617417982015496
3015.1966,-1.7959981692273175
3016.2487,-4.381565866954929
3017.3002,-5.424633645743938
3018.3511,-1.8756703042972447
3019.4013,-6.685090449227488
3020.4509,-2.4532899492014906
3021.4998,-9.230597888832307
3022.5481,-3.017318844366514
3023.5958,-7.413665178377755
3024.6428,-6.219819110424481
3025.6892,-5.085888797550211
3026.735,-3.3119202608056355
3027.7802,-0.2479087132126665
3028.8247,-0.9438162817098146
3029.8685,3.3003973833724274
3030.9118,0.7347820604283299
3031.9544,6.659387494848204
3032.9963,11.424263424674564
3034.0376,14.02945952135596
3035.0783,15.075025342098371
3036.1184,17.11101030381306
3037.1578,21.98746367266122
3038.1966,23.95443454369405
3039.2348,26.361971792088298
3040.2723,34.96012405347659
3041.3092,34.3989396998719
3042.3455,34.678466753686166
3043.3811,36.59875289334201
3044.4161,30.859845450477536
3045.4505,36.2617913907433
3046.4842,35.75463737119159
3047.5173,42.188429686256825
3048.5498,45.06321427282728
3049.5816,44.02903664590713
3050.6128,39.08594186986829
3051.6434,39.73397456879252
3052.6734,37.22317897590216
3053.7027,41.60359892708007
3054.7314,41.5752778859771
3055.7594,41.788258900208234
3056.7868,41.092584601635764
3057.8136,48.38829720423942
3058.8398,45.82543851107323
3059.8653,45.554049841308284
3060.8902,48.4741720558612
3061.9145,50.135845560108294
3062.9381,46.08911027468429
3063.9612,48.584005618865376
3064.9835,50.02057055103677
3066.0053,47.24884354374373
3067.0264,48.36886256932584
3068.0469,50.48066512763427
3069.0668,51.6342882348317
3070.086,49.629768402274266
3071.1046,52.21714162497523
3072.1226,43.69644340165041
3073.1399,39.56770870884432
3074.1567,42.730972086137115
3075.1727,39.78626767743185
3076.1882,35.733629199322024
3077.203,31.973089970538382
3078.2173,29.954682952475466
3079.2308,30.828440786797074
3080.2438,27.24439581562021
3081.2561,21.65258007277754
3082.2678,21.003025319657866
3083.2789,19.995763101124282
3084.2893,19.380824752009772
3085.2991,13.608241407189638
3086.3083,11.478044007730972
3087.3169,12.690263358618623
3088.3248,10.794930150056985
3089.3321,10.592074945347832
3090.3388,9.481728199843829
3091.3449,9.913920262977015
3092.3503,9.488681389362128
3093.3551,8.506041734474849
3094.3593,8.266031358903987
3095.3629,7.318680238178061
3096.3658,3.8140182651653163
3097.3681,3.352075259547263
3098.3698,6.882881002865375
3099.3708,4.2564652431404255
3100.3713,4.372857659564488
3101.3711,2.682087888765068
3102.3702,4.434185523641162
3103.3688,6.229180130270862
3104.3667,3.217101230390398
3105.364,2.597978283444263
3106.3607,-0.17815928329409303
3107.3568,4.438717931469
3108.3522,4.248641108838385
3109.347,3.8016413855317523
3110.3412,3.747749855780384
3111.3348,3.586997575799245
3112.3277,-0.5805844356742256
3113.32,2.99503480422743
3114.3117,-1.4861079215898343
3115.3028,3.726024139829576
3116.2932,2.231482587659386
3117.2831,1.7803189838130606
3118.2723,1.97258486788931
3119.2608,-0.7916682383162339
3120.2488,6.537611167266178
3121.2361,2.01048249547199
3122.2229,1.87700509176058
3123.209,4.237238281486427
3124.1944,5.341241371234119
3125.1793,1.7390736252158092
3126.1635,2.930794254231344
3127.1471,5.216462451689793
3128.1301,8.596137381692344
3129.1125,1.519878156175622
3130.0942,5.587743801114883
3131.0753,4.649793327286687
3132.0558,6.956085689590111
3133.0357,7.40667979642631
3134.015,6.401634486635707
3134.9936,4.791008524991938
3135.9716,6.124860612252299
3136.949,5.403249401264077
3137.9258,8.126233483625946
3138.902,5.293871396904144
3139.8775,12.656221597402585
3140.8524,5.113342488486502
3141.8267,6.0652923469589695
3142.8004,7.2121293984896795
3143.7735,13.953911808095398
3144.7459,12.740697668671658
3145.7178,11.422544933574905
3146.689,12.249511428754587
3147.6596,13.271654865934757
3148.6295,13.58903283434433
3149.5989,11.05170279049571
3150.5676,13.209722055010978
3151.5357,12.313147837995203
3152.5032,16.162037217456252
3153.4701,16.80644714827053
3154.4364,11.546434423694102
3155.402,14.882055668918618
3156.367,13.01336739367138
3157.3315,13.790425958859139
3158.2952,19.06328759525494
3159.2584,17.53200839572763
3160.221,17.346644262513216
3161.1829,18.457250922527635
3162.1442,18.063883929220466
3163.105,21.616598651468777
3164.065,19.215450277510868
3165.0245,16.110493779418995
3165.9834,18.151783937110928
3166.9416,21.889375369399545
3167.8993,21.17332251357983
3168.8563,21.5536795880531
3169.8127,26.080500599487433
3170.7684,23.403839339014095
3171.7236,26.073749336959374
3172.6782,24.190283889611194
3173.6321,24.603496032520017
3174.5854,20.463438559333454
3175.5381,26.72016401766415
3176.4902,27.523724750490413
3177.4417,26.374172833588904
3178.3926,25.87156006749904
3179.3428,26.915937989018534
3180.2924,29.657357876229494
3181.2415,26.995870738054652
3182.1899,30.431527286843192
3183.1377,26.114377964985596
3184.0848,30.494472910557043
3185.0314,29.12186200048899
3185.9773,29.396594806768142
3186.9227,28.818720610162597
3187.8674,30.88828839747453
3188.8115,31.45534686731888
3189.755,30.16994440942775
3190.6979,34.28212909897975
3191.6402,31.941948709454067
3192.5818,35.24945067150858
3193.5229,35.25468209638173
3194.4633,38.357689742817385
3195.4031,33.30852001701267
3196.3423,34.85721894158775
3197.2809,35.85383220607767
3198.2189,35.59840515144521
3199.1563,35.64098276011489
3200.0931,40.03160965852716
3201.0292,38.670330116712634
3201.9648,37.90718800438585
3202.8997,38.29222680455804
3203.834,38.375489621168555
3204.7677,41.00701917523448
3205.7008,41.386857804018
3206.6333,43.965047434711124
3207.5652,43.49162958063726
3208.4964,43.266645315469354
3209.4271,44.24013527796406
3210.3571,41.91213967421155
3211.2865,44.2826982679007
3212.2154,45.6018504035989
3213.1436,46.16963498304664
3214.0712,46.636090451965856
3214.9982,45.05125479438213
3215.9246,47.26516552796016
3216.8503,43.37785971985206
3217.7755,48.53937396455833
3218.7001,46.349744422800825
3219.624,47.55900676990768
3220.5473,49.8171962177096
3221.4701,52.32434750244716
3222.3922,47.23049486218902
3223.3137,48.485672011760315
3224.2346,48.539912193681275
3225.1549,49.49324816561537
3226.0746,50.34571219982696
3226.9937,52.747336073647915
3227.9121,51.148151060952976
3228.83,53.598187908143515
3229.7473,54.397476850139384
3230.6639,52.846047585878544
3231.5799,53.693929270324176
3232.4954,52.29115052997899
3233.4102,53.287739454406406
3234.3244,60.23372361025831
3235.238,55.529130031309194
3236.151,55.27398514899627
3237.0634,58.118314839465484
3237.9752,55.76214442612289
3238.8864,53.95549865119136
3239.797,57.79840169927233
3240.7069,58.290877215412245
3241.6163,58.332948266673476
3242.5251,62.92463733720965
3243.4332,58.51596632784489
3244.3408,65.15695651015692
3245.2477,60.7976285705638
3246.154,62.58800254391403
3247.0598,58.82809785707976
3247.9649,62.66793331105315
3248.8694,63.207527118545315
3249.7733,63.64689686558805
3250.6766,64.53605950613783
3251.5793,64.32503135768219
3252.4814,67.01382809234799
3253.3829,65.25246473901186
3254.2838,66.24095565641204
3255.1841,65.32931455076222
3256.0838,65.96755446586647
3256.9829,66.65568779223568
3257.8814,65.94372626070526
3258.7792,65.73168093555361
3259.6765,69.11956222162189
3260.5731,67.75737986643443
3261.4692,70.29514292631991
3262.3647,67.5828597800332
3263.2595,68.72053810337772
3264.1538,69.60818489632823
3265.0474,70.74580647165412
3265.9404,71.28340844604291
3266.8329,68.970995728724
3267.7247,71.20857251609273
3268.616,69.74614231483439
3269.5066,70.33370791954852
3270.3966,69.07127142737328
3271.286,70.30883423210969
