RamanShift,CorrectedData
30.1047,638.5465705860506
32.3739,590.4926511759035
34.6426,542.4387253802905
36.9109,496.33478090881965
39.1787,446.6308000467112
41.4461,402.1267601158376
43.7131,355.97263397176334
45.9796,310.7683904487848
48.2456,266.263994821472
50.5112,217.10940925671073
52.7764,174.8045932587467
55.0411,127.14950416073152
57.3054,80.29409754777078
59.5692,38.03832773347498
61.8326,-7.967851771486352
64.0955,-50.02448783682699
66.3579,-95.58154773342159
68.6199,-131.98849898751138
70.8815,-163.14385426567577
73.1426,-164.54480766938946
75.4032,-78.23692349302326
77.6634,194.58587777168054
79.9231,931.7804572198451
82.1824,2519.003674000735
84.4412,5308.562377945811
86.6995,9108.913393696497
88.9574,12747.46349280859
91.2148,15211.519355748762
93.4717,16284.087535509043
95.7282,16356.124432966266
97.9842,16029.436286156406
100.2398,15453.279169554171
102.4949,14865.458997339925
104.7495,14132.631529161232
107.0036,13472.90237601107
109.2573,12873.427007556098
111.5105,12345.560758733955
113.7632,11879.958835748012
116.0154,11467.726321346028
118.2672,11162.368179476172
120.5185,10871.489259409364
122.7693,10603.994298792826
125.0197,10395.2879265589
127.2696,10173.07466559998
129.519,9977.208934855586
131.7679,9753.795051534486
134.0163,9522.687233073371
136.2642,9227.88959937097
138.5117,8924.206175099145
140.7587,8636.34089265087
143.0052,8349.19759517704
145.2512,8037.280039465161
147.4967,7805.8918988107525
149.7417,7605.586766136539
151.9863,7412.2681563063215
154.2304,7308.139508128037
156.4739,7149.504186286946
158.717,7021.715482386908
160.9596,6864.276616536747
163.2017,6645.940738628132
165.4433,6420.910929909969
167.6844,6185.590205171757
169.925,5933.731514993883
172.1651,5672.63774810084
174.4047,5479.111733879804
176.6439,5308.106244991572
178.8825,5104.523999305828
181.1206,4990.667661611192
183.3582,4856.489845651047
185.5954,4755.893115262108
187.832,4669.629985716181
190.0681,4616.152924726153
192.3037,4569.164353308608
194.5388,4521.566646318606
196.7734,4480.812132919562
199.0075,4506.253097059229
201.2411,4553.54177787724
203.4742,4539.730369450695
205.7068,4575.921020321281
207.9389,4595.81583363338
210.1704,4675.216866772171
212.4015,4708.726131164671
214.632,4777.045591485734
216.862,4794.727165322953
219.0915,4817.172722493469
221.3205,4811.184084867152
223.549,4812.713026142148
225.777,4798.111271904765
228.0044,4781.330499614183
230.2314,4805.22233874847
232.4578,4785.238370972392
234.6837,4793.48012989849
236.909,4790.649101286925
239.1339,4725.996722963057
241.3582,4666.424384845759
243.582,4577.283429593931
245.8053,4539.975153202237
248.0281,4505.650805892508
250.2503,4469.611592486823
252.472,4471.158672750755
254.6932,4573.4431617537575
256.9139,4604.2661298537105
259.134,4692.528601674052
261.3536,4842.181555795569
263.5727,5033.325923873757
265.7912,5184.512589142307
268.0092,5381.692384501646
270.2267,5495.366091007079
272.4436,5577.884435896997
274.6601,5549.7480914561265
276.8759,5489.0076741903495
279.0913,5404.813745108074
281.3061,5263.9668103276335
283.5204,5198.667321919222
285.7341,5150.76567931337
287.9473,5133.912229953933
290.16,5123.457269777117
292.3721,5113.201043380009
294.5837,5166.64374412512
296.7947,5233.835514242964
299.0052,5336.42644429761
301.2152,5299.916572514776
303.4246,5210.155883755922
305.6334,4994.24430988334
307.8418,4740.381730657762
310.0495,4433.517975897487
312.2568,4155.302828016989
314.4635,3869.836025095572
316.6696,3629.7172636595096
318.8752,3427.0962015367204
321.0802,3340.7724602579538
323.2847,3305.9956270830007
325.4887,3302.0652558639267
327.692,3262.580867392846
329.8949,3233.541949441219
332.0972,3106.2979571546994
334.2989,2950.6983133435187
336.5001,2799.6924097549336
338.7007,2642.9796086292135
340.9008,2536.2092442097137
343.1003,2406.8806243099934
345.2992,2294.443031381522
347.4976,2202.845723806963
349.6955,2114.5379370245537
351.8927,2082.468884444076
354.0895,1991.2377583299385
356.2856,1953.6437301218602
358.4812,1896.4359513471836
360.6763,1880.563553996817
362.8707,1814.3756510973117
365.0646,1821.7713368695804
367.258,1858.599687390788
369.4508,1858.5097605203855
371.643,1937.4505955318318
373.8346,1964.7212131134856
376.0257,2028.1206145792048
378.2162,2037.8977815956332
380.4062,2034.801675548213
382.5956,1966.3312374434108
384.7844,1878.2353879396778
386.9726,1771.8630280321522
389.1603,1706.663039933619
391.3474,1612.6342881382416
393.5339,1600.0756200735568
395.7199,1585.185867040761
397.9052,1604.6638443402971
400.09,1641.3083514207501
402.2743,1730.6681716840694
404.4579,1815.6920721191236
406.641,1941.628802408105
408.8235,2046.4270940762844
411.0054,2094.8856592326465
413.1868,2176.25318952191
415.3675,2203.52835563994
417.5477,2144.509806520072
419.7273,2066.5961690603626
421.9064,1984.236048713773
424.0848,1935.5280302673045
426.2627,1856.9206786655968
428.4399,1695.3625394980127
430.6166,1502.302139784707
432.7928,1268.1379895922119
434.9683,1081.1185839640348
437.1432,939.6424052623124
439.3176,828.6079250379944
441.4914,741.9136054456076
443.6645,723.007900353603
445.8371,686.2892562112984
448.0091,632.6561122379317
450.1806,628.9069007898561
452.3514,610.5900478968624
454.5216,631.3539732996787
456.6913,613.2470906331382
458.8603,636.2678072185372
461.0288,663.6145242447064
463.1967,634.5856365378004
465.3639,626.8795322878341
467.5306,606.1445933389632
469.6967,604.7291952665564
471.8622,592.7817075845342
474.0271,602.2504937595304
476.1914,578.0839113303709
478.3551,607.3803118133737
480.5182,629.6380409440226
482.6807,700.7554383840034
484.8426,810.7308374986214
487.0039,1003.5625646456301
489.1647,1228.348938075479
491.3248,1424.2382660029934
493.4843,1460.7288443595135
495.6432,1419.0689548339979
497.8015,1328.1568645081188
499.9592,1260.4408262728584
502.1163,1097.1690797376295
504.2728,908.4398519074421
506.4287,746.901358815614
508.5839,581.6518074110709
510.7386,458.53939717372305
512.8927,405.0123217669652
515.0461,402.768770268799
517.199,464.60692770710284
519.3512,582.4249750820754
521.5029,759.4210887478521
523.6539,925.4434392343192
525.8043,1020.2901894771558
527.9541,964.9094931576101
530.1033,806.7494937540314
532.2519,683.5583250956752
534.3999,624.3341129443079
536.5472,641.1249762261086
538.694,729.9790276239191
540.8401,853.9443734093338
542.9856,949.7691125541596
545.1305,962.9513354907604
547.2748,903.9391231538148
549.4185,829.430546848489
551.5615,785.9236688405599
553.704,796.6165431014997
555.8458,870.9572157435477
557.987,1001.3437249127801
560.1276,1162.524100045699
562.2675,1450.5963605653742
564.4069,1816.2585142696316
566.5456,2127.758554450339
568.6837,2249.9444562367808
570.8212,1995.5641734806595
572.958,1553.4656375342356
575.0942,1141.4467597941311
577.2299,818.7054361223127
579.3648,677.0895509662851
581.4992,614.7969805865014
583.6329,691.9755944725212
585.766,777.8232559659327
587.8985,860.3378214885715
590.0304,897.4671396840413
592.1616,895.2590505925773
594.2922,824.3613852797398
596.4222,713.3219658585031
598.5515,601.0886061982301
600.6802,484.659113035068
602.8083,393.88128709427747
604.9358,370.95292425453044
607.0626,392.07181645568744
609.1888,486.43575192808476
611.3144,619.5425149813418
613.4393,729.2398850607242
615.5636,813.3256354160803
617.6873,823.347532004861
619.8103,807.8033326512686
621.9327,668.190786946032
624.0544,530.1576364018474
626.1756,388.9016158495033
628.2961,294.47045481821806
630.4159,233.51187894819577
632.5351,252.02361093493982
634.6537,240.0033711388378
636.7716,245.49887740004306
638.8889,273.3078451586762
641.0056,275.7279873998723
643.1216,273.1570143756853
645.237,277.1926335808912
647.3518,185.43254977869856
649.4659,163.87446496039138
651.5793,131.41607926293273
653.6922,111.90509118454156
655.8043,92.23919790927539
657.9159,87.56609550214944
660.0268,92.63347910578523
662.137,100.2390429871466
664.2466,119.68048048686069
666.3556,126.2054839431712
668.4639,104.21174449751652
670.5716,98.94695202928688
672.6786,54.15879537575529
674.785,-2.3050376152714307
676.8907,-31.79685963756947
678.9958,-12.518960357590913
681.1002,-25.323311791165906
683.204,-24.111760889717516
685.3072,-36.4359016247854
687.4097,-25.097087091424328
689.5115,-34.39630639003008
691.6127,-35.33429790110313
693.7132,-26.51145638604612
695.8131,10.172176383372062
697.9123,31.01682348482882
700.0109,55.72270789428421
702.1089,86.34005227753005
704.2061,144.1190787431342
706.3028,190.06000853626756
708.3987,220.36306146090828
710.4941,235.82845542044015
712.5887,246.00640611461313
714.6827,263.497126884894
716.7761,337.600828612688
718.8688,415.71771954442465
720.9608,502.6480045505323
723.0522,619.5418843442685
725.1429,680.8495546124122
727.233,778.2712048463263
729.3224,856.0570177288864
731.4112,851.7071681602538
733.4993,766.8218224800221
735.5867,622.401138510716
737.6735,478.7952664066397
739.7596,356.2543500980928
741.845,265.87852872742224
743.9298,224.11793787443003
746.014,205.22271046014157
748.0974,193.29297716440396
750.1802,202.92886661483954
752.2624,208.3805055061439
754.3439,255.99801850372478
756.4247,339.58152818919007
758.5048,434.88115458416723
760.5843,605.647014314467
762.6631,873.0292196570917
764.7413,1233.1778768325767
766.8188,1692.2430833311673
768.8956,2070.0249243113276
770.9718,2350.173468009094
773.0473,2345.338761960257
775.1221,2179.120830198879
777.1962,2040.8696733056358
779.2697,2004.0352700699996
781.3426,2055.4675788727473
783.4147,2123.2165380543056
785.4862,2141.8820654004267
787.557,1993.6640574647
789.6271,1693.4623893818907
791.6966,1312.6269163501302
793.7654,915.457476632926
795.8335,620.9038953675263
797.901,455.9159885366071
799.9678,371.1435659138133
802.0339,301.3864327136316
804.0993,291.9443904391146
806.1641,244.51723757945456
808.2282,198.20476970439904
810.2916,163.7067799385295
812.3544,129.57305942438506
814.4164,123.553397667436
816.4778,142.5475828774297
818.5385,168.5554020285772
820.5986,286.82664066961934
822.658,447.7610826637456
824.7166,661.108509005885
826.7747,1028.2186962133546
828.832,1409.7414141923864
830.8886,1679.5264225670253
832.9446,1808.67346686391
834.9999,1720.6822758144153
837.0545,1518.452560063185
839.1085,1251.234013048046
841.1618,1024.0763130222958
843.2143,858.5791257269011
845.2662,727.0421066620629
847.3175,643.2649027421949
849.368,571.3471536112911
851.4179,519.9884924806956
853.467,463.18854684828784
855.5155,430.04693901206156
857.5633,394.6632866381251
859.6105,352.73720309211694
861.6569,326.51829779304717
863.7027,285.256176632558
865.7478,272.0004422371094
867.7922,252.8006943806031
869.8359,230.45653011693776
871.8789,216.61754397201184
873.9212,259.33332816715756
875.9629,328.15347275753993
878.0039,386.6775652049855
880.0441,439.25518968979213
882.0837,496.5359265254792
884.1226,536.469351633018
886.1609,593.2550359680272
888.1984,672.0925451214334
890.2352,802.0814387516157
892.2714,840.4712697960313
894.3069,815.9615831713236
896.3416,678.5519153894311
898.3757,605.1917948026767
900.4091,542.2307429778712
902.4418,499.5682754299096
904.4739,554.5039022513847
906.5052,597.7371285392073
908.5358,592.1174538452578
910.5658,494.79437174404484
912.595,388.9173698889117
914.6236,247.93593098525525
916.6515,160.44953384930614
918.6786,120.0076548179295
920.7051,132.85976862350617
922.7309,128.65534879834468
924.756,142.99386754615443
926.7804,199.4247957840962
928.8041,205.9476029993939
930.8272,259.5617566850251
932.8495,257.96672227449835
934.8711,260.71196260570196
936.892,252.54693793686056
938.9123,272.3711059190791
940.9318,328.5839216779932
942.9506,336.13483761553107
944.9688,306.1233028477882
946.9862,242.24876312951073
949.003,150.41066115421563
951.019,102.70843719293771
953.0344,52.041530012610565
955.0491,68.75937735308344
957.063,82.9614164337936
959.0763,94.99708378658943
961.0888,143.81581511370314
963.1007,177.2170451673992
965.1119,197.85020726178482
967.1223,191.164732938797
969.1321,182.96005176187737
971.1412,153.3855913828147
973.1495,156.09077762380184
975.1572,169.0750347731746
977.1641,185.9377855583607
979.1704,178.42845101604416
981.1759,169.64645032353292
983.1808,163.44120087385
985.1849,174.1121183635587
987.1884,213.35861685481268
989.1911,264.38010866863897
991.1932,304.4760039924877
993.1945,313.9957103700135
995.1951,293.5386323001103
997.1951,277.6041711417165
999.1943,260.3917253183927
1001.1928,287.60069047765955
1003.1906,324.0304596631222
1005.1877,419.63042304238115
1007.1841,482.49996754273525
1009.1798,509.6384758951799
1011.1748,490.645326005716
1013.1691,412.3198906839589
1015.1627,291.51153783307745
1017.1556,181.81963123304286
1019.1477,102.39353174871394
1021.1392,19.73259842675361
1023.1299,24.33618928989381
1025.12,56.80366216353377
1027.1093,77.13437462971433
1029.0979,171.6276837024443
1031.0859,211.43294562438768
1033.0731,241.34951492193431
1035.0596,235.77674400714932
1037.0454,181.11398287860084
1039.0304,135.36057917709786
1041.0148,55.26587873230983
1042.9985,2.3292260203043043
1044.9814,-12.000035035508517
1046.9636,-44.672560535011144
1048.9452,-64.53888669773823
1050.926,-11.299103464349173
1052.9061,25.39734396797212
1054.8855,57.601123280080174
1056.8642,69.31290189886295
1058.8421,61.98334667519612
1060.8194,108.21312376683
1062.7959,149.35289871168698
1064.7717,206.55333596556193
1066.7469,246.51509849072136
1068.7213,317.1888471839002
1070.695,387.8752404766901
1072.6679,430.2749336287934
1074.6402,432.9385780211651
1076.6117,412.5168207320121
1078.5826,353.9103045101565
1080.5527,266.71966797926143
1082.5221,173.6455462238864
1084.4908,131.1885716614006
1086.4587,133.49937497271912
1088.426,157.07858552687594
1090.3925,154.3768313579085
1092.3584,191.09473892907226
1094.3235,219.43293315986102
1096.2879,300.14203705881846
1098.2515,380.77267144016696
1100.2145,511.9254541167111
1102.1767,644.0009990935305
1104.1382,790.4999152564524
1106.099,957.9228050512975
1108.0591,1101.770263018887
1110.0185,1213.7428741208196
1111.9771,1263.991212300989
1113.9351,1223.4158393658645
1115.8923,1171.417304482009
1117.8488,1113.5961445818257
1119.8045,1011.5028848835545
1121.7596,940.1880394694672
1123.7139,839.2021123068125
1125.6675,794.3955979609591
1127.6204,824.618982605255
1129.5726,773.422744469096
1131.524,735.8573535356863
1133.4748,638.4732720540042
1135.4248,507.42095491445707
1137.3741,403.90085062272374
1139.3226,313.5134026102751
1141.2705,311.10905026957516
1143.2176,253.68822985796032
1145.164,225.25137452167564
1147.1097,194.4489148700868
1149.0546,122.13127926004563
1150.9989,47.198894103918974
1152.9424,0.5521845927632967
1154.8852,-42.858424554353405
1156.8272,-35.88250862388213
1158.7686,-32.569214746617035
1160.7092,-14.467331587095032
1162.6491,29.97467755660091
1164.5883,103.95849391502634
1166.5267,161.2357984189921
1168.4644,273.05827095972563
1170.4014,376.87758981610205
1172.3377,557.6454305364123
1174.2732,759.113464900176
1176.2081,1055.8833591104585
1178.1421,1402.2067717791924
1180.0755,1778.585350959479
1182.0082,2033.0207306823586
1183.9401,2149.7645271930205
1185.8713,2047.1183364064518
1187.8017,1840.1337327399997
1189.7315,1567.2622701398332
1191.6605,1283.905484150785
1193.5888,1105.4648946450698
1195.5163,995.3420086558481
1197.4432,951.4383221616399
1199.3693,899.8553211875451
1201.2947,870.8944822442854
1203.2193,842.8072728440375
1205.1432,837.7451517900317
1207.0664,827.8595694574306
1208.9889,820.0019678439448
1210.9106,788.6237806686904
1212.8316,793.0264334507656
1214.7519,823.1613438230315
1216.6715,848.7799214880897
1218.5903,920.6835679169317
1220.5084,980.973676092749
1222.4257,1073.8516297919014
1224.3424,1100.4688029810159
1226.2583,1166.2265588882074
1228.1735,1303.9262497369027
1230.0879,1409.769216088268
1232.0016,1551.0067854642066
1233.9146,1667.1902712889332
1235.8269,1716.4209714765948
1237.7384,1706.3001672694381
1239.6492,1647.2791227454964
1241.5592,1690.109084919809
1243.4686,1738.9912843346237
1245.3772,1902.4269346311012
1247.285,2051.2172320604877
1249.1922,2216.9133538497663
1251.0986,2380.366456713751
1253.0042,2472.4776751981235
1254.9092,2565.1481200449034
1256.8134,2637.328877271333
1258.7169,2709.2710072431773
1260.6196,2822.4755439529144
1262.5216,2953.093494300313
1264.4229,3066.8258369603864
1266.3234,3190.7235210772133
1268.2232,3294.087465126616
1270.1223,3359.968555677182
1272.0207,3376.4676463566266
1273.9183,3358.9855571929775
1275.8151,3351.8230744495922
1277.7113,3358.4309507999724
1279.6067,3444.1599053993923
1281.5014,3655.060623818823
1283.3953,4013.4337571876376
1285.2885,4438.529920084606
1287.181,4849.599686954161
1289.0727,5262.143587855443
1290.9637,5506.36210435159
1292.854,5680.90566538431
1294.7435,5649.324644831695
1296.6323,5558.019359762779
1298.5204,5406.240070753354
1300.4077,5194.286982799018
1302.2943,4962.710246832973
1304.1802,4690.3599618455455
1306.0653,4328.686177199966
1307.9497,3996.9888953558648
1309.8333,3680.9180754860135
1311.7162,3440.9236367932963
1313.5984,3293.4554616714186
1315.4798,3183.1633981048526
1317.3605,3102.647261143516
1319.2405,3031.256834005699
1321.1197,2832.7418688832176
1322.9982,2591.3520876553257
1324.876,2432.7371838738595
1326.753,2199.996825177137
1328.6293,2054.3306548761057
1330.5048,1886.0382942817478
1332.3796,1772.06934416174
1334.2537,1683.123386423379
1336.127,1633.7999852532735
1337.9996,1621.6486880068014
1339.8714,1630.569025701337
1341.7426,1616.6605131377764
1343.6129,1667.3726488113248
1345.4826,1663.4549150505864
1347.3515,1654.5067775104371
1349.2196,1671.0276852112056
1351.087,1698.9170706281566
1352.9537,1740.624349526277
1354.8197,1794.8989206813862
1356.6849,1908.4401654630592
1358.5493,2017.047447291885
1360.4131,2154.5701105040516
1362.276,2276.307479265276
1364.1383,2302.708856195577
1365.9998,2226.4735211519
1367.8606,2054.2007309641017
1369.7206,1834.5897201973044
1371.5799,1656.7897028746215
1373.4384,1494.3998746732755
1375.2962,1324.069414702586
1377.1533,1139.6974871278799
1379.0096,910.98324287379
1380.8652,705.5758214679768
1382.7201,545.7743533282674
1384.5742,393.6279618167364
1386.4275,307.88576483771385
1388.2802,231.74687635925466
1390.132,175.6104072705557
1391.9832,127.97546614334851
1393.8336,81.49115979326689
1395.6832,81.95659375619016
1397.5322,58.620872753088406
1399.3803,50.78310068536621
1401.2278,23.842380868218697
1403.0745,23.247816109017094
1404.9204,8.048508976706671
1406.7656,41.543561807757214
1408.6101,53.43207685815287
1410.4538,85.06315596844343
1412.2968,105.73590044486264
1414.139,145.3494107430156
1415.9805,202.80278626114932
1417.8213,263.8951249440188
1419.6613,323.8255227083564
1421.5006,424.093072831944
1423.3391,556.0968653543059
1425.1769,736.1859860740378
1427.0139,1005.8595152287671
1428.8502,1325.6165256942663
1430.6858,1659.3060802877117
1432.5206,1896.9272285701177
1434.3547,2020.5290035094395
1436.188,2041.6104191043619
1438.0206,1985.9204691482778
1439.8524,1903.7581270184764
1441.6835,1846.1723462330488
1443.5139,1794.812061272502
1445.3435,1770.5761881556195
1447.1724,1777.5136249530683
1449.0005,1778.8232520297538
1450.8279,1764.003931975447
1452.6545,1760.104509591686
1454.4804,1783.823812039971
1456.3056,1781.4606488807576
1458.13,1761.3138118362663
1459.9536,1686.9320748141113
1461.7766,1539.164194108771
1463.5987,1389.2589091454001
1465.4202,1195.664943957519
1467.2409,1018.4810086860557
1469.0608,868.0558015152906
1470.88,700.388010444698
1472.6984,594.6763147931979
1474.5161,475.41938687582706
1476.3331,395.46589306085843
1478.1493,355.3644949623699
1479.9648,318.91385023978364
1481.7795,263.56261299887547
1483.5935,259.2094341562861
1485.4067,239.6529619930311
1487.2192,249.04184219803346
1489.031,222.57471806368676
1490.842,224.65023039196922
1492.6522,211.0170177591117
1494.4618,194.42371649484494
1496.2705,183.26896081873247
1498.0785,167.60138300610424
1499.8858,164.31961349960102
1501.6924,142.67228106585117
1503.4981,120.90801282828807
1505.3032,120.37543448362385
1507.1075,94.2231705194904
1508.911,81.7498442197707
1510.7138,72.90407792611404
1512.5159,53.93449316267606
1514.3172,45.63971072457434
1516.1178,12.818350867578829
1517.9176,12.669033391064659
1519.7166,-15.609622033774485
1521.515,-16.718995862437623
1523.3126,-3.0603126102992064
1525.1094,-15.734629769967341
1526.9055,-20.24297426152907
1528.7008,-23.33621581612124
1530.4954,-33.565021937571146
1532.2893,-25.979827000911882
1534.0824,-37.3307300666097
1535.8747,-8.517570656656972
1537.6663,-8.03981535905632
1539.4572,2.2031543287216664
1541.2473,-4.037962773041272
1543.0367,21.08753213390719
1544.8253,51.88037818706516
1546.6132,84.79131431305814
1548.4003,115.62107891970845
1550.1867,145.82040956692572
1551.9723,198.5400426584083
1553.7572,287.9807131396533
1555.5414,379.74315397075634
1557.3247,486.2280952320084
1559.1074,614.5862632062685
1560.8893,746.5183793141164
1562.6705,870.1751588302695
1564.4509,967.3573095642646
1566.2305,1035.965530623886
1568.0094,1052.0005114433466
1569.7876,1068.8129310972045
1571.565,1063.003458140016
1573.3417,1053.4727504382063
1575.1176,1086.9714552281685
1576.8928,1098.3002092115676
1578.6672,1129.2096382203563
1580.4409,1174.0503571034847
1582.2138,1226.2229694178086
1583.986,1302.0280669796816
1585.7575,1378.5162293432259
1587.5282,1479.6380230422847
1589.2981,1566.2440008255408
1591.0673,1660.1847006452995
1592.8358,1755.9606447914243
1594.6035,1828.4223389519366
1596.3704,1906.3202712552488
1598.1366,1993.1049115455526
1599.9021,2073.1767106038415
1601.6668,2134.4860992800627
1603.4308,2225.883487692396
1605.194,2354.1192646141667
1606.9564,2472.7437965598624
1608.7182,2667.05742650279
1610.4791,2901.560472688819
1612.2394,3126.8532266932443
1613.9988,3355.1359510757584
1615.7576,3570.9588771275216
1617.5156,3698.1722025883387
1619.2728,3738.6260894884217
1621.0293,3649.7706628762644
1622.785,3468.5560104141
1624.54,3216.832183266455
1626.2942,2952.599197912297
1628.0477,2650.7570386622688
1629.8005,2402.6556603010263
1631.5525,2182.494991105655
1633.3037,1974.6249353266876
1635.0542,1801.6453753897063
1636.804,1697.7061739740493
1638.553,1578.157175742599
1640.3013,1540.0482083811794
1642.0488,1523.7790837940438
1643.7955,1532.899598484963
1645.5416,1567.9595337199175
1647.2868,1635.858655435895
1649.0313,1719.496713890288
1650.7751,1806.5234429819034
1652.5181,1882.1385594145818
1654.2604,2000.0917618269295
1656.0019,2135.182730036168
1657.7427,2310.4111238586
1659.4828,2467.0265817587037
1661.222,2559.028719096846
1662.9606,2576.567126563129
1664.6984,2433.7413692573696
1666.4354,2201.250986513715
1668.1717,1868.9454933288994
1669.9072,1541.574382687153
1671.642,1268.7371288832492
1673.3761,1033.083190796221
1675.1094,848.0120146177323
1676.8419,718.8730362086148
1678.5737,588.1656829495805
1680.3048,512.2893750326152
1682.0351,451.6935267680474
1683.7646,378.92754734331356
1685.4934,347.6408414289149
1687.2215,301.6828099060781
1688.9488,265.9028501796224
1690.6754,228.40035663753906
1692.4012,206.3247210087925
1694.1263,176.8753327383456
1695.8506,165.1515792079149
1697.5742,172.0528460304663
1699.297,131.22851716744754
1701.0191,127.07797485978017
1702.7404,100.3506000361017
1704.461,74.19577235426868
1706.1808,69.91287046863499
1707.8999,75.3012722915953
1709.6182,73.61035503641915
1711.3358,58.08949516336338
1713.0527,49.188068396584185
1714.7688,32.855449879342586
1716.4841,35.34101426302004
1718.1987,41.29413587044405
1719.9126,33.764188671031434
1721.6257,27.250546221259583
1723.338,25.102581739964762
1725.0496,37.26966817347761
1726.7605,32.65117821710487
1728.4706,18.396484193458264
1730.18,20.204958098638144
1731.8886,31.975971744782555
1733.5964,19.45889674198179
1735.3036,28.15310438056622
1737.0099,13.507965756279418
1738.7156,17.27285168333492
1740.4204,16.74713284086647
1742.1246,13.8801797352819
1743.8279,6.221362705517095
1745.5306,7.870051951708319
1747.2325,-2.424382388222739
1748.9336,-15.862570255052105
1750.634,-24.29511736997665
1752.3336,-7.272470987116776
1754.0325,-14.744835652370739
1755.7307,5.237656740346665
1757.4281,-5.124978401970338
1759.1247,-9.182725724704824
1760.8206,5.814481325294537
1762.5158,17.76680103660692
1764.2102,-4.075608360331898
1765.9039,-6.012588812753393
1767.5968,2.856058447438272
1769.289,13.630592254100293
1770.9804,9.161271412529914
1772.6711,3.698354591719635
1774.361,15.692100369048376
1776.0502,25.39276728491268
1777.7386,14.150613722790013
1779.4263,23.76589781222856
1781.1132,20.03887754127186
1782.7994,23.86981066030421
1784.4849,29.208954719322037
1786.1696,20.45656702962401
1787.8535,23.262904610420946
1789.5367,32.37822427635774
1791.2192,37.35278260945165
1792.9009,22.386835867939
1794.5818,29.830639936527632
1796.2621,32.68445047605837
1797.9415,37.6985228490671
1799.6202,25.323112091245093
1801.2982,41.45847286129924
1802.9755,39.454859564704975
1804.6519,44.0625261923542
1806.3277,43.33172634059133
1808.0027,35.212713165135256
1809.6769,48.85573938838752
1811.3504,45.161057380621514
1813.0231,54.27891902355418
1814.6951,63.259575747290455
1816.3664,62.603278439146834
1818.0369,73.1602773538441
1819.7067,66.5308221200712
1821.3757,66.31516163491415
1823.044,51.41354413015188
1824.7115,60.02621717441252
1826.3783,60.80342782218895
1828.0443,62.695422527712935
1829.7096,72.30244713718207
1831.3741,74.37474686984206
1833.0379,69.81256622191427
1834.701,80.86614894587365
1836.3633,79.28573809607087
1838.0248,80.421575918195
1839.6856,77.67390386507986
1841.3457,89.8429625853421
1843.005,92.82899195086179
1844.6636,96.23223093508864
1846.3214,93.1529175831829
1847.9785,96.59128897798291
1849.6349,99.49758127079872
1851.2904,96.67202964702824
1852.9453,101.76486829709484
1854.5994,101.27633044470281
1856.2528,109.30664829590751
1857.9054,105.55605304400342
1859.5572,106.37477478921892
1861.2083,116.16304257622255
1862.8587,107.87108438593555
1864.5084,106.19912703764862
1866.1572,111.89739627194285
1867.8054,111.16611676740717
1869.4528,107.45551208365737
1871.0994,121.21580466864975
1872.7453,113.69721589578512
1874.3905,113.2999659263071
1876.0349,107.07427378448756
1877.6786,120.97035736160024
1879.3215,131.5884334781765
1880.9637,129.32871774504315
1882.6051,136.49142445714392
1884.2458,122.57676661613618
1885.8858,130.3349558587645
1887.525,130.21620259600604
1889.1634,114.12071593549013
1890.8011,124.74870368268421
1892.4381,125.00037250184914
1894.0743,135.9259278097611
1895.7098,127.02557377319295
1897.3446,136.4995131996584
1898.9786,124.64794762641554
1900.6118,138.22107722572764
1902.2443,129.81910092337944
1903.8761,128.14221626294557
1905.5071,124.74061948980943
1907.1374,129.86450556793307
1908.7669,125.1640682138709
1910.3957,122.4394998455341
1912.0237,128.6909916291927
1913.651,132.41873350672176
1915.2776,124.92291413308885
1916.9034,124.10372083907396
1918.5285,119.11133970622859
1920.1528,123.09595557506736
1921.7764,123.60775209499252
1923.3992,125.54691168444833
1925.0213,110.31361552580165
1926.6427,105.50804354595061
1928.2633,99.53037456865809
1929.8832,125.78078636260761
1931.5023,115.30945570117865
1933.1207,119.41655809994472
1934.7383,117.10226792138496
1936.3552,116.26675833381341
1937.9714,114.66020133452298
1939.5868,105.03276775813879
1941.2015,115.78462729268381
1942.8154,116.31594857585492
1944.4286,108.37689908750372
1946.041,118.56764514432257
1947.6528,106.28835197923559
1949.2637,106.13918363949074
1950.8739,103.52030310945406
1952.4834,110.93187231210027
1954.0921,101.12405213520105
1955.7001,109.99700235721025
1957.3074,112.45088174534135
1958.9139,112.03584796683776
1960.5197,104.75205756443506
1962.1247,92.19966596051063
1963.729,103.52882752992173
1965.3325,103.53969572553069
1966.9353,94.4824229649114
1968.5374,104.90716063024206
1970.1387,108.36405915887667
1971.7393,101.1532679390989
1973.3392,95.82493527555175
1974.9383,87.7792084613468
1976.5366,97.26623383134597
1978.1342,92.98615684262018
1979.7311,103.08912197957875
1981.3273,94.97527279676956
1982.9227,89.5447518178496
1984.5173,87.29770061672252
1986.1112,84.73425987184623
1987.7044,92.75456938870298
1989.2968,91.15876812543115
1990.8885,92.24699411262623
1992.4795,90.21938446929516
1994.0697,90.37607539197666
1995.6592,83.56720217501515
1997.2479,81.39289920899569
1998.8359,87.50330004883176
2000.4232,87.54853743550916
2002.0097,93.57874323498027
2003.5955,82.19404843771258
2005.1805,90.3945830983871
2006.7648,89.5304764497439
2008.3484,85.65185682057813
2009.9312,95.80885164438132
2011.5133,85.55158749812563
2013.0946,88.78019000069571
2014.6752,100.19478391546113
2016.2551,79.14549311799033
2017.8342,88.53244048190436
2019.4126,90.10574808937054
2020.9902,73.56553713723292
2022.5672,93.86192792127758
2024.1433,95.1450400016356
2025.7188,89.41499199981831
2027.2935,90.3219015858881
2028.8674,87.06588553575693
2030.4406,87.89705972211823
2032.0131,87.0655391470068
2033.5849,69.62143793348707
2035.1559,78.76486933396859
2036.7261,83.7459459046463
2038.2957,80.9147794140672
2039.8645,81.57148079332035
2041.4325,93.16616016434659
2042.9998,85.0489268333738
2044.5664,85.51988917496806
2046.1323,78.72915471320664
2047.6974,81.82683011696781
2049.2617,79.1630212678391
2050.8254,91.38783322913912
2052.3883,82.75137027255744
2053.9504,85.85373575590563
2055.5118,80.44503220948218
2057.0725,89.97536130504852
2058.6325,78.54482390991711
2060.1917,82.75351999164639
2061.7502,83.25154873234771
2063.3079,80.23900848659707
2064.8649,75.21599677645486
2066.4212,82.6826103215925
2067.9767,74.68894508952121
2069.5315,74.48509622092706
2071.0856,72.32115810960727
2072.6389,74.79722440450871
2074.1915,69.66338803136694
2075.7433,70.46974116794513
2077.2945,74.11637529537336
2078.8448,67.30338119008456
2080.3945,71.23084888734843
2081.9434,80.19886774940153
2083.4916,70.50752642617249
2085.039,62.50691276560224
2086.5857,68.19711391055603
2088.1317,77.87821637883064
2089.677,68.25030600625155
2091.2215,71.86346784986313
2092.7652,62.917786284206954
2094.3083,66.26334496519007
2095.8506,69.25022691954234
2097.3921,70.97851451136103
2098.933,63.448289412241365
2100.4731,75.15963258399404
2102.0124,64.46262435394681
2103.5511,75.7573442978321
2105.089,74.29387134675665
2106.6261,66.92228367425378
2108.1626,71.99265871091893
2109.6983,66.25507321812529
2111.2332,76.20960323731902
2112.7675,73.40632414739684
2114.301,72.34531056515993
2115.8337,68.22663637334597
2117.3657,74.45037473123989
2118.897,73.26659811585978
2120.4276,66.07537825972133
2121.9575,62.2767861626736
2123.4866,74.2708921638125
2125.0149,68.70776597946622
2126.5426,62.237476583254875
2128.0695,64.46009226172123
2129.5956,69.6756806790338
2131.1211,65.43430885476107
2132.6458,71.33604311171462
2134.1698,66.83094911836372
2135.693,62.71909182981733
2137.2155,65.95053553287607
2138.7373,67.47534388714917
2140.2584,65.39357989274083
2141.7787,64.00530587500225
2143.2983,64.21058350534918
2144.8171,66.50947381514425
2146.3353,56.35203719364449
2147.8527,59.98833336501298
2149.3693,62.7684214898926
2150.8853,66.8923601290428
2152.4005,58.01020721553982
2153.9149,64.02202001353692
2155.4287,60.42785520708526
2156.9417,69.4277688400166
2158.454,58.27181635188447
2159.9655,60.160052487964435
2161.4764,72.44253141081447
2162.9865,56.26930668139187
2164.4958,60.29043113622879
2166.0045,58.105957049165
2167.5124,57.965936091136086
2169.0195,58.070419352018575
2170.526,56.869457342029364
2172.0317,51.46309999068194
2173.5367,53.551396658795284
2175.0409,61.13439619255723
2176.5445,61.9621469026423
2178.0473,61.53469648838143
2179.5494,55.25209202948383
2181.0507,63.91437999031257
2182.5513,55.67160628270938
2184.0512,55.52381617937294
2185.5504,54.77105439628622
2187.0488,60.01336509419457
2188.5465,62.05079188613331
2190.0435,56.23337778500422
2191.5397,55.66116518320189
2193.0353,53.78419591078716
2194.5301,52.20251124120989
2196.0241,51.81615191007813
2197.5175,53.275158130975115
2199.0101,45.429569599322804
2200.502,43.07942547779169
2201.9931,56.124764474757285
2203.4835,44.115624867801216
2204.9733,39.8020443732579
2206.4622,47.48406026630619
2207.9505,45.46170942410447
2209.438,42.985028248971275
2210.9248,42.30405268860807
2212.4109,45.4688182608669
2213.8962,43.37936006055952
2215.3809,37.385712727809164
2216.8648,43.58791046894578
2218.3479,40.43598711644256
2219.8304,40.47997606689353
2221.3121,45.069910312533466
2222.7931,44.70582244079742
2224.2733,39.68774458842188
2225.7529,48.815708445085306
2227.2317,43.23974530358953
2228.7098,44.059885968579465
2230.1872,38.72616081230353
2231.6638,38.1385997664114
2233.1397,41.59723237529181
2234.6149,35.15208780194803
2236.0894,30.103194793412285
2237.5632,36.90058174519561
2239.0362,26.494276751777875
2240.5085,33.834307538633425
2241.9801,32.57070156629413
2243.4509,43.00348595694993
2244.921,29.58268750708362
2246.3904,34.05833258314328
2247.8591,34.980447255750505
2249.3271,35.099057254944114
2250.7943,28.264187960958907
2252.2608,30.225864403039623
2253.7266,31.234111327790174
2255.1917,31.538953179556188
2256.656,25.6904140903423
2258.1197,27.38851787676424
2259.5826,25.73328809853399
2261.0447,21.67474804147855
2262.5062,27.6129207340922
2263.9669,29.4478289881215
2265.4269,21.079495339184746
2266.8862,29.657942028421758
2268.3448,27.783191086177908
2269.8026,25.005264246218758
2271.2598,25.924182964478632
2272.7162,28.88996844683993
2274.1719,24.902641639943454
2275.6268,30.412223201530196
2277.0811,33.51873354031534
2278.5346,33.1721927608919
2279.9874,30.172620632666735
2281.4395,31.770036593324107
2282.8908,24.964459778822516
2284.3414,30.95590900742002
2285.7914,24.144402847730362
2287.2406,29.279959558808855
2288.689,26.062597158266726
2290.1368,31.042333370916367
2291.5838,28.719185660943822
2293.0302,28.09317118211186
2294.4758,29.064306800991517
2295.9206,33.032609103222285
2297.3648,31.998094383800435
2298.8082,29.860778607396128
2300.251,33.82067741869878
2301.693,26.42780616379025
2303.1343,28.232179850545435
2304.5748,28.783813222562117
2306.0147,31.63272074111569
2307.4538,28.828916579644556
2308.8922,32.12241459526001
2310.3299,20.563228356784634
2311.7669,32.201371111817366
2313.2031,25.13685590232558
2314.6387,26.76969544826352
2316.0735,32.149902218216425
2317.5076,28.52748841307232
2318.941,25.30246591222101
2320.3737,28.12484630977724
2321.8056,32.84464094683187
2323.2369,22.56186088322761
2324.6674,19.526516850361645
2326.0972,29.188619354013213
2327.5263,29.048178704696284
2328.9547,35.35520492103933
2330.3823,30.35970773118936
2331.8092,28.561696509741637
2333.2355,22.961180327694592
2334.661,29.958167970430054
2336.0858,28.65266799371807
2337.5098,26.644688653747608
2338.9332,31.134237920181818
2340.3558,26.12132349623687
2341.7778,27.655952773786453
2343.199,28.0381328834917
2344.6195,32.667870679453586
2346.0393,24.59517273539234
2347.4583,20.370045298349282
2348.8767,20.942494369414817
2350.2943,27.51252574597902
2351.7113,33.080145016006895
2353.1275,33.39535749233903
2354.543,37.70816815701539
2355.9578,30.76858165812189
2357.3718,29.47660226666335
2358.7852,20.082233945958706
2360.1978,27.535480364561295
2361.6098,31.73634499020261
2363.021,28.134831015260374
2364.4315,27.830941314749225
2365.8413,33.42467848233616
2367.2504,21.816044833378555
2368.6587,29.805042348986717
2370.0664,30.591672792109875
2371.4733,32.675937627647954
2372.8795,29.107838014584217
2374.285,27.68737478514288
2375.6899,26.264548480470467
2377.0939,29.539359364839584
2378.4973,29.511807439877998
2379.9,27.131892411819877
2381.3019,33.99961369178152
2382.7032,26.364970419560336
2384.1037,35.977961394958015
2385.5035,24.638585154126417
2386.9027,25.046839873438103
2388.3011,28.552723482880765
2389.6987,24.456233661974238
2391.0957,29.107367804711203
2392.492,27.206123060521918
2393.8876,18.152496287763938
2395.2824,20.74648407273355
2396.6765,22.68808282020177
2398.07,16.077288727475434
2399.4627,18.51409776498076
2400.8547,20.6485057423713
2402.246,29.930508284159487
2403.6366,25.860100808372977
2405.0265,17.88727843373408
2406.4156,18.762036020365144
2407.8041,24.434368249516183
2409.1918,20.104269614816985
2410.5789,24.471734365554084
2411.9652,26.436756549972415
2413.3508,24.249329971598513
2414.7358,16.709448169591838
2416.12,20.31710444061912
2417.5035,24.22229191425299
2418.8863,13.17500351689523
2420.2684,28.6752319327245
2421.6497,20.522969714169676
2423.0304,16.018209126906868
2424.4104,22.110942231382978
2425.7896,22.351160927862793
2427.1682,24.638856895502215
2428.546,25.274021589945562
2429.9232,26.906646220448522
2431.2996,22.48672174352771
2432.6753,19.96423884663352
2434.0503,21.939187992349503
2435.4246,16.61155944361667
2436.7982,24.431343243984543
2438.1711,27.848529270887184
2439.5433,25.663107157445268
2440.9148,15.975066258294532
2442.2856,24.234395671440154
2443.6557,17.84108433513643
2445.025,25.59512094529424
2446.3937,25.146494019413524
2447.7617,20.24519181904367
2449.1289,21.49120235426915
2450.4955,14.28451343272269
2451.8613,27.42511264712556
2453.2265,22.412987447353885
2454.5909,17.248125009032947
2455.9546,28.430512283658516
2457.3177,28.860136050245274
2458.68,18.486982803503224
2460.0416,14.961038749541103
2461.4025,20.382289909598057
2462.7627,20.200722155303254
2464.1222,22.216321154463287
2465.4811,25.029072372877636
2466.8392,27.988961054183108
2468.1966,27.09597219172599
2469.5533,28.200090498963277
2470.9093,18.851300418392213
2472.2645,33.59958611050922
2473.6191,33.19493154729787
2474.973,30.737320364746097
2476.3262,31.92673586689284
2477.6787,27.813161050404005
2479.0305,31.746578592678247
2480.3816,33.8769708929828
2481.7319,31.504320033119768
2483.0816,23.8286077561213
2484.4306,26.29981548997688
2485.7789,33.91792442438981
2487.1264,27.232915486065565
2488.4733,33.144769262530815
2489.8195,28.603466068983153
2491.165,30.758985889173005
2492.5097,28.611308420815988
2493.8538,28.06041305403818
2495.1972,26.40627889285281
2496.5398,32.19888476066933
2497.8818,24.83820921683457
2499.2231,31.324230498706697
2500.5637,22.756926595262314
2501.9035,33.4862751822356
2503.2427,35.61225370779198
2504.5812,34.93483928523415
2505.919,25.30400867174245
2507.256,29.01973827514894
2508.5924,22.432004250245768
2509.9281,23.090782461627555
2511.2631,32.14604854956917
2512.5974,26.947777923437627
2513.9309,34.74594567113979
2515.2638,30.340526611104508
2516.596,27.331495214301583
2517.9275,31.01882564829566
2519.2583,32.35249180733638
2520.5884,37.082467275485214
2521.9178,26.358725313279024
2523.2465,27.98123881043
2524.5745,33.049980393063436
2525.9018,27.114922407492486
2527.2284,29.976036869530787
2528.5543,31.533295523842924
2529.8796,31.236669815333585
2531.2041,28.286130873574507
2532.5279,32.181649515770914
2533.851,35.373196276266754
2535.1735,31.860741367589526
2536.4952,32.59425464853473
2537.8163,36.32370565929074
2539.1366,41.24906361410348
2540.4562,34.820297363982036
2541.7752,46.43737534744457
2543.0935,31.600265654806833
2544.411,41.95893591201087
2545.7279,37.2133534289963
2547.0441,42.013485096113584
2548.3596,41.909297431579944
2549.6744,41.050756533477795
2550.9885,40.087828080796726
2552.3019,39.42047734201918
2553.6146,42.99866918474913
2554.9266,41.02236808238598
2556.2379,35.54153807834285
2557.5485,38.95614280580946
2558.8585,38.41614554256017
2560.1677,43.72150917680841
2561.4762,48.922196212606366
2562.7841,42.21816871679124
2564.0913,42.65938826697857
2565.3977,50.1458160186026
2566.7035,39.727412700503805
2568.0086,40.05413854006474
2569.313,52.52595336739398
2570.6167,44.89281661205899
2571.9197,50.70468717836792
2573.222,50.211523521701054
2574.5236,44.41328359039176
2575.8246,50.50992483065875
2577.1248,53.50140424458789
2578.4244,46.58767832916595
2579.7232,50.368703046366136
2581.0214,44.79443389228504
2582.3189,53.31482585933219
2583.6157,51.92983349197266
2584.9118,51.839410801523684
2586.2072,55.39351128000402
2587.5019,58.192087901038974
2588.7959,59.93509308431891
2590.0893,61.972478667613586
2591.3819,65.40419588934219
2592.6739,56.83019536819921
2593.9652,56.70042706883754
2595.2557,60.914840387608024
2596.5456,62.47338415385758
2597.8348,70.1760065877848
2599.1234,66.02265528485486
2600.4112,59.26327713877288
2601.6983,63.29781838301767
2602.9848,67.52622465843513
2604.2705,59.44844097289325
2605.5556,70.81441165899798
2606.84,61.77408045487101
2608.1237,53.42739039049002
2609.4067,67.32428387809227
2610.689,63.014702795641085
2611.9707,62.59858834785729
2613.2516,63.12588110931489
2614.5319,57.59652102860247
2615.8115,62.260447423049584
2617.0903,66.26759903402075
2618.3685,62.21791398027608
2619.6461,63.961329717900014
2620.9229,61.297783080797785
2622.199,62.127210263261304
2623.4745,64.69954684660502
2624.7493,62.26472779087118
2626.0234,62.372687409107186
2627.2968,62.92335939171312
2628.5695,62.766676805362636
2629.8415,51.65257208749574
2631.1128,62.7809770478857
2632.3835,58.0018229797804
2633.6535,60.515040548618174
2634.9228,64.4205598398189
2636.1914,60.31831033365228
2637.4593,58.75822086618251
2638.7265,59.9902196702904
2639.9931,61.014234391274954
2641.259,58.5801920745331
2642.5242,56.98801915531925
2643.7887,59.63764148308644
2645.0525,57.628984337407246
2646.3156,57.261972401478374
2647.5781,59.68652978220666
2648.8398,56.20258001387924
2650.1009,53.91004603391832
2651.3613,55.20885021772028
2652.6211,58.54891440158127
2653.8801,55.9301598697092
2655.1385,60.55250732082311
2656.3961,55.11587689434066
2657.6531,60.320188124154356
2658.9094,51.41535999299816
2660.1651,59.651310880404424
2661.42,60.177958651752135
2662.6743,58.59522057590709
2663.9279,64.60301331995583
2665.1808,67.45125296503284
2666.433,69.58985494624238
2667.6846,67.31873402417642
2668.9354,72.83780426352848
2670.1856,69.29697905580485
2671.4351,69.04617106413372
2672.6839,72.68529225867377
2673.9321,68.36425391912195
2675.1795,77.78296659832267
2676.4263,82.9413401654777
2677.6724,78.63928371195891
2678.9179,81.37670549972529
2680.1626,76.8535130043428
2681.4067,84.56961288761056
2682.6501,76.42491104279247
2683.8928,71.66931251745666
2685.1348,78.55272159492222
2686.3761,70.62504184181535
2687.6168,71.93617603923525
2688.8568,66.2360262620308
2690.0961,65.02449386568912
2691.3348,72.80147954333745
2692.5727,65.41688333785822
2693.81,61.920604564119
2695.0466,63.612541882818505
2696.2826,63.04259333544985
2697.5178,64.36065632738041
2698.7524,62.766627633552105
2699.9863,65.91040338530001
2701.2195,66.64187908629333
2702.452,62.46094958109728
2703.6839,70.06750904785832
2704.9151,81.26145104011351
2706.1456,81.39266841072521
2707.3755,82.76105319994127
2708.6046,89.81649663408314
2709.8331,89.00888911186155
2711.0609,92.13812013382261
2712.2881,88.15407831042342
2713.5145,103.65665133074026
2714.7403,104.34572600230854
2715.9654,109.37118809609768
2717.1899,117.93292233961984
2718.4136,120.78081236667532
2719.6367,126.61474063173546
2720.8591,138.18458838146336
2722.0809,135.19023559637498
2723.3019,146.3815608751405
2724.5223,155.45844146452788
2725.7421,154.97075314748957
2726.9611,157.668370152394
2728.1795,156.25116515790205
2729.3972,151.7690092659911
2730.6142,139.2217720161268
2731.8306,129.25932143008498
2733.0462,131.38152413742353
2734.2612,114.13824547510757
2735.4756,108.07934946628689
2736.6892,95.55469899272947
2737.9022,86.0141558554094
2739.1145,89.05758089975421
2740.3262,82.03483411105009
2741.5372,76.2957745840074
2742.7475,63.69026059298841
2743.9571,62.01814964939746
2745.1661,55.67929862773639
2746.3744,54.62356378232579
2747.582,39.55080081069332
2748.7889,44.860864864130974
2749.9952,30.803610698422972
2751.2008,34.22889262074477
2752.4057,30.186564630235637
2753.61,30.126480383746184
2754.8136,27.448493236261413
2756.0165,28.952456241501636
2757.2188,20.7382221787023
2758.4204,20.205643537574076
2759.6213,21.104572600445977
2760.8215,21.934861447590606
2762.0211,23.74636194823512
2763.22,19.338925752258262
2764.4182,19.21240427207516
2765.6158,15.016648726712106
2766.8127,12.15151014307122
2768.009,10.566839397888373
2769.2045,13.11248724638449
2770.3994,4.338304338112266
2771.5936,6.7941411914994205
2772.7872,-2.5201517184091813
2773.9801,1.5452760154900034
2775.1723,0.7402999766160292
2776.3639,-4.3852042670648075
2777.5548,-7.33136115498894
2778.745,-2.4982513184023105
2779.9346,-7.035882148253165
2781.1235,-7.444236077959374
2782.3117,-14.47322525247614
2783.4992,-7.272687448840429
2784.6861,-6.092315856569144
2785.8723,-6.081731011031536
2787.0579,-5.540492585362017
2788.2428,-3.16809949620216
2789.427,-6.213995310673056
2790.6106,-3.9775919465819243
2791.7935,1.8917607560770193
2792.9757,3.3947526934530288
2794.1573,4.382073742778118
2795.3382,10.054413747336866
2796.5184,9.212462506593283
2797.698,16.00690971946733
2798.8769,15.938444992754455
2800.0551,24.557757773181038
2801.2327,29.21553734808907
2802.4096,28.112472759242962
2803.5859,42.54925275625243
2804.7615,48.8765658076025
2805.9364,54.64509995628623
2807.1106,62.455542756531315
2808.2842,79.35858121611494
2809.4572,88.8049017182584
2810.6294,107.84518985259763
2811.801,127.18013032071934
2812.972,143.41040674575885
2814.1423,164.38670147905003
2815.3119,189.20969543782297
2816.4808,220.53006789544088
2817.6491,233.69849623316986
2818.8167,267.4656556269759
2819.9837,302.28221891583956
2821.15,326.29885626408526
2822.3157,366.61623481321527
2823.4807,396.1850184417434
2824.645,433.5558673620212
2825.8086,463.2794378245503
2826.9716,497.3563817442737
2828.134,523.13734640334
2829.2957,554.1729741103338
2830.4567,577.3139019424673
2831.617,593.3107614352223
2832.7767,584.4141783509422
2833.9358,593.1247725188628
2835.0941,582.1431579240781
2836.2519,565.4199426204349
2837.4089,560.8557288403481
2838.5653,546.0011131620336
2839.7211,538.00668655515
2840.8761,526.0730345293457
2842.0306,539.4007372142011
2843.1843,543.4903694785673
2844.3374,557.2425007972878
2845.4899,589.9076952103024
2846.6417,608.1365111851262
2847.7928,639.1795012901975
2848.9433,674.9872120125899
2850.0931,712.6601834475816
2851.2422,736.3989489405794
2852.3907,768.4040347103881
2853.5385,789.1759596118228
2854.6857,818.465234815659
2855.8323,850.0723636009122
2856.9781,867.2478410619462
2858.1233,907.3921537924009
2859.2679,935.455779713438
2860.4118,960.2391876722976
2861.555,984.6928371616627
2862.6976,1013.5171780718242
2863.8395,1022.4126504461444
2864.9808,1051.6796841928146
2866.1214,1055.2186989958996
2867.2614,1070.3301040226668
2868.4007,1076.664297888197
2869.5393,1084.2216685042704
2870.6773,1098.9025930160249
2871.8146,1090.9074377263805
2872.9513,1105.136557949233
2874.0874,1086.6402980894034
2875.2227,1091.0689915003472
2876.3574,1071.222960669117
2877.4915,1063.9025171720757
2878.6249,1042.0079618733575
2879.7577,1021.9895849980704
2880.8898,1022.597666351244
2882.0212,994.9324755180114
2883.152,1009.1942718575293
2884.2821,993.7333047796304
2885.4116,990.299813602204
2886.5405,986.9940277058076
2887.6686,994.0161665679998
2888.7962,1001.1664397963998
2889.923,1004.1950470584657
2891.0493,1009.0021780099904
2892.1748,1027.1880122648172
2893.2997,1024.652719346768
2894.424,1031.1464585077845
2895.5476,1042.4693787532808
2896.6706,1051.221618777208
2897.7929,1054.2033068488226
2898.9145,1077.0645607251658
2900.0355,1086.6554876212454
2901.1559,1106.3761839814242
2902.2756,1120.62673538351
2903.3946,1134.907216341549
2904.513,1147.5676901633199
2905.6308,1179.2582088075296
2906.7479,1172.0288127572085
2907.8643,1195.9795307028044
2908.9801,1195.4103796144777
2910.0953,1201.3713645025932
2911.2098,1206.8124784234124
2912.3236,1201.1837024194833
2913.4368,1195.7350054652295
2914.5494,1182.1163445232373
2915.6613,1171.2776645987437
2916.7725,1143.5688988758225
2917.8831,1138.4899688257708
2918.9931,1119.4407844841976
2920.1024,1099.7212445018113
2921.211,1088.4312363349138
2922.319,1086.0206364425944
2923.4264,1076.13931039963
2924.5331,1081.9371129205906
2925.6391,1070.063887958655
2926.7445,1072.5194686476298
2927.8493,1079.5036774206835
2928.9534,1075.5663259857902
2930.0569,1079.7572152558864
2931.1597,1098.1761353882468
2932.2619,1104.1228657425727
2933.3634,1093.947174696805
2934.4643,1106.5488195876555
2935.5645,1091.0775468123657
2936.6641,1092.483091702687
2937.763,1081.6151786795976
2938.8613,1061.1735212392432
2939.959,1040.6578220616188
2941.056,1008.0177732149848
2942.1523,965.0530563610225
2943.248,920.6633430812369
2944.3431,875.3482953066019
2945.4375,830.1075657614585
2946.5313,758.7407984166648
2947.6244,717.1476289420035
2948.7169,665.1776854198495
2949.8087,605.830588761101
2950.8999,565.6559532248801
2951.9904,522.303387012003
2953.0803,483.32249266672596
2954.1696,455.5628675102723
2955.2582,419.6241040306401
2956.3462,403.3057901601993
2957.4335,379.6075096350785
2958.5202,358.928842158349
2959.6062,349.9693636370071
2960.6916,341.82864638876106
2961.7764,317.7062592316254
2962.8605,315.2517675653281
2963.9439,318.5147336125352
2965.0267,309.24471644339474
2966.1089,298.14127194290757
2967.1905,310.5039529036279
2968.2714,301.43230913669714
2969.3516,311.47588734821755
2970.4312,309.73423122996854
2971.5102,319.7068813589709
2972.5885,326.34337521490323
2973.6662,322.59324708037525
2974.7432,323.506027974563
2975.8196,331.7312456907101
2976.8954,325.41842478700016
2977.9705,320.1170865043043
2979.045,322.8767488293095
2980.1188,314.79692654753217
2981.192,309.12713121572125
2982.2645,298.81687124265665
2983.3364,283.1656519458473
2984.4077,279.3729756546332
2985.4783,262.5883418666985
2986.5483,244.11124728599725
2987.6177,232.59118599060054
2988.6864,212.62764961746683
2989.7545,203.52012747764292
2990.8219,182.8181067558993
2991.8887,156.6710726018054
2992.9548,147.6785083367497
2994.0204,131.18989571541
2995.0852,117.10471501567906
2996.1495,104.32244520355084
2997.2131,93.44256407397262
2998.276,78.56454837866687
2999.3383,68.48787393493086
3000.4,61.862015774416534
3001.4611,51.4864482438972
3002.5215,42.76064507152614
3003.5812,33.28407947059213
3004.6404,25.156224226778022
3005.6989,24.72655179292562
3006.7567,16.844534370314932
3007.8139,14.45964391296036
3008.8705,10.021352206431317
3009.9264,9.179130891700936
3010.9818,-0.41754849047083553
3012.0364,-1.2192144911152525
3013.0905,-7.27639148995425
3014.1439,-1.139591686757342
3015.1966,-6.259254590143058
3016.2487,-3.985808324209046
3017.3002,0.6303815169002576
3018.3511,-3.8610108427344585
3019.4013,-6.810311185336019
3020.4509,-1.8678067216291367
3021.4998,-6.183716627329943
3022.5481,-2.8582414187655445
3023.5958,-2.9915198369338896
3024.6428,-6.2836620690011955
3025.6892,-4.3847484168507265
3026.735,0.5552035914183193
3027.7802,-0.8637797686566842
3028.8247,4.25832777290978
3029.8685,4.971561115263
3030.9118,12.47595511496516
3031.9544,6.271544578862745
3032.9963,10.858364189042874
3034.0376,8.136448564876986
3035.0783,12.705832217152818
3036.1184,18.26654957529368
3037.1578,28.818634941664527
3038.1966,26.712122435964886
3039.2348,30.197045889708022
3040.2723,23.3734388672859
3041.3092,31.091334631120276
3042.3455,35.65076620989856
3043.3811,33.20176632139493
3044.4161,32.94436732687598
3045.4505,37.928601255590706
3046.4842,36.704499807344575
3047.5173,35.32209430265692
3048.5498,38.28141569500218
3049.5816,32.532494584634065
3050.6128,42.02536118899215
3051.6434,38.41004540019111
3052.6734,39.28657669009212
3053.7027,41.704984146455985
3054.7314,41.41529646417786
3055.7594,37.317541921103015
3056.7868,38.061748380923916
3057.8136,34.797943334157566
3058.8398,42.37615389070359
3059.8653,39.19640681248205
3060.8902,47.45872843765167
3061.9145,42.41314471240719
3062.9381,41.45968110835605
3063.9612,37.24836267297445
3064.9835,40.32921403914179
3066.0053,39.30225946725395
3067.0264,41.917522814414724
3068.0469,43.17502754470527
3069.0668,40.67479670303163
3070.086,40.616852902549596
3071.1046,38.30121834966701
3072.1226,41.7779148446233
3073.1399,44.69696380464575
3074.1567,32.008386229182605
3075.1727,30.71220267071257
3076.1882,25.25843336163058
3077.203,25.99709822720945
3078.2173,28.678216940137872
3079.2308,25.101808913133482
3080.2438,21.617893272131994
3081.2561,22.226488892050952
3082.2678,16.177614431629166
3083.2789,16.121288327340622
3084.2893,10.107528853883167
3085.2991,8.336354124742002
3086.3083,12.257782152327025
3087.3169,12.621830865684672
3088.3248,8.028518071283585
3089.3321,5.327861449374197
3090.3388,9.669878599921844
3091.3449,8.104587069613288
3092.3503,5.9820043084367285
3093.3551,8.802147685334418
3094.3593,2.0150345094286735
3095.3629,4.370682001820313
3096.3658,4.719107363459884
3097.3681,3.610327751591157
3098.3698,1.3443602762668547
3099.3708,2.971222011436481
3100.3713,3.6909300176059787
3101.3711,4.703501325569107
3102.3702,0.5589529292104061
3103.3688,-1.792698224620537
3104.3667,0.24856480533638603
3105.364,0.43277686939643445
3106.3607,1.159970334712412
3107.3568,0.3801775641094025
3108.3522,-0.15656909118716555
3109.347,0.1997627162464397
3110.3412,-2.800793102040899
3111.3348,2.5417953698702007
3112.3277,2.7275880278220654
3113.32,1.9566447422392486
3114.3117,0.17902535627044358
3115.3028,2.54478969349789
3116.2932,2.6039957890405105
3117.2831,2.6067016525693703
3118.2723,1.9029652677156434
3119.2608,2.592844592043562
3120.2488,1.7263975640876765
3121.2361,0.9036820964542045
3122.2229,4.524756084485347
3123.209,3.0396774144864764
3124.1944,1.0485039275154833
3125.1793,6.401293434233509
3126.1635,0.3981037348166865
3127.1471,3.9889925654282195
3128.1301,5.174017658250307
3129.1125,7.953236705575307
3130.0942,2.976707347955454
3131.0753,6.394487146410626
3132.0558,4.856633632193677
3133.0357,3.213204272612714
3134.015,4.464256486409383
3134.9936,6.959847660193375
3135.9716,4.15003513593183
3136.949,4.184876185993389
3137.9258,7.464428041246393
3138.902,8.138747890710412
3139.8775,7.5578928487607655
3140.8524,10.721919948385285
3141.8267,11.330886146992981
3142.8004,9.484848294773641
3143.7735,9.983863128608242
3144.7459,10.8279872905293
3145.7178,12.017277322730678
3146.689,14.101789659126439
3147.6596,11.081580613457923
3148.6295,10.85670635844862
3149.5989,13.927222956006162
3150.5676,8.193186359471277
3151.5357,14.554652382912394
3152.5032,13.56167675846607
3153.4701,17.464315072722442
3154.4364,11.81262277665492
3155.402,17.856655146593795
3156.367,13.596467340743331
3157.3315,17.232114338741198
3158.2952,15.113650984260467
3159.2584,13.191131948653066
3160.221,16.56461175213446
3161.1829,15.43414478300884
3162.1442,16.249785263934307
3163.105,21.111587263227527
3164.065,20.169604686707345
3165.0245,20.12389122907676
3165.9834,22.07450038334276
3166.9416,19.171485441273425
3167.8993,19.364899473891874
3168.8563,19.20479536050636
3169.8127,20.041225786776188
3170.7684,19.724243246312724
3171.7236,23.553900032315084
3172.6782,23.780248240739958
3173.6321,25.55333973200504
3174.5854,21.673226128725556
3175.5381,28.389958797983336
3176.4902,24.403588890127985
3177.4417,25.9141672716095
3178.3926,29.771744564842027
3179.3428,25.576371133098036
3180.2924,23.078097041932562
3181.2415,27.22697210113696
3182.1899,26.323045889721595
3183.1377,27.26636771442716
3184.0848,28.30698661876388
3185.0314,28.894951373578298
3185.9773,28.480310466647126
3186.9227,27.56311209679755
3187.8674,31.243404178053645
3188.8115,32.521234348808385
3189.755,32.3466499350207
3190.6979,34.0196979374372
3191.6402,31.140425033337984
3192.5818,33.008877559806216
3193.5229,31.925101542520796
3194.4633,33.889142677071874
3195.4031,34.10104633979859
3196.3423,33.66085756814866
3197.2809,32.91862105855933
3198.2189,35.02438117085929
3199.1563,33.628181935691025
3200.0931,38.88006703345319
3201.0292,36.63007980826263
3201.9648,35.578263215435534
3202.8997,38.524659843987315
3203.834,36.96931192715072
3204.7677,38.56226131291193
3205.7008,37.803549479564
3206.6333,41.493217519777374
3207.5652,39.28130614818701
3208.4964,39.36785566449567
3209.4271,43.00290597559308
3210.3571,41.18649659469041
3211.2865,42.06866660496975
3212.2154,44.29945467774825
3213.1436,44.37889906365638
3214.0712,45.35703757033005
3214.9982,43.68390756161621
3215.9246,46.059545947791406
3216.8503,43.68398920229312
3217.7755,44.207273337963365
3218.7001,48.97943393080427
3219.624,48.55050611474521
3220.5473,45.67052453392124
3221.4701,46.439523346962346
3222.3922,44.857536255793256
3223.3137,50.27459649794348
3224.2346,50.24073686236714
3225.1549,52.405989635272434
3226.0746,50.42038660046012
3226.9937,49.83395901767113
3227.9121,53.84673764244248
3228.83,50.40875273197161
3229.7473,53.570034004988585
3230.6639,56.580610676135926
3231.5799,55.190511424355805
3232.4954,52.44976436278431
3233.4102,55.95839705265236
3234.3244,52.716436530693244
3235.238,56.47390927405628
3236.151,52.08084123272643
3237.0634,55.13725779194954
3237.9752,58.94318381616303
3238.8864,53.798643618431754
3239.797,57.603660922388706
3240.7069,57.95825891368044
3241.6163,56.86246020191691
3242.5251,61.26628681712543
3243.4332,63.16976022070876
3244.3408,58.87290126140674
3245.2477,58.92573015626161
3246.154,60.478266533586606
3247.0598,60.18052943243762
3247.9649,60.43253728708788
3248.8694,61.834307930005295
3249.7733,62.785858589332406
3250.6766,61.68720587486865
3251.5793,62.23836576855487
3252.4814,62.38935363545981
3253.3829,65.69018421826854
3254.2838,62.990871635772585
3255.1841,63.24142934986156
3256.0838,66.54187019251637
3256.9829,65.8422063633036
3257.8814,66.49244939637116
3258.7792,67.29261016744483
3259.6765,66.64269888732596
3260.5731,69.29272509388971
3261.4692,65.99269765858429
3262.3647,65.29262475993056
3263.2595,67.44251391652243
3264.1538,66.1423719940275
3265.0474,69.64220518368825
3265.9404,69.19201901532341
3266.8329,68.29181832232962
3267.7247,69.14160724618337
3268.616,69.1913892454429
3269.5066,69.14116708725038
3270.3966,68.54094284683411
3271.286,69.84071790801066
