RamanShift,CorrectedData
30.1047,2182.2219574949695
32.3739,2031.0473866820785
34.6426,1882.922794046967
36.9109,1736.398137456943
39.1787,1591.7233559500835
41.4461,1449.0983712004854
43.7131,1302.9230889650112
45.9796,1155.6474005095386
48.2456,1009.4711840707135
50.5112,867.194306328707
52.7764,721.0666238689779
55.0411,577.7379846050418
57.3054,434.9582292397474
59.5692,291.9771926985637
61.8326,152.4947055573771
64.0955,7.210595472301975
66.3579,-128.6753114254943
68.6199,-257.86318907695
70.8815,-375.95192595664275
73.1426,-443.68783448589113
75.4032,-374.9634713262742
77.6634,13.033039302094949
79.9231,1146.3173190641817
82.1824,3817.604989494622
84.4412,8766.811660664878
86.6995,15694.902904470368
88.9574,22440.244205138384
91.2148,27113.25088994721
93.4717,29285.588061772665
95.7282,29680.42055235808
97.9842,29549.1129005909
100.2398,28925.62934855436
102.4949,28234.083842840577
104.7495,27333.89004078537
107.0036,26396.81131738373
109.2573,25584.110774291734
111.5105,24778.901249197363
113.7632,23918.94532394749
116.0154,23184.50533259997
118.2672,22680.293370023206
120.5185,22098.521299240565
122.7693,21621.900756472452
125.0197,21207.29315695409
127.2696,20834.109699701672
129.519,20535.911371658476
131.7679,20230.25895142668
134.0163,19959.76301224935
136.2642,19641.733925066965
138.5117,19275.73186122238
140.7587,18911.366795641097
143.0052,18606.74851049133
145.2512,18246.986598827607
147.4967,17892.24046763698
149.7417,17631.519341436648
151.9863,17387.232265821385
154.2304,17167.138110070802
156.4739,16911.84556959216
158.717,16739.263168121368
160.9596,16411.949260275862
163.2017,16054.412033280463
165.4433,15657.059510240488
167.6844,15213.349553717144
169.925,14753.089869701038
172.1651,14266.138012049294
174.4047,13901.001387088127
176.6439,13530.83725848238
178.8825,13168.90275088689
181.1206,12890.154853648113
183.3582,12677.950424423489
185.5954,12457.346191968903
187.832,12237.098758260743
190.0681,12107.114600701936
192.3037,11997.300074324408
194.5388,11875.011413088967
196.7734,11816.054730983407
199.0075,11762.536023245419
201.2411,11827.711166952133
203.4742,11833.085921555337
205.7068,11883.415928229697
207.9389,11845.356709819027
210.1704,11878.06367033298
212.4015,11907.692095327646
214.632,11975.497151578482
216.862,12055.83388678403
219.0915,12103.257228887858
221.3205,12231.021985275209
223.549,12364.73284229875
225.777,12567.494364000933
228.0044,12803.810990776883
230.2314,13107.387037346798
232.4578,13446.276690392755
234.6837,13656.18400552296
236.909,13832.212903882868
239.1339,13645.567170056085
241.3582,13339.20045030411
243.582,12953.71625443276
245.8053,12537.817958855881
248.0281,12080.958810450134
250.2503,11798.891930714024
252.472,11569.57032033646
254.6932,11437.696862017452
256.9139,11250.674322761297
259.134,11172.555355195356
261.3536,11079.742499440239
263.5727,11069.238183891011
265.7912,10950.494726145327
268.0092,10931.96433310845
270.2267,10796.999102180704
272.4436,10626.501021442773
274.6601,10520.471971005363
276.8759,10334.663724714173
279.0913,10226.727951210178
281.3061,10118.266215787731
283.5204,10115.029981473892
285.7341,10101.920610113088
287.9473,10159.889362399432
290.16,10290.587398007852
292.3721,10483.66577501437
294.5837,10818.775448589147
296.7947,11039.317269065701
299.0052,11137.69197858978
301.2152,10901.800208913983
303.4246,10523.042480413973
305.6334,9956.569204447427
307.8418,9343.880687141607
310.0495,8853.827135058078
312.2568,8480.858661319608
314.4635,8166.675290510699
316.6696,8012.7769624072735
318.8752,7883.363535118511
321.0802,7834.984786625822
323.2847,7831.94041607699
325.4887,7826.030044269968
327.692,7703.953213683277
329.8949,7524.8093885351645
332.0972,7213.547956004344
334.2989,6857.41822802145
336.5001,6510.419444381656
338.7007,6243.850776305955
340.9008,6092.511329911147
343.1003,5900.850148875539
345.2992,5784.466215952332
347.4976,5670.108454886231
349.6955,5584.42573157729
351.8927,5624.666855224486
354.0895,5529.030579182558
356.2856,5527.465600559572
358.4812,5425.420561173309
360.6763,5418.294047566884
362.8707,5329.334592029216
365.0646,5345.29067266628
367.258,5301.610714290713
369.4508,5234.143088262248
371.643,5251.736112924515
373.8346,5150.938054279704
376.0257,5087.647125812669
378.2162,4966.711489498877
380.4062,4816.02925643733
382.5956,4614.598488059932
384.7844,4469.567197638291
386.9726,4307.033352298051
389.1603,4157.594874469189
391.3474,4042.9496435113433
393.5339,4033.795497208208
395.7199,3899.43023291399
397.9052,3898.4016076449334
400.09,3843.0073394230094
402.2743,3887.1451072861855
404.4579,3912.912551842357
406.641,4002.6072748279803
408.8235,4201.476838850413
411.0054,4476.368766490938
413.1868,4815.230538316093
415.3675,5064.259590128739
417.5477,5202.803309579427
419.7273,5171.059033676131
421.9064,4997.624047398822
424.0848,4894.345584016868
426.2627,4611.370826823419
428.4399,4275.896910168169
430.6166,3850.5209222871163
432.7928,3454.5399086572907
434.9683,3101.5508762505087
437.1432,2835.1007974932
439.3176,2601.436613796297
441.4914,2432.80523821972
443.6645,2405.503557809039
445.8371,2271.728435281784
448.0091,2160.476709300445
450.1806,2136.5951958102596
452.3514,1992.0306891517066
454.5216,1974.0799622993327
456.6913,1840.3397683073745
458.8603,1837.8568404892867
461.0288,1882.8278937551404
463.1967,1858.0496246364346
465.3639,1950.9187108364058
467.5306,1967.931811477818
469.6967,2059.9855661742513
471.8622,2199.7765948599736
474.0271,2313.301496869426
476.1914,2309.356849539272
478.3551,2299.4892070731767
480.5182,2266.595100581235
482.6807,2223.6710381786397
484.8426,2365.863505314661
487.0039,2623.4189652018613
489.1647,2989.883857394165
491.3248,3396.9045952113192
493.4843,3541.327562074246
495.6432,3514.499107434811
497.8015,3379.6155453316205
499.9592,3323.57315465829
502.1163,3281.218180512282
504.2728,3021.3968347553273
506.4287,2727.455296436983
508.5839,2266.8897143928516
510.7386,1960.6962101839745
512.8927,1729.0708827025192
515.0461,1648.6598112336942
517.199,1578.7090577720046
519.3512,1548.7146678253666
521.5029,1662.1726711146075
523.6539,1689.179081873437
525.8043,1697.2798977138373
527.9541,1688.7710993560104
530.1033,1661.298650547371
532.2519,1647.7084981476255
534.3999,1753.196572403529
536.5472,2001.6587870847543
538.694,2461.6410384290175
540.8401,2993.0892026574584
542.9856,3491.599131374809
545.1305,3598.216646254932
547.2748,3475.0875340557177
549.4185,3082.9075455528982
551.5615,2692.8223967713384
553.704,2582.9777729068446
555.8458,2550.169332227004
557.987,2588.142707169627
560.1276,2515.4435046708386
562.2675,2562.5673057853564
564.4069,2606.159666413485
566.5456,2631.6661168298597
568.6837,2553.882161247526
570.8212,2271.003277562868
572.958,1880.974918133481
575.0942,1579.0425126069167
577.2299,1374.1514718209983
579.3648,1350.3471908231368
581.4992,1350.675050919257
583.6329,1516.1304199118313
585.766,1748.008652096596
587.8985,1863.955086607999
590.0304,1831.2650451004301
592.1616,1711.0838305887191
594.2922,1615.6567277750692
596.4222,1432.0790042508524
598.5515,1290.6959114508718
600.6802,1138.9526864891668
602.8083,891.5445535728068
604.9358,871.0167255193519
607.0626,774.114406230914
609.1888,768.2827908994659
611.3144,733.217066975827
613.4393,631.3624142280241
615.5636,546.6640050919013
617.6873,454.86700568969536
619.8103,438.6165766770464
621.9327,310.007874160925
624.0544,234.63604986214705
626.1756,242.39625240147507
628.2961,173.6836280532989
630.4159,97.54332066809366
632.5351,123.62047235949649
634.6537,55.81022426571144
636.7716,21.95771628876537
638.8889,68.40808777257189
641.0056,102.35625870346848
643.1216,84.04714838369182
645.237,114.7756750919325
647.3518,63.28675626639597
649.4659,109.02530819756066
651.5793,125.58624654302912
653.6922,98.61448587015548
655.8043,99.30493949045558
657.9159,114.7025197293151
660.0268,27.00213791907663
662.137,-35.90129575494211
664.2466,-49.66314085876729
666.3556,-82.68839830451907
668.4639,-59.131572869519005
670.5716,34.85365672599073
672.6786,46.61420248617287
674.785,103.69662822716055
676.8907,140.7474972989512
678.9958,219.0633720145779
681.1002,176.2908132796074
683.204,195.32637980899744
685.3072,136.26662855477844
687.4097,62.45811451575719
689.5115,67.94739132805262
691.6127,41.03101200324454
693.7132,-25.344471126576536
695.8131,-64.28250613959608
697.9123,-67.33628792274976
700.0109,-53.70836918074565
702.1089,-93.4006299287903
704.2061,-71.91441363547347
706.3028,-28.65013069712586
708.3987,66.29252691491274
710.4941,127.76415344410998
712.5887,318.2653424709897
714.6827,534.6966862984482
716.7761,886.5087740467425
718.8688,1279.2021894891805
720.9608,1468.0275075339669
723.0522,1545.1352902973158
725.1429,1340.6260852151827
727.233,1131.4004242721676
729.3224,927.9588260466335
731.4112,656.7517978029609
733.4993,436.6298375259321
735.5867,268.24343663283435
737.6735,203.29308217468497
739.7596,120.92925852006374
741.845,46.252448004644975
743.9298,72.81313175481773
746.014,74.56179043445081
748.0974,98.5489039793174
750.1802,75.82495157956873
752.2624,86.54041143989525
754.3439,80.94576100673294
756.4247,167.89147686114666
758.5048,282.52803477473935
760.5843,512.9559088402239
762.6631,784.3755703250281
764.7413,1236.7374853670262
766.8188,1835.7421122603591
768.8956,2267.239896931802
770.9718,2633.6812669507053
773.0473,2462.3166272140334
775.1221,2138.296356281957
777.1962,1745.0208080914927
779.2697,1605.0403151967184
781.3426,1642.6051927015178
783.4147,1880.1657396593837
785.4862,2218.322238697765
787.557,2179.9249536424613
789.6271,1861.2741261360607
791.6966,1321.0199760219257
793.7654,801.1127045306894
795.8335,552.8524996827982
797.901,349.73954148756457
799.9678,247.6740044257931
802.0339,262.9060594809089
804.0993,350.7858751595959
806.1641,322.3636173395207
808.2282,292.9894483904791
810.2916,194.9635274586435
812.3544,139.5360107602828
814.4164,32.70705256206929
816.4778,82.22680573532125
818.5385,84.24509640787801
820.5986,211.81174988534985
822.658,321.62659063089814
824.7166,411.139440989602
826.7747,732.5501200902727
828.832,927.008442950355
830.8886,1063.6142172618056
832.9446,1200.2672414464905
834.9999,1236.0673032901686
837.0545,1258.6141785759319
839.1085,1214.1576307262112
841.1618,1198.347410577313
843.2143,1133.4332568239843
845.2662,1029.6648961775063
847.3175,1006.0920440148439
849.368,913.0644054163313
851.4179,840.9816754013846
853.467,653.3935398588001
855.5155,616.4496762675808
857.5633,498.5497555727925
859.6105,395.29344255502656
861.6569,372.73039700938534
863.7027,336.86027477804964
865.7478,358.53272797591853
867.7922,381.54740534930534
869.8359,394.20395205919704
871.8789,542.0520094511376
873.9212,720.7912149286603
875.9629,893.5212004747627
878.0039,1089.4915908645416
880.0441,1197.3520019378993
882.0837,1228.1520386398297
884.1226,1155.391293941826
886.1609,1034.9193485338728
888.1984,1035.4357715520455
890.2352,1106.0401217832332
892.2714,1051.3319476599827
894.3069,1058.4107865544574
896.3416,998.8261653255031
898.3757,954.477600247872
900.4091,1003.4145976080581
902.4418,979.7866541478143
904.4739,1026.593256574728
906.5052,1022.033881798543
908.5358,923.5079964630859
910.5658,812.2150569918376
912.595,670.1045105732373
914.6236,534.5757962735843
916.6515,521.2783464581407
918.6786,467.2115881464488
920.7051,570.7749431452685
922.7309,760.0178285892434
924.756,771.4896559052831
926.7804,898.1398289201388
928.8041,784.267743745655
930.8272,910.5727875123121
932.8495,785.8043395079039
934.8711,747.011769914523
936.892,597.6944410562173
938.9123,488.0517077869481
940.9318,421.4829189837292
942.9506,287.1874186430723
944.9688,215.26454654666304
946.9862,179.9636396043279
949.003,64.63403257326718
951.019,87.07505841103193
953.0344,103.48604942886595
955.0491,156.06633706725552
957.063,291.4152517318471
959.0763,445.0321222676248
961.0888,494.2662746054193
963.1007,580.8170302257495
965.1119,641.0337056664684
967.1223,671.5656116572936
969.1321,715.7120525176178
971.1412,758.7723258511978
973.1495,777.3957221046621
975.1572,837.5315241369244
977.1641,916.5790070329676
979.1704,871.9374375024818
981.1759,891.1560730893725
983.1808,937.8841626181711
985.1849,1080.570946001866
987.1884,1159.9656537746378
989.1911,1351.9675056649648
991.1932,1500.8757098016904
993.1945,1538.0894607940027
995.1951,1471.2079382423253
997.1951,1438.8303063662206
999.1943,1405.6057146731764
1001.1928,1365.5332982823966
1003.1906,1335.2121782570466
1005.1877,1420.941462004972
1007.1841,1411.97024358192
1009.1798,1319.547602834231
1011.1748,1131.072605488538
1013.1691,981.6943040760161
1015.1627,758.7617398171096
1017.1556,495.4739441153397
1019.1477,471.8799407865954
1021.1392,348.37874869204825
1023.1299,321.06938197407
1025.12,377.4008512912769
1027.1093,410.4221640915857
1029.0979,485.73232404894225
1031.0859,557.88033073306
1033.0731,544.9151788563468
1035.0596,498.63585755242093
1037.0454,328.84135050574696
1039.0304,218.08063641447006
1041.0148,101.45269068832567
1042.9985,-0.8435134437459055
1044.9814,16.940996232679026
1046.9636,-66.64479964128259
1048.9452,-85.70192059392139
1050.926,-14.330720371995994
1052.9061,-8.080696560089564
1054.8855,-26.701203578901186
1056.8642,39.05848487701223
1058.8421,99.39936185810075
1060.8194,151.8224200242439
1062.7959,177.82865104132725
1064.7717,234.01904505702623
1066.7469,300.59459044073446
1068.7213,326.10627322167056
1070.695,358.35507642310404
1072.6679,253.1419798072602
1074.6402,226.91795955280395
1076.6117,239.13398930699987
1078.5826,258.2910404479444
1080.5527,224.79008196238647
1082.5221,320.6820802541879
1084.4908,529.4179994793085
1086.4587,682.598800586904
1088.426,816.2254392319774
1090.3925,805.548864243563
1092.3584,811.6700162884335
1094.3235,671.6898279778652
1096.2879,597.7592238064608
1098.2515,659.1291215519122
1100.2145,739.3004330143413
1102.1767,782.3740634025817
1104.1382,1004.6009105324847
1106.099,1257.0318643961655
1108.0591,1441.2178049397444
1110.0185,1593.8595995390133
1111.9771,1646.508101157604
1113.9351,1403.014146820562
1115.8923,1125.37855708785
1117.8488,871.4521384893014
1119.8045,598.1356863009532
1121.7596,547.7299870843599
1123.7139,443.3358214197069
1125.6675,446.90396440989934
1127.6204,579.9351867244768
1129.5726,592.4802545639504
1131.524,575.4899283294944
1133.4748,583.4149624974889
1135.4248,550.2061057894316
1137.3741,531.8641010926549
1139.3226,485.78968579246066
1141.2705,540.483591955508
1143.2176,393.14654679058367
1145.164,391.02927210165217
1147.1097,428.5824857612315
1149.0546,433.2069017315662
1150.9989,392.70322968907567
1152.9424,276.12217497813253
1154.8852,154.0644390160851
1156.8272,80.93072045906956
1158.7686,74.57171642256435
1160.7092,12.688123212763458
1162.6491,-4.119363609836
1164.5883,122.49995138838858
1166.5267,277.7468047934817
1168.4644,431.6719319665099
1170.4014,616.226065491086
1172.3377,891.5099336340936
1174.2732,1096.024258500198
1176.2081,1399.7197532789396
1178.1421,1662.5971201996654
1180.0755,1931.6070474945045
1182.0082,2015.600206769639
1183.9401,2074.8272503151748
1185.8713,1893.7388102652258
1187.8017,1690.0854980056538
1189.7315,1451.967905984944
1191.6605,1172.3866097507416
1193.5888,954.6921703310254
1195.5163,868.5851370299206
1197.4432,784.6160496046286
1199.3693,713.4354391265078
1201.2947,726.1938288207893
1203.2193,717.8917347783427
1205.1432,769.6796658281164
1207.0664,760.4081236201673
1208.9889,782.5276021077516
1210.9106,843.7885876400615
1212.8316,848.6915587410294
1214.7519,949.2869854966993
1216.6715,954.0753295062168
1218.5903,987.7070428758561
1220.5084,967.4325681711489
1222.4257,1022.1523380805702
1224.3424,919.916775618276
1226.2583,1064.176293576893
1228.1735,1157.6812955498972
1230.0879,1229.8321744890054
1232.0016,1366.1793117691268
1233.9146,1379.923076466861
1235.8269,1330.8138239970212
1237.7384,1232.1518959751993
1239.6492,1078.4876207088746
1241.5592,1018.2713141840031
1243.4686,927.1032816016923
1245.3772,962.8838179803388
1247.285,938.36320906732
1249.1922,918.2417309811754
1251.0986,960.8196504568259
1253.0042,882.2472250467763
1254.9092,1023.8747026953461
1256.8134,1095.2523225244113
1258.7169,1271.9303134170732
1260.6196,1432.0588933039508
1262.5216,1658.0382673963504
1264.4229,1836.3186265849872
1266.3234,2050.9501451801952
1268.2232,2121.5329791291515
1270.1223,2134.167263869542
1272.0207,2148.2031136237274
1273.9183,2089.840621272404
1275.8151,2090.779858214246
1277.7113,2005.3208749495316
1279.6067,1949.6637010707418
1281.5014,1834.3583461171802
1283.3953,1851.9048001315095
1285.2885,1944.6030348128443
1287.181,2014.6030033412353
1289.0727,2203.6046394507393
1290.9637,2299.7578567294004
1292.854,2469.3125467292266
1294.7435,2582.368578004669
1296.6323,2734.225794417045
1298.5204,2992.934014004004
1300.4077,3210.7930274609425
1302.2943,3377.902595553922
1304.1802,3430.6124469410934
1306.0653,3293.8722765015737
1307.9497,3080.681744808364
1309.8333,2897.7904794957503
1311.7162,2810.8980773912226
1313.5984,2824.3541063443554
1315.4798,2894.858106095766
1317.3605,2947.409588142542
1319.2405,3063.2580350331846
1321.1197,3016.052899842125
1322.9982,2899.7936050112075
1324.876,2886.429542821774
1326.753,2764.560076557227
1328.6293,2781.084540636697
1330.5048,2796.402241833708
1332.3796,2736.712459110953
1334.2537,2720.8144434671085
1336.127,2702.9074185337377
1337.9996,2673.690580734259
1339.8714,2671.6130994630257
1341.7426,2669.8741173774906
1343.6129,2689.7727504189897
1345.4826,2668.508087830138
1347.3515,2670.6791919558163
1349.2196,2630.385098455845
1351.087,2695.424816283252
1352.9537,2785.2973280872357
1354.8197,2921.751589562751
1356.6849,3130.7365285517917
1358.5493,3198.5010436788216
1360.4131,3255.7940022609655
1362.276,3237.614239630333
1364.1383,3149.26055856112
1365.9998,2919.331729451369
1367.8606,2599.076491206539
1369.7206,2354.443553538771
1371.5799,2139.03160016947
1373.4384,1969.6392912756164
1375.2962,1878.7652656438731
1377.1533,1618.5081423645133
1379.0096,1299.316521740173
1380.8652,1072.0389878884198
1382.7201,813.8741119336737
1384.5742,571.0704542799613
1386.4275,399.87656719258666
1388.2802,266.49099722616666
1390.132,183.4122869365492
1391.9832,157.48897621468495
1393.8336,96.51960311741641
1395.6832,66.65270412670361
1397.5322,34.486814759296976
1399.3803,-22.329530134535162
1401.2278,-5.597796049405588
1403.0745,43.43077459208507
1404.9204,11.75499528930959
1406.7656,27.423679107349017
1408.6101,14.78563899371511
1410.4538,32.18968762171062
1412.2968,119.98463751677991
1414.139,132.76930088248628
1415.9805,283.04248872255266
1417.8213,331.45301071301583
1419.6613,501.7496736995017
1421.5006,687.5812812131262
1423.3391,924.5966317675229
1425.1769,1209.794517000515
1427.0139,1730.7237193039655
1428.8502,2316.2330089718016
1430.6858,2887.3711389907185
1432.5206,3269.6868391850803
1434.3547,3567.3288105055726
1436.188,3630.2957212060064
1438.0206,3512.5862038669147
1439.8524,3359.7988547658642
1441.6835,3364.1322350545743
1443.5139,3247.634872286786
1445.3435,3222.9552603749253
1447.1724,3184.991860755068
1449.0005,3153.0931026337457
1450.8279,3091.4073833675793
1452.6545,3083.9330687822603
1454.4804,3146.9184937894133
1456.3056,3178.3619624613348
1458.13,3083.761747401126
1459.9536,2905.76608942828
1461.7766,2620.373198524667
1463.5987,2226.281255614498
1465.4202,1912.5384154182648
1467.2409,1541.092810393644
1469.0608,1345.6925538729447
1470.88,1106.4857437775336
1472.6984,917.9204645718837
1474.5161,706.4947896555877
1476.3331,578.1067832490608
1478.1493,507.4045025077612
1479.9648,445.9359988060987
1481.7795,333.649318444448
1483.5935,308.3425032638279
1485.4067,259.01359176876394
1487.2192,267.6106193803753
1489.031,234.13161892964672
1490.842,232.32462057145858
1492.6522,252.5876521193877
1494.4618,212.81873906377587
1496.2705,225.11590436910592
1498.0785,197.0271688716657
1499.8858,216.9005511565956
1501.6924,197.98406783876453
1503.4981,187.42573336404348
1505.3032,174.2735601984714
1507.1075,197.47555893382014
1508.911,200.67973841912863
1510.7138,177.8841055286939
1512.5159,152.63666513003045
1514.3172,121.18542031180732
1516.1178,71.8783726363381
1517.9176,102.46352245409798
1519.7166,55.48886939677686
1521.515,20.552412071448998
1523.3126,54.80214853029611
1525.1094,24.23607661997812
1526.9055,63.20219363914839
1528.7008,24.448496644099578
1530.4954,-35.92701794090681
1532.2893,-22.526353936073065
1534.0824,-34.55115625070357
1535.8747,-36.252844755830665
1537.6663,-16.432494156440953
1539.4572,-32.94081699160961
1541.2473,8.221638360198995
1543.0367,7.204652599268229
1544.8253,-2.6919936563263036
1546.6132,30.681480139452106
1548.4003,62.7748814256538
1550.1867,85.43801733450891
1551.9723,140.62069437051287
1553.7572,228.92271818378322
1555.5414,289.69389301823503
1557.3247,345.8340208285608
1559.1074,446.5929006725237
1560.8893,532.5703281495425
1562.6705,592.966094393114
1564.4509,739.0799852110413
1566.2305,792.8117804814665
1568.0094,908.4612526917372
1569.7876,954.1281664010949
1571.565,1018.2622770841681
1573.3417,1053.26333067431
1575.1176,1021.0810629222615
1576.8928,1025.4651990461334
1578.6672,963.5154540532385
1580.4409,877.8315326962347
1582.2138,793.3631300926336
1583.986,751.3099325816329
1585.7575,692.4216185688092
1587.5282,671.1478589466406
1589.2981,683.5383176834057
1591.0673,666.8426520358935
1592.8358,703.2605124255278
1594.6035,732.7415426053049
1596.3704,775.3353792956277
1598.1366,834.0416518894817
1599.9021,909.6099820265044
1601.6668,934.289983005925
1603.4308,1032.9312590308818
1605.194,1159.8334049616114
1606.9564,1339.8960053290393
1608.7182,1491.3186330657718
1610.4791,1693.5508477054555
1612.2394,1846.4421938685628
1613.9988,2067.1921992400585
1615.7576,2311.8003730404907
1617.5156,2549.6662038184986
1619.2728,2743.2391570047293
1621.0293,2868.568672533176
1622.785,2894.654162905448
1624.54,2815.7950119374746
1626.2942,2659.890574498653
1628.0477,2446.390177300431
1629.8005,2202.6431204553483
1631.5525,2013.248679612052
1633.3037,1837.2561083927576
1635.0542,1752.8646402872073
1636.804,1676.52349041259
1638.553,1604.7818563574438
1640.3013,1624.9389189450867
1642.0488,1588.3938429510308
1643.7955,1637.2957769014065
1645.5416,1709.3938534384215
1647.2868,1827.1371888313297
1649.0313,1914.6748822554418
1650.7751,2101.506014614699
1652.5181,2305.479647666296
1654.2604,2466.9948221523737
1656.0019,2777.6505557602813
1657.7427,3092.745841507425
1659.4828,3401.6296446347133
1661.222,3581.200899455598
1662.9606,3600.40850626724
1664.6984,3406.3013295548008
1666.4354,3052.8781977993513
1668.1717,2568.987905418957
1669.9072,2065.1292163029048
1671.642,1681.1008686506066
1673.3761,1366.5515800101912
1675.1094,1121.4800511187805
1676.8419,889.434969047983
1678.5737,732.3650096546098
1680.3048,599.6688399011346
1682.0351,519.9451194263838
1683.7646,443.3925018725022
1685.4934,393.25963568218503
1687.2215,359.7451648642091
1688.9488,305.34772949476246
1690.6754,260.36596605258273
1692.4012,244.54850796292885
1694.1263,224.64398604740927
1695.8506,226.80102868215
1697.5742,205.21826199684983
1699.297,194.89430985318904
1701.0191,147.2277940606764
1702.7404,142.66733447988736
1704.461,76.86154949912452
1706.1808,82.00905608002358
1707.8999,65.60847041560737
1709.6182,96.90840787881461
1711.3358,92.95748318650658
1713.0527,48.25431008646592
1714.7688,45.49750139689786
1716.4841,5.5356694534784765
1718.1987,31.617426136905124
1719.9126,33.79138327252622
1721.6257,5.306152369528718
1723.338,17.51034459917537
1725.0496,-2.1974289203208173
1726.7605,22.831442754153613
1728.4706,5.195592518015474
1730.18,-1.956346961631425
1731.8886,-19.675743069632517
1733.5964,-1.9639436469369684
1735.3036,-4.022099973824879
1737.0099,11.29865628922198
1738.7156,14.097233662496365
1740.4204,-6.877459446686771
1742.1246,-17.426514771979782
1743.8279,-2.7009553412190144
1745.5306,-13.55163009136595
1747.2325,-7.179360976839234
1748.9336,-20.03483457127004
1750.634,-28.268665726478503
1752.3336,-39.23126914629211
1754.0325,-16.622777130569375
1755.7307,-7.842930058790444
1757.4281,14.308697751095679
1759.1247,-5.86738966799021
1760.8206,-4.320688426218112
1762.5158,30.29936398146492
1764.2102,30.09337322378815
1765.9039,21.511944666493946
1767.5968,18.50568337439654
1769.289,6.8751941972004715
1770.9804,25.72108179954739
1772.6711,48.04395077733534
1774.361,55.24440546925143
1776.0502,64.27304973355604
1777.7386,81.23048687607115
1779.4263,74.0173195598909
1781.1132,84.9841496358149
1782.7994,71.83157821447821
1784.4849,94.41020555668365
1786.1696,77.67063120492276
1787.8535,110.06345375758792
1789.5367,79.23927103638562
1791.2192,103.79867976238711
1792.9009,106.84227586427915
1794.5818,106.5706542327589
1796.2621,130.78440869010774
1797.9415,131.8841319929088
1799.6202,104.92041558988967
1801.2982,123.59384961095202
1802.9755,143.90502313679826
1804.6519,129.20452401220064
1806.3277,133.94293864288738
1808.0027,111.97085214253639
1809.6769,148.63884828541086
1811.3504,136.19750972605652
1813.0231,139.097417632649
1814.6951,155.23915181137636
1816.3664,180.62329067746032
1818.0369,170.6004110937356
1819.7067,161.4710881167939
1821.3757,176.28589509723497
1823.044,190.49540377095036
1824.7115,202.500184110977
1826.3783,195.4008041854031
1828.0443,205.197830037323
1829.7096,204.59182575582417
1831.3741,218.48335337802746
1833.0379,194.92297289513317
1834.701,212.6112421135258
1836.3633,218.34871689035663
1838.0248,207.98595095667588
1839.6856,218.2734958600431
1841.3457,237.41190106815884
1843.005,225.25171386599686
1844.6636,272.84347916441584
1846.3214,252.1877396217542
1847.9785,276.6350351679239
1849.6349,275.28590321096726
1851.2904,268.99087839257845
1852.9453,268.8004926015965
1854.5994,277.6652750369549
1856.2528,332.8357522095848
1857.9054,285.26244785376
1859.5572,311.1958823754085
1861.2083,320.48657332783114
1862.8587,331.2850351523739
1864.5084,348.2917790855263
1866.1572,334.05731305092377
1867.8054,343.23214148928673
1869.4528,329.2667655007681
1871.0994,331.4616827532009
1872.7453,362.46738762175755
1874.3905,327.63437116699697
1876.0349,331.16312082480636
1877.6786,363.1041207547378
1879.3215,373.9578518047165
1880.9637,351.17479119162726
1882.6051,379.405412392779
1884.2458,370.00018537374035
1885.8858,362.95957630602334
1887.525,374.48404766114527
1889.1634,336.2740582810302
1890.8011,353.8800632627699
1892.4381,360.0025143407174
1894.0743,365.9418597104286
1895.7098,382.0985439674405
1897.3446,385.9230080478683
1898.9786,384.56568906684697
1900.6118,410.4270202802809
1902.2443,363.85743109842406
1903.8761,387.00734682726033
1905.5071,385.8271891342074
1907.1374,347.9673758166109
1908.7669,374.428320813553
1910.3957,383.01043458444565
1912.0237,347.1141238444161
1913.651,367.23979147849604
1915.2776,352.0378369005748
1916.9034,341.9586558521505
1918.5285,321.85264055434527
1920.1528,320.8701798086922
1921.7764,318.1616591982083
1923.3992,324.37746109721047
1925.0213,308.8179646984054
1926.6427,280.63354595072724
1928.2633,289.92457771493537
1929.8832,310.84143004545604
1931.5023,296.1344700974778
1933.1207,289.8040619177773
1934.7383,296.5005665917879
1936.3552,303.62434230690906
1937.9714,304.3257442855329
1939.5868,260.2051247138106
1941.2015,276.71283273463814
1942.8154,266.34921488886994
1944.4286,243.01461495023068
1946.041,242.00937402895943
1947.6528,237.38383080514996
1949.2637,237.48832153880085
1950.8739,199.9731801160815
1952.4834,239.68873804827672
1954.0921,228.0353248469437
1955.7001,232.26326762675671
1957.3074,248.72289122203892
1958.9139,225.0145181444841
1960.5197,215.63846841855866
1962.1247,199.94505981858765
1963.729,205.68460796251202
1965.3325,172.9574264688281
1966.9353,179.26382689918591
1968.5374,188.25411908566548
1970.1387,195.27861106771252
1971.7393,153.8876090022368
1973.3392,181.7314170933587
1974.9383,151.76033800632467
1976.5366,141.77467258907473
1978.1342,170.32472017194505
1979.7311,181.96077866752967
1981.3273,157.28314428517933
1982.9227,173.64211141463693
1984.5173,154.83797287281504
1986.1112,144.8710197402097
1987.7044,156.84154154893804
1989.2968,136.59982638241127
1990.8885,153.44616075563317
1992.4795,158.73082981761218
1994.0697,157.20411718289415
1995.6592,140.31630487872098
1997.2479,147.41767336028988
1998.8359,149.0585016796358
2000.4232,134.73906741462451
2002.0097,134.30964665253668
2003.5955,114.77051413326171
2005.1805,149.12194325359815
2006.7648,133.31420626263753
2008.3484,125.49757391825551
2009.9312,147.52231564518934
2011.5133,148.0386996132047
2013.0946,133.79699251684542
2014.6752,138.0474595702717
2016.2551,144.6403646496792
2017.8342,125.97597025078448
2019.4126,151.6045374229052
2020.9902,131.5263259556068
2022.5672,126.74159412241352
2024.1433,143.75059888158648
2025.7188,134.95359592397563
2027.2935,128.8008395029301
2028.8674,129.1425825222641
2030.4406,118.97907659778866
2032.0131,124.46057205388843
2033.5849,120.48731802515977
2035.1559,121.55956240159867
2036.7261,126.07755186833128
2038.2957,119.99153189488698
2039.8645,107.40174669002408
2041.4325,126.20843926258567
2042.9998,122.81185154740524
2044.5664,120.76222421722832
2046.1323,118.5597967166932
2047.6974,120.80480728281418
2049.2617,139.59749296701102
2050.8254,134.6880896126586
2052.3883,148.47683166715342
2053.9504,130.8639522310159
2055.5118,158.9996829199972
2057.0725,122.08425404121772
2058.6325,139.26789431179532
2060.1917,143.20083122801134
2061.7502,123.33329089346807
2063.3079,129.31549797976368
2064.8649,115.14767592516637
2066.4212,117.03004687479279
2067.9767,132.86283182228362
2069.5315,120.99625059098071
2071.0856,99.08052167559526
2072.6389,101.81586236088697
2074.1915,85.0524889408025
2075.7433,83.54061669113344
2077.2945,100.08046003715117
2078.8448,92.8722325687213
2080.3945,97.81614687490764
2081.9434,89.21241461605769
2083.4916,87.56124647436081
2085.039,80.96285223988525
2086.5857,86.16744082709465
2088.1317,84.22522034082249
2089.677,84.43639802423513
2091.2215,90.50118027824556
2092.7652,76.4197726594075
2094.3083,79.29237981926053
2095.8506,92.3192056451544
2097.3921,112.80045323151262
2098.933,105.28632474957521
2100.4731,98.27702124257212
2102.0124,126.62274270087892
2103.5511,104.62368813210287
2105.089,117.53005527762798
2106.6261,110.14204083260574
2108.1626,111.0098403168895
2109.6983,108.58364814891684
2111.2332,140.11365763702725
2112.7675,135.65006100372557
2114.301,121.84304907038313
2115.8337,144.8928113018701
2117.3657,133.49953594462932
2118.897,139.6134097961767
2120.4276,115.83461831903514
2121.9575,94.06334557959781
2123.4866,132.19977448591362
2125.0149,126.04408700540353
2126.5426,103.64646378349244
2128.0695,102.80708420516203
2129.5956,120.72612661893982
2131.1211,124.70376834527815
2132.6458,103.7901854973743
2134.1698,130.63555294138678
2135.693,131.09004450557495
2137.2155,141.75383271184637
2138.7373,142.37708877120622
2140.2584,134.70998247712942
2141.7787,133.00268219931604
2143.2983,128.75535496037446
2144.8171,101.16816645288054
2146.3353,115.49128108186414
2147.8527,109.72486224067052
2149.3693,128.41907216773416
2150.8853,121.7740720042475
2152.4005,110.59002160721411
2153.9149,115.11707961589946
2155.4287,100.10540356367255
2156.9417,120.70514983272915
2158.454,117.91647380421637
2159.9655,108.98952965223361
2161.4764,112.02447037171623
2162.9865,130.87144786770386
2164.4958,131.2806129249966
2166.0045,110.50211501967715
2167.5124,113.5861023150328
2169.0195,112.88272186932772
2170.526,118.3421196049685
2172.0317,127.06444031553929
2173.5367,125.64982761120336
2175.0409,123.24842383148462
2176.5445,136.9603700594107
2178.0473,136.78580614552538
2179.5494,128.32487057077196
2181.0507,124.52770044823774
2182.5513,116.29443160776282
2184.0512,126.27519863391353
2185.5504,119.82013494831745
2187.0488,119.5293727098524
2188.5465,118.45304287919362
2190.0435,94.89127522172839
2191.5397,96.14419831831356
2193.0353,116.06193980089392
2194.5301,99.3446263399751
2196.0241,102.1423834454472
2197.5175,114.90533563375448
2199.0101,99.73360639992325
2200.502,96.12731808992612
2201.9931,90.83659205240201
2203.4835,82.51154867471587
2204.9733,73.0023074358678
2206.4622,97.80898698974124
2207.9505,106.53170526019994
2209.438,64.72057919302006
2210.9248,64.5257246686624
2212.4109,75.69725692038628
2213.8962,59.48529053619586
2215.3809,96.33993934712453
2216.8648,83.71131658935519
2218.3479,71.94953453567041
2219.8304,66.35470462174044
2221.3121,73.82693756374056
2222.7931,78.91634341430245
2224.2733,69.27303148779447
2225.7529,64.09711030942162
2227.2317,50.68868771166399
2228.7098,80.99787088602989
2230.1872,60.7247665171426
2231.6638,64.76948047964925
2233.1397,49.48211804095308
2234.6149,74.06278382076562
2236.0894,45.31158194397676
2237.5632,62.57861579485234
2239.0362,45.513988304546274
2240.5085,59.66780177843111
2241.9801,40.490158066740605
2243.4509,33.981158423035595
2244.921,22.090903695974703
2246.3904,23.419494394407593
2247.8591,27.067030806275397
2249.3271,31.783612985324908
2250.7943,48.41934071463629
2252.2608,36.67431345945215
2253.7266,31.99863020082239
2255.1917,53.192389553052635
2256.656,48.60568981046299
2258.1197,56.38862873545213
2259.5826,43.891303604365476
2261.0447,47.36381112966137
2262.5062,42.956247584886114
2263.9669,35.16870876995381
2265.4269,37.40129005521658
2266.8862,42.10408645933967
2268.3448,52.77719262697792
2269.8026,62.52070278174779
2271.2598,66.53471061949494
2272.7162,50.919309210860774
2274.1719,41.17459096114089
2275.6268,44.40064776643749
2277.0811,67.8975711111093
2278.5346,52.365452035509406
2279.9874,63.554380901015975
2281.4395,67.0644475453546
2282.8908,55.19574117070806
2284.3414,81.24835030861459
2285.7914,62.67236293865835
2287.2406,65.21786622794161
2288.689,67.48494671684557
2290.1368,48.773690293573964
2291.5838,44.784182171483735
2293.0302,59.86650707619674
2294.4758,60.57074928549628
2295.9206,65.29699247849976
2297.3648,65.29531972861832
2298.8082,61.615813456293836
2300.251,62.00855542901445
2301.693,53.12362679810849
2303.1343,80.46110809481843
2304.5748,71.67107931914916
2306.0147,84.50361966649416
2307.4538,79.20880761553599
2308.8922,67.7367207999232
2310.3299,83.4874360612148
2311.7669,64.06102956360655
2313.2031,57.55757663641862
2314.6387,62.427151968365706
2316.0735,45.71982967258464
2317.5076,61.33568323794225
2318.941,71.1247856961113
2320.3737,62.73720946540789
2321.8056,70.22302625290013
2323.2369,77.08230713828698
2324.6674,66.96512249903662
2326.0972,68.32154194179475
2327.5263,65.351634403557
2328.9547,64.65546813810352
2330.3823,68.13311074569992
2331.8092,74.03462918005835
2333.2355,53.5100897135635
2334.661,66.50955787825387
2336.0858,70.78309867106827
2337.5098,60.430776423847874
2338.9332,76.40265476060313
2340.3558,68.64879670103937
2341.7778,77.56926450083893
2343.199,71.51411972919914
2344.6195,74.28342317962961
2346.0393,75.77723493049825
2347.4583,88.14561431734455
2348.8767,87.23861991793365
2350.2943,85.85630942857915
2351.7113,93.098739673213
2353.1275,79.16596661720405
2354.543,76.35804529493498
2355.9578,84.67502994913366
2357.3718,75.06697405894829
2358.7852,88.63393025677942
2360.1978,83.32595042436151
2361.6098,83.0930855570914
2363.021,80.33538581710718
2364.4315,79.15290053562103
2365.8413,87.645678240493
2367.2504,87.46376666806282
2368.6587,71.85721267821509
2370.0664,59.376062256200385
2371.4733,71.17036066869287
2372.8795,62.140152588604906
2374.285,60.935481977140626
2375.6899,68.2063921741028
2377.0939,57.90292590993795
2378.4973,64.82512523303012
2379.9,62.023031612735394
2381.3019,60.29668587016022
2382.7032,76.19612820618204
2384.1037,73.7213982187177
2385.5035,77.12253474372483
2386.9027,57.79957587994841
2388.3011,62.55255895490882
2389.6987,53.881520718131924
2391.0957,63.03649729362587
2392.492,61.36752426657904
2393.8876,44.924636591814306
2395.2824,44.45786861047782
2396.6765,41.31725421446663
2398.07,41.4528268510976
2399.4627,61.86461955451796
2400.8547,52.60266494434427
2402.246,42.56699502155561
2403.6366,36.30764126109716
2405.0265,35.624634712240095
2406.4156,32.96800606118268
2407.8041,43.337785637875186
2409.1918,44.68400344259044
2410.5789,33.80668904222375
2411.9652,53.705871556830516
2413.3508,18.231579768400934
2414.7358,38.48384192186768
2416.12,42.36268607984766
2417.5035,36.568139920121666
2418.8863,40.95023069684521
2420.2684,40.80898529849219
2421.6497,27.09443020403478
2423.0304,31.606591484358432
2424.4104,33.445494939403034
2425.7896,32.26116605304651
2427.1682,35.75362997471029
2428.546,46.37291153120623
2429.9232,40.969035191808416
2431.2996,42.84202496206308
2432.6753,33.041904437828634
2434.0503,42.01869678654339
2435.4246,39.47242484522758
2436.7982,33.35311103071581
2438.1711,30.260777365118884
2439.5433,38.34544553701835
2440.9148,27.00713693238822
2442.2856,26.99587255374945
2443.6557,27.31167313355263
2445.025,21.154559134291503
2446.3937,48.17455074534428
2447.7617,13.871667944544242
2449.1289,43.59593022798117
2450.4955,53.79735695303043
2451.8613,44.62596704110865
2453.2265,34.68177887565935
2454.5909,41.46481039386754
2455.9546,52.525079186100356
2457.3177,31.712602428076934
2458.68,49.977396770266296
2460.0416,55.71947854601649
2461.4025,55.28886358889895
2462.7627,49.83556717529336
2464.1222,61.25960402869168
2465.4811,46.460988374230965
2466.8392,52.68973382445438
2468.1966,56.995853527296276
2469.5533,77.12936010379235
2470.9093,62.89026560502134
2472.2645,67.17858131077037
2473.6191,50.89431787192416
2474.973,53.387485267584
2476.3262,58.95809296790799
2477.6787,64.2561499091812
2479.0305,48.931664438109465
2480.3816,48.23464425883617
2481.7319,53.965096586191294
2483.0816,56.22302815265766
2484.4306,67.55844515106878
2485.7789,58.52135321202945
2487.1264,58.711757290562446
2488.4733,51.379661756476025
2489.8195,54.72507039246284
2491.165,43.89798646741883
2492.5097,51.14841270298962
2493.8538,45.12635138184214
2495.1972,40.63180427515931
2496.5398,20.81477270286132
2497.8818,48.07525757855137
2499.2231,45.31325960768686
2500.5637,52.07877901497386
2501.9035,41.12181557198528
2503.2427,44.64236852950785
2504.5812,46.09043672710936
2505.919,52.26601855793683
2507.256,44.66911195423336
2508.5924,41.749714325583
2509.9281,50.30782263488027
2511.2631,40.94343342752245
2512.5974,60.70654274583103
2513.9309,44.19714622269339
2515.2638,33.965238883933125
2516.596,52.71081531340383
2517.9275,31.43386975530734
2519.2583,37.3343959267379
2520.5884,42.262387230452305
2521.9178,52.067836695864116
2523.2465,45.40073692976375
2524.5745,47.111080018262555
2525.9018,47.49885759346694
2527.2284,38.56406081637124
2528.5543,46.756680372983965
2529.8796,55.47670656367268
2531.2041,57.37412922123826
2532.5279,47.048937623717165
2533.851,57.351120475406105
2535.1735,63.08066601011251
2536.4952,58.53756188813486
2537.8163,59.67179513896599
2539.1366,63.78335220672511
2540.4562,59.172218938813785
2541.7752,60.538380544802294
2543.0935,63.3818216425384
2544.411,62.9525262444879
2545.7279,72.70047772929934
2547.0441,66.77565884609612
2548.3596,80.47805161699875
2549.6744,79.15763739637077
2550.9885,74.41439673379773
2552.3019,77.09830938728828
2553.6146,90.2593543707087
2554.9266,64.64750992694212
2556.2379,76.01275339627887
2557.5485,80.85506147253568
2558.8585,74.82441008940214
2560.1677,79.12077437201833
2561.4762,84.24412869728121
2562.7841,80.29444665087976
2564.0913,88.57170097606354
2565.3977,88.07586361313702
2566.7035,92.65690561668953
2568.0086,94.36479716055192
2569.313,93.59950749198697
2570.6167,100.16100491460952
2571.9197,104.24925679603962
2573.222,92.46422950228725
2574.5236,100.20588835687136
2575.8246,102.82419775866833
2577.1248,105.06912110449639
2578.4244,112.34062076293412
2579.7232,113.18865805186942
2581.0214,107.91319316578392
2582.3189,120.76418516727244
2583.6157,111.44159203979916
2584.9118,119.6453705591855
2586.2072,117.67547638683891
2587.5019,117.73186398771304
2588.7959,124.71448665000867
2590.0893,122.47329648460664
2591.3819,135.1582443552445
2592.6739,124.76927990092736
2593.9652,139.45635140907984
2595.2557,139.11940591943448
2596.5456,135.7583890771598
2597.8348,137.87324513623184
2599.1234,140.01391699304372
2600.4112,140.23034616525638
2601.6983,149.27247277039282
2602.9848,148.1902355236739
2604.2705,142.13357164759623
2605.5556,141.60241688275528
2606.84,131.59670554841
2608.1237,133.76637054779508
2609.4067,139.31134346817998
2610.689,143.43155455917008
2611.9707,136.4769326772589
2613.2516,147.09740524462404
2614.5319,127.84289831867682
2615.8115,125.51333648585296
2617.0903,135.1586430541604
2618.3685,134.27874007647574
2619.6461,137.72354825408888
2620.9229,138.14298694550348
2622.199,136.63697413198884
2623.4745,127.30542641338502
2624.7493,121.59825902316402
2626.0234,138.06538592174275
2627.2968,137.85671985355816
2628.5695,129.12217218239311
2629.8415,130.21165289346413
2631.1128,136.57507068076598
2632.3835,137.7623329361786
2633.6535,138.9233456858317
2634.9228,132.25801357823207
2636.1914,125.31623987265561
2637.4593,140.04792650579702
2638.7265,138.40297416118983
2639.9931,128.83128212188944
2641.259,137.73274828692183
2642.5242,123.40726926700154
2643.7887,132.75474029551606
2645.0525,123.7750553717799
2646.3156,124.61810716756077
2647.5781,140.13378711687574
2648.8398,131.77198540756171
2650.1009,114.93259082611848
2651.3613,137.71549084132653
2652.6211,122.47057177264173
2653.8801,120.54771856236471
2655.1385,127.54681492809141
2656.3961,127.91774338194114
2657.6531,128.96038516056524
2658.9094,130.32462022143795
2660.1651,138.5103272324293
2661.42,133.01738355816406
2662.6743,150.99566517816515
2663.9279,137.2950467417811
2665.1808,133.96540138840373
2666.433,137.50660088447557
2667.6846,132.1685156567844
2668.9354,128.05101475705237
2670.1856,140.25396591531785
2671.4351,145.82723558110843
2672.6839,163.67068880141346
2673.9321,166.58418916494907
2675.1795,152.16759862372555
2676.4263,158.32077746391155
2677.6724,162.14358445000062
2678.9179,159.3858767632803
2680.1626,165.54750996360212
2681.4067,169.17833801695997
2682.6501,171.62821323387288
2683.8928,169.5469862330774
2685.1348,155.9845059170284
2686.3761,159.39061949271104
2687.6168,155.8651726072669
2688.8568,150.25800931393087
2690.0961,144.51897210728794
2691.3348,137.49790197934362
2692.5727,145.74463847691482
2693.81,135.80901977183953
2695.0466,144.34088257850976
2696.2826,148.64006225322828
2697.5178,131.80639270888946
2698.7524,135.28970637198722
2699.9863,139.7398343509526
2701.2195,134.2566064013199
2702.452,148.03985088122636
2703.6839,159.9393948062425
2704.9151,146.0550637115416
2706.1456,154.08668153290273
2707.3755,166.83407074555453
2708.6046,177.39705228385924
2709.8331,170.57544541383913
2711.0609,188.36906762754575
2712.2881,193.5777347112769
2713.5145,192.9012605676403
2714.7403,201.9894571634668
2715.9654,210.54213453657508
2717.1899,223.15910070489008
2718.4136,244.04016158091576
2719.6367,250.98512084556523
2720.8591,257.69377973935093
2722.0809,255.3159369929349
2723.3019,266.7013887600426
2724.5223,283.5499286412405
2725.7421,271.01134757008185
2726.9611,287.635433644622
2728.1795,279.3219722528031
2729.3972,273.1207459062132
2730.6142,256.28153432322097
2731.8306,255.05411449098779
2733.0462,233.53826083386048
2734.2612,224.48374522564472
2735.4756,205.49033720476427
2736.6892,177.75780406480612
2737.9022,171.08591104445372
2739.1145,141.2244216048132
2740.3262,142.52309749613232
2741.5372,116.08169905641375
2742.7475,113.64998519843152
2743.9571,114.07771367414239
2745.1661,92.96464109900444
2746.3744,87.5105229476992
2747.582,75.5651137652626
2748.7889,81.67816722162547
2749.9952,63.34943623106824
2751.2008,52.52867289108963
2752.4057,49.21562866569434
2753.61,42.21005449360109
2754.8136,44.51170082137219
2756.0165,38.72031767347039
2757.2188,35.88565462924157
2758.4204,39.30746088082924
2759.6213,38.83548526152049
2760.8215,38.06947621152881
2762.0211,32.20918178271313
2763.22,23.954349646237915
2764.4182,20.95472715117603
2765.6158,22.060061407057674
2766.8127,12.670099313865649
2768.009,12.63458755098236
2769.2045,14.253272671090713
2770.3994,10.825901100527972
2771.5936,0.40221912309948493
2772.7872,-3.2180270856478046
2773.9801,-11.885091354189058
2775.1723,-10.649195362909722
2776.3639,-6.060442060132914
2777.5548,-12.218828008721175
2778.745,-13.924289227721147
2779.9346,-13.12663967008848
2781.1235,-21.075554185129363
2782.3117,-8.270576487020776
2783.4992,-24.761039745153994
2784.6861,-20.84619450586092
2785.8723,-3.6250439526871787
2787.0579,-6.446383015695574
2788.2428,-2.8589704107598664
2789.427,15.488499545611148
2790.6106,20.147361098022998
2791.7935,6.418948336195626
2792.9757,16.804595148376393
2794.1573,26.955635358623795
2795.3382,37.77340262295206
2796.5184,44.759230327817704
2797.698,63.01445148194432
2798.8769,69.44039864646356
2800.0551,93.68840375236391
2801.2327,103.10979803622843
2802.4096,121.10591179775781
2803.5859,133.67807430555513
2804.7615,151.32761361716643
2805.9364,164.10585645335652
2807.1106,198.96412802161512
2808.2842,220.20375188837454
2809.4572,248.8260496304265
2810.6294,278.1823406225251
2811.801,314.3739417511656
2812.972,354.40216712101983
2814.1423,393.2183276930198
2815.3119,425.9237308840775
2816.4808,483.9196801789217
2817.6491,520.2074748030441
2818.8167,562.0884091427415
2819.9837,613.5637723822358
2821.15,664.9348480848646
2822.3157,705.702913678329
2823.4807,751.0192399409821
2824.645,808.5850905941477
2825.8086,850.2017218489582
2826.9716,888.3203818306961
2828.134,917.1423101626272
2829.2957,959.9687375848146
2830.4567,983.5008856658983
2831.617,999.5899663748326
2832.7767,1015.9871818455622
2833.9358,1008.2437242161327
2835.0941,1011.4607754647184
2836.2519,994.3895074870561
2837.4089,971.4810820642758
2838.5653,966.8366510336143
2839.7211,972.9573565174967
2840.8761,983.5443309699833
2842.0306,993.348697115561
2843.1843,1009.971567843274
2844.3374,1059.0140461086798
2845.4899,1113.7272247676206
2846.6417,1173.112186085798
2847.7928,1250.3700011916421
2848.9433,1333.3517294824633
2850.0931,1411.2084178518703
2851.2422,1472.9910998599569
2852.3907,1525.6507949547326
2853.5385,1586.0385078542945
2854.6857,1640.1552280202354
2855.8323,1704.5519290537613
2856.9781,1747.2795681545283
2858.1233,1789.2390854766725
2859.2679,1837.5314037015362
2860.4118,1877.3074276180703
2861.555,1924.8180436399125
2862.6976,1963.964119407628
2863.8395,1978.8965033136014
2864.9808,2021.5660241105766
2866.1214,2021.3734907623343
2867.2614,2031.3196920169937
2868.4007,2053.255396408941
2869.5393,2060.1313521593665
2870.6773,2074.448286956904
2871.8146,2088.7569078888773
2872.9513,2089.5579012981266
2874.0874,2088.651932639924
2875.2227,2080.0896464739644
2876.3574,2051.0216664734235
2877.4915,2037.3485955105787
2878.6249,1994.6710159474937
2879.7577,1973.4394897727466
2880.8898,1944.204559028205
2882.0212,1931.9167460213437
2883.152,1928.8765536175913
2884.2821,1916.6344653632086
2885.4116,1901.890945515693
2886.5405,1893.1964391661957
2887.6686,1916.40137238696
2888.7962,1912.4061523182652
2889.923,1914.3111669363768
2891.0493,1933.4167850935005
2892.1748,1939.7733564987307
2893.2997,1960.6812115269954
2894.424,1966.6406611554887
2895.5476,2003.2519967545948
2896.6706,2022.6654900282902
2897.7929,2032.1813926480336
2898.9145,2065.649936058627
2900.0355,2096.0713313830606
2901.1559,2116.1957690878253
2902.2756,2148.3734186786996
2903.3946,2179.1544284995043
2904.513,2201.7389254103273
2905.6308,2250.4770144797126
2906.7479,2263.768778758817
2907.8643,2289.6142787940253
2908.9801,2302.963552494037
2910.0953,2304.5666148714076
2911.2098,2314.0734579090595
2912.3236,2304.184050544248
2913.4368,2323.748338573495
2914.5494,2286.916244751483
2915.6613,2243.737668595411
2916.7725,2214.4624867533157
2917.8831,2200.940553435858
2918.9931,2160.921700709074
2920.1024,2146.2057386295937
2921.211,2110.9924556448323
2922.319,2109.9816187401475
2923.4264,2100.8229737909733
2924.5331,2079.6162455729263
2925.6391,2065.7111378533955
2926.7445,2059.2573336036066
2927.8493,2063.654495137676
2928.9534,2066.552264177146
2930.0569,2070.1502618070144
2931.1597,2048.9980884467573
2932.2619,2053.895323814348
2933.3634,2040.1415271377791
2934.4643,2027.686237106091
2935.5645,2025.3789720069092
2936.6641,1993.619229850998
2937.763,1935.5564883953311
2938.8613,1901.0902054606936
2939.959,1848.1198195123025
2941.056,1777.794750004475
2942.1523,1701.8143979103293
2943.248,1638.578146425038
2944.3431,1540.4353617256295
2945.4375,1440.435393603351
2946.5313,1353.4775764450967
2947.6244,1257.1112302334082
2948.7169,1146.2856614160496
2949.8087,1064.3001638696742
2950.8999,974.5540200080792
2951.9904,900.6465016020602
2953.0803,829.6768706768728
2954.1696,783.9443802513075
2955.2582,718.2482750473869
2956.3462,687.6377919476896
2957.4335,642.4621606523126
2958.5202,606.7706039849752
2959.6062,595.612338344776
2960.6916,564.6365740631081
2961.7764,546.642515515241
2962.8605,540.3293614300792
2963.9439,527.4963050701023
2965.0267,517.5425342944959
2966.1089,507.2672316874841
2967.1905,524.3695746578658
2968.2714,509.9487355417682
2969.3516,521.7538814316231
2970.4312,525.134174320375
2971.5102,523.7387709834304
2972.5885,525.116822944854
2973.6662,533.2174764913234
2974.7432,534.5898726583489
2975.8196,534.4831471492655
2976.8954,533.9464303215094
2977.9705,517.2288471876864
2979.045,505.77951742093774
2980.1188,501.84755552211686
2981.192,485.7820709342823
2982.2645,460.88216808201673
2983.3364,445.89694653208323
2984.4077,422.52550124242384
2985.4783,394.6169227120113
2986.5483,362.3702972145634
2987.6177,329.53470707762926
2988.6864,310.65923100505574
2989.7545,280.39294440534354
2990.8219,244.6349195804005
2991.8887,218.78422602820558
2992.9548,195.43993080038967
2994.0204,161.50109876074112
2995.0852,137.51679281864972
2996.1495,116.03607426849453
2997.2131,106.85800302948758
2998.276,85.18163786048035
2999.3383,56.156036451745194
3000.4,53.93025564173831
3001.4611,43.20335170735643
3002.5215,40.224380386193275
3003.5812,19.44239698381034
3004.6404,9.206456403525294
3005.6989,-1.834386645767836
3006.7567,-5.581077547239374
3007.8139,-3.8845433585372575
3008.8705,-5.6956553823454215
3009.9264,-8.665246114759952
3010.9818,-13.19409115228052
3012.0364,-7.182879525597855
3013.0905,-13.132168456433192
3014.1439,-9.242443409541124
3015.1966,-4.264058659313832
3016.2487,-8.99727614813412
3017.3002,-2.6423152204391727
3018.3511,4.450694662122601
3019.4013,-1.6183495653681348
3020.4509,6.250448987663049
3021.4998,6.857003379102707
3022.5481,13.001226604333056
3023.5958,18.33303159016623
3024.6428,19.902331133402413
3025.6892,25.50903784751165
3026.735,25.35306414694037
3027.7802,35.73432219104495
3028.8247,47.70272388565161
3029.8685,42.25818077924271
3030.9118,57.250603943273745
3031.9544,64.47990402661867
3032.9963,68.5459911056447
3034.0376,77.69877461192084
3035.0783,76.38816329155611
3036.1184,85.76406511367213
3037.1578,105.02638728350917
3038.1966,91.72503614866719
3039.2348,103.75991700648319
3040.2723,103.13093423704356
3041.3092,105.03799118283553
3042.3455,114.28099015503699
3043.3811,107.55983241444636
3044.4161,111.42441807905243
3045.4505,111.12464619124603
3046.4842,113.16041467917432
3047.5173,112.23162035973792
3048.5498,102.68815891823414
3049.5816,112.02992491764434
3050.6128,96.40681189406831
3051.6434,101.76871226330769
3052.6734,110.01551747709595
3053.7027,105.19711796948013
3054.7314,93.21340307435224
3055.7594,98.81426107363359
3056.7868,89.49957931711191
3057.8136,98.96924416643253
3058.8398,91.42314108824542
3059.8653,93.61115455950835
3060.8902,92.23316814294742
3061.9145,92.53906446517834
3062.9381,88.22872523048471
3063.9612,89.15203121776017
3064.9835,77.50886232361103
3066.0053,87.3490975531235
3067.0264,76.82261513629538
3068.0469,78.97929242963369
3069.0668,71.86900602141947
3070.086,76.44163171014094
3071.1046,60.7470445755967
3072.1226,63.98511893316913
3073.1399,56.2057284907703
3074.1567,46.35874631646112
3075.1727,40.14404491624583
3076.1882,41.81149633254137
3077.203,31.160972206324345
3078.2173,29.99234376045689
3079.2308,27.25548190619139
3080.2438,26.200257254857263
3081.2561,22.92654014522924
3082.2678,18.58420065407961
3083.2789,13.673108628915543
3084.2893,9.593133731402247
3085.2991,8.444145486474156
3086.3083,1.8760133231346003
3087.3169,2.238606585945547
3088.3248,-0.06820539929111646
3089.3321,1.0054466708406267
3090.3388,0.30943278112829375
3091.3449,-1.706377093695039
3092.3503,-3.6421160701296458
3093.3551,-0.3979002179693225
3094.3593,0.4261907777317333
3095.3629,1.3300812069423387
3096.3658,-5.236308898014556
3097.3681,-1.6230595181166905
3098.3698,-1.9801983236160936
3099.3708,0.5422632295998824
3100.3713,-3.055666532175678
3101.3711,-0.9239792880720188
3102.3702,-0.4626361911100503
3103.3688,2.1784108362423353
3104.3667,-1.7007855067473088
3105.364,-3.6001725425957716
3106.3607,-3.719680602972403
3107.3568,3.19079594617682
3108.3522,-2.618600101485015
3109.347,1.3022740157975932
3110.3412,-0.1464127804052282
3111.3348,8.985508418454287
3112.3277,5.8982079835873265
3113.32,7.491856196350113
3114.3117,9.516623279116999
3115.3028,2.4726793793437594
3116.2932,12.110194549320056
3117.2831,10.079338816608868
3118.2723,13.180282087671259
3119.2608,13.563194168175045
3120.2488,14.428244731985274
3121.2361,14.22560331733527
3122.2229,15.25543931817623
3123.209,18.267921986203362
3124.1944,21.363220420557667
3125.1793,17.491503537701277
3126.1635,20.802940040464364
3127.1471,21.697698456762424
3128.1301,21.475947106481527
3129.1125,21.38785409253083
3130.0942,26.533587303060074
3131.0753,26.263314412340634
3132.0558,26.227202829308027
3133.0357,27.72541970026481
3134.015,34.30813190924161
3134.9936,26.725506063014933
3135.9716,32.177708425280116
3136.949,30.764904992477597
3137.9258,33.287261439270765
3138.902,37.19494313267407
3139.8775,38.58811510682958
3140.8524,34.86694202392982
3141.8267,36.03158816028642
3142.8004,37.43221744354179
3143.7735,39.76899344102236
3144.7459,43.342079345732685
3145.7178,43.55163795298748
3146.689,43.04783162468084
3147.6596,41.13082228719048
3148.6295,47.050771436415886
3149.5989,46.55784015694823
3150.5676,45.85218906287122
3151.5357,50.03397830269
3152.5032,49.30336756638803
3153.4701,50.86051604360907
3154.4364,52.855582430963125
3155.402,54.78872491645515
3156.367,52.46010115953433
3157.3315,55.019868271762476
3158.2952,56.518182840100565
3159.2584,61.95520090131092
3160.221,58.68107792697414
3161.1829,55.49596876911876
3162.1442,57.15002769296267
3163.105,61.99340840876404
3164.065,63.4262640552808
3165.0245,64.74874715133683
3165.9834,64.71100958149347
3166.9416,64.61320258282451
3167.8993,63.80547674529372
3168.8563,72.88798201273295
3169.8127,69.26086769091927
3170.7684,69.07428235674996
3171.7236,72.47837389451365
3172.6782,65.87328949775619
3173.6321,69.40917563523983
3174.5854,77.23617811699398
3175.5381,78.0044420589563
3176.4902,82.66411180470269
3177.4417,78.31533091776471
3178.3926,74.05824213503287
3179.3428,81.6929874102444
3180.2924,85.31970795655417
3181.2415,84.98854417018725
3182.1899,86.99963559417168
3183.1377,88.65312092165007
3184.0848,88.14913797576878
3185.0314,84.28782369314288
3185.9773,87.36931412889612
3186.9227,88.34374449527402
3187.8674,91.211249130829
3188.8115,93.12196149067609
3189.755,94.9260141178178
3190.6979,96.97353862403709
3191.6402,98.01466567185675
3192.5818,96.99952495406427
3193.5229,96.07824518330042
3194.4633,105.50095410221081
3195.4031,100.46777849265857
3196.3423,101.67884408149726
3197.2809,107.3842755909028
3198.2189,103.43419672626268
3199.1563,112.17873011912158
3200.0931,104.51799736668232
3201.0292,107.30211894436042
3201.9648,113.3812142823914
3202.8997,110.30540173798965
3203.834,112.07479853455749
3204.7677,115.33952079244315
3205.7008,117.1996835112469
3206.6333,111.45540053717387
3207.5652,114.5567845444323
3208.4964,121.15394709267646
3209.4271,116.7469985959928
3210.3571,121.63604825692836
3211.2865,119.77120411056009
3212.2154,124.95257297560454
3213.1436,128.38026047306624
3214.0712,128.60437097442403
3214.9982,126.12500756735398
3215.9246,128.34227205348867
3216.8503,127.20626497321044
3217.7755,127.51708558347902
3218.7001,131.2248318691914
3219.624,131.6796005400738
3220.5473,136.63148699360409
3221.4701,135.0805853104641
3222.3922,137.02698820502087
3223.3137,136.47078704083552
3224.2346,140.5620718111993
3225.1549,138.05093114469557
3226.0746,140.53745226428697
3226.9937,145.72172101242683
3227.9121,141.30382182619394
3228.83,147.43383768544993
3229.7473,150.66185015701814
3230.6639,148.48793933338357
3231.5799,150.11218380041265
3232.4954,146.83466065909244
3233.4102,150.2554455092881
3234.3244,154.0246124825182
3235.238,151.4422342077468
3236.151,155.90838177369184
3237.0634,158.82312475464892
3237.9752,158.08653116582965
3238.8864,155.69866743421457
3239.797,158.90959840591873
3240.7069,159.01938737007055
3241.6163,158.97809602670242
3242.5251,160.93578448565285
3243.4332,166.49251126697934
3244.3408,164.8983332813815
3245.2477,167.4033057746338
3246.154,167.75748234352739
3247.0598,168.26091491082036
3247.9649,164.7636537216959
3248.8694,166.0157473387281
3249.7733,168.36724267685443
3250.6766,173.56818499085495
3251.5793,171.51861785183718
3252.4814,169.16858309522675
3253.3829,174.7681208412631
3254.2838,180.41726951849986
3255.1841,178.3160658078093
3256.0838,177.0645445858911
3256.9829,180.7627389462842
3257.8814,178.76068021188212
3258.7792,180.45839789795087
3259.6765,181.9559197321497
3260.5731,182.00327163755378
3261.4692,177.85047771767907
3262.3647,183.6975602560088
3263.2595,182.84453975752137
3264.1538,184.34143489021957
3265.0474,186.78826249366062
3265.9404,187.7350375639875
3266.8329,187.93177322946048
3267.7247,185.22848074098945
3268.616,189.3751694701666
3269.5066,188.12184693629922
3270.3966,185.11851876494285
3271.286,189.31518870043462
