RamanShift,CorrectedData
30.1047,521.153069567006
32.3739,480.78435728368146
34.6426,440.0656397888263
36.9109,401.84690706306606
39.1787,359.52814468637007
41.4461,319.8093342202383
43.7131,277.79045363088943
45.9796,244.27147768644838
48.2456,205.55237837713543
50.5112,162.68312525045587
52.7764,126.26368579839118
55.0411,85.79402588609153
57.3054,47.07411011607015
59.5692,12.353902232900055
61.8326,-26.316634489586903
64.0955,-57.73753690109791
66.3579,-96.2085789481616
68.6199,-131.92895777931312
70.8815,-152.596909419384
73.1426,-141.55935192291759
75.4032,-44.861678901332425
77.6634,255.2021302118785
79.9231,1021.4385441513942
82.1824,2654.6040290998726
84.4412,5540.705041025588
86.6995,9427.59800935077
88.9574,13102.139308090605
91.2148,15538.535216984292
93.4717,16557.641884749642
95.7282,16551.615304719115
97.9842,16225.661304648745
100.2398,15632.035546778423
102.4949,14965.243531091422
104.7495,14227.040601250665
107.0036,13513.131951266627
109.2573,12872.022632879394
111.5105,12266.667562697721
113.7632,11740.421528610143
116.0154,11284.589195838516
118.2672,10941.325112200484
120.5185,10595.233712667801
122.7693,10302.969322798965
125.0197,10107.536162200138
127.2696,9864.9883474478
129.519,9699.829894043056
131.7679,9462.814718837137
134.0163,9209.446641682976
136.2642,8924.129387805358
138.5117,8604.616590334597
140.7587,8288.661793159723
143.0052,7968.818454123595
145.2512,7635.639948182454
147.4967,7360.829570604361
149.7417,7118.190540300972
151.9863,6897.8260025756545
154.2304,6776.989031549867
156.4739,6641.582632366811
158.717,6555.609742399796
160.9596,6395.423232606312
163.2017,6212.225908387747
165.4433,6017.42051119126
167.6844,5761.509720341753
169.925,5507.296154989923
172.1651,5209.382376671372
174.4047,4974.82089184874
176.6439,4742.564154890846
178.8825,4578.614570418296
181.1206,4411.47449562606
183.3582,4280.196241922966
185.5954,4161.682076603094
187.832,4084.8842241585653
190.0681,4038.7048674646812
192.3037,3989.746148547904
194.5388,3931.1101690476485
196.7734,3932.498990705868
199.0075,3923.5646359534157
201.2411,3945.50908789616
203.4742,3974.4342904043183
205.7068,4034.9921478930223
207.9389,4074.8345250330617
210.1704,4160.113246145304
212.4015,4205.630094802277
214.632,4300.586812975375
216.862,4336.035100579695
219.0915,4385.176614524465
221.3205,4410.0129683585665
223.549,4420.9457317791175
225.777,4407.676430383106
228.0044,4398.8565455580665
230.2314,4387.137514614771
232.4578,4383.970730875426
234.6837,4339.907543790861
236.909,4348.949258972208
239.1339,4265.247138631514
241.3582,4224.002401491342
243.582,4122.666223621782
245.8053,4079.2397388529
248.0281,4022.324039788105
250.2503,4016.1701782384057
252.472,4036.1791657915746
254.6932,4090.451973873681
256.9139,4134.439533549006
259.134,4240.39273497731
261.3536,4368.412426973963
263.5727,4596.249415950408
265.7912,4777.304464633963
268.0092,5014.328289789458
270.2267,5226.921560408679
272.4436,5379.734895340134
274.6601,5448.518861163113
276.8759,5427.0739706595605
279.0913,5351.100682126236
281.3061,5241.199399589163
283.5204,5191.170473563352
285.7341,5170.564202151827
287.9473,5146.880831545906
290.16,5123.02055623127
292.3721,5064.483519224792
294.5837,5079.969812313146
296.7947,5162.479476638167
299.0052,5269.762502542003
301.2152,5317.968828741995
303.4246,5228.248341257873
305.6334,5053.400872929673
307.8418,4808.476204314955
310.0495,4518.7240654372645
312.2568,4197.744138235392
314.4635,3831.2360594608867
316.6696,3525.5994238878593
318.8752,3261.4337879780633
321.0802,3159.68867293726
323.2847,3119.863567356875
325.4887,3137.507928231449
327.692,3151.67118135689
329.8949,3142.9527211540253
332.0972,3059.601910526973
334.2989,2925.818080950322
336.5001,2750.750533302643
338.7007,2573.7985392043256
340.9008,2416.2113427682625
343.1003,2225.738162369358
345.2992,2101.9781922204083
347.4976,1979.4806042768269
349.6955,1872.2945494742507
351.8927,1812.8691589535083
354.0895,1726.6035451324915
356.2856,1665.5968023003952
358.4812,1589.6980074803878
360.6763,1566.656221039666
362.8707,1527.1204874484474
365.0646,1526.889835510393
367.258,1553.0632787579552
369.4508,1591.439815454697
371.643,1705.7184283335473
373.8346,1753.8980842130359
376.0257,1836.82773285451
378.2162,1916.4563064803406
380.4062,1910.9327189446221
382.5956,1842.0058649368857
384.7844,1763.4746200373393
386.9726,1614.7878414061288
389.1603,1523.144368568659
391.3474,1460.193024902459
393.5339,1410.9326185536183
395.7199,1407.261943066299
397.9052,1474.0297778753393
400.09,1548.7848883429597
402.2743,1714.5760250910826
404.4579,1809.501923253787
406.641,1973.7113008193937
408.8235,2078.4028576812025
411.0054,2158.625273995408
413.1868,2211.8772091341734
415.3675,2223.5573008834144
417.5477,2174.6641649102767
419.7273,2099.2463946463367
421.9064,1985.1025617765308
424.0848,1941.8812169933326
426.2627,1842.8308911381928
428.4399,1667.5500956337464
430.6166,1431.5373234743247
432.7928,1170.5910509787545
434.9683,956.609740150494
437.1432,770.7918412870913
439.3176,631.7357951199983
441.4914,557.3900346727532
443.6645,543.7529866515351
445.8371,502.2230721886244
448.0091,483.5987069787743
450.1806,485.1783016945092
452.3514,446.8602621723712
454.5216,478.99298939712116
456.6913,488.32487988492176
458.8603,499.35432536200733
461.0288,529.979712671372
463.1967,539.6494236624649
465.3639,523.761834884941
467.5306,494.16531749196383
469.6967,485.0082373990808
471.8622,462.33895558018594
474.0271,486.2558281590964
476.1914,476.20720663624525
478.3551,491.0914376495057
480.5182,516.0068630746846
482.6807,568.5018198766729
484.8426,713.9246398603009
487.0039,952.0736491453781
489.1647,1225.247166712471
491.3248,1450.5435020214118
493.4843,1517.3609522795632
495.6432,1466.347800188858
497.8015,1354.0023132776168
499.9592,1243.3227444106851
502.1163,1071.9073329128787
504.2728,835.4043056757964
506.4287,625.6618788719625
508.5839,428.97826031985824
510.7386,309.15165158135005
512.8927,243.73024992852243
515.0461,246.21224954194167
517.199,328.04584216487547
519.3512,468.02921707847145
521.5029,716.3105602834239
523.6539,984.9380531001407
525.8043,1108.7598696859213
527.9541,1031.7741743486904
530.1033,831.7791203087754
532.2519,665.2728504687648
534.3999,583.9534994134565
536.5472,554.5691950749215
538.694,652.818059545697
540.8401,805.9982093726267
542.9856,915.0077545743807
545.1305,941.3447971096457
547.2748,903.4574297870367
549.4185,816.7437360017193
551.5615,733.5017901142874
553.704,770.1296583179001
555.8458,861.9753994706998
557.987,1006.5370647295322
560.1276,1201.1626966314925
562.2675,1536.6503276483027
564.4069,1980.697978240064
566.5456,2441.003653500371
568.6837,2576.3153387158454
570.8212,2317.2809947630694
572.958,1769.8985567554791
575.0942,1224.6159366336997
577.2299,824.4310286393757
579.3648,649.641714767994
581.4992,587.3458687707334
583.6329,660.6913579023585
585.766,768.7260435441704
587.8985,903.8977804705646
590.0304,988.2044157686751
592.1616,1054.0937874866622
594.2922,989.0637237906421
596.4222,854.6620423057984
598.5515,673.9865507666773
600.6802,541.5850483612066
602.8083,435.35532753744974
604.9358,423.8951753276233
607.0626,428.3523744103886
609.1888,532.2747032254592
611.3144,683.5599359290281
613.4393,858.9558413545465
615.5636,1008.3601814998674
617.6873,1091.6207097732877
619.8103,1063.1851694995103
621.9327,909.2012930870324
624.0544,707.8668023124974
626.1756,519.8794098605404
628.2961,402.38682133712973
630.4159,326.9867371494429
632.5351,317.4268536807922
634.6537,322.0548640446241
636.7716,343.7184581801175
638.8889,328.11532280590745
641.0056,361.44314120344006
643.1216,371.899593373013
645.237,363.9323557004891
647.3518,296.4891008527402
649.4659,225.21749785731572
651.5793,181.26521277687516
653.6922,148.37990942190572
655.8043,148.0592497902444
657.9159,153.50089439593103
660.0268,144.65250227241359
662.137,164.16173091813198
664.2466,182.62623638500463
666.3556,182.94367308333312
668.4639,138.71169359716077
670.5716,109.67794868109286
672.6786,70.09008770262335
674.785,26.395758932469107
676.8907,-16.20739005955238
678.9958,-16.12171196757663
681.1002,-24.199397573920578
683.204,-33.492476604998046
685.3072,-32.15273703524599
687.4097,-49.03163224925629
689.5115,-40.580294425782085
691.6127,-42.44936591757414
693.7132,-20.68908368023949
695.8131,-18.649260600223897
697.9123,15.470497119968968
700.0109,51.820769583953734
702.1089,116.0021367406398
704.2061,175.31517802073267
706.3028,250.26047169491812
708.3987,325.28859428073156
710.4941,360.20011979310493
712.5887,375.99561899408855
714.6827,390.9256590437308
716.7761,421.5908033421256
718.8688,491.6416113801197
720.9608,544.4286384326451
723.0522,689.9024348582234
725.1429,803.7635455710943
727.233,938.9625085864718
729.3224,1059.7998538819384
731.4112,1096.0261020454518
733.4993,983.1417630669757
735.5867,799.1473359762149
737.6735,602.9933099714544
739.7596,420.3801662595115
741.845,299.0083800172715
743.9298,261.72842221781684
746.014,241.7907608441501
748.0974,222.39586126199083
750.1802,224.24418641915508
752.2624,256.73619703949953
754.3439,277.92235160444307
756.4247,340.6531060280431
758.5048,449.07891344513973
760.5843,639.650223584038
762.6631,929.1174816822586
764.7413,1336.1811265808228
766.8188,1873.4915878295815
768.8956,2388.6492816165774
770.9718,2754.704605394937
773.0473,2780.8579327312955
775.1221,2658.6596096452467
777.1962,2480.6599543478096
779.2697,2499.109258463407
781.3426,2654.5077888098685
783.4147,2805.5557872139343
785.4862,2852.453468957271
787.557,2647.5510212659883
789.6271,2270.9486028416604
791.6966,1743.646345910356
793.7654,1221.7443599886583
795.8335,856.1927371566953
797.901,624.0915572771519
799.9678,477.84089165078694
802.0339,413.69080533744636
804.0993,373.2413586185685
806.1641,344.5426076386866
808.2282,293.8446048099195
810.2916,251.2473990989638
812.3544,193.35103653406895
814.4164,142.90556063101576
816.4778,161.11101297207188
818.5385,207.16743371045595
820.5986,303.77486138827317
822.658,477.9833324759602
824.7166,762.992880406202
826.7747,1186.553533831854
828.832,1674.3653137758438
830.8886,2071.828229395567
832.9446,2300.892273104766
834.9999,2246.0074165989035
837.0545,1985.8736085645178
839.1085,1658.040775228079
841.1618,1342.2588229573194
843.2143,1105.0776415395649
845.2662,914.8471073395558
847.3175,791.4670856712564
849.368,722.6374327001604
851.4179,681.357996677094
853.467,619.9286186265131
855.5155,583.0491327592931
857.5633,544.2693670870276
859.6105,514.5391437908206
861.6569,438.30827960908255
863.7027,389.02658613483845
865.7478,336.7938705780284
867.7922,299.20993625832807
869.8359,280.27458312747603
871.8789,269.037608145115
873.9212,308.94880546813965
875.9629,370.45796656307175
878.0039,448.36487980694847
880.0441,516.0693298722299
882.0837,586.0210969477275
884.1226,639.2699560615642
886.1609,704.2656763816549
888.1984,861.6080206832139
890.2352,1017.246744698803
892.2714,1087.1815955449028
894.3069,1062.562310165531
896.3416,907.4886146328936
898.3757,762.6602243935736
900.4091,640.5768458192692
902.4418,618.1381776550825
904.4739,639.4939122403434
906.5052,723.2937357330065
908.5358,738.587327896088
910.5658,674.7243612596703
912.595,502.5545009679613
914.6236,330.5274054179281
916.6515,196.44272798099382
918.6786,116.25011872330788
920.7051,118.2492257465965
922.7309,155.88969599008897
924.756,167.77117521052014
926.7804,227.89330760573012
928.8041,258.30573569584703
930.8272,299.8080997220686
932.8495,303.8000373425357
934.8711,289.4811832173118
936.892,284.50116896846157
938.9123,320.40962332324216
940.9318,416.05617216390056
942.9506,467.84043816858457
944.9688,457.9120398548862
946.9862,393.4205910619921
949.003,260.01570104997427
951.019,144.046975144699
953.0344,92.86401607187554
955.0491,54.266425116747996
957.063,75.20380263591915
959.0763,131.3757484433313
961.0888,160.88186160089072
963.1007,191.82173985674808
965.1119,205.3949793502361
967.1223,201.05117430247037
969.1321,175.23991688061778
971.1412,172.5107972413398
973.1495,160.11340378889918
975.1572,154.89732320245594
977.1641,180.56214056003546
979.1704,164.95743939069325
981.1759,153.8828014178639
983.1808,144.887806715411
985.1849,147.92203381836725
987.1884,193.28505981288845
989.1911,244.0764603059106
991.1932,290.1458089715197
993.1945,325.8926770430412
995.1951,316.5166328523428
997.1951,287.91724147237164
999.1943,279.14406481090464
1001.1928,311.5466618965497
1003.1906,347.9245889664753
1005.1877,464.17739914238473
1007.1841,575.5046420667377
1009.1798,629.3558627402213
1011.1748,619.5306004084828
1013.1691,525.3283880236058
1015.1627,383.0487523423726
1017.1556,225.7412148682829
1019.1477,140.80529327435352
1021.1392,48.74050297618851
1023.1299,18.896357981340316
1025.12,26.122371809959077
1027.1093,111.1680577932334
1029.0979,206.2829290011282
1031.0859,299.86649739193035
1033.0731,340.368272861102
1035.0596,336.0877623054421
1037.0454,271.8244692180683
1039.0304,219.82789373122523
1041.0148,133.0975332589137
1042.9985,67.2828830168578
1044.9814,19.78343688980749
1046.9636,-35.85131191031405
1048.9452,-21.87187036941623
1050.926,25.171612681197075
1052.9061,95.479206910205
1054.8855,106.20098173457473
1056.8642,126.43700561648302
1058.8421,151.28734595609876
1060.8194,177.30206888922658
1062.7959,216.68123903879723
1064.7717,270.9249192547218
1066.7469,339.1831702201025
1068.7213,390.556049908791
1070.695,485.09361290281277
1072.6679,555.995909878633
1074.6402,599.5629866617824
1076.6117,614.6948835178364
1078.5826,510.69163471674074
1080.5527,394.50326838149067
1082.5221,272.17980752816993
1084.4908,179.42127122782813
1086.4587,143.22767582972256
1088.426,154.79903588889783
1090.3925,177.83536452812405
1092.3584,208.98667332217974
1094.3235,256.65297206749074
1096.2879,331.2342684706191
1098.2515,463.88056767160333
1100.2145,603.141871498141
1102.1767,770.6181771391257
1104.1382,962.9594757520335
1106.099,1173.66575078816
1108.0591,1381.3869760692096
1110.0185,1533.3731136802335
1111.9771,1604.424111892411
1113.9351,1577.639903643193
1115.8923,1539.1704058257887
1117.8488,1475.0655195570107
1119.8045,1360.5251305619704
1121.7596,1222.6491098151273
1123.7139,1064.5873146856898
1125.6675,976.5895903163782
1127.6204,971.0557712040409
1129.5726,990.6356820796263
1131.524,972.2291379635344
1133.4748,846.8359439698042
1135.4248,703.9058954901843
1137.3741,535.3887794480665
1139.3226,420.0343757277851
1141.2705,380.5924588597891
1143.2176,371.4627991741845
1145.164,364.49516319515897
1147.1097,305.73931373226833
1149.0546,217.7450099501225
1150.9989,106.16200795593932
1152.9424,13.44006167948828
1154.8852,-44.62107601107937
1156.8272,-77.17165238201096
1158.7686,-78.86146893500654
1160.7092,-52.18955622696103
1162.6491,1.995843011301531
1164.5883,67.34700742262339
1166.5267,170.76621562988976
1168.4644,297.1557455825173
1170.4014,424.51787352226256
1172.3377,611.8548727193265
1174.2732,831.8190121987363
1176.2081,1150.6125548669675
1178.1421,1593.4377553123109
1180.0755,2093.5468566169307
1182.0082,2472.692085928616
1183.9401,2669.9756494596904
1185.8713,2560.849728695558
1187.8017,2236.5664784218675
1189.7315,1837.4280278157735
1191.6605,1472.8364836887677
1193.5888,1208.6939344780617
1195.5163,1041.5524538925033
1197.4432,932.1641035540069
1199.3693,848.7309346689581
1201.2947,808.104989122105
1203.2193,775.7883003108864
1205.1432,754.7328935516916
1207.0664,728.890786403033
1208.9889,742.2639888760941
1210.9106,754.4045036931507
1212.8316,762.714326153844
1214.7519,799.2954440137732
1216.6715,840.7998374013928
1218.5903,904.079478452205
1220.5084,994.8363308937201
1222.4257,1108.9223494126518
1224.3424,1166.339478747354
1226.2583,1287.739652546958
1228.1735,1421.474792797202
1230.0879,1602.14680860643
1232.0016,1802.7075948682382
1233.9146,1977.9090304547572
1235.8269,2071.152976211043
1237.7384,2076.1412732030653
1239.6492,1992.425741785265
1241.5592,1992.9081815506738
1243.4686,2057.590372168066
1245.3772,2220.7740733771366
1247.285,2470.7610243416793
1249.1922,2742.352942017746
1251.0986,2967.3515186537843
1253.0042,3162.7084190747114
1254.9092,3335.275278431934
1256.8134,3464.5537002497754
1258.7169,3585.6952546998027
1260.6196,3700.251477308051
1262.5216,3840.3738677436027
1264.4229,4024.0638886730276
1266.3234,4161.272964359159
1268.2232,4296.7524788241935
1270.1223,4342.7037744775935
1272.0207,4403.978150761306
1273.9183,4377.676863690234
1275.8151,4301.901125239507
1277.7113,4269.602103607487
1279.6067,4364.880923973523
1281.5014,4636.938668820949
1283.3953,5153.176376984287
1285.2885,5795.9450409286765
1287.181,6518.995601587491
1289.0727,7198.67894193466
1290.9637,7680.095879754149
1292.854,8023.347160843148
1294.7435,8048.183454197881
1296.6323,7865.955348581108
1298.5204,7561.713352273751
1300.4077,7192.957894897181
1302.2943,6761.0893304556375
1304.1802,6326.607941023782
1306.0653,5803.113941065383
1307.9497,5300.157481778131
1309.8333,4824.488656328581
1311.7162,4480.7575048817125
1313.5984,4269.714019357619
1315.4798,4154.758146868822
1317.3605,4082.539791830703
1319.2405,4015.058817111065
1321.1197,3835.665044752316
1322.9982,3536.008256646277
1324.876,3238.5881963281204
1326.753,2903.4545719729385
1328.6293,2640.9070593699444
1330.5048,2391.945305273806
1332.3796,2178.6189300301244
1334.2537,2017.5775300650494
1336.127,1891.2206800185431
1337.9996,1818.5979343547915
1339.8714,1782.2088286257767
1341.7426,1749.7528801975063
1343.6129,1765.6295886138987
1345.4826,1768.6884359213477
1347.3515,1745.678886509951
1349.2196,1709.9503870829271
1351.087,1731.6023668867065
1352.9537,1779.984238068219
1354.8197,1842.0953954583706
1356.6849,1950.385216088227
1358.5493,2082.3030585679016
1360.4131,2277.0982620036575
1362.276,2458.970144678729
1364.1383,2576.2180021053687
1365.9998,2559.2411052061293
1367.8606,2385.638699141383
1369.7206,2154.4100034790936
1371.5799,1968.2042139308442
1373.4384,1781.4705046641152
1375.2962,1613.0580301643477
1377.1533,1378.91592710228
1379.0096,1126.3433160180712
1380.8652,870.2393036627241
1382.7201,661.3029855238051
1384.5742,483.18344838649045
1386.4275,370.52977242292536
1388.2802,275.04103297342135
1390.132,190.81630167299318
1391.9832,144.6046474062464
1393.8336,127.70513714962499
1395.6832,102.16683643353008
1397.5322,79.43880951130905
1399.3803,57.420119614645046
1401.2278,54.80982918083055
1403.0745,29.607000072962364
1404.9204,5.060693606036693
1406.7656,9.069970798982013
1408.6101,33.783892620121605
1410.4538,57.80151994708103
1412.2968,80.3219133196485
1414.139,132.84413269959805
1415.9805,187.76723724548765
1417.8213,239.39028478743285
1419.6613,309.1623312778779
1421.5006,436.43243027536437
1423.3391,617.6996322468117
1425.1769,862.6129832948136
1427.0139,1175.921523344969
1428.8502,1580.1742836967464
1430.6858,1998.0202838904042
1432.5206,2275.808527664459
1434.3547,2472.4379987772245
1436.188,2516.8576582289334
1438.0206,2463.0164422954344
1439.8524,2363.7632620840077
1441.6835,2289.9970040717667
1443.5139,2228.2165310981964
1445.3435,2187.52068310281
1447.1724,2191.2082777429578
1449.0005,2150.6781108007854
1450.8279,2135.128956146357
1452.6545,2134.609566142961
1454.4804,2173.1686718025912
1456.3056,2179.7549827911494
1458.13,2155.11718704285
1459.9536,2066.30395069436
1461.7766,1897.9639183311747
1463.5987,1692.095713875749
1465.4202,1480.9479422709046
1467.2409,1251.4191915385018
1469.0608,1049.9080348909229
1470.88,885.1130330263591
1472.6984,698.7327361439211
1474.5161,569.8156855915913
1476.3331,470.6104157300256
1478.1493,409.0654552217229
1479.9648,349.2293280230815
1481.7795,302.35055399984685
1483.5935,280.2776495254725
1485.4067,288.95912794991045
1487.2192,277.1934998203351
1489.031,280.529272794332
1490.842,259.614951757555
1492.6522,250.29903879036692
1494.4618,239.63003337698456
1496.2705,238.50643249863379
1498.0785,226.77673074024278
1499.8858,206.8394203016769
1501.6924,189.4429911150346
1503.4981,187.4359310440218
1505.3032,154.76672605791464
1507.1075,127.13386025163027
1508.911,108.53581617242207
1510.7138,99.87107509620319
1512.5159,74.03811721353304
1514.3172,45.385421716258406
1516.1178,42.91146705584879
1517.9176,20.764731229920017
1519.7166,13.043691806974039
1521.515,-7.003173852131113
1523.3126,-23.627388516972587
1525.1094,-14.23040499542094
1526.9055,-15.963440057740172
1528.7008,-29.277568312447784
1530.4954,-24.973704893297054
1532.2893,-20.45247245113478
1534.0824,-38.06424414949606
1535.8747,-27.759188831718348
1537.6663,-15.137095079340725
1539.4572,-20.64747415960801
1541.2473,11.310313879815567
1543.0367,21.837115259530492
1544.8253,54.33377608703495
1546.6132,74.6511422514568
1548.4003,123.79005909858779
1550.1867,165.4013712277074
1551.9723,228.43592200019884
1553.7572,320.59455312342925
1555.5414,411.82810402040786
1557.3247,545.437410908201
1559.1074,709.9733058855927
1560.8893,859.5866155969966
1562.6705,1021.8781595870928
1564.4509,1168.9487488046957
1566.2305,1272.8491839798417
1568.0094,1328.880254153079
1569.7876,1358.2927356364644
1571.565,1368.837391453253
1573.3417,1376.514971043775
1575.1176,1416.026210159985
1576.8928,1442.2718307886898
1578.6672,1541.3525407564343
1580.4409,1596.1190334670464
1582.2138,1686.7719869108287
1583.986,1804.8620631168947
1585.7575,1918.6899072466372
1587.5282,2046.006146412832
1589.2981,2164.3613885413565
1591.0673,2281.5562210980274
1592.8358,2392.8412099050506
1594.6035,2462.366897969069
1596.3704,2522.7338043683185
1598.1366,2599.242423557362
1599.9021,2627.593224763429
1601.6668,2652.936651221327
1603.4308,2718.0731198899316
1605.194,2795.5030211987523
1606.9564,2926.5267183965707
1608.7182,3128.944546777141
1610.4791,3395.6568123689494
1612.2394,3707.1637899110397
1613.9988,4026.8657201858846
1615.7576,4341.112806904323
1617.5156,4598.105213508535
1619.2728,4723.243060029571
1621.0293,4674.576420517435
1622.785,4455.355321789697
1624.54,4142.179743918168
1626.2942,3780.299622421104
1628.0477,3354.6148513949665
1629.8005,2984.325287133221
1631.5525,2649.5807523831872
1633.3037,2344.2810400489307
1635.0542,2116.225916538712
1636.804,1921.0151248179811
1638.553,1760.3483866899292
1640.3013,1692.3254047475966
1642.0488,1613.3958639805417
1643.7955,1589.759432455068
1645.5416,1596.7657621035223
1647.2868,1620.614488960655
1649.0313,1681.8552330935636
1650.7751,1748.5875983631993
1652.5181,1821.3111718119642
1654.2604,1914.7755229963834
1656.0019,2043.3802032598735
1657.7427,2218.3247447980966
1659.4828,2401.0086593729125
1661.222,2577.831436562935
1662.9606,2664.1425419366906
1664.6984,2605.7414152843944
1666.4354,2387.627469754835
1668.1717,2053.150092439389
1669.9072,1682.9086465531582
1671.642,1346.8024747797451
1673.3761,1080.9809029736662
1675.1094,860.2932435214129
1676.8419,687.7387979996706
1678.5737,584.9668593821923
1680.3048,486.6767137653435
1682.0351,407.91764139582256
1683.7646,330.63891765356243
1685.4934,306.9398138393194
1687.2215,266.06959794746217
1688.9488,230.92753490296127
1690.6754,207.8628869700915
1692.4012,181.72491410385305
1694.1263,170.36287418061852
1695.8506,148.12602325951048
1697.5742,134.36361569602423
1699.297,118.22490436439534
1701.0191,96.85914079522422
1702.7404,85.21557533686291
1704.461,62.94345736907189
1706.1808,52.742035419457125
1707.8999,60.61055738619143
1709.6182,53.59827064002775
1711.3358,33.55442194561556
1713.0527,29.47825753162033
1714.7688,31.119023291164694
1716.4841,17.77596482258923
1718.1987,13.598327413044899
1719.9126,17.63535617192406
1721.6257,4.886296072636696
1723.338,21.45039191223964
1725.0496,13.276888438927926
1726.7605,23.365030186392687
1728.4706,7.91406155555751
1730.18,13.573226713696386
1731.8886,9.791769748944034
1733.5964,20.91893461370273
1735.3036,11.253965162457916
1737.0099,3.246105040507018
1738.7156,3.3445977806086375
1740.4204,-13.301313116939127
1742.1246,-3.4923841852821624
1743.8279,-4.929239077450347
1745.5306,-8.212466557557036
1747.2325,-11.392606146617709
1748.9336,-12.470115323107393
1750.634,-19.295337753367903
1752.3336,-8.668492527289573
1754.0325,-6.989605974338701
1755.7307,2.5913821742578875
1757.4281,-4.02539798656403
1759.1247,-5.48981638778173
1760.8206,4.398297253352439
1762.5158,2.0891680628510585
1764.2102,-1.2669788772559514
1765.9039,-4.4699185058314015
1767.5968,13.430586895381566
1769.289,11.334819699125546
1770.9804,11.143062143837597
1772.6711,16.80559635460895
1774.361,13.622704345099692
1776.0502,11.544667960915376
1777.7386,18.271768911435174
1779.4263,24.654288790592545
1781.1132,31.642509009604055
1782.7994,26.036710733143536
1784.4849,31.88717480946184
1786.1696,31.394181826442946
1787.8535,32.508012053098355
1789.5367,34.52894544450055
1791.2192,42.8572616306426
1792.9009,40.993239896231444
1794.5818,34.63715909740313
1796.2621,41.18929768036014
1797.9415,43.199933744934924
1799.6202,29.669344979066636
1801.2982,41.597808638697416
1802.9755,44.085601683074174
1804.6519,50.93300065546805
1806.3277,43.89028165829268
1808.0027,47.60772028463293
1809.6769,58.385591688671184
1811.3504,50.62417054851221
1813.0231,56.67373095840662
1814.6951,65.48454650636222
1816.3664,61.65689021365097
1818.0369,61.74103444669913
1819.7067,64.93725095536502
1821.3757,64.59581087209699
1823.044,72.7669846799713
1824.7115,72.75104221610582
1826.3783,72.49825258994974
1828.0443,73.20888418344248
1829.7096,69.48320465354118
1831.3741,90.57148092511488
1833.0379,87.82397922820178
1834.701,81.49096488712621
1836.3633,88.37270234797302
1838.0248,83.66945524191874
1839.6856,95.83148631641393
1841.3457,83.50905748221453
1843.005,83.40242969176188
1844.6636,97.76186306240675
1846.3214,101.83761687747733
1847.9785,88.57994944268307
1849.6349,101.88911804535792
1851.2904,92.11537908703781
1852.9453,110.35898795036769
1854.5994,97.57019909683913
1856.2528,114.94926588435442
1857.9054,115.59644069511432
1859.5572,112.11197476182747
1861.2083,128.59611816123902
1862.8587,122.89911984897378
1864.5084,119.02122749469595
1866.1572,127.21268753907793
1867.8054,114.92374523258059
1869.4528,118.75464455353881
1871.0994,122.60562833105007
1872.7453,116.17693820666659
1874.3905,125.16881459588433
1876.0349,124.58149675242942
1877.6786,123.16522267834102
1879.3215,118.82022912984269
1880.9637,127.8967516315065
1882.6051,129.09502451970263
1884.2458,135.41528085183415
1885.8858,121.65775239435402
1887.525,119.92266955956347
1889.1634,126.26026154318583
1890.8011,122.67075634171897
1892.4381,128.95438068905924
1894.0743,123.06136009239458
1895.7098,129.0419187693708
1897.3446,126.94627970702004
1898.9786,132.42466460195647
1900.6118,127.37729388133152
1902.2443,123.9043866480514
1903.8761,132.55616073124907
1905.5071,127.98283272101435
1907.1374,119.78461788187587
1908.7669,127.86173019853459
1910.3957,140.46438245784543
1912.0237,122.94278616804718
1913.651,135.5471514327354
1915.2776,135.62768712607806
1916.9034,133.6346007667721
1918.5285,127.46809851723708
1920.1528,122.12838520354728
1921.7764,124.51566437709641
1923.3992,128.18013836799435
1925.0213,116.87200826119488
1926.6427,117.04147385985095
1928.2633,118.43873379839624
1929.8832,130.1639855408498
1931.5023,111.86742536684415
1933.1207,114.9992482543721
1934.7383,113.60964806275354
1936.3552,116.34881750131535
1937.9714,111.56694814328876
1939.5868,119.11423039841725
1941.2015,115.19085356077528
1942.8154,122.09700573329565
1944.4286,121.63287386700222
1946.041,112.64864369194959
1947.6528,123.44449972186464
1949.2637,121.57062534398779
1950.8739,120.82720271111464
1952.4834,115.76441276033518
1954.0921,120.48243522046812
1955.7001,122.88144866268806
1957.3074,114.46163045334606
1958.9139,120.0731567299789
1960.5197,118.816202485507
1962.1247,104.54094151212087
1963.729,114.64754641384911
1965.3325,112.6361887493116
1966.9353,99.40703893065336
1968.5374,109.56026624365802
1970.1387,115.6960389800389
1971.7393,109.61452433590728
1973.3392,112.515888350414
1974.9383,108.55029596656527
1976.5366,105.11791100220853
1978.1342,108.2688961896888
1979.7311,114.20341321017224
1981.3273,105.87162266213625
1982.9227,106.47368400202481
1984.5173,99.20975562756621
1986.1112,105.62999487175193
1987.7044,102.43455807547662
1989.2968,99.72360052333465
1990.8885,99.04727647557604
1992.4795,108.35573919521426
1994.0697,101.64914095479094
1995.6592,102.27763294329077
1997.2479,96.39136533320686
1998.8359,100.54048727425698
2000.4232,106.17514695224531
2002.0097,101.7454915475713
2003.5955,97.95166717888367
2005.1805,104.69381894737649
2006.7648,96.52209097472814
2008.3484,99.8366263356794
2009.9312,107.08756713975049
2011.5133,105.42505449809539
2013.0946,103.09922845099243
2014.6752,99.86022798446959
2016.2551,101.40819105356286
2017.8342,101.04325461470557
2019.4126,102.51555461024998
2020.9902,101.92522597211575
2022.5672,95.82240260706715
2024.1433,109.60721740261658
2025.7188,103.32980228805286
2027.2935,96.29028809659292
2028.8674,93.83880462815534
2030.4406,106.4254807197558
2032.0131,97.20044427002244
2033.5849,78.16382211332927
2035.1559,105.41574011204614
2036.7261,101.55632334690529
2038.2957,96.18569584448221
2039.8645,95.75398061578949
2041.4325,96.86129970998286
2042.9998,92.60777421867908
2044.5664,94.2935242648814
2046.1323,95.568669045516
2047.6974,96.28332681457414
2049.2617,86.83761487036065
2050.8254,91.38164954834713
2052.3883,110.06554631563006
2053.9504,96.28941972548898
2055.5118,88.1033832305493
2057.0725,85.10754932054238
2058.6325,89.45202960416555
2060.1917,93.58693483904165
2061.7502,88.11237488827305
2063.3079,85.27845867909309
2064.8649,97.58529425761174
2066.4212,97.68298881715464
2067.9767,90.62164857519531
2069.5315,93.95137877237721
2071.0856,83.52228374312881
2072.6389,84.384466882364
2074.1915,74.2880307497744
2075.7433,81.08307706120775
2077.2945,85.01970678963107
2078.8448,85.9480200971816
2080.3945,75.51811629579981
2081.9434,75.68009383794629
2083.4916,82.48405042090099
2085.039,77.98008298514333
2086.5857,77.86828764631275
2088.1317,84.04875974024856
2089.677,77.17159382410796
2091.2215,84.0368836145609
2092.7652,76.04472205656168
2094.3083,76.29520125469662
2095.8506,86.93841255310508
2097.3921,78.72444653297487
2098.933,81.40339290611007
2100.4731,74.87534059707036
2102.0124,80.14037771638141
2103.5511,81.14859162581627
2105.089,81.15006888574362
2106.6261,80.09489524504704
2108.1626,83.73315564110953
2109.6983,77.56493421036544
2111.2332,75.1403142519182
2112.7675,74.75937828922179
2114.301,78.3222080943275
2115.8337,78.8788846916932
2117.3657,72.57948832255556
2118.897,74.17409843936275
2120.4276,78.16279376876776
2121.9575,75.44565229568377
2123.4866,65.7227512233959
2125.0149,71.44416700073316
2126.5426,68.45997541929694
2128.0695,74.32025155624763
2129.5956,71.37506980414639
2131.1211,76.2245038123516
2132.6458,74.71862651647189
2134.1698,69.8575100898704
2135.693,69.44122595872466
2137.2155,66.6698448506371
2138.7373,65.84343679879817
2140.2584,69.3120711697004
2141.7787,70.37581667140216
2143.2983,70.83474131884157
2144.8171,67.33891242319896
2146.3353,65.73839658730776
2147.8527,63.233259740612425
2149.3693,71.47356715517367
2150.8853,60.70938347072092
2152.4005,57.99077261224738
2153.9149,67.1677978976528
2155.4287,69.04052206492929
2156.9417,66.65900718039154
2158.454,56.97331461994952
2159.9655,60.13350509292309
2161.4764,66.78963873889973
2162.9865,68.2917750961318
2164.4958,58.3399730349754
2166.0045,59.78429074286964
2167.5124,56.87478582385393
2169.0195,59.66151528412581
2170.526,58.69453556113456
2172.0317,61.72390249571504
2173.5367,61.0996713417569
2175.0409,70.42189673591099
2176.5445,58.340632703831375
2178.0473,64.50593256695345
2179.5494,62.86784906330604
2181.0507,56.92643428585916
2182.5513,59.781739698904516
2184.0512,55.833816197469446
2185.5504,57.182714078763865
2187.0488,54.578483081660124
2188.5465,62.92117237320315
2190.0435,57.910830574653914
2191.5397,56.99750567806177
2193.0353,49.23124509636784
2194.5301,58.562095672538135
2196.0241,60.69010375722678
2197.5175,57.91531511546668
2199.0101,49.98777490539044
2200.502,49.80752770597769
2201.9931,47.374617596330495
2203.4835,49.23908815747552
2204.9733,52.50098249669395
2206.4622,52.16034322887583
2207.9505,46.51721244390251
2209.438,47.2216317100515
2210.9248,41.87364213042861
2212.4109,41.123284335923586
2213.8962,37.22059853868973
2215.3809,44.765624539648115
2216.8648,46.85840176751333
2218.3479,44.59896920334472
2219.8304,42.737365359617456
2221.3121,42.12362830281745
2222.7931,39.80779567205741
2224.2733,38.839904685213924
2225.7529,38.41999216208501
2227.2317,30.298094534070856
2228.7098,37.57424784837201
2230.1872,38.49848784920812
2231.6638,43.520849905056934
2233.1397,37.941368999411225
2234.6149,39.31007968055587
2236.0894,37.37701611736179
2237.5632,39.19221208559986
2239.0362,29.50570098727053
2240.5085,33.71751583245282
2241.9801,37.57768933616899
2243.4509,30.886253876266437
2244.921,31.893241454815325
2246.3904,28.74868376502434
2247.8591,26.352612181169548
2249.3271,28.855057790040064
2250.7943,18.306051414899798
2252.2608,22.155623590461914
2253.7266,30.153804668379735
2255.1917,31.250624778750534
2256.656,14.896113750133736
2258.1197,20.240301098582677
2259.5826,30.43321619118956
2261.0447,19.724888192643675
2262.5062,24.215345963302184
2263.9669,22.654618166273508
2265.4269,25.342733222513175
2266.8862,24.079719326430677
2268.3448,25.865604419008832
2269.8026,29.900416200433483
2271.2598,22.984182112234407
2272.7162,26.01692929693786
2274.1719,20.298684667227917
2275.6268,23.12947487561985
2277.0811,22.559326371642157
2278.5346,22.088265373528884
2279.9874,21.416317873921003
2281.4395,23.493509644577216
2282.8908,20.619866243092986
2284.3414,23.645412992129025
2285.7914,17.720175008147123
2287.2406,24.24417717115557
2288.689,31.21744418396065
2290.1368,25.540000506926788
2291.5838,22.611870288244006
2293.0302,21.083077420702978
2294.4758,23.40364557097581
2295.9206,25.173598194904514
2297.3648,24.94295851429547
2298.8082,28.31174949921882
2300.251,22.529993870315593
2301.693,23.047714065109858
2303.1343,14.614932295825668
2304.5748,22.131670544210124
2306.0147,21.29795064586142
2307.4538,27.813794215061023
2308.8922,18.679222653111367
2310.3299,18.594257083176842
2311.7669,21.058918441629828
2313.2031,19.87322747890056
2314.6387,19.787204734830368
2316.0735,18.650870550528452
2317.5076,14.564245069232186
2318.941,22.62734824767034
2320.3737,13.240199896929994
2321.8056,20.802819601824808
2323.2369,20.465226814766936
2324.6674,24.677440780140387
2326.0972,12.039480537676752
2327.5263,24.051364880333665
2328.9547,20.16311248067302
2330.3823,17.774741770743503
2331.8092,21.4862709809625
2333.2355,16.19771816400032
2334.661,9.709101157665145
2336.0858,20.720437637787768
2337.5098,21.831745183108524
2338.9332,14.193041165163265
2340.3558,18.10434273717027
2341.7778,17.115666910417588
2343.199,25.07703051515
2344.6195,17.438450210455812
2346.0393,16.69994240465337
2347.4583,15.661523331676676
2348.8767,13.623209058460077
2350.2943,17.585015495323375
2351.7113,14.596958416353914
2353.1275,23.50905341978887
2354.543,24.37131595789623
2355.9578,23.283761247854102
2357.3718,21.096404263127397
2358.7852,18.10925974434349
2360.1978,20.372342221166264
2361.6098,22.185666042166417
2363.021,24.399245352191087
2364.4315,23.663094074230457
2365.8413,20.17722588728185
2367.2504,24.041654233712165
2368.6587,20.456392354115735
2370.0664,14.121453248670662
2371.4733,21.336849712991125
2372.8795,12.552594401476654
2374.285,16.91869975515806
2375.6899,21.085178089540364
2377.0939,21.152041550941703
2378.4973,24.919302074827954
2379.9,15.73697138514541
2381.3019,14.355060956647208
2382.7032,17.773582106717072
2384.1037,17.74254600918823
2385.5035,14.761963660158301
2386.9027,16.631845878299487
2388.3011,9.952203334665228
2389.6987,16.373046533990077
2391.0957,18.394385881486585
2392.492,13.416231618635834
2393.8876,13.588593802974856
2395.2824,5.711482357877571
2396.6765,16.684907070833162
2398.07,9.258877672214624
2399.4627,15.183403725545645
2400.8547,9.75849470176081
2402.246,3.634159919961405
2403.6366,13.660408601663221
2405.0265,4.337213663125112
2406.4156,12.01454788400224
2407.8041,8.192384000577874
2409.1918,18.070694628990168
2410.5789,10.29945230345345
2411.9652,14.37862937747559
2413.3508,12.45819810157002
2414.7358,9.938130582464169
2416.12,15.418398802303898
2417.5035,7.598974643854092
2418.8863,13.179829835695614
2420.2684,11.010936030419714
2421.6497,15.092264748819446
2423.0304,10.373787401578454
2424.4104,10.755475248458026
2425.7896,9.687299445481699
2427.1682,21.119231041118724
2428.546,11.801240986965183
2429.9232,11.03330002342517
2431.2996,15.465378772890858
2432.6753,15.947447747421563
2434.0503,10.879477304423403
2435.4246,17.56143764182775
2436.7982,11.843298848771497
2438.1711,10.675030838777445
2439.5433,13.956603406935415
2440.9148,14.187986241584952
2442.2856,10.669148891499674
2443.6557,12.200060763573731
2445.025,14.680691158009495
2446.3937,14.261009253009206
2447.7617,14.790984079968098
2449.1289,8.870584527671667
2450.4955,11.74977933699563
2451.8613,11.578537160109818
2453.2265,11.65682653168625
2454.5909,13.83461587061197
2455.9546,10.261873479205917
2457.3177,13.138567521441189
2458.68,17.364666058672015
2460.0416,15.490137020867337
2461.4025,16.414948164349482
2462.7627,10.889067090539754
2464.1222,18.062461236710362
2465.4811,22.285097931243
2466.8392,21.756944321895276
2468.1966,20.02796733357394
2469.5533,15.34813367361653
2470.9093,20.817409849081116
2472.2645,13.835762213544626
2473.6191,22.303156912410145
2474.973,21.319559952723125
2476.3262,22.684937118497714
2477.6787,24.599253980552703
2479.0305,20.06247588285777
2480.3816,21.47456792338994
2481.7319,26.68549499950194
2483.0816,25.445221793800897
2484.4306,27.65371272203936
2485.7789,19.310931945517666
2487.1264,27.666843348998896
2488.4733,27.92141062413748
2489.8195,19.42459718591948
2491.165,20.976366170116933
2492.5097,22.876680518256137
2493.8538,16.32550296209962
2495.1972,20.72279600464367
2496.5398,24.268521985629377
2497.8818,19.11264303757042
2499.2231,22.355121050294997
2500.5637,25.195917722505214
2501.9035,21.484994529352093
2503.2427,21.172312694027255
2504.5812,32.90783322487289
2505.919,21.591516918508148
2507.256,23.223324242474007
2508.5924,26.603215448396668
2509.9281,19.5811505556689
2511.2631,31.15708931765147
2512.5974,30.030991291893713
2513.9309,23.25281572437433
2515.2638,30.122521560761868
2516.596,20.640067514197142
2517.9275,26.60541199659599
2519.2583,21.86851321347342
2520.5884,22.979329104290798
2521.9178,28.037817389824397
2523.2465,26.64393556105739
2524.5745,26.69764082859524
2525.9018,24.198890136603893
2527.2284,27.647640162273262
2528.5543,38.693847340804496
2529.8796,23.387467830922446
2531.2041,30.878457404413723
2532.5279,26.066771599190417
2533.851,34.00236564438012
2535.1735,35.63519450844291
2536.4952,30.915212819815395
2537.8163,31.792374850582405
2539.1366,31.666634563676723
2540.4562,32.337945604107574
2541.7752,34.30626130021807
2543.0935,38.87153465697202
2544.411,32.88371833627059
2545.7279,31.192764611300163
2547.0441,33.99862542640983
2548.3596,36.80125241402152
2549.6744,47.200596866571175
2550.9885,40.54660970848238
2552.3019,37.389241392172664
2553.6146,42.32844196459399
2554.9266,36.96416109880579
2556.2379,38.14634804458342
2557.5485,39.17495168206102
2558.8585,39.349920509909055
2560.1677,41.371202635048746
2561.4762,36.73874577090231
2562.7841,38.25249721718001
2564.0913,41.66240390620476
2565.3977,39.51841238777479
2566.7035,39.620468795064085
2568.0086,46.51851886606295
2569.313,45.01250794255691
2570.6167,42.602380901146546
2571.9197,51.138082168307335
2573.222,50.11955574449132
2574.5236,50.64674511876956
2575.8246,43.769593279017954
2577.1248,48.13804270664491
2578.4244,47.25203544536299
2579.7232,47.66151305750435
2581.0214,52.06641663288093
2582.3189,53.016686784689796
2583.6157,58.212263605463875
2584.9118,56.40308665756925
2586.2072,63.18909492124976
2587.5019,63.970226812718124
2588.7959,55.14642011629638
2590.0893,54.96761197660459
2591.3819,62.63373898679839
2592.6739,60.19473719035756
2593.9652,61.250542004424574
2595.2557,66.25108824419476
2596.5456,71.04631011235813
2597.8348,62.83614114909409
2599.1234,69.22051418411905
2600.4112,62.04936141878824
2601.6983,71.6226143622518
2602.9848,69.5402039031668
2604.2705,71.30206021396407
2605.5556,81.80811277167271
2606.84,72.75829034030136
2608.1237,70.85252086577776
2609.4067,74.14073156644656
2610.689,68.22284895212755
2611.9707,66.79879879123308
2613.2516,70.91850616994725
2614.5319,60.0318955064663
2615.8115,68.78889050980155
2617.0903,66.58941428864546
2618.3685,66.8833892638018
2619.6461,64.62073719018031
2620.9229,69.30137915385694
2622.199,67.72523559470045
2623.4745,60.24222625956577
2624.7493,63.55227021805558
2626.0234,67.7552859373506
2627.2968,64.10119124910881
2628.5695,59.539903307435566
2629.8415,66.37133862542444
2631.1128,63.19541312077013
2632.3835,65.16204204745401
2633.6535,62.52114002750329
2634.9228,65.42262103132506
2636.1914,65.51639840411485
2637.4593,66.75238483684223
2638.7265,69.38049236531293
2639.9931,68.70063235780904
2641.259,66.46271548880782
2642.5242,66.56665174578043
2643.7887,65.51235045157114
2645.0525,63.49972026335777
2646.3156,61.07866918319459
2647.5781,62.54910457813901
2648.8398,65.81093320446155
2650.1009,59.614061192941904
2651.3613,59.408394016250554
2652.6211,65.19383655091735
2653.8801,64.77029307938835
2655.1385,61.287667232171145
2656.3961,58.84586199207072
2657.6531,61.194779729015266
2658.9094,59.434322224474556
2660.1651,66.71439064797062
2661.42,69.98488557468224
2662.6743,63.695706912644596
2663.9279,67.8467538700439
2665.1808,69.58792501810953
2666.433,70.81911824960329
2667.6846,65.64023076140813
2668.9354,68.7011590422158
2670.1856,76.85179892431609
2671.4351,81.39204555298707
2672.6839,79.321793304989
2673.9321,80.89093574316172
2675.1795,86.94936563712713
2676.4263,84.59697494759803
2677.6724,89.23365476579374
2678.9179,87.25929533696376
2680.1626,90.27378601402125
2681.4067,92.87701527728655
2682.6501,86.31887070434232
2683.8928,79.99923894400135
2685.1348,77.96800578188771
2686.3761,83.4750562036333
2687.6168,82.52027441519016
2688.8568,72.45354378775943
2690.0961,71.62474686733995
2691.3348,74.13376547539511
2692.5727,72.48048071714092
2693.81,66.56477295645601
2695.0466,66.63652183241427
2696.2826,68.1456063184421
2697.5178,77.14190472160064
2698.7524,75.12529466749524
2699.9863,74.69565301031233
2701.2195,71.55285585298552
2702.452,83.9967785514919
2703.6839,86.07729574628007
2704.9151,92.8442812378311
2706.1456,85.49760796585306
2707.3755,91.98714794161111
2708.6046,95.31277232139456
2709.8331,101.07435134162145
2711.0609,105.42175428558193
2712.2881,113.00484942582267
2713.5145,116.62350398067309
2714.7403,124.47758403841416
2715.9654,133.9669545210918
2717.1899,132.24147910597605
2718.4136,144.70102013066764
2719.6367,151.64543861035236
2720.8591,160.4745941132059
2722.0809,170.08834469094978
2723.3019,168.18654679055965
2724.5223,178.06905515812764
2725.7421,187.53572285788053
2726.9611,183.58640117335483
2728.1795,175.82093951272975
2729.3972,173.6891854483206
2730.6142,156.34098479423338
2731.8306,153.67618162768247
2733.0462,144.79461846247236
2734.2612,132.69613627564593
2735.4756,128.03057459630008
2736.6892,107.44777162657027
2737.9022,105.04756428828628
2739.1145,97.37978842880037
2740.3262,91.59427884498936
2741.5372,83.49086935993228
2742.7475,70.31939288076535
2743.9571,68.42968147971624
2745.1661,60.57156652581881
2746.3744,53.944878703809934
2747.582,49.999448092711276
2748.7889,46.38510423209544
2749.9952,44.25167616154084
2751.2008,31.648992456774806
2752.4057,34.276881251007836
2753.61,34.43517036096074
2754.8136,34.12368726058554
2756.0165,25.94225907948271
2757.2188,23.440712606016092
2758.4204,24.618874369127184
2759.6213,24.87657066335038
2760.8215,25.91362753703129
2762.0211,25.52987078974985
2763.22,17.475125961949914
2764.4182,25.849218338776694
2765.6158,14.701973030624288
2766.8127,14.133214889394822
2768.009,14.09276861997077
2769.2045,12.180458785902687
2770.3994,2.746109809813504
2771.5936,0.2895459925216528
2772.7872,0.5105916073846402
2773.9801,4.459070924864761
2775.1723,-1.0151917896818645
2776.3639,-11.762372315489415
2777.5548,-8.28263629002629
2778.745,-4.3260318446616
2779.9346,-3.3425243672278384
2781.1235,-8.532036028499192
2782.3117,-6.794455607431871
2783.4992,-10.07958664794188
2784.6861,-9.43716481733395
2785.8723,-10.216825087842324
2787.0579,-7.1681081544248855
2788.2428,-4.490452645956964
2789.427,-4.783225581913655
2790.6106,-0.3957491221482883
2791.7935,-5.727297642090775
2792.9757,4.772858436362526
2794.1573,1.3055059070186417
2795.3382,7.571431515956476
2796.5184,7.2214219961997514
2797.698,17.75626400505797
2798.8769,18.97674412762666
2800.0551,23.833648771438845
2801.2327,34.127764154260376
2802.4096,29.55987625552075
2803.5859,38.680770713372
2804.7615,50.94123287036746
2805.9364,61.292047682252985
2807.1106,75.43399959536231
2808.2842,86.46787244310889
2809.4572,107.44444930456643
2810.6294,123.11451239412997
2811.801,146.02884285175026
2812.972,161.1382205862331
2814.1423,184.6434240460959
2815.3119,216.7952300684742
2816.4808,251.4444136440692
2817.6491,275.44174759563055
2818.8167,302.8380022314633
2819.9837,342.7339451054555
2821.15,382.48034074311516
2822.3157,420.27795024261115
2823.4807,457.27753087730923
2824.645,490.2798357177956
2825.8086,539.0856132618817
2826.9716,573.5956071045803
2828.134,605.1105554500487
2829.2957,633.0811907664875
2830.4567,654.1082394709927
2831.617,655.8924216498481
2832.7767,673.3844508482555
2833.9358,676.8350340524921
2835.0941,671.4948715149911
2836.2519,647.8646567198352
2837.4089,641.1950764361588
2838.5653,624.3368109544499
2839.7211,609.6905341532458
2840.8761,613.9569136677162
2842.0306,610.3866110361257
2843.1843,627.9302816571695
2844.3374,645.7885748256776
2845.4899,671.9121335571771
2846.6417,705.0515944093095
2847.7928,744.0575872205952
2848.9433,774.4307347790389
2850.0931,811.8216524320693
2851.2422,843.5809477828084
2852.3907,883.8592203161618
2853.5385,902.907061081226
2854.6857,926.6250522885052
2855.8323,970.1637671194333
2856.9781,995.4737694891932
2858.1233,1024.3556136113307
2859.2679,1059.059843744654
2860.4118,1100.1369939044148
2861.555,1132.9875875152677
2862.6976,1159.9621370004975
2863.8395,1180.011143453512
2864.9808,1192.1850963680995
2866.1214,1212.7344734379362
2867.2614,1214.4097404348477
2868.4007,1224.1613510033146
2869.5393,1244.8397466437214
2870.6773,1239.445356614838
2871.8146,1246.5785977270375
2872.9513,1241.88987439624
2874.0874,1244.5795785725797
2875.2227,1238.8480897872923
2876.3574,1219.7457751258175
2877.4915,1202.5729892851145
2878.6249,1195.3800747646847
2879.7577,1166.4673620382991
2880.8898,1165.4351696259298
2882.0212,1159.0338043828738
2883.152,1142.3135615100778
2884.2821,1143.0247246181507
2885.4116,1140.1175658945658
2886.5405,1140.2423460965501
2887.6686,1158.4493145801534
2888.7962,1159.288709299004
2889.923,1162.4607566222364
2891.0493,1171.2156713260974
2892.1748,1179.3536565622273
2893.2997,1176.2749037701096
2894.424,1194.9795925956905
2895.5476,1207.1178909221694
2896.6706,1214.1899546829472
2897.7929,1217.0959277402483
2898.9145,1249.0859418143962
2900.0355,1252.360116454756
2901.1559,1265.5185587198337
2902.2756,1287.5613631445335
2903.3946,1305.8386116085749
2904.513,1319.500373116063
2905.6308,1318.5967036127179
2906.7479,1352.7776458492554
2907.8643,1370.393229390425
2908.9801,1373.9934702731994
2910.0953,1382.7783708306188
2911.2098,1375.8479196557896
2912.3236,1361.3020915140348
2913.4368,1364.8908474121977
2914.5494,1332.464134744101
2915.6613,1304.6718872546594
2916.7725,1291.9640253641464
2917.8831,1277.3404564461173
2918.9931,1255.901074954486
2920.1024,1234.7457625697634
2921.211,1233.7743884134488
2922.319,1230.4868092595843
2923.4264,1212.732869544469
2924.5331,1202.5624013995332
2925.6391,1207.3752248288795
2926.7445,1203.1211478109856
2927.8493,1195.249966250578
2928.9534,1200.8614640211713
2930.0569,1214.105413043781
2931.1597,1213.1815732308082
2932.2619,1219.7396923535994
2933.3634,1236.7795060516855
2934.4643,1228.1507377672006
2935.5645,1228.8530985744844
2936.6641,1225.8362872663686
2937.763,1216.4499903471542
2938.8613,1204.64388206278
2939.959,1174.717624494684
2941.056,1137.520867677867
2942.1523,1098.8532499001522
2943.248,1061.2143980741548
2944.3431,998.5539281239589
2945.4375,937.5714453615034
2946.5313,871.7165451131887
2947.6244,819.2888133297012
2948.7169,755.7378272445615
2949.8087,695.2131558984032
2950.8999,637.2143607744807
2951.9904,596.6409964039178
2953.0803,548.9426109456944
2954.1696,520.4187465923806
2955.2582,488.6689400471208
2956.3462,455.49272280887243
2957.4335,434.78962148990314
2958.5202,418.10915814755396
2959.6062,394.2508504912696
2960.6916,384.2642120494035
2961.7764,383.84875240780065
2962.8605,367.35397730966406
2963.9439,374.3793886597094
2965.0267,364.52448468911285
2966.1089,361.8887598852567
2967.1905,360.3717050902789
2968.2714,361.12280752742987
2969.3516,356.24155081624326
2970.4312,374.87741496502497
2971.5102,379.02987641966536
2972.5885,380.19840787728106
2973.6662,384.2324782446901
2974.7432,387.2815526267266
2975.8196,384.1950922858998
2976.8954,391.0225546119043
2977.9705,391.5133931524832
2979.045,382.917057545155
2980.1188,377.382993512304
2981.192,368.61064294714384
2982.2645,359.89944396905895
2983.3364,344.04883101132737
2984.4077,331.6582349082329
2985.4783,314.12708305357137
2986.5483,300.25479952455606
2987.6177,280.8908052571298
2988.6864,259.6345181846875
2989.7545,240.23535343171642
2990.8219,214.0427235263585
2991.8887,201.10603859440243
2992.9548,183.07470662121005
2994.0204,161.548133581083
2995.0852,146.97572361757602
2996.1495,132.30687925876254
2997.2131,117.89100156295922
2998.276,96.42749026541424
2999.3383,86.56574392246574
3000.4,73.45516012617708
3001.4611,60.19513560295451
3002.5215,52.38506634465273
3003.5812,45.22434774117505
3004.6404,40.86237465857437
3005.6989,26.698541510660334
3006.7567,21.78224230261887
3007.8139,16.31287077265054
3008.8705,15.039820441133571
3009.9264,10.012484665317544
3010.9818,5.0302566520540495
3012.0364,9.192529508069896
3013.0905,1.1986962897893534
3014.1439,-4.4018500382882735
3015.1966,-7.209716523650741
3016.2487,-5.625466239304075
3017.3002,-7.099590233186461
3018.3511,-10.082523354828282
3019.4013,-0.42462952885355776
3020.4509,-6.8761719554779575
3021.4998,-7.187409592868363
3022.5481,-9.008532706234007
3023.5958,0.41034024143746706
3024.6428,-5.980819217599731
3025.6892,-0.4320395551949048
3026.735,-1.1932894948133423
3027.7802,2.385466556154711
3028.8247,5.404276111281064
3029.8685,8.163186660282975
3030.9118,4.162245638835145
3031.9544,11.50150040098049
3032.9963,8.43099825913967
3034.0376,13.55078641071853
3035.0783,18.660911968813167
3036.1184,22.661421911011928
3037.1578,22.002363028294326
3038.1966,22.683781885025326
3039.2348,26.90572482554677
3040.2723,32.1182379673626
3041.3092,31.971367158919463
3042.3455,33.165157927481744
3043.3811,33.599655480600234
3044.4161,38.6749046941743
3045.4505,40.14095010810689
3046.4842,36.69783587555193
3047.5173,44.24560574825392
3048.5498,42.63430311097923
3049.5816,40.913970906037974
3050.6128,39.284651649397375
3051.6434,41.34638744788512
3052.6734,43.44922001548241
3053.7027,44.69319065270673
3054.7314,47.178340225583355
3055.7594,47.4547091532059
3056.7868,49.17233738288451
3057.8136,40.631264387382544
3058.8398,44.88152914773991
3059.8653,49.47317023868385
3060.8902,49.75622578612641
3061.9145,47.88073342124821
3062.9381,50.09673027766755
3063.9612,54.654253010195674
3064.9835,55.20333777267652
3066.0053,53.84402017241152
3067.0264,51.776335264668774
3068.0469,50.60031756627609
3069.0668,55.366001076298176
3070.086,44.97341928779656
3071.1046,50.92260514017278
3072.1226,49.663591123094164
3073.1399,46.646409217002144
3074.1567,44.071090905702306
3075.1727,41.487667206536344
3076.1882,44.24616869613499
3077.203,36.096625536252304
3078.2173,39.23906744618074
3079.2308,29.623523784246544
3080.2438,29.55002351638518
3081.2561,23.568595312297077
3082.2678,19.529267546182382
3083.2789,20.582068356555226
3084.2893,20.97702568663722
3085.2991,15.714167273829304
3086.3083,18.343520645762098
3087.3169,11.31511317292474
3088.3248,12.678972042371143
3089.3321,14.785124328004116
3090.3388,6.833596976936775
3091.3449,12.474416788431014
3092.3503,8.157610493412704
3093.3551,7.383204698063679
3094.3593,5.601225926989727
3095.3629,9.211700630964629
3096.3658,4.514655204749872
3097.3681,2.6601159509900327
3098.3698,6.748109127183113
3099.3708,6.17866096422604
3100.3713,2.8017976255346753
3101.3711,5.217545212738372
3102.3702,8.825929799448545
3103.3688,7.776977407101256
3104.3667,4.620713968873204
3105.364,-0.49283465982858843
3106.3607,3.3363573301957956
3107.3568,-0.5916793284354469
3108.3522,3.5230860635322045
3109.347,4.080690116229803
3110.3412,1.4311694045574512
3111.3348,-0.525439537391506
3112.3277,-0.7391001898354688
3113.32,1.9402292161481398
3114.3117,2.562597833092653
3115.3028,1.1280547941292554
3116.2932,0.13664920676315262
3117.2831,4.538430167219033
3118.2723,4.483446770355172
3119.2608,0.6217480656455621
3120.2488,1.003383057729721
3121.2361,-1.2215992549702435
3122.2229,4.646850115933972
3123.209,2.608792362607147
3124.1944,6.964288630745614
3125.1793,4.463400039957833
3126.1635,2.206187640209336
3127.1471,0.3427124368317891
3128.1301,5.023035413095016
3129.1125,2.397217548841681
3130.0942,7.565319773684195
3131.0753,7.677402993262817
3132.0558,9.033528037564537
3133.0357,7.8337556598024065
3134.015,4.8781465228541805
3134.9936,6.566761211260086
3135.9716,7.849660260778876
3136.949,7.276904141501802
3137.9258,6.1485532450235
3138.902,11.964667890169665
3139.8775,4.375308334280412
3140.8524,7.230534715049288
3141.8267,6.280407126416733
3142.8004,11.774985590017899
3143.7735,7.264330064683875
3144.7459,9.748500391495902
3145.7178,13.627556338891942
3146.689,13.35155757782504
3147.6596,12.170563642972652
3148.6295,11.084633935496626
3149.5989,11.843827734853242
3150.5676,15.548204209652397
3151.5357,13.397822410065757
3152.5032,14.742741230782947
3153.4701,12.883019432515404
3154.4364,15.51871562854717
3155.402,13.499888303332135
3156.367,14.626595786137031
3157.3315,15.298896271229793
3158.2952,16.016847806612397
3159.2584,17.630508287297907
3160.221,20.989935448130936
3161.1829,21.695186847651016
3162.1442,18.096319834498424
3163.105,18.443391540361347
3164.065,19.18645891596489
3165.0245,18.275578727600248
3165.9834,22.510807549694057
3166.9416,20.492201773917188
3167.8993,20.569817566832427
3168.8563,22.543710890080597
3169.8127,17.713937499604327
3170.7684,23.380552925909168
3171.7236,23.893612522361337
3172.6782,23.803171408521532
3173.6321,25.709284465014314
3174.5854,23.66200633443259
3175.5381,25.9613914022764
3176.4902,29.707493817425775
3177.4417,29.500367469146784
3178.3926,25.790065949630637
3179.3428,25.97664255606485
3180.2924,28.410150327736318
3181.2415,27.190642044165536
3182.1899,29.81817020077149
3183.1377,29.342787021066776
3184.0848,31.064544430382263
3185.0314,31.833494060620975
3185.9773,32.999687233040476
3186.9227,33.0131749505634
3187.8674,35.92400788611555
3188.8115,33.08223638249091
3189.755,30.38791042324347
3190.6979,35.441079661104816
3191.6402,34.49179344492745
3192.5818,35.34010076915308
3193.5229,38.636050283305494
3194.4633,34.429690283507455
3195.4031,32.271068679521264
3196.3423,34.76023303681228
3197.2809,37.79723059813522
3198.2189,38.63210825864246
3199.1563,37.76491253551406
3200.0931,41.045689559609016
3201.0292,39.2744850841372
3201.9648,40.001344451851566
3202.8997,39.82631261276025
3203.834,40.89943411685793
3204.7677,41.670753115876174
3205.7008,41.74031335255218
3206.6333,40.60815815291564
3207.5652,43.874330425593094
3208.4964,46.43887267312952
3209.4271,43.60182695932656
3210.3571,43.66323488359717
3211.2865,43.82313760933599
3212.2154,46.78157586330532
3213.1436,41.98858993403613
3214.0712,44.59421964224357
3214.9982,45.9985043887569
3215.9246,45.7514831284632
3216.8503,49.903194356264486
3217.7755,47.95367610954794
3218.7001,50.902965926668784
3219.624,47.00110086644551
3220.5473,47.7981174786669
3221.4701,51.694051843110756
3222.3922,52.438939561573655
3223.3137,52.13281571891167
3224.2346,49.57571487559149
3225.1549,50.56767107075159
3226.0746,52.15871784777333
3226.9937,52.648888244361345
3227.9121,54.38821477663305
3228.83,55.226729434217006
3229.7473,58.36446366285964
3230.6639,55.70144835604002
3231.5799,54.63771382359262
3232.4954,56.57328981833741
3233.4102,55.8582055467172
3234.3244,60.692489649441924
3235.238,58.07617020863943
3236.151,54.90927469951269
3237.0634,58.54183001650295
3237.9752,61.323862504958704
3238.8864,58.45539792481014
3239.797,62.18646142274879
3240.7069,58.86707756091221
3241.6163,60.797270279573304
3242.5251,62.67706293033421
3243.4332,61.25647825682432
3244.3408,64.5355383759024
3245.2477,57.864264791862425
3246.154,65.44267836364293
3247.0598,65.07079937153986
3247.9649,66.0986474414223
3248.8694,65.12624154845139
3249.7733,62.55360000680169
3250.6766,65.43074047938539
3251.5793,67.10768000357862
3252.4814,66.43443496245015
3253.3829,66.9110210679919
3254.2838,66.13745336785138
3255.1841,68.71374624056594
3256.0838,70.73991340329829
3256.9829,66.91596788607369
3257.8814,70.74192201151818
3258.7792,71.31778743309819
3259.6765,68.14357509686081
3260.5731,69.66929523567534
3261.4692,70.49495740097521
3262.3647,74.1205704475009
3263.2595,71.34614252504329
3264.1538,71.67168104218753
3265.0474,77.39719269405734
3265.9404,73.3726834590596
3266.8329,75.1981585416293
3267.7247,73.67362241247453
3268.616,73.79907879032177
3269.5066,73.92453065716123
3270.3966,74.24998025699233
3271.286,76.22542909456914
