RamanShift,CorrectedData
30.1047,1041.6319363595405
32.3739,964.9103680681314
34.6426,887.738789360403
36.9109,814.617180170932
39.1787,736.3455115569075
41.4461,660.8237464293461
43.7131,586.7018403358095
45.9796,507.3797422156215
48.2456,431.65739514108674
50.5112,361.6347371107124
52.7764,284.5117018064315
55.0411,214.4882192938295
57.3054,140.4142167933747
59.5692,66.63961938065323
61.8326,-7.185649272890998
64.0955,-80.56166616221033
66.3579,-145.98843649762097
68.6199,-214.1151606783942
70.8815,-259.63958067932083
73.1426,-264.30729946473696
75.4032,-136.76132619956752
77.6634,285.3079703811834
79.9231,1388.6615877881607
82.1824,3856.66052067893
84.4412,8313.61574982444
86.6995,14397.488217429036
88.9574,20161.138782560905
91.2148,24028.97816031336
93.4717,25691.816864168308
95.7282,25709.16516731789
97.9842,25294.633086036083
100.2398,24409.580379505198
102.4949,23438.26655396122
104.7495,22376.000871544347
107.0036,21348.49236001209
109.2573,20456.14982336196
111.5105,19644.48185210655
113.7632,18842.446832196954
116.0154,18215.402953139437
118.2672,17742.208216015813
120.5185,17271.420439753856
122.7693,16922.247265859263
125.0197,16566.246163123527
127.2696,16205.974431115676
129.519,15921.239203742263
131.7679,15540.047452850118
134.0163,15150.055991073663
136.2642,14744.77147564686
138.5117,14268.150412303105
140.7587,13820.099159328081
143.0052,13405.17393232597
145.2512,12965.280808699961
147.4967,12545.775731801506
149.7417,12235.214515329251
151.9863,11953.352847524084
154.2304,11760.446294274745
156.4739,11527.00030193646
158.717,11340.020199259976
160.9596,11057.961199726056
163.2017,10729.878403415256
165.4433,10381.876799828522
167.6844,9991.611271168022
169.925,9635.586595817153
172.1651,9193.157452243204
174.4047,8846.478422557599
176.6439,8540.80399694019
178.8825,8242.538577106046
181.1206,8046.736479362197
183.3582,7863.051937590291
185.5954,7712.139105204619
187.832,7535.702056988948
190.0681,7455.494790605662
192.3037,7383.421228360126
194.5388,7305.235218002766
196.7734,7243.440533449785
199.0075,7257.040875565053
201.2411,7299.539872778025
203.4742,7319.741080947754
205.7068,7412.247982937895
207.9389,7459.663988414697
210.1704,7548.49243292193
212.4015,7588.836577406731
214.632,7667.2496073313105
216.862,7733.834632269524
219.0915,7736.74468512273
221.3205,7776.732721453941
223.549,7813.301619458735
225.777,7802.754179565362
228.0044,7843.443124069061
230.2314,7840.721097237528
232.4578,7873.490664904037
234.6837,7877.054314494644
236.909,7898.414454700507
239.1339,7806.173415442246
241.3582,7694.9834476563265
243.582,7552.996724217493
245.8053,7447.765341050654
248.0281,7365.891318550753
250.2503,7301.226602635082
252.472,7318.3230655620255
254.6932,7415.982506577699
256.9139,7491.956651744992
259.134,7615.847152966975
261.3536,7825.7055872271485
263.5727,8111.933455350552
265.7912,8353.032179905169
268.0092,8619.203102339648
270.2267,8801.547480572332
272.4436,8881.666486329526
274.6601,8851.711203322076
276.8759,8759.582626444157
279.0913,8568.281662072835
281.3061,8381.109128989363
283.5204,8277.965760292169
285.7341,8189.4522052686
287.9473,8158.0190304263415
290.16,8181.166720378567
292.3721,8200.045678158262
294.5837,8301.856224986754
296.7947,8431.598600084915
299.0052,8564.622959655062
301.2152,8492.379375583523
303.4246,8329.867834110399
305.6334,7962.938236552008
307.8418,7528.640400925986
310.0495,7091.2240656205895
312.2568,6653.688893737673
314.4635,6175.184477466861
316.6696,5799.110342460886
318.8752,5506.215952620645
321.0802,5378.650713855932
323.2847,5342.763977014393
325.4887,5322.305039157167
327.692,5282.273143917757
329.8949,5217.117481706614
332.0972,5036.387190111462
334.2989,4762.281354548848
336.5001,4492.449010071446
338.7007,4244.639144109122
340.9008,4046.6506991672577
343.1003,3843.8825753048504
345.2992,3667.183632114391
347.4976,3517.7526907495467
349.6955,3398.988535692156
351.8927,3320.0899162465303
354.0895,3215.5055477271035
356.2856,3172.8341122474194
358.4812,3074.7242597659606
360.6763,3048.874608512875
362.8707,2976.433745971066
365.0646,2984.200229134698
367.258,2995.6225852336047
369.4508,3039.3993116556157
371.643,3150.1288758323426
373.8346,3201.4597148014072
376.0257,3274.9902340991393
378.2162,3277.2688072472793
380.4062,3242.043775017666
382.5956,3120.0634454094543
384.7844,3002.0760940013643
386.9726,2824.8299651714824
389.1603,2729.8232732771376
391.3474,2595.2542044273614
393.5339,2573.6709174329735
395.7199,2550.7715451522454
397.9052,2549.0541947067504
400.09,2601.3669477103413
402.2743,2750.3078602863407
404.4579,2871.9749625443983
406.641,3046.0162570911016
408.8235,3205.829717813278
411.0054,3298.2632881376103
413.1868,3443.614879432478
415.3675,3449.282370083636
417.5477,3404.863604040698
419.7273,3323.556390760461
421.9064,3233.3085056510863
424.0848,3118.517690885177
426.2627,2980.1316563022483
428.4399,2744.298080556646
430.6166,2423.114612501393
432.7928,2089.6788735465416
434.9683,1772.9384608709915
437.1432,1525.2909507568638
439.3176,1348.7339017568993
441.4914,1208.0648571709262
443.6645,1155.8813468114404
445.8371,1109.030888410296
448.0091,1033.3109881405308
450.1806,1018.3191410848831
452.3514,1011.6528319929876
454.5216,1023.7095354312933
456.6913,976.7367158497254
458.8603,1025.5818274611265
461.0288,1072.9923147109748
463.1967,1029.1156117889386
465.3639,1044.049142154765
467.5306,1007.6403189770481
469.6967,986.3365449838966
471.8622,968.2352128270177
474.0271,1005.7337052947641
476.1914,1027.6793954931418
478.3551,1022.2196464708231
480.5182,1069.9018109996905
482.6807,1155.2232316294412
484.8426,1383.031240210752
487.0039,1637.0731570420721
489.1647,2022.6962885915455
491.3248,2294.297924956587
493.4843,2418.575336007654
495.6432,2349.32576867223
497.8015,2192.746445692046
499.9592,2078.384566315577
502.1163,1843.387307863828
504.2728,1533.10182687397
506.4287,1295.0252614492983
508.5839,968.2047343620961
510.7386,767.937355434402
512.8927,681.9202248061993
515.0461,672.6004349381092
517.199,734.6250714715425
519.3512,914.4912133219259
521.5029,1211.9459320584338
523.6539,1462.6862901053446
525.8043,1582.4593377674719
527.9541,1519.362110722779
530.1033,1303.7416288246332
532.2519,1146.6948967327935
534.3999,1036.3689060695997
536.5472,1074.010636990446
538.694,1237.4670592870407
540.8401,1492.5851320109869
542.9856,1685.8118018392215
545.1305,1662.7940005228375
547.2748,1592.9286429548138
549.4185,1439.162627400192
551.5615,1323.042836194727
553.704,1363.1661372825602
555.8458,1443.2793853773983
557.987,1645.3794215612943
560.1276,1884.4130724835104
562.2675,2345.2771483395063
564.4069,2873.918440480629
566.5456,3384.4837168054473
568.6837,3523.8197164733538
570.8212,3140.873144798905
572.958,2467.99067185847
575.0942,1828.4189363196874
577.2299,1355.7545521702996
579.3648,1107.694115113858
581.4992,1045.134207296378
583.6329,1125.771399786936
585.766,1279.052253203261
587.8985,1403.3733169053849
590.0304,1461.181127462809
592.1616,1438.5222074113117
594.2922,1322.9430646748679
596.4222,1118.840192792226
598.5515,916.3100720727143
600.6802,784.3491716372628
602.8083,625.9039514437063
604.9358,613.9708636063806
607.0626,633.1463539805936
609.1888,776.0268622819513
611.3144,950.5088218945984
613.4393,1109.3886584424126
615.5636,1255.562788044197
617.6873,1296.3776157248794
619.8103,1215.6795339537584
621.9327,1026.3149222363681
624.0544,835.0301479214504
626.1756,631.8715680945952
628.2961,462.58553149109866
630.4159,394.01838052754647
632.5351,389.2164529946749
634.6537,346.27608274304293
636.7716,340.49359973104765
638.8889,396.1153304543259
641.0056,427.93759800358566
643.1216,391.0067215083709
645.237,372.66901581886304
647.3518,306.8207918751759
649.4659,208.50835689073028
651.5793,172.07801501075483
653.6922,166.8760682953889
655.8043,135.69881708399953
657.9159,134.8425600472019
660.0268,115.15359449861535
662.137,179.2282164034459
664.2466,169.2627205753597
666.3556,156.10340003574674
668.4639,97.69654611337864
670.5716,93.13844857599543
672.6786,65.52539621437427
674.785,-25.19632311208261
676.8907,-40.93042219922245
678.9958,-14.930362131628499
681.1002,-59.79919509897809
683.204,-58.989824136633615
685.3072,-50.35455488600746
687.4097,-42.04510368017327
689.5115,-35.012683810206
691.6127,-30.508088536602372
693.7132,-40.331761343146354
695.8131,-7.433840937825153
697.9123,10.635936885664705
700.0109,87.77791059769697
702.1089,117.79241856228327
704.2061,165.0797982656586
706.3028,239.94038601614193
708.3987,291.22451647126036
710.4941,317.43252188913357
712.5887,378.21473161565154
714.6827,449.8214718223935
716.7761,558.103064898789
718.8688,693.4098287360521
720.9608,842.0420756443746
723.0522,1000.2501109998539
725.1429,1091.0342317581726
727.233,1204.5447248725068
729.3224,1306.0818663857117
731.4112,1271.5459202951934
733.4993,1128.937137537545
735.5867,913.3057563339189
737.6735,715.0020036160895
739.7596,521.4760971827818
741.845,356.5282476827124
743.9298,284.9586605498407
746.014,255.91753765284193
748.0974,259.5050780108122
750.1802,265.2714780836741
752.2624,294.866931736311
754.3439,363.14163018088584
756.4247,464.99576168090607
758.5048,643.8795108684626
760.5843,959.093057725695
762.6631,1347.636575795952
764.7413,1929.1102290316612
766.8188,2659.764167908883
768.8956,3276.7485236125904
770.9718,3669.2134007301047
773.0473,3674.8588710812874
775.1221,3434.684969793858
777.1962,3183.6416952469517
779.2697,3107.829011472857
781.3426,3190.2968506674533
783.4147,3309.6951139483353
785.4862,3323.3236705301315
787.557,3138.7823565305316
789.6271,2669.820974833987
791.6966,2064.13929693713
793.7654,1430.5870676383838
795.8335,1047.6640110947847
797.901,757.9698371574996
799.9678,561.2042452010555
802.0339,477.6169270202845
804.0993,425.6075687979719
806.1641,358.37585194074563
808.2282,302.02145359915994
810.2916,233.74404734001655
812.3544,187.7933037099083
814.4164,146.36889091799276
816.4778,208.47047529550036
818.5385,270.2477217099713
820.5986,412.30029294425003
822.658,658.9278490787001
824.7166,1045.7300460706938
826.7747,1597.7065332883212
828.832,2180.2569496423785
830.8886,2591.0309180666063
832.9446,2807.1780396921713
834.9999,2672.147889739943
837.0545,2384.4900153590097
839.1085,1963.5539369769904
841.1618,1630.789151176603
843.2143,1370.595134905041
845.2662,1167.9713488016077
847.3175,1031.0172397996612
849.368,948.7822431528439
851.4179,842.3157838046354
853.467,778.9172772106904
855.5155,702.5361304035196
857.5633,640.4217426264531
859.6105,558.5235060974774
861.6569,489.0408066303535
863.7027,445.5730244536189
865.7478,397.7195349054091
867.7922,355.12970886812764
869.8359,326.9529132469943
871.8789,376.9385113959379
873.9212,429.58586339934845
875.9629,516.5443255722475
878.0039,641.0132499337906
880.0441,743.6919833377051
882.0837,793.8298662275865
884.1226,867.2262316101187
886.1609,951.6804045536846
888.1984,1109.8917014544186
890.2352,1248.40942919165
892.2714,1261.9328835458073
894.3069,1237.1613478132167
896.3416,1074.6940926708921
898.3757,928.1303764242293
900.4091,814.7194466316942
902.4418,803.5605415704467
904.4739,880.0028913704682
906.5052,949.8957181261248
908.5358,934.7882351317676
910.5658,812.9796461827918
912.595,591.71914572672
914.6236,409.70592008127824
916.6515,289.23914964700634
918.6786,186.1680107273878
920.7051,170.39167673351585
922.7309,225.65931921480114
924.756,239.5201080167426
926.7804,339.82321072824925
928.8041,330.86779254302746
930.8272,400.8030152565643
932.8495,395.2780373556561
934.8711,403.2420133190881
936.892,392.59409367286025
938.9123,415.53342491056355
940.9318,464.20914959984293
942.9506,472.22040615301376
944.9688,443.5663283403064
946.9862,367.3960452097508
949.003,212.90868137371945
951.019,128.65335777063046
953.0344,51.92919320981218
955.0491,29.535305214065374
957.063,83.07081078690317
959.0763,180.63482663648665
961.0888,225.026468640267
963.1007,282.3448508693609
965.1119,303.73908514462073
967.1223,303.05828046345414
969.1321,262.4515427858805
971.1412,268.6179750413394
973.1495,257.2566775347641
975.1572,275.6667478849049
977.1641,298.59728113795063
979.1704,316.44736958342946
981.1759,276.2161025248997
983.1808,293.60256610144916
985.1849,282.10584369001117
987.1884,373.62501573149166
989.1911,453.60915984574785
991.1932,528.4573499163871
993.1945,529.8686552909357
995.1951,513.1421400323388
997.1951,500.77686290486963
999.1943,489.5218775413814
1001.1928,476.0762325669657
1003.1906,568.8889717115026
1005.1877,700.6091339441136
1007.1841,781.9357525450332
1009.1798,861.6678537884109
1011.1748,789.5544561290462
1013.1691,647.7945694050504
1015.1627,476.3871955590057
1017.1556,275.6813300555432
1019.1477,187.2759635954326
1021.1392,73.97008412262767
1023.1299,31.912677708326555
1025.12,65.35272968403024
1027.1093,144.73922506212148
1029.0979,254.5711482014549
1031.0859,342.0474820134923
1033.0731,391.8172068639906
1035.0596,384.5792996982336
1037.0454,277.2327335433347
1039.0304,215.9264775806223
1041.0148,82.05949821910326
1042.9985,4.0307597085266025
1044.9814,-20.410774521946223
1046.9636,-84.71614108346148
1048.9452,-77.63617268353028
1050.926,-21.420855715412472
1052.9061,12.930599012996026
1054.8855,38.36919468814085
1056.8642,84.29593436716186
1058.8421,136.06182072351476
1060.8194,188.9678555877017
1062.7959,241.91503942960935
1064.7717,303.7043708294523
1066.7469,395.2868459482943
1068.7213,493.0634579101561
1070.695,606.9851958861982
1072.6679,645.5530441169467
1074.6402,665.367980773086
1076.6117,649.7309775697686
1078.5826,548.6429995684739
1080.5527,428.2550053333762
1082.5221,278.0179479422195
1084.4908,243.93277619020228
1086.4587,253.75043609234217
1088.426,274.6718712243346
1090.3925,288.5480226243708
1092.3584,339.0298285839217
1094.3235,368.9182245089896
1096.2879,480.2141424152769
1098.2515,634.4685106293064
1100.2145,829.4822526754651
1102.1767,1058.4562857334658
1104.1382,1266.7415186881944
1106.099,1533.538849839977
1108.0591,1764.9491648217354
1110.0185,1910.6233339310102
1111.9771,2000.8622098158485
1113.9351,1964.4666260180693
1115.8923,1857.1873960708763
1117.8488,1740.225313862802
1119.8045,1579.331154710504
1121.7596,1440.4556765283887
1123.7139,1316.4496214375513
1125.6675,1276.113717154537
1127.6204,1278.4486782313988
1129.5726,1208.9552064590544
1131.524,1166.5339908439337
1133.4748,1011.7857083029239
1135.4248,805.4110240875671
1137.3741,647.910593331555
1139.3226,544.5350631144656
1141.2705,488.53507403677486
1143.2176,412.61126125361534
1145.164,372.36425503476585
1147.1097,286.8946815238969
1149.0546,189.05316314103766
1150.9989,88.69031943727259
1152.9424,23.756768073162675
1154.8852,-57.096874177633254
1156.8272,-84.9699907790191
1158.7686,-44.16139479712638
1160.7092,-13.819050447886184
1162.6491,34.759519225108306
1164.5883,167.8769292305724
1166.5267,267.3357942296252
1168.4644,437.63872720462587
1170.4014,615.1383384645678
1172.3377,909.0372339420701
1174.2732,1226.5880134183662
1176.2081,1679.6932675843282
1178.1421,2190.505574864944
1180.0755,2801.127496888281
1182.0082,3161.211573377348
1183.9401,3376.060316043886
1185.8713,3232.2762049875228
1187.8017,2881.611686547286
1189.7315,2490.169174739438
1191.6605,2057.551054764135
1193.5888,1795.7596869198387
1195.5163,1611.447410929508
1197.4432,1503.7665485585112
1199.3693,1445.569405457748
1201.2947,1392.3082722404597
1203.2193,1359.8854250642007
1205.1432,1363.9031261634436
1207.0664,1336.0636241738157
1208.9889,1326.1191540919135
1210.9106,1301.7219375537006
1212.8316,1309.3741829339615
1214.7519,1328.3780855902542
1216.6715,1403.8858277863992
1218.5903,1476.5495785024477
1220.5084,1580.921492679584
1222.4257,1686.953710493508
1224.3424,1786.698356310697
1226.2583,1919.7075376281045
1228.1735,2104.8833440756944
1230.0879,2259.5278460863647
1232.0016,2497.943093044184
1233.9146,2658.6311117379437
1235.8269,2721.993903977006
1237.7384,2696.9834449844293
1239.6492,2595.601682763333
1241.5592,2600.7005383470078
1243.4686,2700.9319068127334
1245.3772,2934.997657230787
1247.285,3188.4496316621317
1249.1922,3429.0396428177546
1251.0986,3609.719471524145
1253.0042,3734.790864317408
1254.9092,3890.90553163645
1256.8134,4001.5651465722804
1258.7169,4145.171343306849
1260.6196,4329.175716006457
1262.5216,4503.979817385698
1264.4229,4690.385156867407
1266.3234,4952.143198834633
1268.2232,5092.205360766571
1270.1223,5173.773010620991
1272.0207,5247.597465433608
1273.9183,5212.429990502416
1275.8151,5156.62179864943
1277.7113,5212.4740505723685
1279.6067,5332.237855402728
1281.5014,5640.8642701472745
1283.3953,6115.104298490402
1285.2885,6760.658887707865
1287.181,7383.728923924378
1289.0727,7963.315225658078
1290.9637,8346.81853758981
1292.854,8582.489524767276
1294.7435,8595.278768769986
1296.6323,8449.836765352566
1298.5204,8202.86392431685
1300.4077,7915.360570966308
1302.2943,7602.3269485757755
1304.1802,7238.713221266484
1306.0653,6713.91947713639
1307.9497,6208.145731896327
1309.8333,5723.8419341179315
1311.7162,5373.807970291392
1313.5984,5150.843669668477
1315.4798,4984.698807762882
1317.3605,4846.723108579864
1319.2405,4731.116246277698
1321.1197,4474.47784654743
1322.9982,4095.407487768948
1324.876,3791.9547035773685
1326.753,3484.0689866537377
1328.6293,3251.299791759556
1330.5048,3084.0465388156417
1332.3796,2867.958615229816
1334.2537,2743.635377569446
1336.127,2685.67615372231
1337.9996,2681.480244139836
1339.8714,2676.446922416695
1341.7426,2666.6254353327604
1343.6129,2700.0650029034387
1345.4826,2710.01481847788
1347.3515,2743.524048404597
1349.2196,2741.941831931951
1351.087,2770.617280873068
1352.9537,2842.899479621652
1354.8197,2964.2874848652355
1356.6849,3133.0303248623613
1358.5493,3336.0769982287093
1360.4131,3552.1264722496517
1362.276,3709.0276808497983
1364.1383,3756.029522432491
1365.9998,3613.3808583107975
1367.8606,3322.3305122375004
1369.7206,2954.527271831568
1371.5799,2651.6698914886674
1373.4384,2384.0570960591976
1375.2962,2146.2375838768567
1377.1533,1870.9100294347836
1379.0096,1502.723085763737
1380.8652,1176.8753871853805
1382.7201,899.7655529941485
1384.5742,687.1921907157248
1386.4275,504.753898878138
1388.2802,381.54926913750296
1390.132,268.7268881023947
1391.9832,224.9853385658971
1393.8336,148.1732006338334
1395.6832,119.73905216217463
1397.5322,104.63146952516308
1399.3803,86.99902789965199
1401.2278,54.04030141618023
1403.0745,88.85386333529914
1404.9204,80.13828637716051
1406.7656,89.84214237337983
1408.6101,121.66400235419678
1410.4538,147.85243645142964
1412.2968,215.1060135802627
1414.139,287.1233011773529
1415.9805,384.1528645283024
1417.8213,462.79326604748167
1419.6613,555.1430643077392
1421.5006,699.3008132539999
1423.3391,910.8650612797519
1425.1769,1205.4343497854843
1427.0139,1628.1072110630384
1428.8502,2146.982165349913
1430.6858,2695.8077166025387
1432.5206,3085.732347307524
1434.3547,3326.5045129934033
1436.188,3369.272638331395
1438.0206,3319.085114727668
1439.8524,3163.040299895668
1441.6835,3052.0365183579925
1443.5139,2966.9720630068323
1445.3435,2887.445196214014
1447.1724,2931.3041506816535
1449.0005,2892.6471302374084
1450.8279,2880.522309395904
1452.6545,2878.577833745292
1454.4804,2924.2118200685036
1456.3056,2952.6723563626974
1458.13,2901.957501382918
1459.9536,2781.6652843574857
1461.7766,2548.693705495143
1463.5987,2277.540737187983
1465.4202,1960.9043263411631
1467.2409,1657.7823970844347
1469.0608,1401.2728539385116
1470.88,1183.7735848462817
1472.6984,972.1824637379077
1474.5161,812.3473527058213
1476.3331,682.4661041206336
1478.1493,587.1865622294845
1479.9648,501.50656445485765
1481.7795,467.8739423473753
1483.5935,445.986522442593
1485.4067,398.4421265973342
1487.2192,366.78857220855843
1489.031,373.07367268880444
1490.842,342.19523778273106
1492.6522,348.2010735042577
1494.4618,319.0889824453516
1496.2705,297.1567637159742
1498.0785,262.2022132352022
1499.8858,256.9731239505454
1501.6924,236.81728618749003
1503.4981,198.4324877017998
1505.3032,188.86651388106475
1507.1075,143.26714812855334
1508.911,141.13217195887592
1510.7138,110.45936545397035
1512.5159,86.29650728446086
1514.3172,23.191375016379425
1516.1178,24.691745352793077
1517.9176,17.745394764857338
1519.7166,-6.799900523190445
1521.515,-28.146364464560975
1523.3126,-14.49615308146258
1525.1094,-45.90114121392253
1526.9055,-17.113058885403007
1528.7008,-37.08317756696124
1530.4954,-40.71259777020077
1532.2893,-37.902049545784394
1534.0824,-57.55185622552199
1535.8747,-26.261962499751462
1537.6663,-16.231738115770895
1539.4572,-14.460290463872298
1541.2473,37.90343522070998
1543.0367,35.86063816104161
1544.8253,66.06251720115688
1546.6132,136.2102708264856
1548.4003,180.45509686183505
1550.1867,252.34819176991186
1551.9723,334.09075020887667
1553.7572,463.833964313405
1555.5414,598.9790228772708
1557.3247,772.2771100559057
1559.1074,971.6294040149605
1560.8893,1159.087075197307
1562.6705,1347.9012843295286
1564.4509,1508.2231805473366
1566.2305,1598.3538995074314
1568.0094,1639.144561784282
1569.7876,1663.4962719688192
1571.565,1656.2601182605304
1573.3417,1663.0371722239424
1575.1176,1681.8284888609796
1576.8928,1719.9351065431983
1578.6672,1746.5580468238704
1580.4409,1817.8483140569242
1582.2138,1871.306895130705
1583.986,1963.5347587550814
1585.7575,2106.032854926855
1587.5282,2236.152114007482
1589.2981,2379.2434452980897
1591.0673,2524.257735738288
1592.8358,2660.645848475251
1594.6035,2814.1086214135803
1596.3704,2912.49686585142
1598.1366,3042.1113649458284
1599.9021,3160.002872728898
1601.6668,3278.77211281161
1603.4308,3436.2697772049196
1605.194,3603.296525132061
1606.9564,3838.652981453576
1608.7182,4138.489734997045
1610.4791,4461.357336203518
1612.2394,4818.756294129152
1613.9988,5177.5370732165275
1615.7576,5491.000089720666
1617.5156,5711.445708121218
1619.2728,5785.374237987835
1621.0293,5677.185931775712
1622.785,5427.180984086298
1624.54,5051.359532749193
1626.2942,4649.521661322186
1628.0477,4201.6674028494745
1629.8005,3794.79674388004
1631.5525,3443.859628946198
1633.3037,3128.955964632292
1635.0542,2892.7856230840744
1636.804,2718.698445157738
1638.553,2591.4442427816234
1640.3013,2522.5228006970856
1642.0488,2490.033877731041
1643.7955,2508.2272074851785
1645.5416,2547.3524986608522
1647.2868,2652.2094348771407
1649.0313,2769.8476742796015
1650.7751,2954.916848491699
1652.5181,3101.3165614384206
1654.2604,3294.796387495589
1656.0019,3518.405870025864
1657.7427,3778.9445194439427
1659.4828,4036.7618109804635
1661.222,4212.607182076621
1662.9606,4194.880029805994
1664.6984,3964.3297091160903
1666.4354,3568.7055330056173
1668.1717,3056.706774829993
1669.9072,2513.2826722575783
1671.642,2059.98243238967
1673.3761,1701.1052371947371
1675.1094,1406.2002480414235
1676.8419,1167.0166092873255
1678.5737,1002.3034512280374
1680.3048,867.1598924889927
1682.0351,734.2350416725894
1683.7646,621.9279987096329
1685.4934,555.7378561885776
1687.2215,483.71370047860273
1688.9488,437.8046123915092
1690.6754,369.80966790196226
1692.4012,345.57793860658194
1694.1263,310.95849240389134
1695.8506,296.15039373663603
1697.5742,276.55270393797946
1699.297,216.66448137958196
1701.0191,202.18478166757723
1702.7404,173.06265824145748
1704.461,138.34716251886994
1706.1808,129.23734418683716
1707.8999,113.63225154891188
1709.6182,113.83093161627403
1711.3358,102.4324302637815
1713.0527,81.68579222798371
1714.7688,59.94006122110795
1716.4841,52.494280138522754
1718.1987,65.3974912761987
1719.9126,72.74873640516353
1721.6257,58.29705664247149
1723.338,71.59149237769316
1725.0496,59.38108341742691
1726.7605,53.264868852359996
1728.4706,54.54188717936995
1730.18,45.11117636268955
1731.8886,35.771773821131774
1733.5964,49.72271652240215
1735.3036,51.41304107649057
1737.0099,46.741783596159166
1738.7156,44.20797968004263
1740.4204,16.910664459355758
1742.1246,6.048872623236093
1743.8279,27.321638691714725
1745.5306,1.2779971243344335
1747.2325,9.566982107422518
1748.9336,-17.812372185474032
1750.634,-29.111031676475704
1752.3336,-14.279784342105359
1754.0325,-20.36912733967938
1755.7307,-27.579415171472192
1757.4281,-7.860798852175776
1759.1247,-8.613153878127378
1760.8206,3.913722783716821
1762.5158,8.57012021180526
1764.2102,8.056327445452098
1765.9039,-3.7273665617271945
1767.5968,0.9193270633209067
1769.289,-6.903265569957966
1770.9804,10.555181638689191
1772.6711,27.995063753138766
1774.361,22.516775731717644
1776.0502,29.220712252803878
1777.7386,26.35726776960837
1779.4263,17.026836443134926
1781.1132,39.27981217081788
1782.7994,32.61658867982305
1784.4849,28.43755930452062
1786.1696,12.393117053117294
1787.8535,44.233654649445725
1789.5367,35.509564693409175
1791.2192,42.92123934257734
1792.9009,46.01907039942489
1794.5818,54.40344923721523
1796.2621,56.47476676902352
1797.9415,46.43341336388767
1799.6202,43.17977882610285
1801.2982,40.61425249562808
1802.9755,50.18722328062677
1804.6519,83.39907968311991
1806.3277,62.10020970325695
1808.0027,68.9410005072018
1809.6769,65.92183864011577
1811.3504,57.29310995775222
1813.0231,67.85519965664389
1814.6951,85.15849236039776
1816.3664,89.90337201406874
1818.0369,87.94022171112601
1819.7067,89.96942364600591
1821.3757,84.94135913374384
1823.044,102.85640858968054
1824.7115,91.51495157974568
1826.3783,102.51736664130476
1828.0443,100.31403139657641
1829.7096,104.3553224426064
1831.3741,131.44161537330228
1833.0379,109.17328473902126
1834.701,111.350703775704
1836.3633,118.3242446275608
1838.0248,120.94427832529709
1839.6856,122.0111747163769
1841.3457,136.5253024388212
1843.005,125.13702891054209
1844.6636,146.5467201842007
1846.3214,145.45474106108668
1847.9785,141.16145487702488
1849.6349,148.1172235132958
1851.2904,147.7224074395649
1852.9453,161.67736564432653
1854.5994,159.3324556388502
1856.2528,163.38803331763302
1857.9054,166.29445298184874
1859.5572,165.75206729879437
1861.2083,159.56122727282082
1862.8587,146.17228225076087
1864.5084,172.9355799838363
1866.1572,190.50146676154645
1867.8054,170.9702871440354
1869.4528,172.6423837864345
1871.0994,179.9680976341706
1872.7453,193.19776790624792
1874.3905,185.4817320219886
1876.0349,179.57032546874007
1877.6786,190.8638818790323
1879.3215,200.41273308969312
1880.9637,196.21720902891366
1882.6051,194.32763762075774
1884.2458,193.54434482711804
1885.8858,182.21765466661327
1887.525,187.2478892224176
1889.1634,167.53536875552754
1890.8011,182.5304116544644
1892.4381,186.93333463239605
1894.0743,201.74445257718662
1895.7098,190.71407850736568
1897.3446,197.0925234240235
1898.9786,206.18009642110746
1900.6118,207.12710462164068
1902.2443,189.98385308684874
1903.8761,201.65064480668616
1905.5071,188.127780871268
1907.1374,207.465560354206
1908.7669,196.11428044783543
1910.3957,186.8242362698361
1912.0237,189.64572097674773
1913.651,189.92902585686625
1915.2776,190.02444030203333
1916.9034,178.98225180479994
1918.5285,186.4527459574747
1920.1528,198.43620656254507
1921.7764,198.1329155579706
1923.3992,191.1931528973514
1925.0213,191.51719655295665
1926.6427,183.9053225851253
1928.2633,175.40780513902564
1929.8832,195.47491652077292
1931.5023,169.85692728240406
1933.1207,165.9541060212091
1934.7383,173.0167196359082
1936.3552,187.44503336568232
1937.9714,184.2893107195448
1939.5868,176.4998133320587
1941.2015,175.87680099489694
1942.8154,166.22053173473455
1944.4286,161.9812618194785
1946.041,167.2092458548318
1947.6528,158.4547368266849
1949.2637,156.01798604883606
1950.8739,159.69924325053648
1952.4834,162.09875660085822
1954.0921,167.16677267188106
1955.7001,162.00353641469906
1957.3074,166.35929110873667
1958.9139,154.23427841338548
1960.5197,149.92873832444366
1962.1247,157.742909295368
1963.729,151.82702828032689
1965.3325,151.88133065606053
1966.9353,154.106050281041
1968.5374,153.7014194949263
1970.1387,150.41766909631656
1971.7393,139.455028346797
1973.3392,153.41372500377793
1974.9383,135.8939854301193
1976.5366,143.6960344545439
1978.1342,134.12009554683527
1979.7311,147.06639073981728
1981.3273,143.1851407251129
1982.9227,127.82656472368149
1984.5173,135.9908805246332
1986.1112,141.22830463881382
1987.7044,129.1390522171605
1989.2968,130.62333699832834
1990.8885,139.88137142958158
1992.4795,131.86336665195267
1994.0697,130.11953240766047
1995.6592,135.60007712029096
1997.2479,135.20520791223657
1998.8359,141.53513054989048
2000.4232,131.8400494475943
2002.0097,127.57016760433976
2003.5955,111.82568670071919
2005.1805,129.00680714162377
2006.7648,133.91372821368918
2008.3484,124.94664791348237
2009.9312,139.90576289843466
2011.5133,125.59126857651063
2013.0946,121.00335895661965
2014.6752,130.94222679175823
2016.2551,122.95806362489179
2017.8342,133.4010596895621
2019.4126,125.67140398973265
2020.9902,118.81928419535711
2022.5672,126.64488671967547
2024.1433,134.19839678773678
2025.7188,125.57999835814144
2027.2935,131.73987404750733
2028.8674,133.3782052166523
2030.4406,140.99517190899542
2032.0131,136.69095283417528
2033.5849,136.26572529187888
2035.1559,136.5196652148859
2036.7261,124.35294717331772
2038.2957,112.56574437210156
2039.8645,117.75822877263636
2041.4325,129.5305712106649
2042.9998,122.83294134434709
2044.5664,131.21550753654014
2046.1323,124.17843692177189
2047.6974,128.8218953224166
2049.2617,122.19604731906475
2050.8254,123.65105620408917
2052.3883,129.73708404790227
2053.9504,134.20429168440683
2055.5118,115.50283865013603
2057.0725,114.78288313957933
2058.6325,135.39458219219932
2060.1917,123.43809169963151
2061.7502,118.36356619956723
2063.3079,118.32115899531732
2064.8649,117.31102220655794
2066.4212,114.98330676975547
2067.9767,121.93816244826667
2069.5315,117.7757378556164
2071.0856,109.09618038595022
2072.6389,96.79963625565665
2074.1915,98.88625059016204
2075.7433,105.45616754689763
2077.2945,93.05953029443117
2078.8448,96.14648094677023
2080.3945,89.6171606873263
2081.9434,99.92170973804741
2083.4916,94.51026742471072
2085.039,103.58297207387568
2086.5857,92.7899610670006
2088.1317,104.78137074971505
2089.677,98.6573365397494
2091.2215,96.66799280702116
2092.7652,85.8134729348742
2094.3083,88.04390933997342
2095.8506,93.90943358084996
2097.3921,91.3101763355969
2098.933,102.14626734321291
2100.4731,107.96783542959611
2102.0124,106.22500839918166
2103.5511,112.61791297672744
2105.089,99.14667482474283
2106.6261,112.41141847955942
2108.1626,94.11226748604258
2109.6983,96.5993442649451
2111.2332,98.72277029589691
2112.7675,96.23266609253596
2114.301,95.92915118127371
2115.8337,90.66234412619497
2117.3657,96.8323625320952
2118.897,99.18932309714569
2120.4276,96.18334155119669
2121.9575,95.46453263220519
2123.4866,100.53301011629378
2125.0149,101.13888682494166
2126.5426,92.33227457429712
2128.0695,101.61328416912056
2129.5956,89.03202549084926
2131.1211,97.93860740478749
2132.6458,95.38313788591995
2134.1698,94.61572392984613
2135.693,96.83647157833457
2137.2155,90.04548592699871
2138.7373,97.09287110308719
2140.2584,93.52873033339483
2141.7787,97.95316587378875
2143.2983,80.76627904484894
2144.8171,91.26817018762404
2146.3353,90.30893883549993
2147.8527,89.98868360918141
2149.3693,92.0575022262858
2150.8853,84.31549150454362
2152.4005,80.46274734111125
2153.9149,78.19936478999034
2155.4287,73.67543810055577
2156.9417,80.79106074018887
2158.454,78.34632543951648
2159.9655,75.79132412125637
2161.4764,92.02614792466147
2162.9865,78.80088723107315
2164.4958,84.76563150157153
2166.0045,83.37046940922983
2167.5124,86.6154887794637
2169.0195,95.60077660398565
2170.526,79.27641900835283
2172.0317,89.09250116211615
2173.5367,84.0991074420615
2175.0409,80.44632133405025
2176.5445,74.38422548295307
2178.0473,85.01290172917925
2179.5494,81.78243116929661
2181.0507,90.24289404974547
2182.5513,70.94436979914235
2184.0512,85.58693694367503
2185.5504,80.82067330008817
2187.0488,64.89565582925775
2188.5465,74.61196068385357
2190.0435,90.66966336758924
2191.5397,66.71883863805988
2193.0353,70.1595603461642
2194.5301,61.4419016756126
2196.0241,71.1659351085209
2197.5175,74.38173251258695
2199.0101,64.38936504384947
2200.502,62.53890311453074
2201.9931,66.98041649296101
2203.4835,64.71397432208232
2204.9733,61.18964507503256
2206.4622,65.50749657781012
2207.9505,52.06759604451872
2209.438,56.670010034187044
2210.9248,50.814804585168304
2212.4109,61.602045169114945
2213.8962,52.781796749533214
2215.3809,54.90412367390854
2216.8648,44.819089761910845
2218.3479,61.92675828416941
2219.8304,47.327192063123675
2221.3121,51.82045330194569
2222.7931,52.40660373053606
2224.2733,51.33570456059101
2225.7529,50.25781647974236
2227.2317,40.072999662265374
2228.7098,58.631313779857464
2230.1872,50.082818103486716
2231.6638,49.37757131780768
2233.1397,57.21563160664823
2234.6149,34.597056660060844
2236.0894,48.12190359594183
2237.5632,47.19022918621863
2239.0362,39.55208972159994
2240.5085,44.60754102089322
2241.9801,30.206638507385605
2243.4509,36.44943715828845
2244.921,37.98599164874804
2246.3904,28.66635628941799
2247.8591,35.84058501109166
2249.3271,40.35873145789924
2250.7943,38.12084891556606
2252.2608,27.326990266230496
2253.7266,29.32720801082337
2255.1917,28.321554377006123
2256.656,29.560081299169042
2258.1197,32.29284042848758
2259.5826,34.56988312053704
2261.0447,29.191260407964364
2262.5062,17.80702297771768
2263.9669,21.76722122483261
2265.4269,20.27190536627586
2266.8862,23.421125401341897
2268.3448,28.014931126606598
2269.8026,30.05337210443554
2271.2598,27.286497617045143
2272.7162,33.714356646118176
2274.1719,26.83699790047308
2275.6268,31.60446975178411
2277.0811,28.716820303356144
2278.5346,24.124097342450114
2279.9874,35.92634836915954
2281.4395,36.323620642337346
2282.8908,30.865961061574126
2284.3414,28.853416163225575
2285.7914,32.48603217498726
2287.2406,37.16385503602078
2288.689,20.986930360628094
2290.1368,40.15530339147335
2291.5838,31.11901916135048
2293.0302,26.628122301502117
2294.4758,31.082657131981023
2295.9206,32.832667706558595
2297.3648,37.978197768181644
2298.8082,26.669290731469346
2300.251,32.855989631260854
2301.693,30.738337235701238
2303.1343,22.766375984377646
2304.5748,28.49014800949385
2306.0147,26.109695215591728
2307.4538,23.875059222311847
2308.8922,18.28628138819863
2310.3299,25.143402833046366
2311.7669,28.346464493787153
2313.2031,17.645507055920007
2314.6387,16.090570921478502
2316.0735,26.28169631604237
2317.5076,24.018923304284954
2318.941,23.55229168806318
2320.3737,19.931841029044335
2321.8056,22.35761065337374
2323.2369,14.279639687878898
2324.6674,25.647967035812144
2326.0972,36.26263145763028
2327.5263,25.273671457310456
2328.9547,32.631125176204364
2330.3823,31.43503050292759
2331.8092,30.78542499978505
2333.2355,16.332345914731377
2334.661,18.725830187868837
2336.0858,20.015914595976938
2337.5098,26.85263572857741
2338.9332,22.38602997503267
2340.3558,13.316133456178818
2341.7778,21.892982068991614
2343.199,31.466611577286017
2344.6195,14.237057525947193
2346.0393,26.554355145193767
2347.4583,28.518539522874676
2348.8767,34.77964548129569
2350.2943,26.937707557577482
2351.7113,33.4427599410443
2353.1275,17.74483655164397
2354.543,34.393970974897684
2355.9578,28.640196618877894
2357.3718,24.183546547717583
2358.7852,29.32405353914828
2360.1978,25.061750129066013
2361.6098,27.146668560126272
2363.021,27.428840824367626
2364.4315,37.758298642361865
2365.8413,39.53507346039271
2367.2504,32.70919634716165
2368.6587,29.03069797601904
2370.0664,24.949608693223354
2371.4733,22.315958554726308
2372.8795,23.72977736698408
2374.285,33.34109471329373
2375.6899,32.49993993965575
2377.0939,28.256342058660152
2378.4973,28.160329757898353
2379.9,24.561931442398645
2381.3019,20.961175235586097
2382.7032,32.508089015267615
2384.1037,30.50270044963861
2385.5035,28.545036881814212
2386.9027,28.88512534988297
2388.3011,24.622992606483535
2389.6987,22.50866511540289
2391.0957,28.692169094198334
2392.492,14.373530535340592
2393.8876,17.20277514438021
2395.2824,22.779928483132267
2396.6765,15.005015941385182
2398.07,6.178062681127926
2399.4627,20.799093714299374
2400.8547,15.268072333991427
2402.246,14.5349616253053
2403.6366,20.649724520661152
2405.0265,15.062323807130838
2406.4156,17.422722065288895
2407.8041,14.53088172508592
2409.1918,17.036765042245293
2410.5789,13.890334127182996
2411.9652,17.641550919946326
2413.3508,21.790377221679364
2414.7358,12.1367746571118
2416.12,15.230704633069877
2417.5035,17.122128435013906
2418.8863,23.211007196097057
2420.2684,26.347301878250846
2421.6497,14.380973211297146
2423.0304,14.311981661585946
2424.4104,18.290287551657457
2425.7896,13.565851060932118
2427.1682,11.238632185928282
2428.546,14.608590787505932
2429.9232,15.0756866141395
2431.2996,14.73987926821792
2432.6753,16.75112820137349
2434.0503,8.959392717840274
2435.4246,23.01463195434178
2436.7982,10.566804958007651
2438.1711,12.415870545821917
2439.5433,22.261787429101105
2440.9148,16.204514195002957
2442.2856,18.394009208067814
2443.6557,14.230230670790547
2445.025,11.063136601726455
2446.3937,18.992684877129136
2447.7617,14.168833262621092
2449.1289,13.74153933389789
2450.4955,16.110760524966963
2451.8613,20.626454132420122
2453.2265,16.688577291742718
2454.5909,21.897086932155048
2455.9546,14.601939815991386
2457.3177,18.20309248661522
2458.68,18.75050134137109
2460.0416,20.694122595572935
2461.4025,17.433912277029776
2462.7627,23.519826206609878
2464.1222,15.651820030843169
2465.4811,23.22984916106134
2466.8392,19.253868852078654
2468.1966,25.12383412641134
2469.5533,19.98969981403752
2470.9093,34.55142049369738
2472.2645,29.208950544234426
2473.6191,24.112243998977874
2474.973,20.91125459916759
2476.3262,35.75593584492128
2477.6787,32.64624102724463
2479.0305,30.482123079584312
2480.3816,27.713534608925215
2481.7319,37.3404279174315
2483.0816,28.91275503013219
2484.4306,33.430467598652626
2485.7789,39.243516985491055
2487.1264,32.70185421884105
2488.4733,33.205429934460994
2489.8195,30.45419444109143
2491.165,36.248097715418226
2492.5097,24.437089429585512
2493.8538,23.621118893256835
2495.1972,19.95013517172538
2496.5398,27.124087094073047
2497.8818,32.242923289880196
2499.2231,31.206592117486366
2500.5637,30.715041612802338
2501.9035,27.568219499672637
2503.2427,34.66607319479101
2504.5812,31.95854983917036
2505.919,28.945596227162582
2507.256,36.67715883353412
2508.5924,26.803183843596116
2509.9281,27.723617075887773
2511.2631,31.988404080917235
2512.5974,31.19749013195701
2513.9309,32.500820182395614
2515.2638,38.648338873647845
2516.596,36.189990522119956
2517.9275,34.82571905773568
2519.2583,33.105468048519015
2520.5884,33.12918071423667
2521.9178,36.296799943601286
2523.2465,33.108268294033905
2524.5745,25.563527959987823
2525.9018,36.112520804833935
2527.2284,31.60518843630814
2528.5543,31.091472101021054
2529.8796,32.07131272953211
2531.2041,37.04465094148679
2532.5279,37.91142703581727
2533.851,47.37158094101028
2535.1735,48.47505220643825
2536.4952,40.42177990775849
2537.8163,53.21170263587794
2539.1366,47.79475857748639
2540.4562,48.72088538715627
2541.7752,50.24002024151321
2543.0935,52.102099829973895
2544.411,45.30706033955528
2545.7279,50.80483743625382
2547.0441,43.29536633299597
2548.3596,55.778581734660634
2549.6744,51.05441791317253
2550.9885,52.5228085826717
2552.3019,48.88368694675387
2553.6146,61.036985683787066
2554.9266,59.43263698330293
2556.2379,55.77057242446358
2557.5485,53.80072299210485
2558.8585,54.72301911335717
2560.1677,63.03739067734341
2561.4762,58.343767025956936
2562.7841,69.392076870717
2564.0913,54.18224833970601
2565.3977,63.86420886708561
2566.7035,67.33788534519533
2568.0086,59.85320402773266
2569.313,56.36009049501615
2570.6167,63.95846972883328
2571.9197,64.44826614737053
2573.222,64.92940352922983
2574.5236,69.45180500853076
2575.8246,69.06539307009893
2577.1248,70.62008950424229
2578.4244,73.76581541061489
2579.7232,70.05249118267
2581.0214,62.78003647620312
2582.3189,78.59837024648459
2583.6157,73.90741082098498
2584.9118,83.45707574119103
2586.2072,80.84728180951618
2587.5019,79.92794499380318
2588.7959,83.84898045342254
2590.0893,82.16030254846521
2591.3819,82.86182480053264
2592.6739,89.30345990962348
2593.9652,98.1851197471185
2595.2557,91.45671529136382
2596.5456,95.7181565388546
2597.8348,91.41935257151931
2599.1234,105.06021151410516
2600.4112,110.0406405771655
2601.6983,109.61054592065238
2602.9848,109.91983260411143
2604.2705,97.26840459098275
2605.5556,107.00616474550873
2606.84,106.08301495924752
2608.1237,95.74885605369627
2609.4067,88.90358778952213
2610.689,102.24710896990405
2611.9707,93.77931750898495
2613.2516,100.55011029843774
2614.5319,91.80938329214189
2615.8115,92.10703143847672
2617.0903,94.0429487677277
2618.3685,93.71702838911017
2619.6461,94.97916247141052
2620.9229,92.57924224624458
2622.199,95.06715799543736
2623.4745,93.3427990750215
2624.7493,91.70605389035836
2626.0234,90.20680991338133
2627.2968,97.09495369896388
2628.5695,96.62037089991145
2629.8415,95.63294619808039
2631.1128,80.93256330912334
2632.3835,95.2691049923639
2633.6535,89.94245319780055
2634.9228,90.70248892274071
2636.1914,97.54909226506726
2637.4593,96.38214241563867
2638.7265,94.45151758982223
2639.9931,92.85709503916411
2641.259,95.84875107069524
2642.5242,95.9263610628758
2643.7887,89.88979943567824
2645.0525,103.88893964981185
2646.3156,90.92365426708784
2647.5781,92.09381481042823
2648.8398,83.64929189351909
2650.1009,88.48995520910876
2651.3613,84.2156736134524
2652.6211,90.32631507790597
2653.8801,93.67174673166875
2655.1385,83.55183480067666
2656.3961,90.71644457414902
2657.6531,98.26544050578673
2658.9094,92.04868614212666
2660.1651,94.61604404705122
2661.42,94.11737586395697
2662.6743,99.9025422900798
2663.9279,100.12140308148224
2665.1808,104.87381699520188
2666.433,106.35964178706217
2667.6846,108.72873416414916
2668.9354,113.08094976995216
2670.1856,119.31614316067316
2671.4351,108.98416776170512
2672.6839,120.13487580527953
2673.9321,123.61811843378666
2675.1795,120.03374558826795
2676.4263,123.48160597358401
2677.6724,124.81154709425812
2678.9179,123.82341521999717
2680.1626,128.66705537239312
2681.4067,128.39231133480394
2682.6501,116.34902560391754
2683.8928,118.53703939249885
2685.1348,123.35619274982287
2686.3761,121.60632453979395
2687.6168,110.93727239275518
2688.8568,112.44887272298632
2690.0961,114.19096083539478
2691.3348,108.06337091039944
2692.5727,107.81593598650983
2693.81,104.64848802160179
2695.0466,108.96085789539188
2696.2826,107.00287544111177
2697.5178,112.12436940238467
2698.7524,108.02516745280536
2699.9863,112.1550961447249
2701.2195,112.01398095024285
2702.452,114.80164621990849
2703.6839,119.0179151841308
2704.9151,117.56260992530298
2706.1456,131.3855513356392
2707.3755,140.68655913172756
2708.6046,150.96545171630078
2709.8331,144.52204608522652
2711.0609,155.6561577247179
2712.2881,164.51760067576845
2713.5145,161.70618742280982
2714.7403,176.92172880509804
2715.9654,180.86403404482752
2717.1899,194.43291059497506
2718.4136,203.62816409987772
2719.6367,216.899598259544
2720.8591,222.94701473770073
2722.0809,236.62021302907914
2723.3019,247.7689903989408
2724.5223,252.44314174634496
2725.7421,258.84245949266165
2726.9611,257.71673353482913
2728.1795,259.01575118136185
2729.3972,249.98929716360692
2730.6142,239.28715362275432
2731.8306,226.10910020010124
2733.0462,211.95491414407383
2734.2612,195.77437044200684
2735.4756,173.26724196168664
2736.6892,170.73329961315608
2737.9022,147.37231257378602
2739.1145,142.48404831361427
2740.3262,124.21827282895583
2741.5372,116.82475069128532
2742.7475,108.80324522989486
2743.9571,106.40351860582939
2745.1661,93.72533189210111
2746.3744,82.2684450976879
2747.582,74.38261729431412
2748.7889,69.86760673102026
2749.9952,64.57317091302059
2751.2008,56.94906664685334
2752.4057,49.195050093325165
2753.61,49.06087684375245
2754.8136,38.49630199750118
2756.0165,41.951080163328754
2757.2188,41.0749655650298
2758.4204,42.91771200688834
2759.6213,35.97907288243891
2760.8215,35.60880115603925
2762.0211,33.756649432256495
2763.22,33.92236995957012
2764.4182,33.455714648893036
2765.6158,28.25643507191495
2766.8127,20.97428246576851
2768.009,18.509007785022334
2769.2045,12.810361774502155
2770.3994,14.478094993943955
2771.5936,16.111957874980476
2772.7872,5.511700704463806
2773.9801,-4.172926391873489
2775.1723,4.157826656584291
2776.3639,-5.14624839201241
2777.5548,-4.335359821091458
2778.745,-12.159664503059787
2779.9346,-18.169276000079435
2781.1235,-12.114186399264213
2782.3117,-20.19420627666119
2783.4992,-15.60902518759508
2784.6861,-12.408130947270365
2785.8723,-10.640855436730305
2787.0579,-8.356406579790473
2788.2428,-7.153885998121154
2789.427,-6.082311832890923
2790.6106,-3.840630757947281
2791.7935,5.722271315157002
2792.9757,6.007546842770182
2794.1573,11.516348224018259
2795.3382,12.599827797951605
2796.5184,21.409137788457485
2797.698,27.14543029342576
2798.8769,37.80985719665506
2800.0551,50.55357011049023
2801.2327,53.577720269177235
2802.4096,60.783458401427254
2803.5859,74.67193470017378
2804.7615,85.64429875051655
2805.9364,106.40169939083614
2807.1106,120.14528460307042
2808.2842,138.32620130514067
2809.4572,162.49559521351534
2810.6294,186.75461066140087
2811.801,220.8043903570482
2812.972,251.5960751411626
2814.1423,276.13080364640575
2815.3119,321.3097119894787
2816.4808,356.633933525775
2817.6491,403.3545983975904
2818.8167,444.9728331808824
2819.9837,499.33976041806227
2821.15,546.2564982018135
2822.3157,602.4741596314221
2823.4807,651.04385234361
2824.645,716.6666779503563
2825.8086,761.2937315532032
2826.9716,819.0261010870263
2828.134,867.7648668737637
2829.2957,914.7111010450928
2830.4567,941.6658670550426
2831.617,962.9302192105313
2832.7767,983.6052024018184
2833.9358,983.3918518898615
2835.0941,960.0411930995664
2836.2519,960.5042416219205
2837.4089,929.4820034474994
2838.5653,909.9754749618376
2839.7211,890.9856432556486
2840.8761,888.3634863198922
2842.0306,897.9599732356717
2843.1843,915.9260642004559
2844.3374,939.9127104321141
2845.4899,969.670853989255
2846.6417,1018.5014275313606
2847.7928,1054.555354021204
2848.9433,1119.9335462365448
2850.0931,1167.286906409589
2851.2422,1229.8163255732081
2852.3907,1255.2726830874049
2853.5385,1322.6568460140184
2854.6857,1361.7696688621627
2855.8323,1416.3619929143815
2856.9781,1465.3346458355238
2858.1233,1497.488441126818
2859.2679,1550.9741776361468
2860.4118,1610.4926392365073
2861.555,1650.2945942911579
2862.6976,1672.3807950584278
2863.8395,1711.251977293703
2864.9808,1742.95886002856
2866.1214,1760.302145182057
2867.2614,1781.1325172436632
2868.4007,1801.1006430998273
2869.5393,1809.857171825673
2870.6773,1815.7527344853183
2871.8146,1820.5379440443085
2872.9513,1822.4133953106627
2874.0874,1813.1296648870211
2875.2227,1808.5873111518895
2876.3574,1790.9868743524773
2877.4915,1766.9288766501209
2878.6249,1725.213822296288
2879.7577,1704.4421978731577
2880.8898,1685.2644727107713
2882.0212,1678.5310990947482
2883.152,1657.8925124580628
2884.2821,1660.0491314483788
2885.4116,1663.2013581344356
2886.5405,1651.0495779844814
2887.6686,1653.2941598347516
2888.7962,1654.935456010986
2889.923,1662.6238023059832
2891.0493,1674.2095179631872
2892.1748,1686.3429055998054
2893.2997,1695.8742510909487
2894.424,1703.1538234483012
2895.5476,1724.5818747248036
2896.6706,1726.1586399418593
2897.7929,1754.9343368750524
2898.9145,1776.4591660383812
2900.0355,1811.5333103965022
2901.1559,1840.156935149478
2902.2756,1861.28018738204
2903.3946,1890.5031957773494
2904.513,1916.6260704057672
2905.6308,1945.7989024326216
2906.7479,1972.6717638569796
2907.8643,1997.7947072199217
2908.9801,1987.9177653358088
2910.0953,2017.390951041057
2911.2098,2022.7642572929035
2912.3236,1991.6376568746768
2913.4368,1992.7111023420648
2914.5494,1960.3845263343774
2915.6613,1934.857841563814
2916.7725,1911.1309411387288
2917.8831,1895.6536988188982
2918.9931,1871.8759692527897
2920.1024,1853.497588132333
2921.211,1828.5183724307003
2922.319,1794.0881205860874
2923.4264,1787.406612751507
2924.5331,1791.6236111390908
2925.6391,1785.3888600869045
2926.7445,1795.1520860167782
2927.8493,1797.5129974966537
2928.9534,1792.1712851429525
2930.0569,1807.8766215969658
2931.1597,1801.3786615782737
2932.2619,1822.0770417276885
2933.3634,1835.0213806722368
2934.4643,1821.8612788181754
2935.5645,1816.9463182215459
2936.6641,1814.42606271978
2937.763,1805.1000579808447
2938.8613,1756.7178315284473
2939.959,1714.4788928352937
2941.056,1667.5327338069123
2942.1523,1601.3788292040435
2943.248,1536.5166371120995
2944.3431,1458.1455996027044
2945.4375,1370.5651433823166
2946.5313,1286.7246805759385
2947.6244,1182.1236096029215
2948.7169,1100.7613160153705
2949.8087,1016.0871735441533
2950.8999,933.3505449125257
2951.9904,866.9507826828715
2953.0803,803.3372300840692
2954.1696,751.8592216754893
2955.2582,698.6160839831309
2956.3462,656.6571360144007
2957.4335,619.0816897905459
2958.5202,596.6390507662409
2959.6062,574.9285182053449
2960.6916,565.8993854053268
2961.7764,544.8509399143697
2962.8605,526.5824636216638
2963.9439,514.3432329678901
2965.0267,515.8825191279049
2966.1089,499.94958813313315
2967.1905,510.4437008561745
2968.2714,505.46411317013303
2969.3516,507.21007584367624
2970.4312,518.1808345908311
2971.5102,522.625630053523
2972.5885,521.3436976918704
2973.6662,534.5842677397352
2974.7432,536.2965652175424
2975.8196,533.479809799875
2976.8954,524.5332157983511
2977.9705,523.7559921897897
2979.045,515.1973427056785
2980.1188,517.4064658399453
2981.192,504.18255493454467
2982.2645,487.4747981573669
2983.3364,468.3323786344765
2984.4077,444.00447461719045
2985.4783,416.5402596735021
2986.5483,407.2389029313598
2987.6177,375.04956935331006
2988.6864,358.6714198295099
2989.7545,313.35361149962114
2990.8219,289.09529791659213
2991.8887,261.89562949983474
2992.9548,250.60375377780866
2994.0204,216.61881566001705
2995.0852,184.18995754992596
2996.1495,165.21631968481364
2997.2131,139.39704046005863
2998.276,124.83125661887641
2999.3383,106.36810351051224
3000.4,89.80671523589945
3001.4611,87.44622483229011
3002.5215,75.08576443886972
3003.5812,60.92446532036172
3004.6404,49.21145799063174
3005.6989,41.44587235430129
3006.7567,23.726837823877304
3007.8139,21.703483397408263
3008.8705,18.17493783567471
3009.9264,13.740329682422384
3010.9818,5.398787299647779
3012.0364,5.749438911944708
3013.0905,-1.5085873100807703
3014.1439,-9.37616325331669
3015.1966,-4.5541457338639475
3016.2487,-9.143297899952984
3017.3002,-8.044337403897885
3018.3511,-3.2078905564670777
3019.4013,-11.584503305498515
3020.4509,-5.324689552003861
3021.4998,-9.578847467806781
3022.5481,-11.147322031082581
3023.5958,-12.480362527320267
3024.6428,-0.22810688026208936
3025.6892,-5.990568334828936
3026.735,-0.9177578571537879
3027.7802,2.49037343240758
3028.8247,0.7838835819003975
3029.8685,4.81283061446635
3030.9118,7.3272725454086185
3031.9544,11.47726734190212
3032.9963,21.812872897849616
3034.0376,27.28414699238141
3035.0783,30.84114718649937
3036.1184,39.53393076836386
3037.1578,36.56255471772471
3038.1966,42.927075618992376
3039.2348,46.227549690951776
3040.2723,46.41403272311726
3041.3092,47.336580042727974
3042.3455,49.89524651288269
3043.3811,55.89008652331461
3044.4161,59.12115396480476
3045.4505,58.28850216923354
3046.4842,65.39218387727004
3047.5173,69.2822512466982
3048.5498,65.80875578138017
3049.5816,64.62174829235568
3050.6128,65.22127893257692
3051.6434,67.30739720877881
3052.6734,58.78015197548348
3053.7027,67.03959141413918
3054.7314,65.48576311839275
3055.7594,64.96871401149508
3056.7868,65.23849036184004
3057.8136,64.84513778813408
3058.8398,68.7887012566992
3059.8653,66.21922508540604
3060.8902,71.83675290423844
3061.9145,70.29132768098805
3062.9381,76.23299166507911
3063.9612,69.01178640302277
3064.9835,75.87775267900028
3066.0053,66.73093058707528
3067.0264,69.17135946253393
3068.0469,70.04907797335338
3069.0668,73.31412409579721
3070.086,65.66653510563825
3071.1046,64.35634754550821
3072.1226,59.03359730137345
3073.1399,60.79831961563727
3074.1567,56.450549140366945
3075.1727,44.54031991964686
3076.1882,47.41766543305596
3077.203,49.58261871477012
3078.2173,38.18521232478858
3079.2308,36.375478327284526
3080.2438,30.453448404579007
3081.2561,28.769153875238402
3082.2678,25.422625753294597
3083.2789,22.263894765088224
3084.2893,19.04299138273356
3085.2991,18.759945855706206
3086.3083,18.564788243051908
3087.3169,19.407548416217026
3088.3248,11.188256061000146
3089.3321,11.006940669124418
3090.3388,10.513631620430544
3091.3449,8.458358184689985
3092.3503,7.041149526537936
3093.3551,7.812034726026326
3094.3593,4.871042792795606
3095.3629,1.3682026583659876
3096.3658,3.9535432055475326
3097.3681,5.5270933034681775
3098.3698,5.838881781720431
3099.3708,2.088937414625974
3100.3713,3.277288918117563
3101.3711,0.25396498723867467
3102.3702,1.2189942842601056
3103.3688,1.672402934342216
3104.3667,4.1642170504554485
3105.364,2.6444627288462073
3106.3607,1.0631660241187149
3107.3568,-1.279647035567308
3108.3522,2.3160495673160995
3109.347,7.5502946339708785
3110.3412,-1.2768730575616587
3111.3348,4.634585195256932
3112.3277,-2.8152791490730635
3113.32,-0.5264146783972308
3114.3117,3.0012581440775534
3115.3028,5.8678241140269165
3116.2932,4.673367997114042
3117.2831,4.267974500323845
3118.2723,5.051728283907693
3119.2608,2.774713965437229
3120.2488,-1.3629838880331135
3121.2361,4.988719262803983
3122.2229,8.529921573464861
3123.209,0.3607211495786089
3124.1944,3.331216011475135
3125.1793,4.541504175877336
3126.1635,4.29168362619582
3127.1471,11.181852300426442
3128.1301,2.9621080936481263
3129.1125,3.6325487891213726
3130.0942,8.543272140485612
3131.0753,8.29437586505479
3132.0558,10.63595759471022
3133.0357,7.618114878389491
3134.015,12.190945158670573
3134.9936,10.7545458019503
3135.9716,12.859014052716162
3136.949,16.65444704791021
3137.9258,15.94094179588437
3138.902,16.918595138446022
3139.8775,11.28750375799325
3140.8524,8.6977641677382
3141.8267,17.99947276801808
3142.8004,16.142725872192585
3143.7735,16.47761961362677
3144.7459,19.554249964258517
3145.7178,22.77271273124954
3146.689,18.08310352621919
3147.6596,20.53551773305975
3148.6295,19.08005055483251
3149.5989,18.966796989243676
3150.5676,23.74585184319899
3151.5357,19.11730973393624
3152.5032,21.231265041234792
3153.4701,23.9878119537009
3154.4364,24.787044447628304
3155.402,19.07905625943259
3156.367,25.763940877659095
3157.3315,31.291791600062254
3158.2952,25.712701466757323
3159.2584,30.976763204941648
3160.221,27.984069284685674
3161.1829,26.084711866292253
3162.1442,30.578782830223574
3163.105,30.51637379609477
3164.065,36.54757607773318
3165.0245,35.022480683802414
3165.9834,35.9911782574904
3166.9416,37.60375909176025
3167.8993,36.21031311966334
3168.8563,34.66092989821347
3169.8127,36.905698622321324
3170.7684,34.244708140288324
3171.7236,39.178046931358914
3172.6782,43.05580313233047
3173.6321,40.37806448821989
3174.5854,38.49491831348605
3175.5381,44.756451518807246
3176.4902,45.56275062991252
3177.4417,44.3639017249665
3178.3926,43.359990426506265
3179.3428,42.60110191342989
3180.2924,45.43732093103564
3181.2415,48.71873179861075
3182.1899,42.44541838106923
3183.1377,48.36746405613782
3184.0848,46.88495177708908
3185.0314,47.74796401352092
3185.9773,49.40658276618183
3186.9227,50.51088955834061
3187.8674,48.51096541920034
3188.8115,54.30689087285515
3189.755,52.69874595828954
3190.6979,55.33661017141911
3191.6402,50.470562481172024
3192.5818,55.05068130311032
3193.5229,55.07704454809048
3194.4633,54.29972957646215
3195.4031,59.118813197804556
3196.3423,57.88437167869965
3197.2809,61.796480694541245
3198.2189,62.75521534187945
3199.1563,60.3106500992996
3200.0931,67.61285881783482
3201.0292,61.461914745411754
3201.9648,62.05789045382852
3202.8997,61.25085790026399
3203.834,63.89088842131824
3204.7677,65.77805274108269
3205.7008,68.61242094473992
3206.6333,69.244062459692
3207.5652,70.67304602721671
3208.4964,68.74943969615131
3209.4271,71.32331080860251
3210.3571,67.74472601918268
3211.2865,73.21375126927103
3212.2154,75.13045182279959
3213.1436,77.64489221156278
3214.0712,78.45713621605056
3214.9982,75.81724684030397
3215.9246,76.62528630379262
3216.8503,78.53131606781375
3217.7755,80.53539682741163
3218.7001,79.28758849231744
3219.624,76.1379501669083
3220.5473,81.88654016268552
3221.4701,82.78341602977082
3222.3922,81.12863449942058
3223.3137,84.22225147505696
3224.2346,84.21432204881583
3225.1549,84.80490047061049
3226.0746,89.44404014821104
3226.9937,85.18179364133854
3227.9121,85.16821261527369
3228.83,87.20334788347913
3229.7473,89.73724940773545
3230.6639,84.91996627778975
3231.5799,90.15154668601666
3232.4954,88.78203797559105
3233.4102,94.06148658817243
3234.3244,92.08993807759983
3235.238,92.0174370570974
3236.151,91.59402721898994
3237.0634,92.11975133542781
3237.9752,95.14465126262108
3238.8864,96.66876793558234
3239.797,97.74214133787754
3240.7069,101.5148104863851
3241.6163,96.68681342056192
3242.5251,101.30818716471677
3243.4332,100.62896777629035
3244.3408,100.79919029964141
3245.2477,100.46888877283902
3246.154,98.43809622596032
3247.0598,105.25684468439356
3247.9649,100.77516518914595
3248.8694,106.74308772865626
3249.7733,106.0106412836116
3250.6766,110.92785376726815
3251.5793,105.74475203277561
3252.4814,105.66136182400517
3253.3829,106.62770782738045
3254.2838,107.04381367271142
3255.1841,107.60970192353096
3256.0838,109.17539407293376
3256.9829,110.34091053791748
3257.8814,111.3562706437258
3258.7792,111.72149261219322
3259.6765,108.48659355159162
3260.5731,111.45158945297787
3261.4692,115.91649522254286
3262.3647,113.4313246519616
3263.2595,110.1460903737441
3264.1538,112.2608038860871
3265.0474,114.92547558572639
3265.9404,114.54011474678973
3266.8329,116.50472949415007
3267.7247,116.16932680727916
3268.616,117.53391250060157
3269.5066,115.7484912268485
3270.3966,115.01306646341195
3271.286,116.97764053019897
