RamanShift,CorrectedData
30.1047,1508.3752291537455
32.3739,1396.6299605992913
34.6426,1295.5846769610844
36.9109,1188.8393491890736
39.1787,1083.493935277359
41.4461,980.0983813316489
43.7131,877.7526226227101
45.9796,772.9565846203262
48.2456,670.8601840167536
50.5112,563.5633297746817
52.7764,461.8159241481989
55.0411,362.71786375575925
57.3054,260.76904059765775
59.5692,160.66934304701044
61.8326,61.718656869243034
64.0955,-44.08313377691226
66.3579,-139.93614534990988
68.6199,-237.64005391769774
70.8815,-307.443137586132
73.1426,-343.74130043693026
75.4032,-250.227375194866
77.6634,143.05923939087882
79.9231,1227.0316443425995
82.1824,3699.6029392519995
84.4412,8251.286211440467
86.6995,14584.744511233359
88.9574,20715.590806443168
91.2148,24998.387919034958
93.4717,26835.94846381787
95.7282,27173.934805617166
97.9842,26922.35904089863
100.2398,26229.432994388706
102.4949,25479.868221590234
104.7495,24630.52601571173
107.0036,23732.017415163034
109.2573,22841.503212048723
111.5105,21983.1439611532
113.7632,21166.199988845838
116.0154,20459.331401664567
118.2672,19897.24809448533
120.5185,19328.959757590746
122.7693,18892.42588229096
125.0197,18487.255766606522
127.2696,18063.90851963372
129.519,17829.193065596286
131.7679,17513.66814807888
134.0163,17260.09233237421
136.2642,16905.82400863833
138.5117,16534.021394426363
140.7587,16182.592538235192
143.0052,15879.795323221484
145.2512,15501.987470715994
147.4967,15199.926543251517
149.7417,14916.26994834097
151.9863,14651.27494149802
154.2304,14482.798629073626
156.4739,14230.747970905999
158.717,14050.779782005371
160.9596,13821.7007350745
163.2017,13464.717362308338
165.4433,13061.23605768484
167.6844,12649.06308053479
169.925,12222.704559576603
172.1651,11746.516497038074
174.4047,11397.954772919944
176.6439,11056.675149757806
178.8825,10724.03327610769
181.1206,10460.834689958894
183.3582,10209.534822060381
185.5954,10017.788998552758
187.832,9812.352443481293
190.0681,9726.73028071337
192.3037,9631.327535992841
194.5388,9548.499137796272
196.7734,9463.949918286946
199.0075,9466.33461414316
201.2411,9512.307867403713
203.4742,9463.774225444062
205.7068,9566.638140516588
207.9389,9584.153970235935
210.1704,9638.37597655037
212.4015,9664.658325566617
214.632,9762.755087007654
216.862,9894.12023394986
219.0915,9920.857641842082
221.3205,10044.82108719197
223.549,10207.414247298584
225.777,10391.040699012789
228.0044,10624.753917111308
230.2314,10956.05727246046
232.4578,11238.10402967902
234.6837,11484.497343825196
236.909,11623.940257576165
239.1339,11491.235698764132
241.3582,11227.48647898191
243.582,10851.19529490995
245.8053,10465.564730953845
248.0281,10146.84726300724
250.2503,9843.495262308132
252.472,9635.560998626053
254.6932,9543.146643295593
256.9139,9444.604271295728
259.134,9377.285862173982
261.3536,9326.043301031843
263.5727,9369.62837919793
265.7912,9280.592794740433
268.0092,9252.738152031274
270.2267,9230.36596263643
272.4436,9160.427645594524
274.6601,9000.424527640496
276.8759,8874.50784390504
279.0913,8740.778739514588
281.3061,8591.78827085051
283.5204,8565.837406886398
285.7341,8556.427030677956
287.9473,8612.457939622525
290.16,8766.030845553176
292.3721,8982.546374178411
294.5837,9342.905063546428
296.7947,9598.207361879964
299.0052,9706.95362397271
301.2152,9547.19410863629
303.4246,9164.178977612775
305.6334,8580.108297172332
307.8418,8004.732041943318
310.0495,7509.4001007530405
312.2568,7135.162282381463
314.4635,6825.268320514573
316.6696,6662.017877486738
318.8752,6504.910547379643
321.0802,6469.695857654804
323.2847,6550.573270724635
325.4887,6501.492184304596
327.692,6391.051930604412
329.8949,6224.551776818891
332.0972,5900.940926232332
334.2989,5598.668519883509
336.5001,5282.083639801809
338.7007,5000.435312029926
340.9008,4856.972509789721
343.1003,4642.094156298712
345.2992,4541.2991262047
347.4976,4450.886247734541
349.6955,4427.404303702107
351.8927,4430.202032412413
354.0895,4342.928127896435
356.2856,4354.931239883144
358.4812,4259.659974672224
360.6763,4259.962895014058
362.8707,4167.138521062436
365.0646,4164.385330371528
367.258,4088.6517588241313
369.4508,4082.486200659194
371.643,4174.987009229142
373.8346,4142.302497061552
376.0257,4062.8809349341263
378.2162,3957.37055220155
380.4062,3859.2695375896947
382.5956,3642.8760402507414
384.7844,3530.2381707441855
386.9726,3338.7040032007662
389.1603,3255.471576448859
391.3474,3176.1388959298
393.5339,3124.0039345302066
395.7199,3043.014633375318
397.9052,3030.618902350334
400.09,3021.2146209103103
402.2743,3004.9496382041234
404.4579,3093.2217731685105
406.641,3241.1788146907074
408.8235,3405.5185207257364
411.0054,3668.038616816837
413.1868,4014.7867944520767
415.3675,4278.460708439125
417.5477,4429.757973437807
419.7273,4416.876161323335
421.9064,4252.712799673349
424.0848,4094.365371896736
426.2627,3874.2813188752552
428.4399,3562.2080405470133
430.6166,3208.7428981073226
432.7928,2809.6332171294234
434.9683,2450.276291099135
437.1432,2182.9693854059497
439.3176,1989.1097409366012
441.4914,1879.044576748127
443.6645,1803.8210920064812
445.8371,1684.5864670871633
448.0091,1597.6378643274766
450.1806,1541.522429218854
452.3514,1470.737291276364
454.5216,1465.0295645998503
456.6913,1384.246348581788
458.8603,1390.2347279643564
461.0288,1430.1417736472686
463.1967,1417.1145426279072
465.3639,1500.1000776022302
467.5306,1537.645407095064
469.6967,1682.2975446302262
471.8622,1769.8534883551056
474.0271,1853.160219594116
476.1914,1899.5147019731503
478.3551,1905.7138805864906
480.5182,1858.3546815332938
482.6807,1872.6340118555854
484.8426,1969.5487600118431
487.0039,2240.245795734216
489.1647,2639.021969059373
491.3248,3000.5741076215345
493.4843,3178.6990126647142
495.6432,3157.64345542718
497.8015,3038.3541753602276
499.9592,3016.9278803387188
502.1163,2918.311247853977
504.2728,2620.2009252280623
506.4287,2363.2935305999163
508.5839,1931.4856559064865
510.7386,1601.3738694517906
512.8927,1407.7547202249934
515.0461,1304.5747412015244
517.199,1248.53045127927
519.3512,1275.1183563103696
521.5029,1361.7349496616698
523.6539,1430.4267119488322
525.8043,1498.7401101701726
527.9541,1458.1715970197456
530.1033,1422.4676102042122
532.2519,1420.7245728485195
534.3999,1520.4888938529657
536.5472,1743.206967910599
538.694,2139.7251745095837
540.8401,2678.8898757060197
542.9856,3108.8974121587653
545.1305,3232.544097737795
547.2748,3114.7262152241165
549.4185,2771.7900150732876
551.5615,2453.331716593624
553.704,2327.347511375541
555.8458,2275.183566476142
557.987,2338.3860256790613
560.1276,2341.7510100161035
562.2675,2444.074617135222
564.4069,2529.6529212668684
566.5456,2585.4319722007494
568.6837,2562.407794430059
570.8212,2248.0763865936697
572.958,1849.2837217063916
575.0942,1520.2257503022774
577.2299,1265.0484044225523
579.3648,1187.7976009061877
581.4992,1268.4692439416667
583.6329,1422.5592258395172
585.766,1650.2634262255742
587.8985,1750.877710500079
590.0304,1789.247927560642
592.1616,1722.2699087961082
594.2922,1570.2894677028398
596.4222,1413.8024005545067
598.5515,1233.054487921887
600.6802,1080.9914962377425
602.8083,907.4091796043012
604.9358,829.6032813138754
607.0626,816.2195355846907
609.1888,782.7536683389571
611.3144,752.4513973366957
613.4393,708.0084325103926
615.5636,654.2204762680431
617.6873,616.483223937561
619.8103,526.9923643046695
621.9327,412.44357999026397
624.0544,330.6825483453176
626.1756,275.1549425963767
628.2961,250.1564326631742
630.4159,175.13268571390108
632.5351,128.129366415189
634.6537,73.14213768234367
636.7716,59.86666114938453
638.8889,92.64859771891315
641.0056,119.93360769485844
643.1216,112.06735045467576
645.237,147.69548417649276
647.3518,112.01366591776787
649.4659,138.81755125901873
651.5793,139.60279466064458
653.6922,137.96504919487415
655.8043,117.24996653791823
657.9159,88.65319698633539
660.0268,24.520389664197864
662.137,-21.60280719095499
664.2466,-25.22074558676286
666.3556,-21.587561718833967
668.4639,-65.10713982752532
670.5716,-12.833148493456974
672.6786,71.33139412306627
674.785,89.18359806487933
676.8907,138.9705726615175
678.9958,223.23942635067579
681.1002,202.9372661803518
683.204,176.71119696615096
685.3072,140.05832149431262
687.4097,114.42574078396865
689.5115,69.06055445367383
691.6127,47.709860977731296
693.7132,-12.879241860144248
695.8131,-30.959656753335366
697.9123,-32.1841577316045
700.0109,-103.00520953775231
702.1089,-82.82495539485171
704.2061,-52.44450950395367
706.3028,-11.264158644802592
708.3987,33.86633432350391
710.4941,141.8473190708064
712.5887,290.1291449282817
714.6827,537.4621598086578
716.7761,863.6967087233788
718.8688,1201.8831313092705
720.9608,1397.121758566207
723.0522,1463.312909475222
725.1429,1319.7568890461425
727.233,1128.3539876556788
729.3224,947.8544824829642
731.4112,684.8086394235943
733.4993,522.6667148946271
735.5867,335.6789584650396
737.6735,238.34561447715168
739.7596,129.46692391649594
741.845,116.44312538516715
743.9298,71.57445619059581
746.014,63.61115247579073
748.0974,94.8534496680204
750.1802,64.70158255846763
752.2624,84.60578498977702
754.3439,134.2162901575939
756.4247,219.38333041151418
758.5048,365.3571367589884
760.5843,569.4879380136445
762.6631,929.9759593355338
764.7413,1402.521420189838
766.8188,2049.07453074198
768.8956,2504.5854871321826
770.9718,2803.954465009925
773.0473,2709.5316149788414
775.1221,2362.8170596030286
777.1962,1998.960894351274
779.2697,1862.013191064194
781.3426,1888.5740015928113
783.4147,2116.1433591680125
785.4862,2391.321278134961
787.557,2384.107751677384
789.6271,2049.4527490658093
791.6966,1502.3062157297027
793.7654,976.9680766040037
795.8335,652.4382416005956
797.901,424.1166108616799
799.9678,365.1030780050969
802.0339,380.6975324075356
804.0993,391.8998597946629
806.1641,382.6599420851853
808.2282,333.2276572788214
810.2916,235.95287954868945
812.3544,183.88547973565073
814.4164,131.2253263210314
816.4778,169.17228594731387
818.5385,150.07622394472673
820.5986,217.28700395178203
822.658,366.304488106236
824.7166,529.5285363729872
826.7747,845.4090050538925
828.832,1076.7457451555329
830.8886,1273.788599230409
832.9446,1413.1373990635657
834.9999,1446.64196370217
837.0545,1388.7520980620193
839.1085,1347.8675925925018
841.1618,1273.9882238554928
843.2143,1199.9637549341842
845.2662,1078.5439361719054
847.3175,1030.728505912355
849.368,944.9171917137901
851.4179,847.7597108271984
853.467,682.6057710543973
855.5155,606.7550717196227
857.5633,542.5573053210628
859.6105,447.0121582893662
861.6569,409.6693116296119
863.7027,380.3284418767653
865.7478,340.08922146910845
867.7922,356.70131904164555
869.8359,369.11439982850425
871.8789,490.0281254968013
873.9212,632.6421540225165
875.9629,801.5561384813464
878.0039,1007.8197256225812
880.0441,1086.4825541799637
882.0837,1167.7442528090396
884.1226,1077.6544393005352
886.1609,1049.5127197677448
888.1984,1002.9186895474177
890.2352,1022.8719334811922
892.2714,970.3220263815201
894.3069,966.2185328321393
896.3416,893.1110077135745
898.3757,847.0489962441752
900.4091,849.1820347111752
902.4418,842.1596509313367
904.4739,892.5313642295987
906.5052,912.0966855093102
908.5358,825.6551167485159
910.5658,708.9561508043025
912.595,525.849272277208
914.6236,378.1339586782233
916.6515,312.20968225985234
918.6786,303.82591149327345
920.7051,361.232111727566
922.7309,523.9777452735598
924.756,563.4122708297691
926.7804,675.935141854934
928.8041,629.8958061736703
930.8272,664.4937048512511
932.8495,627.3782726539994
934.8711,570.7989377032991
936.892,465.15512184675936
938.9123,379.79624122400674
940.9318,296.5217073231106
942.9506,223.93092783420252
944.9688,106.07330748220011
946.9862,81.24824875271224
949.003,-23.644846929386404
951.019,-33.3065789516877
953.0344,-3.737310489781521
955.0491,26.162928013463898
957.063,105.89414345090336
959.0763,226.55634245376132
961.0888,298.99953059431937
963.1007,383.3737111793016
965.1119,441.12888452545303
967.1223,488.9650471157893
969.1321,489.2321910220289
971.1412,541.6803034262593
973.1495,555.3093666182376
975.1572,581.1693574709279
977.1641,637.610247304201
979.1704,632.4820016262383
981.1759,643.8345795691293
983.1808,688.2179339401409
985.1849,773.3820111082132
987.1884,929.9267505601129
989.1911,1102.2020840487767
991.1932,1194.1079340278884
993.1945,1289.5442119291147
995.1951,1238.6608172430515
997.1951,1216.4576365648663
999.1943,1170.9845441031193
1001.1928,1138.3414019018
1003.1906,1128.978060295065
1005.1877,1223.5443582336666
1007.1841,1229.540123378576
1009.1798,1177.3151711553328
1011.1748,1019.41930469408
1013.1691,861.7523153518159
1015.1627,635.0139842913595
1017.1556,395.05408405801063
1019.1477,354.2723808469291
1021.1392,277.3186369027426
1023.1299,253.19261092735906
1025.12,277.89405884950065
1027.1093,334.7727340659694
1029.0979,466.17838719464635
1031.0859,520.3107655056901
1033.0731,541.8696116074789
1035.0596,484.05466290528784
1037.0454,313.5656513857084
1039.0304,222.65230419478758
1041.0148,116.21434534291257
1042.9985,20.95149661397045
1044.9814,30.513478629705787
1046.9636,-54.94998819763532
1048.9452,-44.7391837609357
1050.926,15.696160997307743
1052.9061,34.60676207903998
1054.8855,19.943335329238835
1056.8642,96.20659624683321
1058.8421,151.04726013131585
1060.8194,166.16604132012253
1062.7959,242.96365264021733
1064.7717,263.44080525690515
1066.7469,304.14820790585327
1068.7213,321.63656668832846
1070.695,349.45658466412533
1072.6679,292.358961676684
1074.6402,295.3443940748821
1076.6117,274.41357528401386
1078.5826,278.2171957759292
1080.5527,257.80594327835934
1082.5221,338.18050273685185
1084.4908,476.94155651890287
1086.4587,647.6397836101987
1088.426,780.4758582270169
1090.3925,806.600448109235
1092.3584,784.914213191978
1094.3235,682.7678053443742
1096.2879,652.6618685864141
1098.2515,678.7970401104212
1100.2145,782.2739505821191
1102.1767,910.79322387926
1104.1382,1046.7054760568826
1106.099,1315.9113140620884
1108.0591,1515.7113343749406
1110.0185,1665.5561203163888
1111.9771,1731.3962400502696
1113.9351,1530.1822450848613
1115.8923,1282.514669614493
1117.8488,1023.0940325316715
1119.8045,781.9708399037645
1121.7596,685.0955875671916
1123.7139,600.5687635386876
1125.6675,605.340848984024
1127.6204,699.8623190632989
1129.5726,681.8836428832165
1131.524,659.7552825518578
1133.4748,664.0276933584792
1135.4248,601.5013239947875
1137.3741,579.5766165122204
1139.3226,535.8540069472037
1141.2705,518.2839255404087
1143.2176,429.36679717397055
1145.164,436.7530415471974
1147.1097,442.5930740657295
1149.0546,413.6873057676894
1150.9989,349.1361432652757
1152.9424,264.73998903382017
1154.8852,123.69924205730058
1156.8272,65.06429867229599
1158.7686,-4.364446021607364
1160.7092,-19.18659757545356
1162.6491,-50.25171793948175
1164.5883,100.04082261017902
1166.5267,193.69215581206117
1168.4644,370.3034124042879
1170.4014,533.975721188066
1172.3377,822.2602072615737
1174.2732,1060.5579903832386
1176.2081,1377.0701820889008
1178.1421,1650.7978833088255
1180.0755,1927.6421812025874
1182.0082,2084.2041464217855
1183.9401,2169.634830341609
1185.8713,2021.685263495212
1187.8017,1784.306454719399
1189.7315,1542.4493926341274
1191.6605,1253.4150480162916
1193.5888,1051.7543762182995
1195.5163,954.9683200584132
1197.4432,881.4578118373684
1199.3693,851.5737743062073
1201.2947,810.1671214014204
1203.2193,792.1387585437587
1205.1432,847.5895830523168
1207.0664,848.2204843248019
1208.9889,895.9823432830271
1210.9106,929.5260323666007
1212.8316,966.4524150553207
1214.7519,1059.2123455337132
1216.6715,1051.8566683217887
1218.5903,1091.1362173474408
1220.5084,1076.8018160199917
1222.4257,1097.0042768374005
1224.3424,1099.9444015296176
1226.2583,1169.4729808565553
1228.1735,1291.5407945786774
1230.0879,1371.898610761722
1232.0016,1504.9971845560249
1233.9146,1580.9872573929242
1235.8269,1507.219555653799
1237.7384,1433.9947899101662
1239.6492,1254.763655661347
1241.5592,1191.7768340667262
1243.4686,1143.9849937380568
1245.3772,1177.588791369326
1247.285,1190.738872214677
1249.1922,1220.5858697523836
1251.0986,1239.9804055533405
1253.0042,1248.4730889825842
1254.9092,1326.4645170053536
1256.8134,1429.2052741021525
1258.7169,1551.9459314888518
1260.6196,1733.6370460892667
1262.5216,1967.4291593077687
1264.4229,2158.9227952123565
1266.3234,2352.0184581967424
1268.2232,2464.0666310654215
1270.1223,2483.5677731026935
1272.0207,2477.322318952203
1273.9183,2465.0306784219138
1275.8151,2411.3932365465607
1277.7113,2381.3603537105882
1279.6067,2303.0323661845123
1281.5014,2283.6595864252504
1283.3953,2287.542303859409
1285.2885,2424.230785076992
1287.181,2562.4252737925963
1289.0727,2716.675989478519
1290.9637,2864.433125982805
1292.854,3007.396849986744
1294.7435,3120.3172995273035
1296.6323,3289.0945825674808
1298.5204,3448.928775867107
1300.4077,3627.619923295071
1302.2943,3769.6180342309744
1304.1802,3738.6230817782234
1306.0653,3558.885001344055
1307.9497,3375.6036909494724
1309.8333,3192.1290130266425
1311.7162,3053.66079625169
1313.5984,3064.4988373794586
1315.4798,3066.2929026281927
1317.3605,3134.2927275711536
1319.2405,3185.2980171186773
1321.1197,3165.408444838191
1322.9982,3021.923652444131
1324.876,2917.343249996862
1326.753,2804.1668173375165
1328.6293,2753.6439051337984
1330.5048,2758.524036011753
1332.3796,2709.85670506098
1334.2537,2709.791379785849
1336.127,2668.7775005921703
1337.9996,2676.1644807878474
1339.8714,2676.1017069930076
1341.7426,2631.9385390661428
1343.6129,2698.4243101047286
1345.4826,2642.658326886869
1347.3515,2676.339869206424
1349.2196,2610.5681904306784
1351.087,2653.7925171635143
1352.9537,2739.9120499031433
1354.8197,2868.675962609852
1356.6849,3069.4834018448146
1358.5493,3190.1834854824447
1360.4131,3249.1253007023315
1362.276,3256.7079027822347
1364.1383,3159.0303145086764
1365.9998,2938.7915261010967
1367.8606,2640.7404961886496
1369.7206,2349.2761540125775
1371.5799,2132.2474024067124
1373.4384,1962.8531207121378
1375.2962,1812.3421669474774
1377.1533,1560.4633795028185
1379.0096,1261.2655786448267
1380.8652,1002.5475690355415
1382.7201,748.6081427243571
1384.5742,511.39608173519264
1386.4275,379.21016060588045
1388.2802,261.29914876030125
1390.132,164.61181183022927
1391.9832,139.29691283446118
1393.8336,44.803213145673
1395.6832,47.779472743586666
1397.5322,-0.5255488401107868
1399.3803,12.886907448484635
1401.2278,-17.53439408650229
1403.0745,17.209310730197103
1404.9204,35.81696124244263
1406.7656,55.187496621996615
1408.6101,77.81985568246819
1410.4538,107.71297668559055
1412.2968,168.3657971149023
1414.139,242.67725337681622
1415.9805,344.44628019408265
1417.8213,430.57180986268395
1419.6613,563.3027712341427
1421.5006,761.5880888542706
1423.3391,1026.6766816358559
1425.1769,1355.2674608758043
1427.0139,1833.9093276042659
1428.8502,2427.9511692987107
1430.6858,3015.9918550975253
1432.5206,3428.2302298595914
1434.3547,3678.4651082838664
1436.188,3751.945270787017
1438.0206,3696.769461001066
1439.8524,3565.6363850385806
1441.6835,3476.344712044449
1443.5139,3383.443075507186
1445.3435,3343.330074151874
1447.1724,3325.604272869161
1449.0005,3271.4642031164076
1450.8279,3176.608363094936
1452.6545,3187.7852182914303
1454.4804,3239.643202426494
1456.3056,3252.730717342891
1458.13,3174.496132486951
1459.9536,3016.7877847777054
1461.7766,2723.803979389226
1463.5987,2340.442991327718
1465.4202,1983.6530683613473
1467.2409,1657.7324348538605
1469.0608,1395.7792953324752
1470.88,1137.441837747083
1472.6984,971.1182360897856
1474.5161,770.2066529782751
1476.3331,595.155241319053
1478.1493,532.3621463165709
1479.9648,431.8755072237309
1481.7795,408.3434579698169
1483.5935,349.7641281653614
1485.4067,308.6356433374658
1487.2192,285.35612551559643
1489.031,249.9736936428635
1490.842,247.13646380883256
1492.6522,240.2925496033222
1494.4618,212.7900621448025
1496.2705,221.3771101488128
1498.0785,189.95180020301086
1499.8858,180.06223668127495
1501.6924,160.95652205797342
1503.4981,160.13275700685335
1505.3032,168.43904059210763
1507.1075,155.1734702765989
1508.911,141.88414183881105
1510.7138,122.71914950549763
1512.5159,77.12658608457605
1514.3172,76.3545431567727
1516.1178,42.75111153155922
1517.9176,49.214381254869295
1519.7166,2.04244194511557
1521.515,-2.0666172714263666
1523.3126,6.435292711094007
1525.1094,-8.953718355964156
1526.9055,-4.68554078559464
1528.7008,8.538024556857636
1530.4954,-54.93477638540571
1532.2893,-40.955697754548964
1534.0824,-50.82594489432631
1535.8747,-15.99631400108592
1537.6663,-38.667093519989066
1539.4572,-10.188412093018997
1541.2473,-3.5600120778999553
1543.0367,-8.431534050121627
1544.8253,9.84741697933805
1546.6132,53.377320230523765
1548.4003,80.30865482500849
1550.1867,132.29189935058457
1551.9723,179.1275315919711
1553.7572,233.56602801096142
1555.5414,322.4078632780811
1557.3247,399.8535097281974
1559.1074,496.30343647210884
1560.8893,611.9581086220733
1562.6705,703.3179863273217
1564.4509,816.8835236175019
1566.2305,883.9051674890825
1568.0094,987.1333567697111
1569.7876,1024.1185214479801
1571.565,1052.3110816411609
1573.3417,1098.711447225336
1575.1176,1080.370017553486
1576.8928,1080.887180991479
1578.6672,1050.1633151014803
1580.4409,975.3487866367896
1582.2138,880.7439518490773
1583.986,817.0491572365263
1585.7575,801.3647404898829
1587.5282,781.791031129399
1589.2981,798.2283506616868
1591.0673,823.5270127754502
1592.8358,853.8873231771177
1594.6035,923.3595793378454
1596.3704,935.3440701899281
1598.1366,1001.141075432065
1599.9021,1089.8008654095183
1601.6668,1163.723700456142
1603.4308,1287.9598300077923
1605.194,1423.7094918630837
1606.9564,1580.9229109410426
1608.7182,1780.850297923601
1610.4791,1990.5418476834711
1612.2394,2158.3477372848647
1613.9988,2399.9681238865724
1615.7576,2613.0031430639174
1617.5156,2838.2529063925467
1619.2728,3025.817499318072
1621.0293,3124.396978903589
1622.785,3142.841371954016
1624.54,3024.1006740303055
1626.2942,2877.274849264999
1628.0477,2638.1638315496402
1629.8005,2424.517526003023
1631.5525,2217.83581136231
1633.3037,2029.268542119492
1635.0542,1939.8655505882007
1636.804,1829.1766487893892
1638.553,1751.6516293453633
1640.3013,1736.5902665866615
1642.0488,1754.3923173273151
1643.7955,1824.2075210154544
1645.5416,1894.53559955529
1647.2868,1987.7762566089614
1649.0313,2095.3791768932515
1650.7751,2275.894025247194
1652.5181,2473.470445556025
1654.2604,2700.208058946044
1656.0019,2944.256461808849
1657.7427,3241.8652235339687
1659.4828,3563.9838840683606
1661.222,3737.511950940341
1662.9606,3737.248896038386
1664.6984,3563.9941538758485
1666.4354,3148.747121593601
1668.1717,2671.4071606925763
1669.9072,2164.973601186235
1671.642,1751.0957463739805
1673.3761,1398.9228779054783
1675.1094,1152.954259919441
1676.8419,915.3391425653517
1678.5737,763.5267644631567
1680.3048,633.8663550794108
1682.0351,526.6571362454024
1683.7646,449.6483234537609
1685.4934,415.38912693054317
1687.2215,353.57875240532667
1688.9488,321.1164014537944
1690.6754,280.3012721158484
1692.4012,266.5325592202207
1694.1263,238.25945479263646
1695.8506,234.88114819349357
1697.5742,183.34682640060237
1699.297,180.85567404296035
1701.0191,147.1568739161039
1702.7404,114.34960700701413
1704.461,98.58305283110622
1706.1808,89.10638976030623
1707.8999,121.36879518071237
1709.6182,75.31944558736541
1711.3358,64.65751626162273
1713.0527,52.632181731648416
1714.7688,71.99261587903857
1716.4841,51.387992059064345
1718.1987,60.767482907075646
1719.9126,55.63026054454531
1721.6257,55.42549648527984
1723.338,43.052361686781296
1725.0496,42.86002655230186
1726.7605,4.547661054574746
1728.4706,17.314434737731972
1730.18,18.559517100437915
1731.8886,21.432077468210082
1733.5964,12.331284980974488
1735.3036,32.056308564340725
1737.0099,29.106317020608913
1738.7156,-4.969521168477513
1740.4204,6.527962187761659
1742.1246,-4.252015074473093
1743.8279,5.889764815732633
1745.5306,1.1025621069256886
1747.2325,-12.714363011243222
1748.9336,-19.511750360145925
1750.634,-35.19021274467377
1752.3336,-25.900168047332954
1754.0325,-2.091682600405875
1755.7307,-10.014563993501724
1757.4281,10.78140107967829
1759.1247,16.596525970921903
1760.8206,5.981123924209896
1762.5158,26.635508017557186
1764.2102,0.4099912691726786
1765.9039,-6.395113569090427
1767.5968,10.020506250522885
1769.289,-1.892772637048438
1770.9804,4.565426302932792
1772.6711,23.345498513996972
1774.361,21.797839394028415
1776.0502,29.37284410745724
1777.7386,42.27090760073952
1779.4263,30.692424526605464
1781.1132,37.637789115074156
1782.7994,46.15739528924678
1784.4849,33.55163659585014
1786.1696,40.370906120033396
1787.8535,66.21559661143328
1789.5367,50.336100415976944
1791.2192,67.53280921744226
1792.9009,52.006114196249655
1794.5818,65.60640585749752
1796.2621,52.48407418622719
1797.9415,71.28950851141781
1799.6202,65.57309763720605
1801.2982,82.38522965484026
1802.9755,74.57629199984058
1804.6519,83.19667128387573
1806.3277,75.39675337285553
1808.0027,71.77692330072023
1809.6769,83.28756534744662
1811.3504,84.87906307524099
1813.0231,92.7517992134417
1814.6951,102.00615564259806
1816.3664,106.6425133157436
1818.0369,111.31125216585588
1819.7067,97.86275105948516
1821.3757,108.94738775007681
1823.044,128.1655390124506
1824.7115,91.46758053195481
1826.3783,111.00388671228939
1828.0443,110.82483104247967
1829.7096,114.23078590151727
1831.3741,143.52212256014445
1833.0379,119.39921114680237
1834.701,133.26242035471296
1836.3633,145.0621176831064
1838.0248,139.848669298588
1839.6856,133.67243991714895
1841.3457,151.53379285629035
1843.005,165.23309009679815
1844.6636,165.720692104117
1846.3214,156.0969576913658
1847.9785,182.5122440144587
1849.6349,180.76690666834202
1851.2904,196.3112994228468
1852.9453,192.64577424013805
1854.5994,193.97068111927092
1856.2528,186.58636813284465
1857.9054,187.19318141375425
1859.5572,191.59146522902938
1861.2083,203.7815619737703
1862.8587,197.16381212716806
1864.5084,199.4385541305992
1866.1572,210.90612445380702
1867.8054,204.91685757214964
1869.4528,208.62108585192982
1871.0994,191.81913961028476
1872.7453,215.86134707814108
1874.3905,217.1480345682403
1876.0349,214.72952623470883
1877.6786,232.10614406019522
1879.3215,220.57820788005847
1880.9637,230.34603520859764
1882.6051,231.7099413543292
1884.2458,215.12023932231568
1885.8858,218.7772398005227
1887.525,239.18125132571458
1889.1634,216.0825802468844
1890.8011,211.73153052121415
1892.4381,237.47840394505965
1894.0743,241.5235001974661
1895.7098,232.36711658269178
1897.3446,230.55954798976563
1898.9786,242.45108698403874
1900.6118,228.19202382527237
1902.2443,228.13264634871757
1903.8761,229.12324010770953
1905.5071,202.71408837425497
1907.1374,223.7554721291326
1908.7669,221.24767032598038
1910.3957,228.0409596808795
1912.0237,213.7356146974389
1913.651,232.8819075988563
1915.2776,230.98010847097703
1916.9034,204.48048507082785
1918.5285,205.13330284563563
1920.1528,208.38882519782646
1921.7764,200.19731347849392
1923.3992,208.70902695484892
1925.0213,199.32422289212673
1926.6427,191.84315646848063
1928.2633,153.0160808688197
1929.8832,215.4432473596239
1931.5023,184.02490567721134
1933.1207,179.01130340347163
1934.7383,185.35268628004906
1936.3552,174.64929825847776
1937.9714,181.95138143676468
1939.5868,167.05917616642955
1941.2015,181.8729209794801
1942.8154,173.74285273733085
1944.4286,162.3192064826735
1946.041,142.25221552076982
1947.6528,149.24211153369242
1949.2637,153.83912478099273
1950.8739,156.44348402980495
1952.4834,164.7054165088739
1954.0921,153.52514788250937
1955.7001,133.7029021679691
1957.3074,150.93890184725979
1958.9139,148.3333680653609
1960.5197,144.88652045786466
1962.1247,148.64857717703035
1963.729,146.8197549262577
1965.3325,119.45026892246142
1966.9353,131.94033291435835
1968.5374,127.0401594561672
1970.1387,112.84995978270035
1971.7393,112.61994385837215
1973.3392,112.05032051909848
1974.9383,100.69129747459601
1976.5366,116.44308131407843
1978.1342,113.55587761984816
1979.7311,110.42989080977895
1981.3273,116.41532416618656
1982.9227,116.56237986709039
1984.5173,118.77125892635922
1986.1112,114.0421611922402
1987.7044,107.22528532526803
1989.2968,108.8208288455553
1990.8885,98.47898820096452
1992.4795,99.39995875115119
1994.0697,111.53393487098128
1995.6592,116.23110994132412
1997.2479,110.54167622771092
1998.8359,105.51582483336279
2000.4232,107.10374575608557
2002.0097,104.45562793852878
2003.5955,85.62165925230511
2005.1805,102.0520265244727
2006.7648,93.54691572587808
2008.3484,94.05651180684617
2009.9312,116.23099878223638
2011.5133,98.8705597263438
2013.0946,107.07537655115766
2014.6752,103.14563017996306
2016.2551,96.33150046529227
2017.8342,88.78316622822103
2019.4126,89.60080532651546
2020.9902,104.43459473010898
2022.5672,108.18471051293045
2024.1433,90.55132770456112
2025.7188,102.03462025273711
2027.2935,91.38476119968209
2028.8674,78.9019225672746
2030.4406,87.93627546354901
2032.0131,82.03799020752149
2033.5849,73.40723623884696
2035.1559,91.14418217680304
2036.7261,85.04899590659215
2038.2957,95.62184440198007
2039.8645,99.76289378624142
2041.4325,102.27230922643639
2042.9998,82.25025489200016
2044.5664,85.09689392964492
2046.1323,99.11238866358099
2047.6974,85.19690056705167
2049.2617,82.50059012217662
2050.8254,90.97361695910922
2052.3883,108.46613988299669
2053.9504,87.77831678925213
2055.5118,83.51030448863003
2057.0725,84.41225891410477
2058.6325,96.73433516354862
2060.1917,98.22668749071318
2061.7502,86.1394691820069
2063.3079,80.22283254157264
2064.8649,76.9769290121626
2066.4212,93.00190923430046
2067.9767,88.09792307874159
2069.5315,76.86511948622183
2071.0856,78.95364651650107
2072.6389,74.51365146068974
2074.1915,78.09528082036195
2075.7433,67.49868035195732
2077.2945,63.623995030962305
2078.8448,77.22136915788178
2080.3945,59.69094639698051
2081.9434,66.13286964031249
2083.4916,53.99728118302255
2085.039,59.53432265892798
2086.5857,53.5441351618756
2088.1317,71.0768591903693
2089.677,68.18263470747434
2091.2215,64.06160096548592
2092.7652,62.263896534875585
2094.3083,55.58965934550042
2095.8506,67.18902670457874
2097.3921,89.31213536343466
2098.933,79.90912140150294
2100.4731,79.73012000509834
2102.0124,85.67526556144549
2103.5511,81.9946916604672
2105.089,88.78853103533538
2106.6261,87.80691559927527
2108.1626,67.49997637763136
2109.6983,74.01784351767947
2111.2332,86.86064649169839
2112.7675,79.17851403178793
2114.301,76.07157400144251
2115.8337,83.63995347237278
2117.3657,81.68377875557735
2118.897,83.85317532565796
2120.4276,67.39826784037723
2121.9575,93.36918011896933
2123.4866,100.76603530668581
2125.0149,82.2389556150888
2126.5426,72.8380622480804
2128.0695,78.76347558717453
2129.5956,76.7653152855064
2131.1211,78.79370020857687
2132.6458,76.94874845423283
2134.1698,80.68057733238811
2135.693,70.73930338346918
2137.2155,95.92504234109765
2138.7373,80.83790923150491
2140.2584,96.3780181216739
2141.7787,82.24548227021023
2143.2983,81.89041397194342
2144.8171,67.16292469924838
2146.3353,66.81312510559701
2147.8527,80.69112517283565
2149.3693,84.4470342146783
2150.8853,85.48096073793113
2152.4005,66.9930124049306
2153.9149,78.73329602320837
2155.4287,81.00191773036522
2156.9417,71.09898287667102
2158.454,74.02459600237808
2159.9655,74.47886093674879
2161.4764,69.26188076880271
2162.9865,75.4237578427701
2164.4958,73.71459381026534
2166.0045,78.53448956866396
2167.5124,83.18354527820065
2169.0195,86.16186031376401
2170.526,80.46953321840647
2172.0317,76.90666167356494
2173.5367,76.77334255598225
2175.0409,90.31967197333552
2176.5445,94.2457452655699
2178.0473,79.80165686943428
2179.5494,74.98750027922279
2181.0507,75.1533681912133
2182.5513,67.29935255180999
2184.0512,92.42554455588333
2185.5504,96.08203472531068
2187.0488,74.4689126577141
2188.5465,53.4862669898971
2190.0435,69.93418561397675
2191.5397,70.76275588720955
2193.0353,75.62206446751043
2194.5301,55.86219730516814
2196.0241,61.43323959425015
2197.5175,64.48527597020666
2199.0101,69.96839045415618
2200.502,55.5326664223644
2201.9931,55.72818655141555
2203.4835,59.255032962566474
2204.9733,65.91328721979471
2206.4622,74.55303029452716
2207.9505,50.724342499059276
2209.438,64.82730340015723
2210.9248,55.56199205734492
2212.4109,48.12848688187387
2213.8962,45.476865729378005
2215.3809,54.157205974208864
2216.8648,49.419584535947706
2218.3479,53.96407779260926
2219.8304,45.69076162801002
2221.3121,44.39971138632882
2222.7931,53.591001954836884
2224.2733,54.06470777681125
2225.7529,44.870902759618275
2227.2317,36.7596602699773
2228.7098,51.93105322589963
2230.1872,43.83515417779927
2231.6638,40.57203515678202
2233.1397,48.04176775560154
2234.6149,33.4444231612938
2236.0894,38.880072080476566
2237.5632,33.14878488532577
2239.0362,46.25063155921771
2240.5085,35.68568175404198
2241.9801,39.354004659180646
2243.4509,33.30566910716243
2244.921,23.290743536975242
2246.3904,39.30929605455094
2247.8591,28.961394532918348
2249.3271,26.747106452015032
2250.7943,24.166499002164983
2252.2608,19.46963910622435
2253.7266,32.50659344538235
2255.1917,36.07742850613431
2256.656,24.48221044990987
2258.1197,22.57100507736368
2259.5826,26.34387794432905
2261.0447,30.65089438093105
2262.5062,23.19211945385564
2263.9669,29.267617923280795
2265.4269,29.677454317466754
2266.8862,25.271692871996265
2268.3448,24.650397525682365
2269.8026,32.563631964619844
2271.2598,29.06145962839969
2272.7162,25.293943630976855
2274.1719,31.261146795691275
2275.6268,19.163131692944035
2277.0811,24.899960580524976
2278.5346,43.921695524592224
2279.9874,28.378398342306355
2281.4395,36.62013041160935
2282.8908,38.046952826659435
2284.3414,34.30892631541542
2285.7914,41.406111225366885
2287.2406,30.488567560913907
2288.689,34.10635491239714
2290.1368,41.25953256527305
2291.5838,33.248159463936645
2293.0302,42.322294140190024
2294.4758,25.731994793354716
2295.9206,27.67731919952962
2297.3648,26.008324877494715
2298.8082,34.62506906925887
2300.251,38.87760875674758
2301.693,41.01600057563428
2303.1343,35.790300772815726
2304.5748,50.45056518502861
2306.0147,49.44684929110758
2307.4538,41.62920806538159
2308.8922,44.39769598771295
2310.3299,37.30236712167266
2311.7669,27.093275086858284
2313.2031,44.57047312984264
2314.6387,34.53401422626939
2316.0735,28.58395090607496
2317.5076,22.720335353857536
2318.941,35.593219468376674
2320.3737,24.302654921189742
2321.8056,31.0486930279219
2323.2369,28.881384861170773
2324.6674,33.60078118304841
2326.0972,47.25693246685546
2327.5263,40.49988884988352
2328.9547,44.679699996856925
2330.3823,32.69641516750153
2331.8092,26.10008317474717
2333.2355,37.84075250456044
2334.661,37.768471381910786
2336.0858,43.433287653360594
2337.5098,32.08524878778849
2338.9332,37.97440181974275
2340.3558,41.05079346292018
2341.7778,41.21447005127311
2343.199,39.215477508245385
2344.6195,46.753861345140194
2346.0393,38.47966668110553
2347.4583,55.04293816775271
2348.8767,46.14372007189695
2350.2943,43.18205610992504
2351.7113,57.157989536786545
2353.1275,55.07156317561112
2354.543,51.1228192779497
2355.9578,57.5117995446401
2357.3718,36.9385451652945
2358.7852,33.603096754408625
2360.1978,46.40549455709356
2361.6098,39.44577848242966
2363.021,39.57398797544556
2364.4315,48.34016208671255
2365.8413,50.74433947106377
2367.2504,41.78655829993386
2368.6587,43.46685623731173
2370.0664,39.43527052932154
2371.4733,33.791837987419285
2372.8795,41.53659502870937
2374.285,37.46957773237705
2375.6899,41.1908217622406
2377.0939,38.150362407422335
2378.4973,30.248234545138757
2379.9,30.884472671106096
2381.3019,32.25911097855851
2382.7032,37.272183351886724
2384.1037,37.423723352889965
2385.5035,33.963764170644936
2386.9027,33.242338619992324
2388.3011,41.459479176135574
2389.6987,36.96521798185381
2391.0957,44.00958676533287
2392.492,18.842616885108782
2393.8876,26.864339259624558
2395.2824,20.824784618897638
2396.6765,21.77398342430115
2398.07,21.21196592896399
2399.4627,28.63876216827748
2400.8547,30.05440196551126
2402.246,16.95891485755169
2403.6366,29.202330080738193
2405.0265,29.084676701824947
2406.4156,23.405983495541705
2407.8041,24.41627894577391
2409.1918,28.015591302348184
2410.5789,24.403948570925877
2411.9652,28.98137847701605
2413.3508,20.247908502088194
2414.7358,28.253565837800124
2416.12,12.698377473328492
2417.5035,26.83237011531469
2418.8863,30.205570343420504
2420.2684,16.868004468983372
2421.6497,4.819698501288485
2423.0304,17.86067828093951
2424.4104,14.640921499752267
2425.7896,19.96040567093587
2427.1682,26.26910816129157
2428.546,21.417006138016404
2429.9232,22.05407650561733
2431.2996,25.030295954432177
2432.6753,31.295640954258715
2434.0503,38.95008772459073
2435.4246,23.99361217196747
2436.7982,16.926189813427527
2438.1711,16.347795926073786
2439.5433,11.558405617747667
2440.9148,28.507993832813554
2442.2856,21.99653540005147
2443.6557,15.024004863162418
2445.025,23.240376545882555
2446.3937,15.595624621707202
2447.7617,25.33972303172891
2449.1289,29.322645561084983
2450.4955,32.14436574151614
2451.8613,29.554856811537093
2453.2265,25.60409168822048
2454.5909,30.99204299309031
2455.9546,18.668683091629873
2457.3177,34.38398403940482
2458.68,32.837917705292966
2460.0416,34.28045561433328
2461.4025,33.76156896318639
2462.7627,32.03122860570875
2464.1222,35.63940505814071
2465.4811,30.43606851641175
2466.8392,41.42118882005707
2468.1966,38.694735504252094
2469.5533,38.50667768996141
2470.9093,35.75698411120243
2472.2645,40.1956231169263
2473.6191,44.222562698514366
2474.973,42.087770445392835
2476.3262,37.09121350476221
2477.6787,52.58285860294609
2479.0305,39.362672095357084
2480.3816,32.58061981157857
2481.7319,42.686667187568446
2483.0816,36.73077933347895
2484.4306,45.26292093259667
2485.7789,38.73305630090135
2487.1264,28.441149301743962
2488.4733,28.337163411145184
2489.8195,34.67106182071507
2491.165,32.69280743869217
2492.5097,32.65236282660521
2493.8538,31.84969021905522
2495.1972,39.08475152411893
2496.5398,40.1075083313774
2497.8818,43.067921839564406
2499.2231,35.01595284633754
2500.5637,27.45156171867734
2501.9035,39.72470847340492
2503.2427,40.23535285282537
2504.5812,31.283454201998893
2505.919,36.71897146363199
2507.256,41.59186326759777
2508.5924,45.75208787657925
2509.9281,43.849603137342
2511.2631,52.634366439132464
2512.5974,51.00633473270045
2513.9309,53.66546444245182
2515.2638,46.96171148273129
2516.596,50.74503123122986
2517.9275,39.065378596020764
2519.2583,36.52270797772826
2520.5884,41.716973386322934
2521.9178,36.54812846654886
2523.2465,42.06612644598022
2524.5745,48.62092018671183
2525.9018,48.36246213017603
2527.2284,49.89070423159774
2528.5543,53.155597962577076
2529.8796,47.20709429580825
2531.2041,49.695143672428685
2532.5279,46.56969606150574
2533.851,54.63070093515648
2535.1735,45.87810729980106
2536.4952,45.61186361555315
2537.8163,42.58191788374643
2539.1366,53.88821764959516
2540.4562,57.33071003249597
2541.7752,63.85934161296268
2543.0935,60.824058398202624
2544.411,64.62480575683117
2545.7279,60.6615284492234
2547.0441,64.53417058950731
2548.3596,63.89267568519608
2549.6744,67.23698659846173
2550.9885,60.567045552549416
2552.3019,54.03279409833556
2553.6146,64.38417318102461
2554.9266,65.82112320549402
2556.2379,64.19358393278048
2557.5485,66.90149446570922
2558.8585,62.99479326516973
2560.1677,70.67341812303789
2561.4762,74.53730620124156
2562.7841,75.33639395497505
2564.0913,65.02061709406007
2565.3977,71.23991057495437
2566.7035,81.64420870391007
2568.0086,68.0834450747816
2569.313,78.90755246498179
2570.6167,77.71646297108941
2571.9197,81.81010790060895
2573.222,77.73841778388044
2574.5236,80.90132233314341
2575.8246,86.54875048325471
2577.1248,79.18063036005731
2578.4244,97.14688922390758
2579.7232,88.7974535433566
2581.0214,79.98224881548595
2582.3189,99.10119964940304
2583.6157,90.15422985439261
2584.9118,96.34126224872807
2586.2072,96.61221874914077
2587.5019,96.76702030895001
2588.7959,107.05558691535316
2590.0893,108.87783758787793
2591.3819,107.58369027549611
2592.6739,115.22306183840146
2593.9652,114.99586806095078
2595.2557,116.05202357527094
2596.5456,115.34144186353092
2597.8348,109.11403524737977
2599.1234,111.26971489505183
2600.4112,120.25839088364228
2601.6983,118.92997217754908
2602.9848,119.18436653858623
2604.2705,121.02148053926874
2605.5556,122.34121956026922
2606.84,114.243487772045
2608.1237,124.42818812164171
2609.4067,125.59522241367006
2610.689,116.99449120845941
2611.9707,117.4758938103871
2613.2516,118.23932835388598
2614.5319,119.53469179863055
2615.8115,113.41187992190214
2617.0903,109.82078730563569
2618.3685,115.3613073976478
2619.6461,108.08333254754768
2620.9229,109.48675395133216
2622.199,108.27146172416542
2623.4745,115.43734488634414
2624.7493,121.68429137545115
2626.0234,123.96218797469601
2627.2968,119.57092025044574
2628.5695,111.26037252944593
2629.8415,104.93042794273254
2631.1128,115.78096850873851
2632.3835,117.11187519659268
2633.6535,126.9230278176151
2634.9228,115.31430501200668
2636.1914,114.18558415073858
2637.4593,118.53674145163882
2638.7265,119.81765199068059
2639.9931,118.62818965846918
2641.259,125.51822714743435
2642.5242,124.93763596372457
2643.7887,116.33628635830598
2645.0525,114.1140473327697
2646.3156,109.57078672534351
2647.5781,108.8563712331154
2648.8398,102.1706664574657
2650.1009,109.61353691121099
2651.3613,125.4848460854613
2652.6211,114.33445637519162
2653.8801,110.0622289205287
2655.1385,115.06802371825506
2656.3961,119.35169966453134
2657.6531,123.363114504838
2658.9094,119.35212479113898
2660.1651,124.0685858417678
2661.42,113.5623517815369
2662.6743,120.58327549457329
2663.9279,126.5812087293807
2665.1808,121.40600202862993
2666.433,134.4575046691807
2667.6846,127.38556471383322
2668.9354,129.49002888081247
2670.1856,126.57074261448838
2671.4351,136.52755006433063
2672.6839,149.6102941141022
2673.9321,133.61881628229185
2675.1795,144.95295659128487
2676.4263,145.81255372727946
2677.6724,145.19744492694474
2678.9179,150.85746596882495
2680.1626,151.6924511794898
2681.4067,150.10223337693503
2682.6501,148.0866438622329
2683.8928,149.7455124354325
2685.1348,137.32866741571786
2686.3761,143.1859356248185
2687.6168,140.11714251117712
2688.8568,140.12211209137706
2690.0961,134.45066698083076
2691.3348,135.10262839373013
2692.5727,126.47781619976013
2693.81,127.02604891757949
2695.0466,117.69714380106961
2696.2826,128.79091683385104
2697.5178,133.75718282257333
2698.7524,130.94575528597693
2699.9863,129.906446405231
2701.2195,129.43906705204756
2702.452,128.1434267990743
2703.6839,134.7193339245688
2704.9151,141.3665954253545
2706.1456,150.63501695106186
2707.3755,150.37440273765537
2708.6046,169.03455551474963
2709.8331,165.5152765082155
2711.0609,173.91636525357853
2712.2881,177.73761963121183
2713.5145,186.22883578232506
2714.7403,195.33980807075193
2715.9654,208.72032899803799
2717.1899,214.2701891123305
2718.4136,230.13917687457388
2719.6367,234.07707860301116
2720.8591,253.4336783144936
2722.0809,253.1087576851021
2723.3019,267.6520958565807
2724.5223,272.3634694395871
2725.7421,273.54265236825813
2726.9611,286.38941585309635
2728.1795,276.2535283691782
2729.3972,280.48475552768593
2730.6142,257.53286017726725
2731.8306,250.74760236172187
2733.0462,234.0787395495214
2734.2612,205.32602670166216
2735.4756,193.83921643835333
2736.6892,178.4180593265445
2737.9022,166.71230399479293
2739.1145,156.57169728747567
2740.3262,129.6959843818472
2741.5372,130.28490888944532
2742.7475,117.98821312484802
2743.9571,102.90563809978471
2745.1661,88.38692364610301
2746.3744,79.0318085665948
2747.582,82.09003078018225
2748.7889,69.4613274154699
2749.9952,58.145434780161736
2751.2008,54.792088487349474
2752.4057,46.45102356867062
2753.61,47.571974507842356
2754.8136,44.55467532407272
2756.0165,38.89885956084993
2757.2188,35.904260316115824
2758.4204,39.12061029882443
2759.6213,32.94764185888732
2760.8215,32.18508695501032
2762.0211,20.532677216423508
2763.22,20.89014395050583
2764.4182,21.55721825930982
2765.6158,19.483631035987514
2766.8127,11.31911295811858
2768.009,10.613394508446959
2769.2045,2.1162060565259253
2770.3994,5.4772778657745675
2771.5936,-6.953659821550104
2772.7872,-3.826876817963239
2773.9801,-3.0425734689192723
2775.1723,-13.050911889373424
2776.3639,-6.252023798972573
2777.5548,-13.495910538753833
2778.745,-9.232510992037419
2779.9346,-14.86162921799712
2781.1235,-14.332977043022765
2782.3117,-9.44611782582831
2783.4992,-11.900471738687884
2784.6861,-21.645364587159293
2785.8723,-10.830003291087564
2787.0579,-11.203378533126283
2788.2428,-10.464372804195023
2789.427,4.088243326536713
2790.6106,14.805803828983585
2791.7935,15.039642632178584
2792.9757,23.741093517096374
2794.1573,21.461490114314984
2795.3382,36.60216581700274
2796.5184,47.66445380371363
2797.698,56.499686886979816
2798.8769,70.55919740268973
2800.0551,87.44431712173491
2801.2327,94.70637710941514
2802.4096,120.24670755658735
2803.5859,127.96663770704538
2804.7615,143.61749560211513
2805.9364,171.60060800345752
2807.1106,180.217300236558
2808.2842,207.66889591089648
2809.4572,237.55671683378102
2810.6294,281.88208273583075
2811.801,305.446310972099
2812.972,334.100716078818
2814.1423,389.7966095377582
2815.3119,431.78529948968253
2816.4808,470.7180901773876
2817.6491,508.04628152581824
2818.8167,568.0711687527389
2819.9837,607.8940419954505
2821.15,654.1161857105434
2822.3157,711.1888782756672
2823.4807,758.0633915273097
2824.645,799.0909901900703
2825.8086,853.7229314079154
2826.9716,883.1104643339013
2828.134,934.0548295838552
2829.2957,972.6072589424999
2830.4567,994.7689748540104
2831.617,1011.2911900364892
2832.7767,1018.6251072603503
2833.9358,1013.3219191830955
2835.0941,1020.8328082759766
2836.2519,1006.7089468770264
2837.4089,991.0014971159495
2838.5653,975.0116110553629
2839.7211,971.1904308478681
2840.8761,966.9890888959516
2842.0306,999.1087078901949
2843.1843,1018.800400851289
2844.3374,1064.7152708088386
2845.4899,1118.0544106044447
2846.6417,1181.7189024325553
2847.7928,1253.509817307076
2848.9433,1318.578214424722
2850.0931,1381.7251404471135
2851.2422,1455.9516288500854
2852.3907,1517.2586992922247
2853.5385,1591.5973568726004
2854.6857,1622.2185915176965
2855.8323,1696.6733772380232
2856.9781,1743.212671821905
2858.1233,1795.987416090934
2859.2679,1829.498533434576
2860.4118,1879.7969292824223
2861.555,1903.3334907690805
2862.6976,1942.3090862311888
2863.8395,1965.4745649720521
2864.9808,2000.2807568718829
2866.1214,2026.8284721561492
2867.2614,2036.7685010475116
2868.4007,2040.6516135003453
2869.5393,2042.0285591013417
2870.6773,2064.300067030677
2871.8146,2080.016846048241
2872.9513,2084.579584270923
2874.0874,2072.388949015446
2875.2227,2073.9955867527356
2876.3574,2039.9001232298276
2877.4915,2022.7031634538043
2878.6249,1999.455292032746
2879.7577,1963.0570733477032
2880.8898,1955.009051785173
2882.0212,1944.0617521010818
2883.152,1923.165679501267
2884.2821,1912.5713197509476
2885.4116,1903.779139383687
2886.5405,1899.939585807334
2887.6686,1897.4030873919476
2888.7962,1919.520053508191
2889.923,1927.1408745526967
2891.0493,1923.815921726898
2892.1748,1937.3955469608184
2893.2997,1941.330082946323
2894.424,1964.5198430013227
2895.5476,1980.1151210304274
2896.6706,2018.7661912930496
2897.7929,2027.123308247451
2898.9145,2065.1867061642306
2900.0355,2098.6565990427566
2901.1559,2132.683180230528
2902.2756,2164.1666220884795
2903.3946,2197.9070756507135
2904.513,2202.504670309666
2905.6308,2236.3595134787047
2906.7479,2265.17169054615
2907.8643,2283.741264536726
2908.9801,2293.6182758234427
2910.0953,2318.802741941896
2911.2098,2310.9946574914984
2912.3236,2310.7439938836374
2913.4368,2304.4506994197523
2914.5494,2277.064699293845
2915.6613,2247.235895655408
2916.7725,2217.264167883291
2917.8831,2194.299372883981
2918.9931,2170.441345391326
2920.1024,2154.339898196181
2921.211,2121.444822384984
2922.319,2110.75588750078
2923.4264,2085.92284187216
2924.5331,2073.245412720161
2925.6391,2072.773306406589
2926.7445,2067.156208560798
2927.8493,2056.4437840844066
2928.9534,2057.335677207475
2930.0569,2048.631511595623
2931.1597,2051.1808903411156
2932.2619,2050.633396049902
2933.3634,2064.5385908161234
2934.4643,2058.1460162275876
2935.5645,2033.3051932267158
2936.6641,2004.8156221744694
2937.763,1970.4267830987583
2938.8613,1913.7381359793364
2939.959,1878.6991210916906
2941.056,1796.3591595739256
2942.1523,1725.2176537771556
2943.248,1640.173988088904
2944.3431,1554.027529644518
2945.4375,1460.0776291776046
2946.5313,1356.0736218814961
2947.6244,1264.4148283487482
2948.7169,1170.6005556111804
2949.8087,1067.780098056465
2950.8999,985.1027383662677
2951.9904,911.3677485444537
2953.0803,839.8743907438612
2954.1696,779.2719180036522
2955.2582,729.3095749642448
2956.3462,681.1865984733377
2957.4335,642.2022180855349
2958.5202,611.1556565435751
2959.6062,595.196130168174
2960.6916,580.9728491684918
2961.7764,555.8350178017283
2962.8605,545.6818345153544
2963.9439,538.2624921984911
2965.0267,524.2261782834428
2966.1089,526.572074819888
2967.1905,515.3493586152447
2968.2714,516.0572012112098
2969.3516,517.044768995988
2970.4312,530.6612231972108
2971.5102,531.6557198720636
2972.5885,532.9774097711185
2973.6662,530.3754383283917
2974.7432,544.6489456481252
2975.8196,532.7470665308061
2976.8954,528.5689303304339
2977.9705,525.0636610735369
2979.045,516.5303775009558
2980.1188,506.968193102894
2981.192,488.1262162042526
2982.2645,475.2035500602507
2983.3364,451.59929304484524
2984.4077,435.0625387799588
2985.4783,402.19237637152105
2986.5483,382.7378905748367
2987.6177,354.6981621232869
2988.6864,327.4222679228744
2989.7545,294.1092813326203
2990.8219,257.7582724373233
2991.8887,227.36830838068965
2992.9548,209.9384537288439
2994.0204,180.91777077422728
2995.0852,154.40531970989719
2996.1495,132.45015891973355
2997.2131,101.85134524356249
2998.276,89.20793419670929
2999.3383,70.66898027598586
3000.4,57.58353708612492
3001.4611,48.70065752516939
3002.5215,39.119393915327464
3003.5812,17.438798091801345
3004.6404,16.407921498598853
3005.6989,10.275815405341064
3006.7567,-0.3584690824304744
3007.8139,3.304119038068052
3008.8705,-11.987365649274125
3009.9264,-13.6338685936081
3010.9818,-10.936215490302175
3012.0364,0.5049041676226125
3013.0905,-14.31108986006302
3014.1439,-8.384777818636735
3015.1966,-9.316596985588774
3016.2487,-7.906900874479277
3017.3002,-5.655949926064466
3018.3511,4.586074408838897
3019.4013,3.269047182353404
3020.4509,6.89284340074164
3021.4998,-0.24266196242439264
3022.5481,6.512405997499457
3023.5958,11.00792460934997
3024.6428,13.743771136840053
3025.6892,20.169822733603382
3026.735,21.03595641583638
3027.7802,31.442048998037535
3028.8247,38.7379770843462
3029.8685,45.57361696448157
3030.9118,46.698844540783455
3031.9544,56.413535259855735
3032.9963,53.06756410131436
3034.0376,69.81080548064011
3035.0783,74.79313328263811
3036.1184,81.9144206940058
3037.1578,92.22454015350945
3038.1966,101.57336328077128
3039.2348,96.36076077316841
3040.2723,109.28660231234443
3041.3092,113.70075661633547
3042.3455,105.15309131031228
3043.3811,105.99347288243752
3044.4161,102.92176676934355
3045.4505,109.08783734772788
3046.4842,104.64154796507034
3047.5173,103.63276087797249
3048.5498,103.61133729662043
3049.5816,99.97713739487261
3050.6128,102.28002031047413
3051.6434,100.56984418139888
3052.6734,93.04646612282068
3053.7027,94.65974224421501
3054.7314,86.60952772459285
3055.7594,81.24567679636772
3056.7868,90.518042825858
3057.8136,91.0764783669257
3058.8398,88.67083506825196
3059.8653,84.25096366775352
3060.8902,88.716714016639
3061.9145,91.41793512360749
3062.9381,93.604475110191
3063.9612,89.07618118374239
3064.9835,89.38289961557007
3066.0053,84.8744757862205
3067.0264,82.00075418241124
3068.0469,75.16157844211551
3069.0668,75.25679138329912
3070.086,65.18623507231223
3071.1046,72.24975082293736
3072.1226,63.347179297094954
3073.1399,58.97836043420813
3074.1567,52.19313354022813
3075.1727,51.741337331322654
3076.1882,41.92281000172852
3077.203,29.78738922826909
3078.2173,35.38491226853989
3079.2308,33.4152160822627
3080.2438,27.17813727531029
3081.2561,20.57351211940346
3082.2678,20.251176614481665
3083.2789,14.960966554749291
3084.2893,11.302717531899134
3085.2991,8.72626498801435
3086.3083,12.181444252150925
3087.3169,5.968090566102376
3088.3248,2.7860390498478296
3089.3321,-1.4648752363144695
3090.3388,4.065182740053672
3091.3449,-0.7239373545061767
3092.3503,5.417614105895808
3093.3551,1.8396939792835383
3094.3593,-4.307840930495104
3095.3629,-4.8251338379892275
3096.3658,-4.312284922417234
3097.3681,-1.419346159910475
3098.3698,-0.2963264468742466
3099.3708,-6.893220500445608
3100.3713,-2.310020077460564
3101.3711,-0.5966480714824911
3102.3702,-1.7030042989741787
3103.3688,-1.4789826158841777
3104.3667,-1.8244598651483273
3105.364,0.5107018853338161
3106.3607,-1.2233412059833881
3107.3568,6.473561917442623
3108.3522,5.551574533332996
3109.347,3.86085985467318
3110.3412,7.201581038933142
3111.3348,13.873901204974231
3112.3277,5.377983399642034
3113.32,7.463990531043265
3114.3117,6.282085453504976
3115.3028,12.832430946714197
3116.2932,10.915189727537324
3117.2831,6.730524384516457
3118.2723,9.378597397041943
3119.2608,12.909571177199098
3120.2488,15.473608043287328
3121.2361,11.970870184510375
3122.2229,17.351519635335904
3123.209,14.665718310523033
3124.1944,19.41362795131576
3125.1793,19.945410152300894
3126.1635,20.261226313929058
3127.1471,27.21123763719686
3128.1301,22.895605120488824
3129.1125,19.81448949007691
3130.0942,24.768051243277426
3131.0753,24.206450679261962
3132.0558,31.02984784952156
3133.0357,27.638402563482913
3134.015,35.73227432027427
3134.9936,30.311622342639964
3135.9716,29.276605496001693
3136.949,30.227382342664896
3137.9258,33.21411115216908
3138.902,33.93694989177999
3139.8775,36.94605619662231
3140.8524,34.44158736245117
3141.8267,40.073700315561354
3142.8004,42.092551637831605
3143.7735,41.04829751040387
3144.7459,38.041093693494545
3145.7178,44.121095536837174
3146.689,38.93845800975433
3147.6596,45.69333564035762
3148.6295,46.03588256737423
3149.5989,48.666252472598
3150.5676,50.38459857746395
3151.5357,52.64107361674456
3152.5032,51.48582982136642
3153.4701,49.11901889584534
3154.4364,48.39079202983889
3155.402,49.45129992181451
3156.367,57.9506927863317
3157.3315,57.28912034343705
3158.2952,53.166731733670275
3159.2584,54.93367552467994
3160.221,57.04009975244735
3161.1829,57.43615190361706
3162.1442,62.02197889443269
3163.105,65.39772706677637
3164.065,64.56354214231037
3165.0245,67.26956918871984
3165.9834,62.265952628054464
3166.9416,65.60283620966824
3167.8993,72.13036306025568
3168.8563,68.89867565048294
3169.8127,68.35791572971263
3170.7684,69.50822435832052
3171.7236,71.89974191310334
3172.6782,75.13260807577552
3173.6321,76.40696180905421
3174.5854,71.07294132433043
3175.5381,73.53068406892567
3176.4902,74.58032677943197
3177.4417,75.02200545713461
3178.3926,75.50585535751557
3179.3428,79.68201098583685
3180.2924,79.70060609230187
3181.2415,81.66177363029396
3182.1899,83.56564575619042
3183.1377,85.56235380975083
3184.0848,84.45202829507832
3185.0314,86.6847988606525
3185.9773,85.56079431043273
3186.9227,89.83014258153037
3187.8674,88.49297075544888
3188.8115,89.7994050153903
3189.755,89.59957065962696
3190.6979,88.19359208843719
3191.6402,91.38159280610351
3192.5818,96.76369543497266
3193.5229,97.44002168357535
3194.4633,99.11069229280541
3195.4031,96.72582702915642
3196.3423,95.03554466801506
3197.2809,100.28996301750976
3198.2189,100.48919893541346
3199.1563,104.08336827659946
3200.0931,107.32258589104912
3201.0292,107.40696558791008
3201.9648,100.43662010310412
3202.8997,106.86166109848341
3203.834,104.83219923153385
3204.7677,108.24834409112475
3205.7008,106.51020421780345
3206.6333,109.21788706963378
3207.5652,113.02149903957758
3208.4964,114.57114542841778
3209.4271,116.76693040672228
3210.3571,116.25895699934756
3211.2865,117.84732706348075
3212.2154,120.58214129371937
3213.1436,117.06349920618774
3214.0712,117.44149911118868
3214.9982,123.81623814839001
3215.9246,119.08781228304457
3216.8503,123.30631624224279
3217.7755,124.52184356219696
3218.7001,129.08448654605627
3219.624,129.94433625175145
3220.5473,126.55148244636827
3221.4701,125.80601359754922
3222.3922,130.40801690742188
3223.3137,131.4075783200537
3224.2346,131.85478247543193
3225.1549,134.849712699468
3226.0746,134.99245099952552
3226.9937,134.833078034471
3227.9121,133.07167311324628
3228.83,141.0083141964626
3229.7473,140.6430779140143
3230.6639,143.32603948571256
3231.5799,140.55727272493777
3232.4954,142.68685001180995
3233.4102,141.81484232087627
3234.3244,144.59131919981547
3235.238,143.81634877815782
3236.151,142.7399977395204
3237.0634,147.51233132935675
3237.9752,144.83341336572045
3238.8864,148.50330619154164
3239.797,147.72207070141633
3240.7069,149.73976630490745
3241.6163,152.85645093435716
3242.5251,153.22218102470987
3243.4332,155.6370114823455
3244.3408,152.50099568142213
3245.2477,157.66418543972753
3246.154,155.77663105003958
3247.0598,155.7383812284943
3247.9649,159.29948313346125
3248.8694,161.50998236592625
3249.7733,162.4699229338802
3250.6766,165.27934723021423
3251.5793,164.0882960231201
3252.4814,161.99680842799614
3253.3829,163.25492191935763
3254.2838,164.51267235175166
3255.1841,163.82009394717608
3256.0838,164.32721928250197
3256.9829,165.78407929639934
3257.8814,166.940703284266
3258.7792,169.2971188836588
3259.6765,172.40335206272752
3260.5731,172.6094270966508
3261.4692,172.41536653657363
3262.3647,170.97119120754672
3263.2595,172.17692021046707
3264.1538,175.5825709365198
3265.0474,172.2381590551207
3265.9404,175.7936984798597
3266.8329,173.74920140194524
3267.7247,174.7546782546486
3268.616,173.26013773374905
3269.5066,173.76558678747887
3270.3966,174.62103063146895
3271.286,173.17647274369432
