RamanShift,CorrectedData
30.1047,1971.3533608298112
32.3739,1839.7130966304126
34.6426,1702.8728127174802
36.9109,1569.0324709803497
39.1787,1438.4920162796277
41.4461,1303.6013777855958
43.7131,1172.5104702836154
45.9796,1040.9191955230337
48.2456,909.2774435280915
50.5112,777.585093913837
52.7764,647.792017202544
55.0411,516.2480761406349
57.3054,381.6031269966115
59.5692,254.70702087649485
61.8326,124.20960507027458
64.0955,-2.18927567913002
66.3579,-131.18977787089563
68.6199,-250.94203613333488
70.8815,-355.0948745088797
73.1426,-408.3946101290213
75.4032,-336.5840127274549
77.6634,57.4482278242798
79.9231,1165.8167841289294
82.1824,3787.1363282147568
84.4412,8611.171520451862
86.6995,15250.786983338978
88.9574,21793.247253263125
91.2148,26267.01671410345
93.4717,28352.25953180664
95.7282,28698.939609649206
97.9842,28592.670567385067
100.2398,27991.665737778745
102.4949,27269.438167668064
104.7495,26390.350623974184
107.0036,25479.56560092389
109.2573,24625.545328840457
111.5105,23790.15178325151
113.7632,22941.496693429217
116.0154,22226.941550744235
118.2672,21673.497617152254
120.5185,21087.32593233955
122.7693,20618.237319257423
125.0197,20209.642389983914
127.2696,19796.451550414702
129.519,19557.67500434904
131.7679,19230.122757621655
134.0163,18936.604620490547
136.2642,18642.380210912474
138.5117,18304.658957478157
140.7587,17979.200102354527
143.0052,17638.662704661918
145.2512,17292.105643728664
147.4967,16956.237622496472
149.7417,16661.267170986008
151.9863,16448.60264965554
154.2304,16290.202252350686
156.4739,16013.374008431036
158.717,15831.825784354158
160.9596,15538.96528644389
163.2017,15173.900062705805
165.4433,14794.737505755831
167.6844,14321.884856470891
169.925,13941.999207780545
172.1651,13457.887509395503
174.4047,13046.656571606476
176.6439,12695.613070125308
178.8825,12312.513550197287
181.1206,12060.614430111567
183.3582,11801.722005032174
185.5954,11584.842449516982
187.832,11389.281820106657
190.0681,11292.046057493433
192.3037,11178.89098847674
194.5388,11075.172326935544
196.7734,10981.845674959915
199.0075,10926.566523888192
201.2411,11020.09025524026
203.4742,10975.572141270348
205.7068,11027.41734403178
207.9389,11033.730915822174
210.1704,11085.36779866497
212.4015,11092.982824246308
214.632,11198.930713398648
216.862,11269.216076024626
219.0915,11314.49341003758
221.3205,11437.417100658682
223.549,11600.741419964183
225.777,11808.72052565616
228.0044,12097.008459429282
230.2314,12444.05914489102
232.4578,12757.726384678748
234.6837,12994.71385698927
236.909,13137.475112442118
239.1339,13021.463571709699
241.3582,12739.232524089679
243.582,12322.185128665085
245.8053,11853.524417126626
248.0281,11494.653297943165
250.2503,11132.474561048322
252.472,10877.140881429195
254.6932,10781.454822748143
256.9139,10597.418839896118
259.134,10507.485279949538
261.3536,10438.806384010637
263.5727,10403.884288106798
265.7912,10263.971023877333
268.0092,10250.968518922731
270.2267,10121.528598203762
272.4436,9993.502984171517
274.6601,9841.693298061813
276.8759,9668.60106117543
279.0913,9554.477696396238
281.3061,9447.17452992209
283.5204,9449.34279240607
285.7341,9418.733620029534
287.9473,9504.648054480398
290.16,9645.337043259267
292.3721,9860.651438820263
294.5837,10209.391997164139
296.7947,10493.859375685157
299.0052,10644.854129683647
301.2152,10388.776709521351
303.4246,10011.97745911148
305.6334,9399.656618479477
307.8418,8856.364327531028
310.0495,8334.650632175262
312.2568,7968.465489757664
314.4635,7621.4587742772255
316.6696,7465.380280048288
318.8752,7322.6797251706175
321.0802,7337.00675309018
323.2847,7356.360934026148
325.4887,7348.991764827635
327.692,7203.348668780145
329.8949,7037.680995679275
332.0972,6712.088023287126
334.2989,6369.668958989016
336.5001,6012.022943049378
338.7007,5763.799052035958
340.9008,5569.046302396284
343.1003,5404.413652939898
345.2992,5292.300006785883
347.4976,5186.4042130092
349.6955,5106.075067761805
351.8927,5176.961315331624
354.0895,5065.71164894584
356.2856,5081.124710062026
358.4812,4982.8990894806575
360.6763,4983.283327190955
362.8707,4895.175913353172
365.0646,4904.825288294733
367.258,4857.0798433913205
369.4508,4813.587920970371
371.643,4885.1478147885155
373.8346,4744.3077704665175
376.0257,4683.865984773669
378.2162,4574.520607036184
380.4062,4402.769739741612
382.5956,4218.611439632323
384.7844,4074.843719422988
386.9726,3907.3645496421923
389.1603,3800.1718600700824
391.3474,3682.163541413176
393.5339,3647.537446376262
395.7199,3543.541390842516
397.9052,3508.673154219723
400.09,3474.2804804802745
402.2743,3521.611078509837
404.4579,3558.212622451272
406.641,3715.6827512313357
408.8235,3869.6190681946537
411.0054,4110.119139529044
413.1868,4529.030492726142
415.3675,4770.30061417638
417.5477,4918.826944979912
419.7273,4911.256878533881
421.9064,4786.687759047174
424.0848,4580.2168816161175
426.2627,4328.84149347015
428.4399,4067.358796036562
430.6166,3632.565947454237
432.7928,3193.060065188489
434.9683,2856.5882303789876
437.1432,2603.1974922348054
439.3176,2377.5348713991298
441.4914,2219.9473624831808
443.6645,2175.2819363228446
445.8371,2008.1855415545251
448.0091,1966.3551050618116
450.1806,1854.6875336464618
452.3514,1752.6797144466655
454.5216,1759.7285160537613
456.6913,1639.3807895322789
458.8603,1637.3333683494711
461.0288,1726.5330695787889
463.1967,1693.5766939203531
465.3639,1760.3110248089579
467.5306,1831.6328287436372
469.6967,1907.6888546203227
471.8622,2028.775833018637
474.0271,2172.590475441313
476.1914,2214.8294731033457
478.3551,2164.8394954938267
480.5182,2164.6671899535722
482.6807,2117.9591821750073
484.8426,2185.0620762038925
487.0039,2454.9224549064093
489.1647,2833.936879298133
491.3248,3260.3018858454125
493.4843,3433.763982675253
495.6432,3393.5696453116507
497.8015,3268.1653149409576
499.9592,3255.847398813843
502.1163,3149.7122714993457
504.2728,2894.206275008015
506.4287,2599.2757198533072
508.5839,2127.616887606604
510.7386,1802.9260338465538
512.8927,1650.649392875639
515.0461,1544.7331809670832
517.199,1474.5235978876262
519.3512,1453.7168279566758
521.5029,1489.659040748411
523.6539,1541.99639129985
525.8043,1571.325019751428
527.9541,1584.1910508236142
530.1033,1553.140593523647
532.2519,1559.7197410168556
534.3999,1610.574570937184
536.5472,1904.8511453213941
538.694,2349.1455101005013
540.8401,2934.7036921570143
542.9856,3431.371694882004
545.1305,3576.745492319533
547.2748,3405.3210241999295
549.4185,3062.6441944860853
551.5615,2706.6608730876833
553.704,2572.1168992879866
555.8458,2507.8580853036474
557.987,2528.9302176301535
560.1276,2523.7290576844134
562.2675,2544.8003415940693
564.4069,2556.5397802494663
566.5456,2541.1430590929485
568.6837,2492.7058380014932
570.8212,2180.6737514406377
572.958,1814.09240894888
575.0942,1516.9073982580012
577.2299,1284.714288958854
579.3648,1260.6086354732288
581.4992,1291.0859793757845
583.6329,1454.6418496350889
585.766,1690.421762308877
587.8985,1819.7212189084566
590.0304,1830.7357040409188
592.1616,1747.4106841161629
594.2922,1656.8416072367145
596.4222,1507.5239040310153
598.5515,1303.7029885590855
600.6802,1145.0742598057295
602.8083,917.9331037187294
604.9358,861.1248947951135
607.0626,778.8949983526072
609.1888,770.9387710976916
611.3144,721.4015619479105
613.4393,599.9787121114314
615.5636,556.5155555824313
617.6873,444.65742035531
619.8103,379.09962885931964
621.9327,300.9374990771503
624.0544,241.1163452005021
626.1756,213.73147841171158
628.2961,198.07820748196173
630.4159,138.65183904513833
632.5351,106.79767775434448
634.6537,7.811026876173855
636.7716,18.887188609256555
638.8889,60.52138712002852
641.0056,111.60884638608331
643.1216,42.39478977979161
645.237,136.27443955744457
647.3518,118.79301755140114
649.4659,192.24574423126614
651.5793,144.42783887873156
653.6922,128.6845188530533
655.8043,105.21100006919733
657.9159,113.55249715528771
660.0268,28.054223687347985
662.137,-36.13860789413229
664.2466,-55.93078542917647
666.3556,-50.476735733132955
668.4639,-67.78032687279847
670.5716,9.655077347601036
672.6786,67.82679024929166
674.785,112.18202869928427
676.8907,128.76800888630532
678.9958,263.58194587730395
681.1002,202.62105345154123
683.204,167.83254275247964
685.3072,168.71362289736498
687.4097,111.46150132512776
689.5115,105.5733837875814
691.6127,40.796474921931804
693.7132,-26.022021690328984
695.8131,-41.78490287567911
697.9123,-29.894705500621058
700.0109,-109.6035490004615
702.1089,-79.76325416241525
704.2061,-62.77454683425822
706.3028,7.3126439711522835
708.3987,42.74901635866627
710.4941,111.78519537979446
712.5887,319.3218056586047
714.6827,582.3094707013079
716.7761,944.1988108209371
718.8688,1319.6904405074238
720.9608,1468.1349648087344
723.0522,1566.2329755759383
725.1429,1362.6850499787688
727.233,1142.9417495246416
729.3224,953.9536220941372
731.4112,680.771204138422
733.4993,470.54502256913474
735.5867,296.9755974902
737.6735,172.1134443000883
739.7596,123.5090754275443
741.845,104.01300158016238
743.9298,50.42573223045838
746.014,103.69777581082599
748.0974,103.57964024943067
750.1802,78.72183243745894
752.2624,60.474858230336395
754.3439,86.98922269624381
756.4247,184.11543029865788
758.5048,253.45398463114543
760.5843,493.5053874461519
762.6631,813.8201379616112
764.7413,1271.8487304603914
766.8188,1889.8416510871866
768.8956,2287.5993732682073
770.9718,2616.172351531255
773.0473,2451.011017528148
775.1221,2170.9157767489996
777.1962,1805.5370101738044
779.2697,1593.8250770734303
781.3426,1651.5803186633784
783.4147,1909.2530602209154
785.4862,2252.443610507522
787.557,2272.652259192142
789.6271,1894.5792734193128
791.6966,1403.9748976070587
793.7654,879.7893572276189
795.8335,549.272863713486
797.901,374.8256196992552
799.9678,300.1978223268161
802.0339,292.1396649898161
804.0993,412.351338079945
806.1641,375.73302906747995
808.2282,329.48492129920487
810.2916,241.7071943645824
812.3544,184.0000245582305
814.4164,75.91358575772756
816.4778,142.39805000065462
818.5385,116.90358856545936
820.5986,206.6803713066074
822.658,372.7285669095654
824.7166,421.79834199298057
826.7747,717.7398594482511
828.832,900.0532779487621
830.8886,1001.4887489905195
832.9446,1225.3964150689826
834.9999,1243.0764086647687
837.0545,1270.6788500045259
839.1085,1257.3538468841543
841.1618,1218.101494392784
843.2143,1171.2718750460117
845.2662,1074.065059178436
847.3175,1042.431105411939
849.368,953.6700616277485
851.4179,846.1319652827879
853.467,725.1168442972848
855.5155,607.6747181301434
857.5633,510.5055989891298
859.6105,435.0094930052546
861.6569,392.1364012044978
863.7027,346.236320262753
865.7478,394.65924293456555
867.7922,412.6051585121313
869.8359,416.87405234106336
871.8789,535.2159056409182
873.9212,728.5306954625339
875.9629,905.9183935046058
878.0039,1092.5289641805284
880.0441,1244.2623628445217
882.0837,1223.8185339255178
884.1226,1174.6474094098485
886.1609,1067.948909045659
888.1984,1037.1229408346444
890.2352,1099.7694020990202
892.2714,1042.8881797897811
894.3069,1039.479149860239
896.3416,973.5421778348391
898.3757,989.8271188432409
900.4091,976.3338182796979
902.4418,961.4621116402122
904.4739,991.5118246574602
906.5052,1040.0327734495004
908.5358,906.1247642192975
910.5658,787.5375927694877
912.595,652.7710458414949
914.6236,502.82490230134135
916.6515,451.29893448736766
918.6786,457.04290970966395
920.7051,555.9065907653458
922.7309,724.0897358811235
924.756,757.7420977246547
926.7804,890.8134217227307
928.8041,807.5034457247057
930.8272,849.2618986718408
932.8495,720.2885014303611
934.8711,720.9329663738827
936.892,580.6949986731452
938.9123,444.6242962895594
940.9318,390.87055137760035
942.9506,288.4334516455019
944.9688,207.91268089282312
946.9862,154.05792003478564
949.003,50.91884790750191
951.019,89.89514180652259
953.0344,97.93647851820424
955.0491,90.79253392996907
957.063,231.21298294989174
959.0763,371.49749957813765
961.0888,428.6457555027446
963.1007,597.5574186967933
965.1119,623.9821528468856
967.1223,623.2196156640784
969.1321,689.8694586196143
971.1412,759.9813269525403
973.1495,731.8048590032195
975.1572,826.7396855122242
977.1641,860.3854299020786
979.1704,846.9917073279357
981.1759,848.9081243410947
983.1808,950.3842790229428
985.1849,1028.3697609657902
987.1884,1188.3141502581275
989.1911,1324.1170167047567
991.1932,1456.477918227345
993.1945,1515.5463995064056
995.1951,1491.071990657667
997.1951,1459.1042066414375
999.1943,1371.0925475072945
1001.1928,1323.6864987137888
1003.1906,1343.5355320085619
1005.1877,1404.839105902407
1007.1841,1379.546665470767
1009.1798,1270.1076417407057
1011.1748,1121.271451943834
1013.1691,955.6875006106748
1015.1627,756.255181059074
1017.1556,515.3238770499847
1019.1477,452.6929647818397
1021.1392,381.61181529984606
1023.1299,322.92979512228703
1025.12,342.1462669513421
1027.1093,389.9105902598967
1029.0979,462.3721210993863
1031.0859,552.3302116221348
1033.0731,547.234209356775
1035.0596,513.1334563086348
1037.0454,300.4772890107124
1039.0304,229.3650388646638
1041.0148,85.0460342673905
1042.9985,13.219601322132803
1044.9814,32.635065281669085
1046.9636,-24.408248733401706
1048.9452,-82.21101592884224
1050.926,-15.77366767201238
1052.9061,-8.445814042250277
1054.8855,-17.076907539940294
1056.8642,30.733683708171156
1058.8421,115.28676217364409
1060.8194,184.2831300207181
1062.7959,186.6235882607798
1064.7717,226.2589360623897
1066.7469,269.78997072788115
1068.7213,284.2674872969983
1070.695,267.342278111606
1072.6679,224.4651326709136
1074.6402,214.0368378007115
1076.6117,202.85817808214415
1078.5826,255.9799359559911
1080.5527,244.0528918344644
1082.5221,370.5278235699989
1084.4908,484.8055065745066
1086.4587,660.2367125546225
1088.426,859.4722083689485
1090.3925,864.6127542737086
1092.3584,816.6091019304331
1094.3235,701.8119943545098
1096.2879,632.8221663952572
1098.2515,630.9403458838751
1100.2145,740.9172543233508
1102.1767,815.6036069072798
1104.1382,1012.5501114200961
1106.099,1255.6574674902222
1108.0591,1450.8763646205844
1110.0185,1578.4574797575406
1111.9771,1623.6514753387091
1113.9351,1460.0589980171244
1115.8923,1173.9306782093227
1117.8488,868.1171317312474
1119.8045,619.7689626595457
1121.7596,526.9867663896912
1123.7139,460.3211321194649
1125.6675,440.62264377680185
1127.6204,574.6918806864269
1129.5726,528.8294177668577
1131.524,556.4858241897091
1133.4748,525.2616638383151
1135.4248,547.457495031158
1137.3741,545.4738708340956
1139.3226,484.3613388384547
1141.2705,516.8204411808038
1143.2176,386.7517151541142
1145.164,468.80569288315746
1147.1097,475.78290262521114
1149.0546,491.9838679494969
1150.9989,401.4091076674049
1152.9424,319.35913567051466
1154.8852,172.08446183630804
1156.8272,64.03559284869334
1158.7686,23.813033670743607
1160.7092,-11.282711374802602
1162.6491,-2.80113820331826
1164.5883,105.10836998408922
1166.5267,214.59645796969562
1168.4644,324.9637694846897
1170.4014,566.8109461143031
1172.3377,822.088626194145
1174.2732,1074.3974423917243
1176.2081,1370.3880191536664
1178.1421,1630.4609701826448
1180.0755,1899.5168954774563
1182.0082,2004.9063787323066
1183.9401,2051.7299846462447
1185.8713,1918.5382578692697
1187.8017,1670.1817225340928
1189.7315,1424.5108835880565
1191.6605,1129.3762292766914
1193.5888,892.0282336004275
1195.5163,828.4673592659383
1197.4432,757.7440600596237
1199.3693,717.2587814832223
1201.2947,652.8119614610478
1203.2193,640.8040307448355
1205.1432,726.1354135582224
1207.0664,759.706527716804
1208.9889,766.1677837748284
1210.9106,800.5195846895003
1212.8316,847.012325756361
1214.7519,919.9963942657632
1216.6715,917.4221690379454
1218.5903,991.6400196931972
1220.5084,972.8003066775891
1222.4257,1024.5533805207815
1224.3424,942.5995820244461
1226.2583,979.039241744751
1228.1735,1105.9726808118685
1230.0879,1194.8002105655942
1232.0016,1324.0721312860078
1233.9146,1364.488731305184
1235.8269,1322.2002857144944
1237.7384,1219.4570559604254
1239.6492,1014.4092902674602
1241.5592,948.307224665532
1243.4686,894.7010850404658
1245.3772,892.1910877950322
1247.285,873.6774403849922
1249.1922,839.5603413441968
1251.0986,901.9899804697307
1253.0042,894.0165391630799
1254.9092,970.6901898058568
1256.8134,1039.9610958395097
1258.7169,1207.0294109986135
1260.6196,1384.5452786181195
1262.5216,1594.1588299627074
1264.4229,1792.4201824516167
1266.3234,1979.0294375625053
1268.2232,2067.3366788488274
1270.1223,2064.2919700737475
1272.0207,2102.2453543270967
1273.9183,2088.8968540557653
1275.8151,2037.9964706842184
1277.7113,1977.544184747967
1279.6067,1867.5399564025793
1281.5014,1807.983726028182
1283.3953,1775.5754153294947
1285.2885,1836.0149279314137
1287.181,1914.1021497030815
1289.0727,2063.286948153509
1290.9637,2149.219171650697
1292.854,2313.898647929782
1294.7435,2454.4751832337242
1296.6323,2639.2485606664886
1298.5204,2891.0685387873127
1300.4077,3111.6848497629508
1302.2943,3279.3471968494814
1304.1802,3325.255252186147
1306.0653,3178.9586551187276
1307.9497,2997.9070117404553
1309.8333,2905.599896354979
1311.7162,2795.586853286877
1313.5984,2806.667397804744
1315.4798,2850.9910172213094
1317.3605,2953.3071707826493
1319.2405,3061.4652892249396
1321.1197,3019.864773751291
1322.9982,2885.2049949501634
1324.876,2858.385293211373
1326.753,2746.2049800727
1328.6293,2785.3133384880675
1330.5048,2819.1596239493374
1332.3796,2745.843064095261
1334.2537,2713.5628583729776
1336.127,2686.76817877121
1337.9996,2679.4581701430616
1339.8714,2693.781950473971
1341.7426,2652.58861095479
1343.6129,2657.177215838572
1345.4826,2655.7468028524927
1347.3515,2671.5963831519584
1349.2196,2627.8249413349185
1351.087,2689.9814352833673
1352.9537,2728.264796601048
1354.8197,2883.9239299919027
1356.6849,3067.857712877245
1358.5493,3176.8649938391427
1360.4131,3264.994590781105
1362.276,3222.0452898380063
1364.1383,3076.8658444947796
1365.9998,2898.754976015918
1367.8606,2603.6613748972577
1369.7206,2313.8337026471054
1371.5799,2092.770594737147
1373.4384,1951.5206635007526
1375.2962,1820.8825003435813
1377.1533,1584.0546771561167
1379.0096,1266.1357476200064
1380.8652,963.1242495763727
1382.7201,799.5187082049815
1384.5742,561.9176390543762
1386.4275,416.16954967791025
1388.2802,277.97294200976467
1390.132,163.97631382244072
1391.9832,151.07816010869465
1393.8336,61.32697422152887
1395.6832,35.37124800315905
1397.5322,20.459472682538035
1399.3803,2.1401391349190817
1401.2278,-27.3882619690321
1403.0745,15.722760019960333
1404.9204,-17.87803064009313
1406.7656,7.708130151591831
1408.6101,45.78018509733192
1410.4538,58.68707682237073
1412.2968,117.77774749416858
1414.139,160.80113869331035
1415.9805,274.00619082262165
1417.8213,335.3418426769331
1419.6613,481.8070303110235
1421.5006,689.5006864262559
1423.3391,960.6717389059377
1425.1769,1250.8691087383777
1427.0139,1743.0917073051933
1428.8502,2335.0384334793125
1430.6858,2940.408168702759
1432.5206,3348.6997710671967
1434.3547,3591.0120692602104
1436.188,3684.8438584823925
1438.0206,3636.1438980242237
1439.8524,3466.360910327752
1441.6835,3407.04358147359
1443.5139,3297.290562878752
1445.3435,3249.900471889814
1447.1724,3256.5218928804497
1449.0005,3210.1533777253426
1450.8279,3145.193445733952
1452.6545,3140.8905841142187
1454.4804,3174.5932486221573
1456.3056,3198.8998636048655
1458.13,3140.9588216635348
1459.9536,2994.468483410352
1461.7766,2648.9771780479205
1463.5987,2259.933204834164
1465.4202,1934.5348365372429
1467.2409,1596.0303233259947
1469.0608,1364.2678960239082
1470.88,1133.7957694941706
1472.6984,938.1621449573067
1474.5161,710.9152122958985
1476.3331,565.9031520109093
1478.1493,515.0741374941517
1479.9648,459.22633647841576
1481.7795,357.60791154576145
1483.5935,337.0170206859839
1485.4067,311.951818312813
1487.2192,288.01045546982095
1489.031,259.7410800810667
1490.842,246.99183719050598
1492.6522,259.21086924470546
1494.4618,217.29631622031775
1496.2705,218.64631550189733
1498.0785,176.3590023010347
1499.8858,172.38250964287545
1501.6924,191.4649687889796
1503.4981,161.6045092770837
1505.3032,181.29925873028697
1507.1075,162.14734315563328
1508.911,168.34688674718927
1510.7138,157.44601207755113
1512.5159,131.9428400358429
1514.3172,119.38548993674704
1516.1178,40.37207977552862
1517.9176,86.90072635360593
1519.7166,58.56954606868567
1521.515,27.926654449471243
1523.3126,12.620166438975502
1525.1094,19.898196700947665
1526.9055,19.258859772940923
1528.7008,-8.999730006467871
1530.4954,-44.32945849128191
1532.2893,-1.4821216282034584
1534.0824,-40.559072512653074
1535.8747,-27.461649433667844
1537.6663,-16.89078549515216
1539.4572,-28.297139459133177
1541.2473,14.868798651310499
1543.0367,36.45682150151515
1544.8253,8.966721608127045
1546.6132,15.998291123230956
1548.4003,55.45132210925112
1550.1867,62.875606468627666
1551.9723,117.1209355493047
1553.7572,194.88710007046575
1555.5414,242.4238895800936
1557.3247,306.7310916772967
1559.1074,432.9084915369658
1560.8893,519.5558712666734
1562.6705,552.6230086449159
1564.4509,709.359676254624
1566.2305,781.2656411525113
1568.0094,898.7906633016864
1569.7876,930.7344948526152
1571.565,976.4468789678431
1573.3417,1020.4775495025897
1575.1176,978.9762305476015
1576.8928,1026.9926359888686
1578.6672,953.3264699226147
1580.4409,862.2774261751529
1582.2138,779.6951890395285
1583.986,715.6294341860157
1585.7575,648.3298294879405
1587.5282,641.3960356623338
1589.2981,640.0277069429376
1591.0673,612.6244911495342
1592.8358,659.7860297016377
1594.6035,676.3619578925318
1596.3704,712.6019044176428
1598.1366,757.1054912087875
1599.9021,830.4223330717687
1601.6668,891.0020372413383
1603.4308,999.4942026480439
1605.194,1130.4984193124055
1606.9564,1265.0142672600105
1608.7182,1424.5413152114706
1610.4791,1597.2291192372486
1612.2394,1789.2772211623997
1613.9988,1971.4351468396926
1615.7576,2175.302404229131
1617.5156,2459.478481576376
1619.2728,2674.5628453740756
1621.0293,2794.7549375200942
1622.785,2839.2041731666723
1624.54,2756.309939518498
1626.2942,2648.7715953882307
1628.0477,2394.638472025428
1629.8005,2170.7598741919446
1631.5525,1954.0350827032453
1633.3037,1801.1633566671953
1635.0542,1691.3439356513136
1636.804,1609.0760412114923
1638.553,1580.158877990185
1640.3013,1562.4416345390928
1642.0488,1539.6734836083306
1643.7955,1597.9035823236154
1645.5416,1664.781072413929
1647.2868,1792.2050796292315
1649.0313,1897.0747130716773
1650.7751,2044.1890639213652
1652.5181,2232.597204387668
1654.2604,2445.198186238067
1656.0019,2712.0910389140845
1657.7427,3037.774767405266
1659.4828,3360.6483495802477
1661.222,3562.3607329299193
1662.9606,3565.1608313386914
1664.6984,3409.597523067363
1666.4354,3050.669650725129
1668.1717,2581.2260228252217
1669.9072,2088.0154173741794
1671.642,1640.4365865662894
1673.3761,1356.5382617156974
1675.1094,1072.7691577321857
1676.8419,874.3779759601639
1678.5737,698.6134070163534
1680.3048,609.4741327737047
1682.0351,518.3588281190314
1683.7646,404.7161618444097
1685.4934,353.64479755832326
1687.2215,358.89339482210926
1688.9488,294.510609660656
1690.6754,245.79509450992373
1692.4012,243.34549886077184
1694.1263,192.21046974612
1695.8506,196.28865176542968
1697.5742,187.128687596065
1699.297,153.42921795252005
1701.0191,149.8888816779945
1702.7404,121.55631608141448
1704.461,92.88015697282026
1706.1808,66.40903894668372
1707.8999,73.09159566868948
1709.6182,64.62646014043457
1711.3358,60.71226463259518
1713.0527,59.59764076959618
1714.7688,13.131219568738743
1716.4841,11.111631451351059
1718.1987,40.537506707458306
1719.9126,44.957475515970145
1721.6257,29.320167650435906
1723.338,25.274212434820583
1725.0496,-19.281761100097356
1726.7605,3.3508758237221627
1728.4706,8.070944609102298
1730.18,-20.422733374633026
1731.8886,-12.58133683887172
1733.5964,-18.2058404718955
1735.3036,-4.947093274440704
1737.0099,6.744237629101917
1738.7156,31.817534535795858
1740.4204,-34.627820324736604
1742.1246,-2.692445041035171
1743.8279,-6.576611769722149
1745.5306,8.269434230109255
1747.2325,-2.5044866002881463
1748.9336,-10.098553902342246
1750.634,-33.912922297671685
1752.3336,-17.147645523338724
1754.0325,-2.652438526318292
1755.7307,-4.976844948605503
1757.4281,30.329618065659815
1759.1247,12.917483091014219
1760.8206,18.687282398703246
1762.5158,-1.1104518691918202
1764.2102,-1.5751877574693935
1765.9039,15.343617782493311
1767.5968,5.946523535432789
1769.289,38.334088132662146
1770.9804,31.70687014602845
1772.6711,37.515427764044944
1774.361,39.41031885815755
1776.0502,61.0921009246631
1777.7386,72.16133106576126
1779.4263,55.26856577273247
1781.1132,94.41436081525535
1782.7994,62.44927141031803
1784.4849,103.42385183077022
1786.1696,76.68865572496816
1787.8535,83.59423570704894
1789.5367,78.09114362426317
1791.2192,87.22993048791432
1792.9009,47.1111465284057
1794.5818,83.63534110384535
1796.2621,110.35306310122905
1797.9415,115.81486057121037
1799.6202,106.32128046091384
1801.2982,114.1728685593198
1802.9755,125.02016959219782
1804.6519,142.76372714359422
1806.3277,115.10408354735046
1808.0027,102.39177970968194
1809.6769,136.42735538576562
1811.3504,127.26134930686021
1813.0231,142.1942988399578
1814.6951,141.82674007944115
1816.3664,179.60920769775475
1818.0369,171.14223494907947
1819.7067,165.7263532915049
1821.3757,163.562092471705
1823.044,161.59998057909252
1824.7115,209.79054406747127
1826.3783,187.23430777464273
1828.0443,156.38179444051002
1829.7096,181.93352493263865
1831.3741,184.44001855477563
1833.0379,193.45179279133663
1834.701,198.86936328234515
1836.3633,199.74324373330182
1838.0248,205.7239458610211
1839.6856,230.8119793848873
1841.3457,227.75785196704328
1843.005,244.71206896151307
1844.6636,247.52513344475574
1846.3214,249.79754604610753
1847.9785,246.37980491966573
1849.6349,249.47240572154897
1851.2904,260.5258416440829
1852.9453,252.74060338486652
1854.5994,281.26717903624376
1856.2528,286.7060541631581
1857.9054,268.3577115178805
1859.5572,289.72263098563144
1861.2083,289.051289768051
1862.8587,314.9441621695569
1864.5084,314.35171960406296
1866.1572,307.37443033603904
1867.8054,303.26275948644525
1869.4528,299.0671691024945
1871.0994,317.0881181987779
1872.7453,311.77606279921747
1874.3905,301.2314557568561
1876.0349,294.70474680698317
1877.6786,319.3963826725749
1879.3215,334.0068071295673
1880.9637,330.2364607599329
1882.6051,346.0357808055787
1884.2458,326.0552012060507
1885.8858,337.5951524405409
1887.525,341.95606172769476
1889.1634,323.28835291021096
1890.8011,335.1924464112326
1892.4381,344.9187594210216
1894.0743,322.91770577791885
1895.7098,345.4396958710795
1897.3446,347.635136860491
1898.9786,365.1044324517461
1900.6118,354.79798287408994
1902.2443,353.01618470572976
1903.8761,359.7594309768938
1905.5071,320.82811118765767
1907.1374,338.9726112405033
1908.7669,344.44331382963355
1910.3957,335.8405982595268
1912.0237,314.81484039023053
1913.651,329.5164127233884
1915.2776,314.5956846124991
1916.9034,316.90302211589915
1918.5285,305.48878814597356
1920.1528,275.5533424460782
1921.7764,302.39704170468394
1923.3992,305.0202398547335
1925.0213,269.8232878052013
1926.6427,254.40653341486268
1928.2633,260.9203218442635
1929.8832,295.81499570988854
1931.5023,272.2408950190202
1933.1207,278.69835682079884
1934.7383,249.7877154419566
1936.3552,242.80930242224804
1937.9714,257.16344680355087
1939.5868,255.50047519965574
1941.2015,239.27071165272264
1942.8154,243.1744776499072
1944.4286,225.56209228565876
1946.041,217.7338722226841
1947.6528,221.74013186807588
1949.2637,206.53118345158964
1950.8739,188.3073369855847
1952.4834,201.36890041711013
1954.0921,211.41617981014588
1955.7001,202.5994792149795
1957.3074,207.96910056774232
1958.9139,187.0753437785761
1960.5197,213.66850667793096
1962.1247,185.84888522550682
1963.729,186.81677324432076
1965.3325,162.32246269890493
1966.9353,166.96624368562516
1968.5374,160.7984046776246
1970.1387,156.21923247838185
1971.7393,169.9290122833945
1973.3392,143.9280277259686
1974.9383,139.11656074012262
1976.5366,144.14489182060515
1978.1342,161.16330007099805
1979.7311,168.02206315343756
1981.3273,155.87145711843004
1982.9227,137.31175633626208
1984.5173,125.44323361850729
1986.1112,131.3661604036206
1987.7044,156.13080687563343
1989.2968,128.03744190491034
1990.8885,144.03633280051417
1992.4795,135.67774559113514
1994.0697,142.91194486510176
1995.6592,132.3891938539673
1997.2479,117.90975436016925
1998.8359,127.2238868622544
2000.4232,138.531850659675
2002.0097,120.88390377964697
2003.5955,110.83030286407484
2005.1805,120.6713033460228
2006.7648,127.90715955025735
2008.3484,112.43812459483252
2009.9312,126.56445031873773
2011.5133,121.63638743658248
2013.0946,123.254185397338
2014.6752,115.5680924336084
2016.2551,111.37835554545654
2017.8342,99.88522057726641
2019.4126,112.48893225963911
2020.9902,118.43973432433086
2022.5672,107.53786937820678
2024.1433,132.48357884374036
2025.7188,119.57710306802619
2027.2935,104.96868107332284
2028.8674,120.05855068612436
2030.4406,115.04694868323986
2032.0131,99.28411064089505
2033.5849,94.92027098485141
2035.1559,88.70566314803273
2036.7261,92.9905196141608
2038.2957,115.37507197990362
2039.8645,136.9095509120225
2041.4325,125.14418592353286
2042.9998,117.62920515835594
2044.5664,106.1648355089701
2046.1323,116.7513026915667
2047.6974,114.68883136069053
2049.2617,108.1276450033738
2050.8254,129.11796595976102
2052.3883,123.06001548872337
2053.9504,126.65401355795075
2055.5118,121.10017890453582
2057.0725,123.39872899903276
2058.6325,112.79988010099623
2060.1917,130.45384723599727
2061.7502,138.6108443016119
2063.3079,135.02108389087607
2064.8649,111.58477721072177
2066.4212,111.05213411787008
2067.9767,97.62336335319924
2069.5315,106.19867254706696
2071.0856,95.87826835360192
2072.6389,95.06235636495148
2074.1915,83.10114121447896
2075.7433,72.44482658492961
2077.2945,96.04361532803705
2078.8448,74.0477095710894
2080.3945,72.95731048094058
2081.9434,77.92261848396902
2083.4916,90.84383327698288
2085.039,66.8211537775669
2086.5857,69.00477799486725
2088.1317,75.74490326982232
2089.677,84.29172625332558
2091.2215,83.94544283882169
2092.7652,81.45624807684453
2094.3083,82.974336178474
2095.8506,80.24990054023147
2097.3921,100.7831337288917
2098.933,97.02422750873666
2100.4731,95.52337263621666
2102.0124,114.63075889754327
2103.5511,96.89657512370013
2105.089,114.17100899936304
2106.6261,123.25424724024288
2108.1626,116.49647542034836
2109.6983,119.89787788113972
2111.2332,105.05863779912306
2112.7675,112.22893715182363
2114.301,96.95895686618587
2115.8337,111.3988767468636
2117.3657,102.34887562892254
2118.897,125.85913123344199
2120.4276,117.9798202580123
2121.9575,99.76111814163778
2123.4866,133.20319914352422
2125.0149,113.40623652526756
2126.5426,91.22040221643601
2128.0695,106.44586701253684
2129.5956,119.83280079687574
2131.1211,100.53137238829822
2132.6458,99.99174940732973
2134.1698,120.91409846917941
2135.693,127.7485851891447
2137.2155,112.7453739733819
2138.7373,125.30462795056201
2140.2584,119.82650912190866
2141.7787,103.96117823559553
2143.2983,101.05879484154002
2144.8171,110.16951745004735
2146.3353,107.74350356083914
2147.8527,91.08090957194463
2149.3693,122.13189080395932
2150.8853,105.74660166667172
2152.4005,102.82519534854964
2153.9149,120.81782398059704
2155.4287,116.92463866557
2156.9417,112.29578929804666
2158.454,98.78142460335812
2159.9655,116.03169218387802
2161.4764,120.24673865417071
2162.9865,106.07670946848339
2164.4958,112.07174887859765
2166.0045,97.73200007552668
2167.5124,98.95760512956622
2169.0195,104.6987051336946
2170.526,105.10544019131794
2172.0317,120.6779493588565
2173.5367,106.61637064168099
2175.0409,134.020840838386
2176.5445,124.04149568140247
2178.0473,113.82846956295589
2179.5494,118.23189563486085
2181.0507,107.85190591064838
2182.5513,119.33863122153161
2184.0512,117.14220132020864
2185.5504,104.86274476599283
2187.0488,98.00038894677891
2188.5465,94.65526020183734
2190.0435,107.527483890437
2191.5397,96.21718442529709
2193.0353,91.22448514386679
2194.5301,100.89950842142753
2196.0241,100.99237572101538
2197.5175,93.65320749667444
2199.0101,106.38212319252807
2200.502,76.27924131616965
2201.9931,68.39467931137324
2203.4835,77.02855385912108
2204.9733,74.58098095645164
2206.4622,77.70207583011734
2207.9505,81.39195296106436
2209.438,85.6007260532192
2210.9248,82.72850799659
2212.4109,71.87541082518055
2213.8962,74.29154574571112
2215.3809,66.02702324615166
2216.8648,71.53195307155829
2218.3479,85.10644430671891
2219.8304,71.0006053211032
2221.3121,51.51454363311677
2222.7931,47.54836605116043
2224.2733,68.25217886849123
2225.7529,60.82608790288759
2227.2317,57.37019828960683
2228.7098,79.33461455564384
2230.1872,52.71944065429216
2231.6638,72.92477974550229
2233.1397,62.70073446203105
2234.6149,77.99740670738765
2236.0894,62.26489775807704
2237.5632,75.65330811063086
2239.0362,66.16273763893287
2240.5085,53.09328546033521
2241.9801,49.445050030562925
2243.4509,53.168129274409694
2244.921,43.712620622219674
2246.3904,54.978620972655335
2247.8591,40.96622678725544
2249.3271,37.52553397777547
2250.7943,41.95663804631067
2252.2608,32.90963411970051
2253.7266,36.38461690522172
2255.1917,52.631680781056275
2256.656,49.50091976154272
2258.1197,47.94242733470492
2259.5826,28.406296493556965
2261.0447,47.44261975169002
2262.5062,41.90148933863156
2263.9669,51.132997009483006
2265.4269,63.88723410033299
2266.8862,54.21429143594287
2268.3448,48.914259202199446
2269.8026,60.63722704284828
2271.2598,52.23328411249349
2272.7162,55.85251895936972
2274.1719,50.49501960938096
2275.6268,50.7608735299068
2277.0811,51.500167683378095
2278.5346,58.712988524618595
2279.9874,66.89942199345342
2281.4395,70.05955344258018
2282.8908,54.29346755570441
2284.3414,66.40124831593585
2285.7914,50.93297916344909
2287.2406,49.58874287440722
2288.689,58.01862171564608
2290.1368,58.872697458113635
2291.5838,58.05105129257208
2293.0302,64.70376382105769
2294.4758,57.130915065098634
2295.9206,44.082584399187
2297.3648,52.80885062650577
2298.8082,75.25979210941432
2300.251,62.08548668218555
2301.693,65.33601142649604
2303.1343,63.161442803167574
2304.5748,70.06185661966356
2306.0147,56.23732805183454
2307.4538,78.23793157491536
2308.8922,59.813741101767846
2310.3299,63.61482976287607
2311.7669,64.89127009058939
2313.2031,64.9431339811058
2314.6387,55.07049268171886
2316.0735,56.47341679029341
2317.5076,46.80197635399327
2318.941,61.706240855247415
2320.3737,66.18627930846469
2321.8056,77.49216011099588
2323.2369,60.77395099832711
2324.6674,51.53171893102126
2326.0972,74.46553026190668
2327.5263,61.27545082849156
2328.9547,55.711545723630934
2330.3823,54.4738794274258
2331.8092,65.91251586285989
2333.2355,67.22751840817773
2334.661,72.66894978250048
2336.0858,62.58687203267664
2337.5098,69.23134647886764
2338.9332,64.60243381537339
2340.3558,70.20019404417963
2341.7778,74.17468652125035
2343.199,71.67596990054653
2344.6195,64.85410209428119
2346.0393,73.30914029790983
2347.4583,78.19114105834888
2348.8767,76.50016018942642
2350.2943,81.88625272305853
2351.7113,80.34947292616334
2353.1275,100.53987424679644
2354.543,80.3075093295165
2355.9578,83.00242981348629
2357.3718,76.72468653479427
2358.7852,84.57432949950726
2360.1978,74.2514079464454
2361.6098,74.85597026868754
2363.021,78.7880641167958
2364.4315,79.94773639277446
2365.8413,73.63503321074359
2367.2504,78.89999988534919
2368.6587,71.39268099488709
2370.0664,70.81312032865208
2371.4733,64.86136096201471
2372.8795,61.78744526221408
2374.285,68.94141494787846
2375.6899,79.97331111976109
2377.0939,66.58317418920478
2378.4973,66.72104376781726
2379.9,58.38695880137993
2381.3019,61.48095756846624
2382.7032,60.7530777637794
2384.1037,66.60335646721205
2385.5035,66.13183015113054
2386.9027,69.53853462186999
2388.3011,68.57350502445206
2389.6987,60.03677580851581
2391.0957,53.128380737966836
2392.492,48.84835297634345
2393.8876,48.74672515589555
2395.2824,51.723529420392424
2396.6765,53.97879742613168
2398.07,57.912560312175174
2399.4627,48.674848677798764
2400.8547,44.065692543149
2402.246,50.18512144162469
2403.6366,47.03316446596955
2405.0265,47.20985020707576
2406.4156,56.16520678550478
2407.8041,47.249261849719915
2409.1918,42.91204248653548
2410.5789,41.95357531027503
2411.9652,36.97388650614312
2413.3508,40.92300183980933
2414.7358,38.65094670720555
2416.12,41.50774609503378
2417.5035,40.64342460348598
2418.8863,24.408006417679644
2420.2684,42.10151531629799
2421.6497,33.07397483394516
2423.0304,34.17540808421063
2424.4104,33.205837849944146
2425.7896,49.915286572243076
2427.1682,38.80377636014555
2428.546,29.621328823540352
2429.9232,34.26796518427773
2431.2996,39.093706367995765
2432.6753,49.94857295765269
2434.0503,55.38258514527206
2435.4246,44.0957626233926
2436.7982,32.888124530727964
2438.1711,40.759689565035615
2439.5433,42.060476095191916
2440.9148,30.340502082478224
2442.2856,37.999785067571565
2443.6557,29.888342287745672
2445.025,29.856190600276932
2446.3937,41.6533465635614
2447.7617,38.9798264374333
2449.1289,37.835646065195306
2450.4955,44.1208209003521
2451.8613,47.78536601805263
2453.2265,49.22929605223817
2454.5909,48.15262515899667
2455.9546,52.30536700212474
2457.3177,48.08753476389393
2458.68,46.149141103522425
2460.0416,59.09019819935543
2461.4025,56.910717768248105
2462.7627,58.610710936153964
2464.1222,60.64018825992025
2465.4811,54.94915971028877
2466.8392,58.98763465159982
2468.1966,60.555621898702384
2469.5533,66.7531296765685
2470.9093,68.08016560461624
2472.2645,69.38673663473242
2473.6191,71.82284903800405
2474.973,64.53850839165193
2476.3262,62.38371955466937
2477.6787,68.45848674066633
2479.0305,55.61281353941581
2480.3816,55.54670285610882
2481.7319,64.16015703980838
2483.0816,58.15317788411221
2484.4306,51.725766541016355
2485.7789,64.82792358098777
2487.1264,50.70964905723599
2488.4733,52.120942374692504
2489.8195,59.46180243119284
2491.165,67.28222760336507
2492.5097,50.832215673218116
2493.8538,53.41176374994052
2495.1972,29.32086843439788
2496.5398,30.259525793340572
2497.8818,42.72773160030988
2499.2231,42.4254813262537
2500.5637,48.552770014841826
2501.9035,41.959592285491226
2503.2427,59.94594227209109
2504.5812,50.661813688936036
2505.919,54.45719965086255
2507.256,56.88209276609018
2508.5924,49.48648509826671
2509.9281,45.87036814221938
2511.2631,53.53373289791148
2512.5974,41.77656990660353
2513.9309,50.34886917422
2515.2638,44.700620288919936
2516.596,55.98181233537457
2517.9275,48.74243395124904
2519.2583,46.58247321439171
2520.5884,56.401917715227455
2521.9178,57.2507545783576
2523.2465,50.37897036436425
2524.5745,57.886551061325235
2525.9018,52.97348215352713
2527.2284,49.939748546391684
2528.5543,67.18533461560673
2529.8796,59.16022423746176
2531.2041,57.31440061639455
2532.5279,60.84784636524046
2533.851,68.46054352369174
2535.1735,58.452473522963146
2536.4952,65.12361710966434
2537.8163,55.72395444588142
2539.1366,70.40346504246577
2540.4562,67.36212785303019
2541.7752,70.74992112715245
2543.0935,67.91682244079175
2544.411,82.46280866240772
2545.7279,69.08785598129339
2547.0441,80.44193976211363
2548.3596,76.87503467865554
2549.6744,76.93711460028771
2550.9885,76.82815262762983
2552.3019,74.4481210919314
2553.6146,75.14699155616063
2554.9266,84.1247348388049
2556.2379,78.43132100688217
2557.5485,85.41671928616302
2558.8585,68.98089811810632
2560.1677,81.57382509000354
2561.4762,79.94546709933888
2562.7841,91.9457902278591
2564.0913,83.17475975785806
2565.3977,86.28234005217178
2566.7035,84.56849464189031
2568.0086,91.58318619527995
2569.313,94.47637653492257
2570.6167,94.2480265675697
2571.9197,100.09809625520893
2573.222,99.42654461734901
2574.5236,96.93332967251763
2575.8246,100.16840844497756
2577.1248,108.48173698965843
2578.4244,108.27327035980647
2579.7232,109.14296252385179
2581.0214,107.490766367491
2582.3189,110.01663368499317
2583.6157,121.52051519571864
2584.9118,121.40236051886313
2586.2072,135.612118058418
2587.5019,128.69973500435117
2588.7959,122.41515719050949
2590.0893,121.10832916374397
2591.3819,132.07919424675424
2592.6739,128.82769455115636
2593.9652,129.35377086777635
2595.2557,141.3073626991645
2596.5456,144.43840825433404
2597.8348,137.0968443292254
2599.1234,149.13260627539512
2600.4112,142.49562807343227
2601.6983,147.4858422126008
2602.9848,153.2531797572076
2604.2705,139.4475702967036
2605.5556,152.3689418880076
2606.84,135.71722119356446
2608.1237,140.89233335212975
2609.4067,147.99420214528664
2610.689,138.57274994569593
2611.9707,132.97789764607614
2613.2516,139.45956475341973
2614.5319,139.2676694449401
2615.8115,131.85212850325684
2617.0903,125.96285731831267
2618.3685,141.39976996152996
2619.6461,130.81277924470373
2620.9229,135.1517965656319
2622.199,137.46673201398517
2623.4745,146.0074943279169
2624.7493,133.7239908709139
2626.0234,136.96612754638795
2627.2968,132.08380892051105
2628.5695,142.47693818979587
2629.8415,143.64541722991635
2631.1128,142.13914649177786
2632.3835,141.45802498983267
2633.6535,126.20195031714115
2634.9228,130.42081865218483
2636.1914,137.56452491142568
2637.4593,128.88296270711976
2638.7265,128.07602427587722
2639.9931,129.84360056547962
2641.259,123.28558124294977
2642.5242,132.6518546768757
2643.7887,130.4923080029896
2645.0525,125.85682703050747
2646.3156,132.94529626372218
2647.5781,131.4575989483601
2648.8398,124.49361700069471
2650.1009,126.90323102242542
2651.3613,128.63632037031562
2652.6211,122.49276313209748
2653.8801,125.02243610913979
2655.1385,142.97521487788413
2656.3961,134.85097376454746
2657.6531,131.7495856655953
2658.9094,130.8709221289846
2660.1651,139.21485338517596
2661.42,133.38124835592203
2662.6743,141.6699745708279
2663.9279,141.6308982256869
2665.1808,144.8638840995925
2666.433,137.01879555533105
2667.6846,144.44549450704994
2668.9354,143.84384149870834
2670.1856,151.06369562981217
2671.4351,153.1049145614288
2672.6839,158.56735444398896
2673.9321,151.7508698968743
2675.1795,163.15531395379412
2676.4263,168.68053813094866
2677.6724,159.17639231298608
2678.9179,161.14272469774892
2680.1626,165.0793818913162
2681.4067,160.48620888834103
2682.6501,167.1130490326816
2683.8928,159.15974406333476
2685.1348,157.4261340481678
2686.3761,163.412057463451
2687.6168,155.067351211193
2688.8568,154.0918505592831
2690.0961,150.73538922493753
2691.3348,145.6477993844553
2692.5727,137.52891170678095
2693.81,140.47855540438263
2695.0466,140.04655831443938
2696.2826,145.53274686934515
2697.5178,138.88694610102925
2698.7524,145.55897958609376
2699.9863,153.09866951227127
2701.2195,147.65583661170535
2702.452,150.98030008555293
2703.6839,154.12187765841304
2704.9151,160.3803855450825
2706.1456,166.1056384191386
2707.3755,163.99744935035596
2708.6046,173.50562974745333
2709.8331,181.0799893791749
2711.0609,190.97033627921041
2712.2881,190.7264766704492
2713.5145,193.69821486607816
2714.7403,204.38535327202044
2715.9654,209.23769235721738
2717.1899,222.80503054675705
2718.4136,233.13716417335047
2719.6367,248.28388734165844
2720.8591,264.54499182497136
2722.0809,269.8202669137411
2723.3019,275.2094992529692
2724.5223,278.81247278945534
2725.7421,292.5289687179047
2726.9611,292.6087654448987
2728.1795,287.95163845172897
2729.3972,265.70736029360035
2730.6142,268.57570064620097
2731.8306,245.95642652814558
2733.0462,240.69930227229258
2734.2612,217.70408975193607
2735.4756,195.0705484333788
2736.6892,187.54843560588245
2737.9022,169.03750660800426
2739.1145,156.53751490281752
2740.3262,135.89821226302126
2741.5372,131.51934889593974
2742.7475,114.65067364991455
2743.9571,108.99193405809535
2745.1661,95.99287650712506
2746.3744,85.70324629372647
2747.582,81.22278775469522
2748.7889,77.45124436979472
2749.9952,62.23835880656111
2751.2008,61.88387295801897
2752.4057,60.03752809481
2753.61,49.19906486873754
2754.8136,41.0182233312305
2756.0165,41.54474304172675
2757.2188,37.428363149482834
2758.4204,46.818822388307694
2759.6213,37.21585911772729
2760.8215,36.3692112290795
2762.0211,33.12861624154368
2763.22,22.89381131060759
2764.4182,36.0645332604729
2765.6158,26.690518686403266
2766.8127,16.471503823016974
2768.009,17.65722463802672
2769.2045,9.047416934431908
2770.3994,2.2418163386603283
2771.5936,0.8401583866655074
2772.7872,0.9921785919834747
2773.9801,-9.302387540251061
2775.1723,-11.843804514824456
2776.3639,-11.532243905672317
2777.5548,-13.167758967123632
2778.745,-22.25028774639111
2779.9346,-20.829636744776053
2781.1235,-9.855390183205714
2782.3117,-13.976924194535627
2783.4992,-18.843516456274756
2784.6861,-17.904305016459602
2785.8723,-10.908239676397557
2787.0579,3.095908626610253
2788.2428,-1.1405220714229927
2789.427,3.7838062345558683
2790.6106,8.470242943416451
2791.7935,12.870137416189095
2792.9757,15.384838929203283
2794.1573,40.21569663008768
2795.3382,50.16405951262391
2796.5184,54.83127616843592
2797.698,67.06869468750801
2798.8769,82.52766261151237
2800.0551,90.25952681143565
2801.2327,93.4656333329873
2802.4096,119.34732731928295
2803.5859,132.35595297877978
2804.7615,156.092853326463
2805.9364,167.90937005375918
2807.1106,186.20684329116693
2808.2842,222.08661149009185
2809.4572,248.0000112398718
2810.6294,279.0483769089793
2811.801,313.53304038588624
2812.972,359.25533076858153
2814.1423,390.6665740197236
2815.3119,433.16809250941844
2816.4808,483.71120470110645
2817.6491,526.6472247265483
2818.8167,569.527461880393
2819.9837,617.0532201908185
2821.15,666.6257979907277
2822.3157,712.3464874424924
2823.4807,753.9665740422258
2824.645,808.1373361625774
2825.8086,840.8100446365312
2826.9716,891.6859622156989
2828.134,934.8663432435927
2829.2957,973.1024331468652
2830.4567,1007.795468003507
2831.617,1001.3966741604837
2832.7767,1018.5572678868074
2833.9358,1024.7284554375228
2835.0941,1016.1614328821034
2836.2519,1003.3073860427393
2837.4089,992.6674905800049
2838.5653,982.792912121402
2839.7211,978.4848063677571
2840.8761,975.8943191919685
2842.0306,995.1725866820858
2843.1843,1037.8207351672163
2844.3374,1064.6398810247406
2845.4899,1131.7811302538344
2846.6417,1195.9955782072725
2847.7928,1274.0343089200219
2848.9433,1333.2983944670918
2850.0931,1405.8888941831492
2851.2422,1488.2568540698776
2852.3907,1551.2533060700716
2853.5385,1605.3292672439584
2854.6857,1663.7857391392322
2855.8323,1734.6237072502947
2856.9781,1764.044140433692
2858.1233,1816.0479901997319
2859.2679,1853.2361904182826
2860.4118,1896.4096567987317
2861.555,1933.9192865181053
2862.6976,1974.9659577893335
2863.8395,2013.6505294861543
2864.9808,2016.3238407326448
2866.1214,2048.886710516379
2867.2614,2053.0399376616915
2868.4007,2066.8843005040517
2869.5393,2074.0705568485296
2870.6773,2080.4994438313524
2871.8146,2109.621677848042
2872.9513,2097.7879544891266
2874.0874,2097.7989482489165
2875.2227,2099.1053126438446
2876.3574,2078.6576802123527
2877.4915,2041.556662501833
2878.6249,2030.3528502730996
2879.7577,2000.8968138714008
2880.8898,1966.9891033384579
2882.0212,1956.3802487070234
2883.152,1928.0207603399606
2884.2821,1929.5111290363297
2885.4116,1929.9518263149848
2886.5405,1920.343304399668
2887.6686,1925.6359962146048
2888.7962,1934.3303154805872
2889.923,1927.8266566620484
2891.0493,1942.175394880118
2892.1748,1948.3768859776594
2893.2997,1974.781466375785
2894.424,1994.2394530118358
2895.5476,2011.0511430753402
2896.6706,2024.6668138134319
2897.7929,2050.086722362733
2898.9145,2083.2611056131973
2900.0355,2112.5901799539133
2901.1559,2157.124140941358
2902.2756,2187.9131630061065
2903.3946,2217.5073990074943
2904.513,2220.306979925725
2905.6308,2264.1120145659293
2906.7479,2276.3725895301686
2907.8643,2315.338768779385
2908.9801,2336.660593510795
2910.0953,2347.9380817682286
2911.2098,2337.7212282289106
2912.3236,2342.5100040906837
2913.4368,2321.554357174181
2914.5494,2302.6042118749338
2915.6613,2263.859469372932
2916.7725,2250.0200078221237
2917.8831,2221.885682737862
2918.9931,2199.9063271352998
2920.1024,2164.981751810736
2921.211,2151.3117455614038
2922.319,2138.696075534721
2923.4264,2109.2344873649886
2924.5331,2097.0767052995475
2925.6391,2081.0224324933943
2926.7445,2074.471351130757
2927.8493,2072.623122585641
2928.9534,2083.4273874873375
2930.0569,2076.0337657389086
2931.1597,2071.891856409141
2932.2619,2064.7012378064856
2933.3634,2059.511467520475
2934.4643,2061.072082493631
2935.5645,2037.6325990733599
2936.6641,2018.1425129963495
2937.763,1974.6012996229606
2938.8613,1932.7584141321304
2939.959,1866.5632919567834
2941.056,1802.5153492022605
2942.1523,1721.8639833082702
2943.248,1645.8585736893688
2944.3431,1549.8484825414719
2945.4375,1448.0330556019119
2946.5313,1356.9116231095365
2947.6244,1260.2835008228624
2948.7169,1166.147990931291
2949.8087,1068.3043830213878
2950.8999,984.4519550182403
2951.9904,907.3899741638912
2953.0803,838.9676978558653
2954.1696,779.4843744177874
2955.2582,725.4892437836063
2956.3462,686.5315380924271
2957.4335,649.2104822284637
2958.5202,623.8252942106135
2959.6062,590.7751855656707
2960.6916,575.6093615821758
2961.7764,556.727021640918
2962.8605,540.2273593665939
2963.9439,531.6095628166298
2965.0267,529.572814646179
2966.1089,512.8662921942989
2967.1905,518.0891675043198
2968.2714,520.040607490909
2969.3516,515.7697738878426
2970.4312,538.5758232284912
2971.5102,521.5079068885277
2972.5885,529.9151708578684
2973.6662,534.2467559113497
2974.7432,537.2517975246578
2975.8196,539.2294258310113
2976.8954,531.8287655911108
2977.9705,531.0989361733645
2979.045,514.5890516278919
2980.1188,500.34822069382415
2981.192,485.1755469644022
2982.2645,465.67012902938427
2983.3364,443.8310606267737
2984.4077,422.2574308378729
2985.4783,402.39832430567344
2986.5483,359.7028214505932
2987.6177,341.3699986690672
2988.6864,319.8989287605018
2989.7545,281.78868111060547
2990.8219,245.8883219060964
2991.8887,222.54691451580698
2992.9548,187.41351984968628
2994.0204,168.48719659221422
2995.0852,139.31700155373562
2996.1495,114.95198985972331
2997.2131,105.2912152424799
2998.276,88.93373028478891
2999.3383,72.32858651652191
3000.4,47.2748345782137
3001.4611,35.67152438711298
3002.5215,34.51770538772098
3003.5812,17.212426667823593
3004.6404,10.704736970029899
3005.6989,-2.0563151351751685
3006.7567,3.0283188156465712
3007.8139,-7.742292171479107
3008.8705,-5.319079120809306
3009.9264,-0.702895711102201
3010.9818,-6.294542483516352
3012.0364,-10.54481295728226
3013.0905,-12.304437769151377
3014.1439,-11.324042213193593
3015.1966,-7.304128662146127
3016.2487,-13.195086361564677
3017.3002,-2.0472315887593595
3018.3511,-5.910748802127614
3019.4013,5.41419799177595
3020.4509,6.5275038347774625
3021.4998,9.12906371456154
3022.5481,11.91877255353711
3023.5958,22.746525182823234
3024.6428,27.51221631435135
3025.6892,29.965740432588063
3026.735,34.356991746878066
3027.7802,38.43586416690857
3028.8247,43.502251258797514
3029.8685,47.85604620430445
3030.9118,58.69714175016668
3031.9544,69.52543016456104
3032.9963,65.74080312869387
3034.0376,81.59315162851692
3035.0783,87.63236599257436
3036.1184,98.90833573347885
3037.1578,96.4209494875198
3038.1966,107.4200949019031
3039.2348,111.5556586596258
3040.2723,114.07752636948385
3041.3092,117.43558252471689
3042.3455,115.77971047778948
3043.3811,122.40979240681025
3044.4161,116.9257093320914
3045.4505,116.72734104984738
3046.4842,115.3145661870359
3047.5173,112.63726220334183
3048.5498,113.39530540530427
3049.5816,110.83857097309044
3050.6128,104.31693295291416
3051.6434,110.93026428260418
3052.6734,108.87843685682003
3053.7027,104.01132146091908
3054.7314,99.12878779147445
3055.7594,103.43070450494685
3056.7868,96.56693926650894
3057.8136,97.48735870702689
3058.8398,97.59182849169764
3059.8653,96.23021331084459
3060.8902,87.85237687887332
3061.9145,93.70818194788706
3062.9381,93.14749039146568
3063.9612,96.0201631461074
3064.9835,92.77606021683573
3066.0053,81.5650406484724
3067.0264,83.98696255807909
3068.0469,83.14168324706668
3069.0668,77.42905917697664
3070.086,70.79894597793367
3071.1046,64.90119850577207
3072.1226,64.43567090833722
3073.1399,61.90221668446242
3074.1567,56.550688688624405
3075.1727,53.23093915627777
3076.1882,38.9428197573705
3077.203,37.28618162954132
3078.2173,35.66087552100123
3079.2308,32.61675180709926
3080.2438,21.903660506575875
3081.2561,22.32145131200417
3082.2678,11.519973696920886
3083.2789,16.74907691164816
3084.2893,8.408610091308958
3085.2991,15.098422203535506
3086.3083,5.81836213187438
3087.3169,2.51827860888784
3088.3248,-2.001979691045449
3089.3321,-1.1925641187292513
3090.3388,6.99639397480928
3091.3449,2.5647751522583917
3092.3503,-4.1875400936574465
3093.3551,8.139328704138848
3094.3593,-3.0546961537502284
3095.3629,-1.6196924481157566
3096.3658,-5.105707443334268
3097.3681,-2.9127722230547874
3098.3698,1.1591331350907126
3099.3708,-1.0899423479353914
3100.3713,-0.35994966276160767
3101.3711,4.449171088507285
3102.3702,-2.562516600336153
3103.3688,1.4550507200088418
3104.3667,-4.048037901616226
3105.364,-1.8716934309201179
3106.3607,6.084213606286681
3107.3568,-2.580168617588953
3108.3522,1.8353080090178366
3109.347,7.330817373556528
3110.3412,10.356533345123495
3111.3348,5.912629719507322
3112.3277,10.149280188931414
3113.32,7.966658386492895
3114.3117,9.46493784379615
3115.3028,15.094292012779249
3116.2932,16.254894250730985
3117.2831,8.646917763997266
3118.2723,7.870535596375078
3119.2608,15.325920705192232
3120.2488,14.563245969071403
3121.2361,16.08268411337596
3122.2229,19.284407717836928
3123.209,18.368589201358674
3124.1944,25.685400790001353
3125.1793,17.585014526139474
3126.1635,25.317602195293432
3127.1471,22.78333540713365
3128.1301,21.18238551815466
3129.1125,24.364923657017243
3130.0942,27.681120740558725
3131.0753,29.331147441966863
3132.0558,36.3651741576185
3133.0357,28.433370990578993
3134.015,33.13590768026225
3134.9936,32.022953681748334
3135.9716,39.54467811875847
3136.949,38.15124979478432
3137.9258,33.29283711787096
3138.902,38.21960811455094
3139.8775,38.08173047842854
3140.8524,40.97937152091205
3141.8267,37.112698172592445
3142.8004,39.33187695426716
3143.7735,45.88707401560666
3144.7459,44.42845511296264
3145.7178,48.20618554381622
3146.689,49.72043016136391
3147.6596,48.17135333674054
3148.6295,45.609118943876666
3149.5989,43.2338903749893
3150.5676,50.99583056620439
3151.5357,51.295102021309035
3152.5032,54.33186673413216
3153.4701,51.75628618555157
3154.4364,57.36852131312655
3155.402,58.81873253685367
3156.367,63.55707970304432
3157.3315,60.3337220698226
3158.2952,56.99881825974185
3159.2584,60.15252629201828
3160.221,56.79500361587988
3161.1829,65.3264070790294
3162.1442,65.04689296121964
3163.105,67.70661688893942
3164.065,61.705733838208715
3165.0245,66.09439810798126
3165.9834,63.722763380153594
3166.9416,68.79098267567832
3167.8993,68.24920837828039
3168.8563,67.74759218377491
3169.8127,74.28628510548505
3170.7684,73.11543747925802
3171.7236,75.48519889807831
3172.6782,76.395718223776
3173.6321,76.54714356332916
3174.5854,81.68962225975875
3175.5381,78.27330089061428
3176.4902,82.49832521654909
3177.4417,82.06484021548354
3178.3926,80.02299004035474
3179.3428,84.42291802345147
3180.2924,84.56476669683262
3181.2415,86.79867774832795
3182.1899,83.97479202011957
3183.1377,84.44324948640285
3184.0848,86.6541892816252
3185.0314,89.90774969580161
3185.9773,91.40406815240522
3186.9227,93.74328117583161
3187.8674,93.42552437643583
3188.8115,92.40093242714008
3189.755,100.71963906661136
3190.6979,93.48177710950736
3191.6402,100.28747836328947
3192.5818,103.23687370060114
3193.5229,98.63009299121123
3194.4633,106.46726507251981
3195.4031,102.34851779562602
3196.3423,106.57397794695643
3197.2809,108.49377128945233
3198.2189,109.00802252031531
3199.1563,107.36685525180927
3200.0931,112.27039200611785
3201.0292,112.1187542317562
3201.9648,114.86206225453547
3202.8997,111.50043527907938
3203.834,113.28399136139096
3204.7677,116.36284744246892
3205.7008,118.78711933047211
3206.6333,118.30692166993079
3207.5652,116.42236791750418
3208.4964,119.98357034678217
3209.4271,120.54064006713102
3210.3571,119.04368698808126
3211.2865,123.59281981375706
3212.2154,127.73814605784565
3213.1436,126.57977199810611
3214.0712,123.06780263491609
3214.9982,130.50234170285543
3215.9246,130.283491705826
3216.8503,128.6613538427063
3217.7755,129.68602800953977
3218.7001,134.30761281575644
3219.624,132.17620557392596
3220.5473,135.3419022535419
3221.4701,136.05479750233576
3222.3922,140.21498461461994
3223.3137,139.62255552415894
3224.2346,144.37760076256737
3225.1549,144.03020946523426
3226.0746,142.93046932377263
3226.9937,141.97846658949342
3227.9121,144.07428608440281
3228.83,144.6180112107224
3229.7473,147.90972392993078
3230.6639,145.84950475732657
3231.5799,150.6874327291111
3232.4954,150.47358542299068
3233.4102,151.60803890979722
3234.3244,155.1408677556268
3235.238,152.32214501049515
3236.151,157.25194217300913
3237.0634,159.58032921855425
3237.9752,159.75737454999663
3238.8864,159.0331449743989
3239.797,158.65770570125005
3240.7069,162.2311203497075
3241.6163,159.7034509523516
3242.5251,166.72475791945146
3243.4332,167.14510006424166
3244.3408,162.61453453270906
3245.2477,165.78311679938955
3246.154,168.75090071267357
3247.0598,164.31793846312036
3247.9649,168.43428055378013
3248.8694,169.6499758445237
3249.7733,171.16507151087902
3250.6766,174.82961303187426
3251.5793,174.7436441748869
3252.4814,174.4072069589982
3253.3829,173.420341655853
3254.2838,178.63308679302398
3255.1841,180.19547916388038
3256.0838,177.85755377546047
3256.9829,181.91934383284763
3257.8814,181.23088076254965
3258.7792,181.59219417188095
3259.6765,183.70331185584698
3260.5731,182.56425979353122
3261.4692,181.07506212698397
3262.3647,182.13574117261282
3263.2595,185.14631743607475
3264.1538,189.10680960166934
3265.0474,187.76723450223278
3265.9404,185.87760707953336
3266.8329,188.7379403976667
3267.7247,184.84824566195243
3268.616,184.70853219033063
3269.5066,186.66880745225893
3270.3966,186.72907707010955
3271.286,188.83934479956685
