RamanShift,CorrectedData
30.1047,765.5764599059753
32.3739,703.775630688367
34.6426,637.074793814994
36.9109,579.9739345923355
39.1787,522.9730319561222
41.4461,459.5220590423461
43.7131,403.37098375726794
45.9796,348.16976941192814
48.2456,288.2183752836567
50.5112,230.16675716808578
52.7764,177.1648679786637
55.0411,118.06265832717115
57.3054,59.66007705374011
59.5692,1.1070718178759051
61.8326,-49.5964103175169
64.0955,-107.35042230060449
66.3579,-157.40452161141408
68.6199,-206.10719329925422
70.8815,-238.15534994226275
73.1426,-219.44384510771653
75.4032,-54.21515319094675
77.6634,435.9904436567273
79.9231,1676.2332048933667
82.1824,4391.02338561713
84.4412,9234.57122416384
86.6995,15734.63691495909
88.9574,21825.730560082764
91.2148,25755.862104268363
93.4717,27290.741273992102
95.7282,27279.72753817156
97.9842,26719.430092816918
100.2398,25743.507861141064
102.4949,24624.419499162603
104.7495,23384.42340546505
107.0036,22141.977732387735
109.2573,21011.290398425746
111.5105,20039.9191006544
113.7632,19075.921326036107
116.0154,18325.204361134092
118.2672,17753.025301752357
120.5185,17183.59106044287
122.7693,16747.108372227347
125.0197,16375.783800291589
127.2696,15968.973740350324
129.519,15704.334424360426
131.7679,15315.221924589052
134.0163,14913.842156260007
136.2642,14417.000881444877
138.5117,13900.703713076837
140.7587,13328.606119919037
143.0052,12780.363431727601
145.2512,12251.330844972597
147.4967,11759.71342832045
149.7417,11307.866127924282
151.9863,10956.543772340083
154.2304,10737.051077045178
156.4739,10494.092647951456
158.717,10327.072983600305
160.9596,10103.746477592182
163.2017,9823.41742025681
165.4433,9473.440000886467
167.6844,9068.818310539238
169.925,8628.056345538826
172.1651,8133.858011520741
174.4047,7721.877127839938
176.6439,7324.91743251279
178.8825,6979.032586336901
181.1206,6741.626176860701
183.3582,6530.201721842299
185.5954,6344.5126716235445
187.832,6230.062411244268
190.0681,6121.204262299185
192.3037,6025.54148408238
194.5388,5970.4772746759045
196.7734,5920.214771906392
199.0075,5939.05705389571
201.2411,5987.057139563576
203.4742,6026.767988439143
205.7068,6134.64250018099
207.9389,6252.083514180021
210.1704,6398.693808480717
212.4015,6500.176098606726
214.632,6613.58303609476
216.862,6725.5672074797785
219.0915,6781.981133160905
221.3205,6838.027266281599
223.549,6869.9579921655095
225.777,6867.625627756019
228.0044,6821.582421296929
230.2314,6856.030552355791
232.4578,6796.522132284333
234.6837,6805.109203873976
236.909,6767.243741950924
239.1339,6674.92765329029
241.3582,6584.312776994751
243.582,6436.15088541771
245.8053,6346.143685069442
248.0281,6247.392818098716
250.2503,6204.44986319287
252.472,6235.966336565309
254.6932,6307.593692384945
256.9139,6403.733322461028
259.134,6576.586555526872
261.3536,6807.454656278463
263.5727,7148.28882364592
265.7912,7487.590188484822
268.0092,7963.359810167862
270.2267,8322.848673191835
272.4436,8641.15768241994
274.6601,8786.237659486895
276.8759,8826.839339615843
279.0913,8722.61337016755
281.3061,8573.910310234398
283.5204,8474.480631682629
285.7341,8458.474720639391
287.9473,8450.24287848702
290.16,8360.185322023119
292.3721,8282.352183542858
294.5837,8276.443511739562
296.7947,8402.509272483036
299.0052,8597.899348878658
301.2152,8670.213540006702
303.4246,8640.851558968463
305.6334,8386.363032163103
307.8418,7987.397499581258
310.0495,7455.4044173499515
312.2568,6875.133161722223
314.4635,6245.683034397075
316.6696,5692.153268322184
318.8752,5223.543033988395
321.0802,4983.9014449650285
323.2847,4967.977562585977
325.4887,4999.2203983461195
327.692,5051.728914060565
329.8949,5084.352021552217
332.0972,4944.938582126692
334.2989,4711.437406246085
336.5001,4396.897254923102
338.7007,4074.4168420560854
340.9008,3805.0448375744054
343.1003,3494.7798706632684
345.2992,3230.4705324574325
347.4976,2978.115379143861
349.6955,2844.6129346048174
351.8927,2722.2116929414115
354.0895,2579.2101198086275
356.2856,2472.8066536393417
358.4812,2380.1497070743226
360.6763,2294.4376680262785
362.8707,2230.068900606423
365.0646,2219.341745981593
367.258,2268.20452301794
369.4508,2342.255528388204
371.643,2501.0430360830796
373.8346,2641.765296670713
376.0257,2855.57053570881
378.2162,2997.7069523374403
380.4062,3021.4227171409593
382.5956,2903.265970726662
384.7844,2715.7848234876146
386.9726,2475.6273567842272
389.1603,2328.741624819061
391.3474,2189.625657038413
393.5339,2148.4774596011666
395.7199,2130.3450167699557
397.9052,2238.876291322641
400.09,2391.369224733635
402.2743,2632.971736088588
404.4579,2914.3317205594676
406.641,3173.6470469885235
408.8235,3371.865555074689
411.0054,3507.6850527804354
413.1868,3543.853314349576
415.3675,3523.218078949082
417.5477,3437.127050307394
419.7273,3315.7278969207755
421.9064,3217.868252914226
424.0848,3154.1957192554646
426.2627,2983.907864733528
428.4399,2692.5022265954995
430.6166,2284.6263122493847
432.7928,1824.8276021781667
434.9683,1402.5535540185656
437.1432,1124.8016071590318
439.3176,887.0691869624816
441.4914,757.6537075438173
443.6645,684.6025741472504
445.8371,632.663184440461
448.0091,599.7829292451052
450.1806,622.0591930562077
452.3514,600.0393543709743
454.5216,634.9207854660172
456.6913,656.7008526175669
458.8603,707.6769157526469
461.0288,756.6463282312798
463.1967,774.6064363367213
465.3639,754.2045787857687
467.5306,698.2880865491552
469.6967,672.8042830555742
471.8622,676.0504847508391
474.0271,686.6240013527258
476.1914,678.3221358185128
478.3551,689.4921842392396
480.5182,755.6814359227292
482.6807,867.4371732818854
484.8426,1099.206671172803
487.0039,1500.7871957772068
489.1647,2026.3760022847546
491.3248,2427.07033087724
493.4843,2569.7174014726997
495.6432,2464.41440971847
497.8015,2255.108525564713
499.9592,2051.296894317451
502.1163,1751.5766387316116
504.2728,1353.6948610491636
506.4287,977.8486459963142
508.5839,594.1350647623221
510.7386,386.25117875795877
512.8927,300.8940434526521
515.0461,293.96071045331155
517.199,411.0982283579151
519.3512,691.3036428248379
521.5029,1119.2239954014758
523.6539,1593.8563207221978
525.8043,1835.9976422291365
527.9541,1725.2949674258562
530.1033,1393.6952854559577
532.2519,1067.795568210092
534.3999,871.6927736419566
536.5472,854.3338490273
538.694,1007.4157329249383
540.8401,1290.0353553503583
542.9856,1506.0896362448857
545.1305,1554.9754826495
547.2748,1496.7897865442883
549.4185,1332.8794243595848
551.5615,1238.6912575578272
553.704,1278.0221342726609
555.8458,1441.0188902508244
557.987,1689.328348458831
560.1276,2031.197317453013
562.2675,2590.172588896414
564.4069,3366.750934140113
566.5456,4191.029098633459
568.6837,4597.753794158301
570.8212,4136.121690586194
572.958,3122.279411811166
575.0942,2098.0735403660256
577.2299,1384.500627560792
579.3648,1016.5572037247548
581.4992,930.0897853422011
583.6329,1043.7448787318444
585.766,1263.5189809115036
587.8985,1533.0085784615512
590.0304,1721.6101453271704
592.1616,1818.6201401234684
594.2922,1729.8350042494467
596.4222,1477.3011609179139
598.5515,1216.9650160433303
600.6802,950.7729607671454
602.8083,750.371374061162
604.9358,704.3066253894558
607.0626,756.6250767123902
609.1888,913.3730829472652
611.3144,1218.2469914451367
613.4393,1496.693140423332
615.5636,1792.207855916713
617.6873,1938.1374489932177
619.8103,1895.6282127987124
621.9327,1649.8264210976922
624.0544,1291.0283286983667
626.1756,928.6801739106877
628.2961,684.8281821343244
630.4159,585.3685694821515
632.5351,575.4975452187646
634.6537,585.7613127550776
636.7716,614.2060697470288
638.8889,620.1780079929486
641.0056,673.273313149105
643.1216,697.6381646699856
645.237,668.718735277349
647.3518,569.511190716571
649.4659,431.8116900458472
651.5793,338.66638662826153
653.6922,309.3214295087837
655.8043,293.47296434572127
657.9159,293.16713370417165
660.0268,278.70007721450565
662.137,312.81793157542234
664.2466,350.06683069862356
666.3556,359.59290536763365
668.4639,313.69228286531325
670.5716,229.9610868785976
672.6786,151.24543795750014
674.785,55.041454352428445
676.8907,-3.304747198658333
678.9958,-41.74705050821558
681.1002,-46.6893063742782
683.204,-52.88494854185228
685.3072,-67.63694432977354
687.4097,-78.34773273624342
689.5115,-57.26907706639304
691.6127,-57.60195793150433
693.7132,-64.74678382478305
695.8131,-47.15338779587637
697.9123,20.929043925933
700.0109,68.95179617371014
702.1089,190.61615357123083
704.2061,313.72340005276146
706.3028,466.7748176464056
708.3987,599.4716852430356
710.4941,665.9652770657776
712.5887,676.5068613430467
714.6827,704.2976996436055
716.7761,743.9390467711519
718.8688,888.4321504864129
720.9608,1026.678251110723
723.0522,1241.4785800811032
725.1429,1429.3843585677923
727.233,1667.8967953262472
729.3224,1900.2670848180787
731.4112,1936.2964048259428
733.4993,1796.1859141298228
735.5867,1470.936752146742
737.6735,1105.5500403318629
739.7596,768.9268854309821
741.845,574.9183831343998
743.9298,415.17562144314525
746.014,365.4496826090681
748.0974,338.6416447322681
750.1802,352.5525822583468
752.2624,368.83356624649605
754.3439,455.8356642303834
756.4247,585.9599400553425
758.5048,792.057453008355
760.5843,1093.2292565168045
762.6631,1561.2763960875018
764.7413,2263.1999062949744
766.8188,3251.7008061009847
768.8956,4188.280091835308
770.9718,4907.4887273107015
773.0473,5032.827634457137
775.1221,4748.497686129695
777.1962,4451.749704855187
779.2697,4473.434465675454
781.3426,4790.752699114843
783.4147,5139.205090963366
785.4862,5258.842279103506
787.557,4951.164850025704
789.6271,4217.223337631977
791.6966,3267.418226312694
793.7654,2317.649958285998
795.8335,1615.918943095855
797.901,1157.675567109739
799.9678,886.1202005359337
802.0339,758.5532020059663
804.0993,677.4249212901723
806.1641,632.485700573352
808.2282,551.8358752660606
810.2916,457.1757744539982
812.3544,347.60572170450723
814.4164,280.77603601317605
816.4778,309.3870328995399
818.5385,355.43902507537405
820.5986,513.7823221585841
822.658,825.3172302126895
824.7166,1303.9940501633891
826.7747,2053.613074683207
828.832,2936.574583404734
830.8886,3726.4288354244272
832.9446,4166.376060473009
834.9999,4133.116451016903
837.0545,3673.200157858788
839.1085,3079.4272904701693
841.1618,2500.297921590558
843.2143,2042.9120931651923
845.2662,1697.119822136333
847.3175,1491.7211050171227
849.368,1319.165921349505
851.4179,1237.5042357582188
853.467,1131.435999676347
855.5155,1090.8611521619332
857.5633,1014.5796209586642
859.6105,927.8413229016169
861.6569,822.7461646800766
863.7027,720.7940437049174
865.7478,644.4348491595547
867.7922,556.6684630194632
869.8359,503.99476081577177
871.8789,518.0636125129276
873.9212,560.6248830354307
875.9629,667.3784321271487
878.0039,794.0741139257043
880.0441,918.3117758949375
882.0837,1033.741257557952
884.1226,1115.212389254738
886.1609,1305.074990987875
888.1984,1525.8788716078225
890.2352,1816.4238269142888
892.2714,1991.559637448201
894.3069,1967.4360655862483
896.3416,1701.2028537895294
898.3757,1398.8097248447866
900.4091,1160.5063845267332
902.4418,1102.3925246219924
904.4739,1159.017825312124
906.5052,1316.131955754765
908.5358,1345.0345735173778
910.5658,1216.1253230061093
912.595,953.3038351767636
914.6236,653.5197288238887
916.6515,394.6726132090016
918.6786,247.51209105841917
920.7051,205.7377611517386
922.7309,234.44921979344235
924.756,282.74606123063404
926.7804,374.4278773659262
928.8041,419.4942572744758
930.8272,530.8947862871564
932.8495,525.3290455399056
934.8711,542.0466108597166
936.892,519.6470528202944
938.9123,588.1299365748846
940.9318,728.6948220802624
942.9506,849.541263411903
944.9688,852.9688073583375
946.9862,733.5769922126892
949.003,494.4653477383936
951.019,257.6333963631214
953.0344,142.33065556989186
955.0491,85.25664026539198
957.063,114.81086393300302
959.0763,193.84283920354392
961.0888,243.85207755972806
963.1007,334.5880885458446
965.1119,360.3003792676609
967.1223,334.3884534850631
969.1321,310.1518113549391
971.1412,257.5899496902939
973.1495,248.10236220262323
975.1572,266.88854002752396
977.1641,290.54797181957383
979.1704,269.580143564468
981.1759,238.93453834242064
983.1808,242.7106365378504
985.1849,214.45791614582959
987.1884,281.47585273432014
989.1911,388.1639197267077
991.1932,493.9215877316219
993.1945,552.8983234760562
995.1951,559.2935887477915
997.1951,537.5068398056301
999.1943,481.637527315439
1001.1928,518.7350965680171
1003.1906,590.7489880377916
1005.1877,788.8786370118414
1007.1841,1010.8234728697571
1009.1798,1161.2829171023477
1011.1748,1121.6563810921916
1013.1691,917.8432646090378
1015.1627,690.5429562060754
1017.1556,436.9548352580614
1019.1477,240.22827423433228
1021.1392,95.51264123467354
1023.1299,18.957301956593255
1025.12,51.66162114247254
1027.1093,154.32496334512325
1029.0979,336.796692600743
1031.0859,530.6261714022858
1033.0731,618.4627588747389
1035.0596,617.0558088368325
1037.0454,501.4546689226718
1039.0304,376.80868059580826
1041.0148,246.067180305251
1042.9985,116.57950073192296
1044.9814,37.59497209607525
1046.9636,-26.087076547830293
1048.9452,-10.367316521279463
1050.926,74.80384146413326
1052.9061,150.52609026630216
1054.8855,221.3491219950938
1056.8642,260.1726272551123
1058.8421,333.94629443747453
1060.8194,357.1698093315799
1062.7959,419.5928543873624
1064.7717,467.1651084830628
1066.7469,608.0362463009942
1068.7213,719.7559378518208
1070.695,870.3738470658518
1072.6679,1009.1396306758352
1074.6402,1128.152936710786
1076.6117,1157.5634031083237
1078.5826,996.07065652454
1080.5527,743.7243120398953
1082.5221,499.42397477414124
1084.4908,379.8692424097908
1086.4587,288.70970763512196
1088.426,290.69495933972485
1090.3925,316.224583526091
1092.3584,380.14816328976485
1094.3235,452.5652785640459
1096.2879,608.3255054807541
1098.2515,793.2284156460682
1100.2145,1069.62357458291
1102.1767,1373.2605398819223
1104.1382,1714.6388584375118
1106.099,2085.2080634114873
1108.0591,2467.46767081927
1110.0185,2739.967175824205
1111.9771,2917.356048914963
1113.9351,2859.533733180543
1115.8923,2785.4496425363823
1117.8488,2695.003162302587
1119.8045,2498.7436499447685
1121.7596,2258.220435978512
1123.7139,1928.432825931969
1125.6675,1756.6801027510883
1127.6204,1769.3115300974941
1129.5726,1783.3263540660073
1131.524,1765.8238030583407
1133.4748,1561.7530876429446
1135.4248,1282.4134007300327
1137.3741,1004.6039196122847
1139.3226,792.7238087582564
1141.2705,706.6722225904614
1143.2176,647.8483076041839
1145.164,680.4012032279861
1147.1097,590.4800424119512
1149.0546,412.2839513021527
1150.9989,218.51205013986691
1152.9424,45.36345504353176
1154.8852,-72.21272005352694
1156.8272,-136.81736167161944
1158.7686,-146.6506349259862
1160.7092,-106.16133812642875
1162.6491,-46.24680454290319
1164.5883,77.5466931063911
1166.5267,256.2733441088358
1168.4644,446.98733697634907
1170.4014,701.4928576581169
1172.3377,1014.8440876334516
1174.2732,1393.6452013667404
1176.2081,1970.6503631739288
1178.1421,2730.163723434516
1180.0755,3655.439412821498
1182.0082,4403.131534706243
1183.9401,4818.194155905718
1185.8713,4664.531299205588
1187.8017,4104.796939209571
1189.7315,3364.1450038760813
1191.6605,2670.379380115568
1193.5888,2169.9539211970296
1195.5163,1809.5224536856767
1197.4432,1571.638782447185
1199.3693,1419.9566942520005
1201.2947,1334.9299601541898
1203.2193,1265.2623370082483
1205.1432,1234.3575683193794
1207.0664,1224.719384940161
1208.9889,1214.7515053796023
1210.9106,1234.4076358995226
1212.8316,1279.8414706142312
1214.7519,1363.6566912939597
1216.6715,1436.7569669105324
1218.5903,1540.8959527992065
1220.5084,1681.527289927677
1222.4257,1841.254603854678
1224.3424,1982.381503323677
1226.2583,2208.4115786655993
1228.1735,2492.148400387555
1230.0879,2808.3955169125475
1232.0016,3203.456451742093
1233.9146,3512.7847002937597
1235.8269,3694.13372595055
1237.7384,3699.0569569676227
1239.6492,3568.5577846587985
1241.5592,3503.239563347336
1243.4686,3606.955611670912
1245.3772,3922.5092132348136
1247.285,4387.053615574775
1249.1922,4871.39202700144
1251.0986,5316.427611954918
1253.0042,5686.813486161402
1254.9092,6023.852712182808
1256.8134,6287.998295712921
1258.7169,6528.153182207001
1260.6196,6697.970254240325
1262.5216,6962.052329106642
1264.4229,7275.502157120008
1266.3234,7552.572418973952
1268.2232,7778.165722606988
1270.1223,7915.084600431911
1272.0207,8004.731507079858
1273.9183,7963.258818031127
1275.8151,7852.518828718707
1277.7113,7753.313754942994
1279.6067,7870.595733979208
1281.5014,8334.316825569429
1283.3953,9239.379010749783
1285.2885,10441.53418721323
1287.181,11783.63416025895
1289.0727,13185.580630770772
1290.9637,14236.425181796201
1292.854,14996.219264526919
1294.7435,15166.764187790373
1296.6323,14874.311110451818
1298.5204,14300.911039708855
1300.4077,13524.11483401599
1302.2943,12715.223208818617
1304.1802,11784.136744321
1306.0653,10748.755893575151
1307.9497,9727.930991791738
1309.8333,8867.862266693868
1311.7162,8225.599848725338
1313.5984,7797.243779651325
1315.4798,7547.794018981013
1317.3605,7468.600448251148
1319.2405,7380.612873520538
1321.1197,7105.13102616199
1322.9982,6609.85456374218
1324.876,6078.083072776476
1326.753,5452.4160736817075
1328.6293,4906.903026093873
1330.5048,4431.143335124809
1332.3796,4027.4863568173287
1334.2537,3655.581402902818
1336.127,3365.927744837799
1337.9996,3200.2246175229875
1339.8714,3100.621222199822
1341.7426,3027.2167281075035
1343.6129,3082.610273479022
1345.4826,3053.500966275202
1347.3515,3040.037883630769
1349.2196,2972.3200721454423
1351.087,2975.796548018562
1352.9537,3014.06629772627
1354.8197,3123.6282779867433
1356.6849,3339.1814153774994
1358.5493,3579.674605239771
1360.4131,3933.556709522989
1362.276,4281.876554379836
1364.1383,4500.532926627433
1365.9998,4497.0745702641325
1367.8606,4235.750184282963
1369.7206,3862.6084227062147
1371.5799,3520.5478971986686
1373.4384,3223.117180799025
1375.2962,2917.0648113405105
1377.1533,2511.88929442518
1379.0096,2059.5391064844416
1380.8652,1621.912698830808
1382.7201,1226.558502181405
1384.5742,902.474931034234
1386.4275,669.0103876217108
1388.2802,506.4632651515067
1390.132,346.7819501411932
1391.9832,257.9148240437098
1393.8336,226.76026484417798
1395.6832,186.06664794857352
1397.5322,145.38234649527294
1399.3803,110.85573176198795
1401.2278,65.18517357260862
1403.0745,60.41904064247046
1404.9204,37.705701035058155
1406.7656,41.14352220967157
1408.6101,31.030871248553012
1410.4538,45.41611482251301
1412.2968,126.09761929205524
1414.139,197.2737505635232
1415.9805,281.892873282286
1417.8213,392.45335012097894
1419.6613,567.603540933309
1421.5006,794.2418016484526
1423.3391,1107.1664825195485
1425.1769,1521.325925857327
1427.0139,2100.4684629008516
1428.8502,2839.892409675934
1430.6858,3543.9460612037
1432.5206,4116.227684106354
1434.3547,4440.885509566639
1436.188,4548.267727605022
1438.0206,4460.372483833123
1439.8524,4312.0478783798835
1441.6835,4151.34196677053
1443.5139,4060.952761409808
1445.3435,3978.528233189045
1447.1724,3962.5663123900486
1449.0005,3942.214889509345
1450.8279,3881.8218154177966
1452.6545,3890.8849015641263
1454.4804,3939.8019205788387
1456.3056,3967.7706061835906
1458.13,3908.638652702025
1459.9536,3747.4537147800747
1461.7766,3444.4634079772904
1463.5987,3063.5153103786906
1465.4202,2702.4069656246593
1467.2409,2296.7358867204293
1469.0608,1924.1995596471702
1470.88,1590.5954474186951
1472.6984,1270.9209938068211
1474.5161,1014.5736266774161
1476.3331,840.95076118714
1478.1493,722.5498023469172
1479.9648,622.2681467581665
1481.7795,548.0531837968069
1483.5935,528.8022966160802
1485.4067,497.4128628886956
1487.2192,484.3322549993459
1489.031,466.0078403585944
1490.842,455.78698153368305
1492.6522,465.5170364317769
1494.4618,446.99535840217186
1496.2705,440.96929613899874
1498.0785,423.98619386643395
1499.8858,395.99339139896574
1501.6924,356.68822431122044
1503.4981,345.36802421789525
1505.3032,290.4301191668069
1507.1075,264.07183375209206
1508.911,224.59048966358978
1510.7138,184.3334059504241
1512.5159,137.19789941581757
1514.3172,94.68128501965793
1516.1178,60.98087634985495
1517.9176,39.493986047507406
1519.7166,7.31792614390406
1521.515,-14.349991724602205
1523.3126,-18.91245599483591
1525.1094,-44.52201174720494
1526.9055,-40.43101512668454
1528.7008,-56.89137750335294
1530.4954,-73.80460634144902
1532.2893,-50.471640760352784
1534.0824,-58.94268257143176
1535.8747,-22.617429374357926
1537.6663,-21.69498993140178
1539.4572,-14.424247056713284
1541.2473,19.34613316850664
1543.0367,36.917628761283595
1544.8253,79.9917175451842
1546.6132,139.11987697459836
1548.4003,175.4535837039998
1550.1867,275.64431299666694
1551.9723,376.64353836134615
1553.7572,528.8527305503367
1555.5414,687.7233565495062
1557.3247,909.0068780561969
1559.1074,1163.0047498905146
1560.8893,1484.918417782501
1562.6705,1776.1993158321488
1564.4509,2038.5488632902698
1566.2305,2240.2684616456854
1568.0094,2390.759492001728
1569.7876,2442.9733130590475
1571.565,2482.3612596107005
1573.3417,2530.824642020013
1575.1176,2585.614745826704
1576.8928,2657.7828312622405
1578.6672,2776.5801327019494
1580.4409,2932.607857943328
1582.2138,3108.617187018073
1583.986,3332.309270631803
1585.7575,3530.285228403968
1587.5282,3773.8461466309277
1589.2981,4008.6430763061876
1591.0673,4193.227030684797
1592.8358,4386.048982935373
1594.6035,4538.859864294267
1596.3704,4603.710562137338
1598.1366,4691.05191845185
1599.9021,4758.484729187961
1601.6668,4778.609743385308
1603.4308,4845.077662498685
1605.194,4966.2891401967845
1606.9564,5189.794781697529
1608.7182,5496.6951425559455
1610.4791,5951.140726429116
1612.2394,6485.631982007173
1613.9988,7077.219298468842
1615.7576,7709.203000136531
1617.5156,8198.433340560461
1619.2728,8514.260496198813
1621.0293,8483.684561525442
1622.785,8153.405545871605
1624.54,7603.573373731706
1626.2942,6920.137888066103
1628.0477,6154.598855799419
1629.8005,5475.355974654896
1631.5525,4824.6088808097975
1633.3037,4270.757155687819
1635.0542,3826.550332466576
1636.804,3459.237901616108
1638.553,3148.5693153409543
1640.3013,2957.4439912532775
1642.0488,2801.8113154795487
1643.7955,2774.7706445718013
1645.5416,2759.4213070639566
1647.2868,2814.8126037422317
1649.0313,2850.3438077986275
1650.7751,2949.6641642770255
1652.5181,3036.6728897178664
1654.2604,3210.2191711649534
1656.0019,3411.252165295364
1657.7427,3692.620996683981
1659.4828,4055.724755793168
1661.222,4393.162496159077
1662.9606,4582.683230760619
1664.6984,4549.935928645076
1666.4354,4192.469513032905
1668.1717,3633.4828616451996
1669.9072,3006.074810278362
1671.642,2405.2941583939632
1673.3761,1929.0396753928317
1675.1094,1503.9601066228524
1676.8419,1204.0541781415159
1678.5737,969.970600966712
1680.3048,805.0580740757896
1682.0351,670.0652867463909
1683.7646,573.7409202055783
1685.4934,487.13364897976226
1687.2215,426.4421418579441
1688.9488,360.5150627577905
1690.6754,297.1510713325497
1692.4012,263.7488236303193
1694.1263,249.50697272768957
1695.8506,223.4241690637632
1697.5742,197.4990605825751
1699.297,165.98029299391874
1701.0191,145.31651003259913
1702.7404,125.30635377361705
1704.461,96.04846483881101
1706.1808,84.59148259695576
1707.8999,64.18404545634257
1709.6182,55.92479097934802
1711.3358,46.812356086511954
1713.0527,40.395377139125685
1714.7688,24.872490030359586
1716.4841,32.84233024942796
1718.1987,16.053533036823865
1719.9126,22.504733304619094
1721.6257,8.794565804347258
1723.338,10.121665062496959
1725.0496,21.084665517612848
1726.7605,21.632201507022728
1728.4706,17.362907157207246
1730.18,2.525416378327918
1731.8886,11.168362906916627
1733.5964,8.740380454253682
1735.3036,2.3901026199364424
1737.0099,-1.6838370838397623
1738.7156,-1.2828051687808966
1740.4204,-13.658151325060771
1742.1246,-10.461212427630016
1743.8279,-12.143188906508612
1745.5306,-22.455176684205753
1747.2325,-11.348150372774853
1748.9336,-21.02286025705439
1750.634,-20.07994325386244
1752.3336,-15.669826261643493
1754.0325,-20.64273558021
1755.7307,-20.398740967812046
1757.4281,-11.637705961772554
1759.1247,-3.109290315993576
1760.8206,11.136962476304689
1762.5158,9.451539983710973
1764.2102,13.584929663446474
1765.9039,-0.06238112178380106
1767.5968,9.560094854877207
1769.289,16.702845443471688
1770.9804,9.866358398442799
1772.6711,18.851121307205403
1774.361,31.95762165851056
1776.0502,38.53634675259946
1777.7386,39.23778357013657
1779.4263,35.112418706423114
1781.1132,43.76073836438286
1782.7994,44.18322839581674
1784.4849,51.78037421492081
1786.1696,59.95266079406042
1787.8535,63.35057258779875
1789.5367,59.97459345117409
1791.2192,56.275206605720996
1792.9009,56.752894673227274
1794.5818,62.258139712730554
1796.2621,75.04142321574022
1797.9415,73.60322605118472
1799.6202,69.79402833757877
1801.2982,79.0143094574064
1802.9755,82.6145480952116
1804.6519,79.24522214539616
1806.3277,76.05680867621777
1808.0027,74.69978396348256
1809.6769,85.22462352242883
1811.3504,90.03180212129769
1813.0231,86.57179367608546
1814.6951,86.14507120247004
1816.3664,102.70210685041206
1818.0369,98.49337190842357
1819.7067,103.21933663799518
1821.3757,118.23047031568512
1823.044,126.17724118585784
1824.7115,126.61011631057522
1826.3783,127.52956149012653
1828.0443,137.9860412587018
1829.7096,124.6300188751959
1831.3741,121.36195621864431
1833.0379,140.2823139217826
1834.701,149.19155140372663
1836.3633,136.4901266807699
1838.0248,133.1284962772918
1839.6856,143.30711535277078
1841.3457,145.67643773540112
1843.005,151.83691582030747
1844.6636,165.88900054584929
1846.3214,164.5331413320173
1847.9785,167.76978593991225
1849.6349,173.09938048530512
1851.2904,179.97236940626954
1852.9453,182.88919540988604
1854.5994,184.85029940351228
1856.2528,185.15612046561455
1857.9054,182.1570958261566
1859.5572,191.55366086354184
1861.2083,204.29624913460202
1862.8587,187.73529228063376
1864.5084,194.2712198999718
1866.1572,190.0044597135991
1867.8054,190.6854374997863
1869.4528,198.26457713676064
1871.0994,193.24230059589422
1872.7453,200.41902786591504
1874.3905,196.19517700312826
1876.0349,194.97116405964948
1877.6786,206.59740312564327
1879.3215,214.57430634156208
1880.9637,206.05228378188508
1882.6051,207.08174337535002
1884.2458,199.16309099017167
1885.8858,209.5467304237484
1887.525,215.68306348184774
1889.1634,211.97248987477064
1890.8011,202.61540715598812
1892.4381,203.712210759247
1894.0743,204.01329409213872
1895.7098,218.66904852513517
1897.3446,226.8298633885745
1898.9786,210.84612582610612
1900.6118,216.36822071308188
1902.2443,208.04653081639208
1903.8761,221.63143673924515
1905.5071,209.92331700438558
1907.1374,215.32254791824357
1908.7669,211.97950368801594
1910.3957,205.59455636767416
1912.0237,204.16807589139603
1913.651,212.70043013741474
1915.2776,212.34198494228212
1916.9034,198.59310401554671
1918.5285,204.00414894333767
1920.1528,205.72547932585326
1921.7764,203.95745272325235
1923.3992,213.60042463843888
1925.0213,195.95474853474252
1926.6427,197.67077573949064
1928.2633,198.19885562046238
1929.8832,214.13933556873076
1931.5023,210.8425609933804
1933.1207,202.55887516210237
1934.7383,204.13861923416266
1936.3552,195.93213234324094
1937.9714,190.83975158162957
1939.5868,200.31181208230146
1941.2015,204.2486470698325
1942.8154,191.75058776568108
1944.4286,195.51796334881942
1946.041,192.5511010807145
1947.6528,193.45032626765487
1949.2637,191.91596229041784
1950.8739,189.44833059527832
1952.4834,189.6477507093507
1954.0921,196.664540265268
1955.7001,191.64901499918506
1957.3074,191.45148868061142
1958.9139,189.02227316256722
1960.5197,188.31167838355805
1962.1247,193.8200123918682
1963.729,183.44758135266534
1965.3325,179.3446894929184
1966.9353,179.2616392051209
1968.5374,179.69873108832007
1970.1387,191.60626394894712
1971.7393,188.23453479644763
1973.3392,189.38383872420331
1974.9383,173.60446894325173
1976.5366,162.44671677079305
1978.1342,183.41087178798261
1979.7311,183.4472219515094
1981.3273,176.00605338395417
1982.9227,175.73765037342628
1984.5173,183.84229544797427
1986.1112,175.3202693782714
1987.7044,168.22185109656812
1989.2968,171.59731778191326
1990.8885,174.39694493113757
1992.4795,166.6710063250996
1994.0697,166.9697740006884
1995.6592,164.14351832808416
1997.2479,170.19250800776967
1998.8359,170.96701009879348
2000.4232,170.61728995827912
2002.0097,166.29361123368062
2003.5955,176.09623586628027
2005.1805,172.3754241344243
2006.7648,170.48143455549825
2008.3484,158.96452392313313
2009.9312,164.97494732614769
2011.5133,163.76295826371484
2013.0946,178.07880858525937
2014.6752,165.7727485025771
2016.2551,157.29502644667696
2017.8342,161.64588919084008
2019.4126,160.9255819353973
2020.9902,156.88434826422167
2022.5672,160.3224301519308
2024.1433,166.44006800429952
2025.7188,165.13750062387885
2027.2935,159.4649651488196
2028.8674,154.02269706589823
2030.4406,164.71093026724134
2032.0131,144.4798971047503
2033.5849,148.8798282832164
2035.1559,156.6609530626332
2036.7261,157.02349921419602
2038.2957,155.0676929424908
2039.8645,150.3937588818692
2041.4325,159.95192011600602
2042.9998,150.59239822463883
2044.5664,151.1154131879881
2046.1323,152.0211834803498
2047.6974,142.1099260648673
2049.2617,151.68185638447244
2050.8254,148.78718846099866
2052.3883,153.47613479946085
2053.9504,145.09890641700258
2055.5118,146.20571279600665
2057.0725,142.39676196786763
2058.6325,143.3722605019227
2060.1917,147.18241354354257
2061.7502,158.17742480437528
2063.3079,154.15749652424483
2064.8649,143.8728293612013
2066.4212,143.2236224317203
2067.9767,141.81007341355007
2069.5315,149.93237855220218
2071.0856,140.99073267508834
2072.6389,133.88532911029733
2074.1915,128.76635977601063
2075.7433,123.83401525155705
2077.2945,135.4384848286022
2078.8448,131.92995656047287
2080.3945,133.50861714611142
2081.9434,128.52465196516198
2083.4916,124.67824506218267
2085.039,120.66957919648598
2086.5857,122.59883588060188
2088.1317,123.1661954203662
2089.677,121.62183689562562
2091.2215,120.11593815456695
2092.7652,117.09867582915786
2094.3083,112.27022535020762
2095.8506,114.0307609775391
2097.3921,127.88045584827341
2098.933,110.11948195922378
2100.4731,119.49801002839956
2102.0124,124.11620967261456
2103.5511,121.3242493137027
2105.089,117.97229613233628
2106.6261,124.51051609594538
2108.1626,109.58907399223745
2109.6983,121.70813336381684
2111.2332,121.81785665739653
2112.7675,122.36840510260868
2114.301,114.90993871090791
2115.8337,120.94261627006563
2117.3657,115.61659541875383
2118.897,116.33203258621995
2120.4276,104.98908304554561
2121.9575,104.83790090649325
2123.4866,111.72863922893441
2125.0149,98.86145002436251
2126.5426,102.33648418698567
2128.0695,101.30389162239771
2129.5956,98.41382121282777
2131.1211,94.6164208274671
2132.6458,102.31183735136904
2134.1698,100.40021672342323
2135.693,93.08170385940139
2137.2155,105.00644267107316
2138.7373,95.07457613939118
2140.2584,104.78624619524453
2141.7787,95.8915938187763
2143.2983,93.49075894226826
2144.8171,89.4838805390865
2146.3353,93.22109664769016
2147.8527,88.0025444117
2149.3693,96.32836004252727
2150.8853,96.59867887155701
2152.4005,92.61363526689172
2153.9149,90.12336263064697
2155.4287,81.82799343880276
2156.9417,84.07765926610602
2158.454,82.17249086902336
2159.9655,80.46261816324568
2161.4764,79.79817024273939
2162.9865,70.52927539684435
2164.4958,81.90606111691955
2166.0045,72.57865418903089
2167.5124,70.89718058018411
2169.0195,76.81176553159946
2170.526,70.422533575525
2172.0317,89.02960847609222
2173.5367,72.43311329320738
2175.0409,77.68317019648111
2176.5445,81.729900631193
2178.0473,68.32342526579077
2179.5494,74.51386395142458
2181.0507,78.05133585601095
2182.5513,65.8359594023284
2184.0512,72.41785223264185
2185.5504,68.19713133085702
2187.0488,71.62391295670204
2188.5465,81.29831268793419
2190.0435,75.72044538607202
2191.5397,81.54042509965154
2193.0353,72.10836512000446
2194.5301,58.374377923059455
2196.0241,71.68857526366173
2197.5175,67.05106831291346
2199.0101,74.71196752503113
2200.502,65.4213826837206
2201.9931,66.37942282556867
2203.4835,50.786196332948634
2204.9733,59.89181092444028
2206.4622,55.896373810761816
2207.9505,56.699991603713784
2209.438,53.75277035613283
2210.9248,57.55481555385609
2212.4109,55.95623214519355
2213.8962,47.8071245029073
2215.3809,50.757596440197744
2216.8648,55.65775129219503
2218.3479,54.35769188645372
2219.8304,45.85752049395194
2221.3121,51.00733884209137
2222.7931,40.55724819969896
2224.2733,39.157349325528344
2225.7529,38.807742572761526
2227.2317,29.758527903007348
2228.7098,34.85980488979817
2230.1872,28.511672809080665
2231.6638,40.56423058820428
2233.1397,43.96757686940157
2234.6149,31.071809889263136
2236.0894,32.47702744470348
2237.5632,30.983327021919536
2239.0362,37.84080578233784
2240.5085,27.199560577551665
2241.9801,24.75968788074624
2243.4509,23.47128389311206
2244.921,20.584444568243498
2246.3904,16.649265625022963
2247.8591,25.015842576489035
2249.3271,15.484270769188129
2250.7943,19.654645299508957
2252.2608,13.077061108997555
2253.7266,17.301612942654515
2255.1917,9.078395414710258
2256.656,19.807502966379957
2258.1197,14.23902994809498
2259.5826,9.623070512212735
2261.0447,12.409718668700066
2262.5062,4.649068331294757
2263.9669,8.84121328963704
2265.4269,12.786200889175348
2266.8862,14.884078386945703
2268.3448,11.284892912122473
2269.8026,14.888691445039171
2271.2598,17.445520853180597
2272.7162,10.60542785514508
2274.1719,9.16845899507598
2275.6268,10.984660711062702
2277.0811,11.854079349509902
2278.5346,14.776761146976128
2279.9874,11.252752221479113
2281.4395,11.382098543268512
2282.8908,6.2648459700670855
2284.3414,17.201040245776085
2285.7914,13.740727051649515
2287.2406,14.633951896930853
2288.689,13.130760153456663
2290.1368,13.33119704672481
2291.5838,15.735307670925863
2293.0302,10.193136986938953
2294.4758,8.504729798290782
2295.9206,5.220130806577458
2297.3648,12.939384628347398
2298.8082,9.262535827948568
2300.251,14.189628840335445
2301.693,10.770708007837356
2303.1343,12.40581753088702
2304.5748,15.145001502211585
2306.0147,17.18830389047855
2307.4538,3.5357685129060883
2308.8922,15.637439014829624
2310.3299,2.9933237192564093
2311.7669,13.703430792819972
2313.2031,11.16773849884953
2314.6387,1.1362249636400747
2316.0735,11.758868201810742
2317.5076,6.285634877092207
2318.941,8.616491535626437
2320.3737,10.701404660699836
2321.8056,-0.759659350565812
2323.2369,0.03326579193776524
2324.6674,2.780153967316437
2326.0972,1.7309787223503008
2327.5263,3.385685830081229
2328.9547,11.044203771073285
2330.3823,-1.4435390079663648
2331.8092,3.72238582922796
2333.2355,5.291921039876229
2334.661,6.415009343974816
2336.0858,-2.158406591398375
2337.5098,4.821615836684941
2338.9332,5.60504079363443
2340.3558,1.3418323966440084
2341.7778,6.131954706857641
2343.199,1.025358380513353
2344.6195,-1.1780059874699873
2346.0393,5.421801954496118
2347.4583,11.824734326280009
2348.8767,8.480743193531907
2350.2943,15.189780503655584
2351.7113,11.701798119247655
2353.1275,6.416747751008074
2354.543,10.784580992618316
2355.9578,17.055249373593483
2357.3718,12.128704315603386
2358.7852,7.6048970697659115
2360.1978,16.983778765912007
2361.6098,16.915300457823832
2363.021,12.199413029446077
2364.4315,13.98606719557074
2365.8413,17.575213548996317
2367.2504,15.116802542661162
2368.6587,15.360784453751762
2370.0664,10.807109408286578
2371.4733,10.955727378676443
2372.8795,19.956588229261683
2374.285,19.95964171482592
2375.6899,12.614837390586445
2377.0939,13.272124612164589
2378.4973,10.131452609033431
2379.9,18.64277047794576
2381.3019,11.656027214338906
2382.7032,12.521171627223794
2384.1037,17.788152409051122
2385.5035,12.106918127060453
2386.9027,10.027417170609624
2388.3011,4.349597807987948
2389.6987,14.223408207210241
2391.0957,4.498796492796146
2392.492,2.0257106470315875
2393.8876,3.054098607214655
2395.2824,6.183908290387194
2396.6765,-2.0349124169500783
2398.07,-0.6024156901353308
2399.4627,0.28136662426709336
2400.8547,6.9164086978258865
2402.246,2.9526818912567023
2403.6366,5.040157496111192
2405.0265,9.728806774414466
2406.4156,0.818600937790734
2407.8041,0.05951110057594633
2409.1918,-0.1484998007174454
2410.5789,1.7445305759066514
2411.9652,7.188566055957267
2413.3508,8.933553037082788
2414.7358,16.279437845045436
2416.12,14.626166716272792
2417.5035,8.273685724398206
2418.8863,10.07194079679391
2420.2684,9.6708777780957
2421.6497,7.22044241222045
2423.0304,14.6205803463763
2424.4104,10.47123715556711
2425.7896,9.522358268591574
2427.1682,14.12388900953647
2428.546,8.225774607265407
2429.9232,9.07796014940368
2431.2996,17.58039064131856
2432.6753,12.433010997599013
2434.0503,10.485765957029912
2435.4246,8.9886001340667
2436.7982,11.841458038307223
2438.1711,16.944284089463736
2439.5433,18.097022588834534
2440.9148,14.94961766827521
2442.2856,10.102013278671166
2443.6557,14.454153221412298
2445.025,10.105981196868811
2446.3937,13.057440760869781
2447.7617,5.7584753681843495
2449.1289,7.05902834300764
2450.4955,11.609042951950073
2451.8613,12.408462391032117
2453.2265,15.657229740184562
2454.5909,4.355287955253857
2455.9546,10.002579835513984
2457.3177,18.799048136686793
2458.68,11.144635514468291
2460.0416,17.33928443656464
2461.4025,20.58293725923579
2462.7627,15.875536165349445
2464.1222,26.217023131943847
2465.4811,17.657339977302172
2466.8392,23.496428257537445
2468.1966,19.634229352189777
2469.5533,24.320684405835436
2470.9093,27.35573436670836
2472.2645,26.139319939836355
2473.6191,32.6213815566897
2474.973,33.55185938734644
2476.3262,28.7806932756705
2477.6787,30.40782273000775
2479.0305,35.53318697089696
2480.3816,34.20672491479877
2481.7319,32.42837512284234
2483.0816,34.39807581408991
2484.4306,40.31576488332007
2485.7789,35.48137988133135
2487.1264,36.64485795576479
2488.4733,44.35613589944762
2489.8195,45.81515013875878
2491.165,35.8218366565161
2492.5097,37.07613097738556
2493.8538,30.827968267815095
2495.1972,36.67728332349168
2496.5398,45.62401063182256
2497.8818,42.26808431344267
2499.2231,39.35943803274694
2500.5637,45.048005031449634
2501.9035,46.483718157670864
2503.2427,41.81650980905101
2504.5812,32.69631191839363
2505.919,41.973056000337806
2507.256,56.796673242559564
2508.5924,43.96709441300459
2509.9281,42.23424971165201
2511.2631,44.848068898810595
2512.5974,39.95848131244617
2513.9309,47.165415842044354
2515.2638,44.01880097750586
2516.596,44.16856473707702
2517.9275,44.46463469881701
2519.2583,46.856937999099216
2520.5884,39.39540132965084
2521.9178,49.8799509136299
2523.2465,45.610512580240425
2524.5745,44.03701165988758
2525.9018,48.359373026871026
2527.2284,47.27752111512075
2528.5543,46.79137987497313
2529.8796,54.95087278398944
2531.2041,53.00592285181767
2532.5279,56.10645253859684
2533.851,49.402383774406985
2535.1735,48.843637928264116
2536.4952,63.68013587516032
2537.8163,51.11179800165229
2539.1366,58.63854405749481
2540.4562,59.01029328132529
2541.7752,64.32696432539524
2543.0935,64.5884752518541
2544.411,62.19474347958118
2545.7279,76.24568578157175
2547.0441,60.94121830887377
2548.3596,67.73125645007843
2549.6744,62.16571498436514
2550.9885,62.69450801360102
2552.3019,74.46754901799642
2553.6146,63.18475085081633
2554.9266,67.29602562065037
2556.2379,72.85128480424066
2557.5485,71.75043920536962
2558.8585,67.29339889930674
2560.1677,67.5800732438172
2561.4762,76.5603709237322
2562.7841,76.73419994808211
2564.0913,80.40146756029401
2565.3977,73.412080236453
2566.7035,78.76594364862979
2568.0086,77.51296273477425
2569.313,80.45304164517711
2570.6167,86.93608375499991
2571.9197,79.86199163487368
2573.222,82.130666986069
2574.5236,87.24201071123679
2575.8246,87.5459228917212
2577.1248,91.09230273644715
2578.4244,88.63104857887981
2579.7232,86.56205784156191
2581.0214,92.43522706072554
2582.3189,99.1004519069827
2583.6157,93.45762712659325
2584.9118,97.75664647481261
2586.2072,96.14740277232005
2587.5019,93.72978786222836
2588.7959,100.45369262617663
2590.0893,106.06900700850599
2591.3819,109.72561994902094
2592.6739,111.97341932683605
2593.9652,117.31229192380994
2595.2557,107.79212340206743
2596.5456,119.9127982506102
2597.8348,113.22419988051956
2599.1234,123.47621050374829
2600.4112,126.66871120000809
2601.6983,129.65158181424835
2602.9848,126.92470092473172
2604.2705,121.73794581320556
2605.5556,136.9411924921705
2606.84,134.934315756748
2608.1237,132.11718903264784
2609.4067,125.88968439623659
2610.689,129.80167260270912
2611.9707,128.20302314836363
2613.2516,115.093604231482
2614.5319,124.42328276831563
2615.8115,120.89192452417996
2617.0903,120.54939402015799
2618.3685,123.64555456841322
2619.6461,123.93026827561573
2620.9229,117.2533960119801
2622.199,116.61479740841838
2623.4745,126.41433092330897
2624.7493,115.30185384888222
2626.0234,119.3772222132256
2627.2968,118.59029089140847
2628.5695,115.5409135647281
2629.8415,112.47894272857906
2631.1128,115.45422972294693
2632.3835,123.96662476302828
2633.6535,118.46597690947698
2634.9228,117.45213398328133
2636.1914,120.5749426207696
2637.4593,126.93424828374907
2638.7265,121.07989522827751
2639.9931,120.26172644107055
2641.259,122.42958369804523
2642.5242,122.78330757250126
2643.7887,118.4727374134431
2645.0525,113.84771134204192
2646.3156,113.95806629474151
2647.5781,120.45363806950888
2648.8398,110.63426132473057
2650.1009,110.94976951425667
2651.3613,117.94999498559508
2652.6211,111.33476897675598
2653.8801,119.00392154624973
2655.1385,108.55728163923902
2656.3961,109.54467701084735
2657.6531,111.26593433062595
2658.9094,117.57087917267944
2660.1651,114.40933599845346
2661.42,117.43112809368483
2662.6743,121.23607760001744
2663.9279,128.07400548478387
2665.1808,123.04473150295576
2666.433,123.64807412876524
2667.6846,128.73385060599742
2668.9354,136.0518769419565
2670.1856,132.5019678566086
2671.4351,145.03393670940108
2672.6839,152.19759553476166
2673.9321,159.74275491677872
2675.1795,154.8692239175648
2676.4263,156.426810001805
2677.6724,161.66531908549234
2678.9179,156.73455552035222
2680.1626,162.8843220414568
2681.4067,166.2644198165329
2682.6501,158.67464838446432
2683.8928,160.6648056214906
2685.1348,148.68468781710516
2686.3761,143.1840896541533
2687.6168,138.36280432863396
2688.8568,140.220623604705
2690.0961,136.80733786289665
2691.3348,128.37273608153288
2692.5727,126.1666058708646
2693.81,125.68873355741533
2695.0466,130.73890420604295
2696.2826,125.21690162471793
2697.5178,127.92250831402191
2698.7524,132.20550552236762
2699.9863,130.76567321894294
2701.2195,139.60279005088063
2702.452,145.51663335765733
2703.6839,154.1069790827218
2704.9151,161.12360171435682
2706.1456,167.91627419977544
2707.3755,170.88476787495495
2708.6046,177.12885239670965
2709.8331,190.09829571300656
2711.0609,197.14286400052407
2712.2881,204.71232153495805
2713.5145,220.60643062057522
2714.7403,220.42495151451948
2715.9654,240.56764226787078
2717.1899,248.43425872745922
2718.4136,268.8245543344391
2719.6367,280.13828004562197
2720.8591,289.4251841295744
2722.0809,302.18501205347974
2723.3019,320.6175063902699
2724.5223,337.7724066910266
2725.7421,335.34944930065694
2726.9611,343.7483671863438
2728.1795,329.5688899617762
2729.3972,312.3107438031594
2730.6142,302.4736515910097
2731.8306,289.0573330827361
2733.0462,269.51150501101154
2734.2612,239.08588121793548
2735.4756,227.3801728504925
2736.6892,208.0940886648084
2737.9022,199.0773351432074
2739.1145,172.72961668707325
2740.3262,164.05063570701634
2741.5372,150.74009288635142
2742.7475,140.3976872678868
2743.9571,134.32311638703032
2745.1661,114.71607637521288
2746.3744,101.67626202063434
2747.582,97.0533669643342
2748.7889,88.2470838305893
2749.9952,78.75710427314306
2751.2008,73.9331190632683
2752.4057,62.97481818466707
2753.61,58.13189088171066
2754.8136,67.75402576902235
2756.0165,59.84091087990663
2757.2188,56.04223357012779
2758.4204,45.35768059704105
2759.6213,45.38693815757938
2760.8215,51.02969199509931
2762.0211,43.98562739908783
2763.22,44.404429148735346
2764.4182,38.635781583376
2765.6158,39.27936859829987
2766.8127,30.18487370243969
2768.009,25.90198001193471
2769.2045,15.280370341075752
2770.3994,8.76972724513405
2771.5936,2.3197331265774324
2772.7872,8.530070300176703
2773.9801,4.950421057505537
2775.1723,0.43046760483730395
2776.3639,-6.680107901058591
2777.5548,-10.981623307717655
2778.745,-12.67432972839697
2779.9346,-16.508368569937375
2781.1235,-10.683754622625656
2782.3117,-13.900337758146975
2783.4992,-20.807861117478012
2784.6861,-25.405928977221095
2785.8723,-16.443937743446384
2787.0579,-14.621030016993643
2788.2428,-16.786184123764656
2789.427,-2.638232325571437
2790.6106,3.974160809753414
2791.7935,-5.347642929681967
2792.9757,3.1477182044891947
2794.1573,3.0116593835865615
2795.3382,9.895595747453001
2796.5184,17.800942405814908
2797.698,23.12911436944279
2798.8769,28.73152647109805
2800.0551,39.6595933122515
2801.2327,60.51472920705902
2802.4096,66.89834807308063
2803.5859,78.36186322272903
2804.7615,100.45668729943418
2805.9364,109.08423216300713
2807.1106,134.7459086686925
2808.2842,156.29312658089327
2809.4572,180.02729431655342
2810.6294,216.24981872968618
2811.801,255.4621048740321
2812.972,298.11555564083386
2814.1423,341.0115713667134
2815.3119,379.2515494071374
2816.4808,434.4868837074566
2817.6491,497.2689644205066
2818.8167,549.599177354254
2819.9837,616.528903343976
2821.15,680.3095177289584
2822.3157,739.9923896831983
2823.4807,824.8788815775973
2824.645,885.4703483831344
2825.8086,961.7181368219983
2826.9716,1013.6735847616764
2828.134,1080.0380204524736
2829.2957,1137.16276200796
2830.4567,1174.6491167413255
2831.617,1194.7983805941326
2832.7767,1201.7618377614526
2833.9358,1201.3907604903734
2835.0941,1187.9364090103645
2836.2519,1174.1000315369881
2837.4089,1150.4328644064428
2838.5653,1122.6861322139266
2839.7211,1106.2110480503097
2840.8761,1096.6088137796005
2842.0306,1104.130620203698
2843.1843,1124.6276471584129
2844.3374,1166.1010634382503
2845.4899,1210.6520265914394
2846.6417,1270.5816825051986
2847.7928,1333.741164960227
2848.9433,1387.1815950314067
2850.0931,1447.454080456208
2851.2422,1512.1097151002864
2852.3907,1573.049578354756
2853.5385,1633.224734489634
2854.6857,1681.1362320444427
2855.8323,1740.885103226456
2856.9781,1790.422363431587
2858.1233,1852.9990106468977
2859.2679,1903.4160249552265
2860.4118,1966.6243679094223
2861.555,2016.9249820281739
2862.6976,2066.3187901639267
2863.8395,2107.206694999878
2864.9808,2146.6895785560346
2866.1214,2171.0683017803376
2867.2614,2174.293704153834
2868.4007,2197.6666034468863
2869.5393,2220.9377956869203
2870.6773,2243.3080549246974
2871.8146,2240.3281330016
2872.9513,2255.4987593259293
2874.0874,2237.920640902709
2875.2227,2219.4944621819736
2876.3574,2205.620885234552
2877.4915,2167.4005499363298
2878.6249,2132.984074106982
2879.7577,2102.172053892181
2880.8898,2094.5150641077557
2882.0212,2071.3136585478187
2883.152,2061.1183700613287
2884.2821,2064.6797107841107
2885.4116,2054.548172240806
2886.5405,2057.9742253092572
2887.6686,2074.6083203218286
2888.7962,2071.1008870311402
2889.923,2076.852334443729
2891.0493,2105.313050855124
2892.1748,2104.5334037923303
2893.2997,2118.363739729223
2894.424,2142.5543840943437
2895.5476,2151.7556411325977
2896.6706,2173.367793663346
2897.7929,2189.4911029883924
2898.9145,2229.725808675865
2900.0355,2238.572128398981
2901.1559,2280.980257533699
2902.2756,2310.300369070257
2903.3946,2356.382613189091
2904.513,2382.277116967634
2905.6308,2404.2339839194915
2906.7479,2427.5032937355
2907.8643,2442.8851020641546
2908.9801,2458.079440278918
2910.0953,2469.2363153244023
2911.2098,2445.455709564427
2912.3236,2455.137580670447
2913.4368,2423.13186185936
2914.5494,2392.238461796691
2915.6613,2360.207264916644
2916.7725,2301.5381317310394
2917.8831,2268.7308991496257
2918.9931,2243.9353810667694
2920.1024,2199.9013686895305
2921.211,2185.1286307856126
2922.319,2173.216914123709
2923.4264,2146.3659436212247
2924.5331,2142.725422463397
2925.6391,2143.7450323718026
2926.7445,2159.3744336407653
2927.8493,2136.013265127159
2928.9534,2142.011144094112
2930.0569,2145.117666444622
2931.1597,2166.2324066615743
2932.2619,2193.254917776679
2933.3634,2174.484731159321
2934.4643,2190.121356246339
2935.5645,2202.614280729721
2936.6641,2181.1629704002453
2937.763,2177.7168690225467
2938.8613,2135.82539854963
2939.959,2103.5379591573333
2941.056,2032.5039296632385
2942.1523,1971.022667849552
2943.248,1890.6435111734381
2944.3431,1788.6657773818354
2945.4375,1699.0387653152484
2946.5313,1559.0117559275234
2947.6244,1458.634013182119
2948.7169,1358.7047854523776
2949.8087,1255.7233065253008
2950.8999,1160.3887966008435
2951.9904,1084.7504633217272
2953.0803,998.8575027267854
2954.1696,926.1091000073484
2955.2582,880.6544303661709
2956.3462,831.2926597449173
2957.4335,785.0729452787078
2958.5202,753.1444357897366
2959.6062,724.6062722494682
2960.6916,701.9075880979237
2961.7764,682.1975095290611
2962.8605,672.3751557177629
2963.9439,667.1396390169374
2965.0267,661.3400650557408
2966.1089,653.9255327919338
2967.1905,656.1951345698766
2968.2714,636.6479561946746
2969.3516,657.7330769094823
2970.4312,669.6495695909746
2971.5102,678.6465005384964
2972.5885,683.7229293548967
2973.6662,692.1279088565602
2974.7432,699.4104850226424
2975.8196,708.91969691102
2976.8954,690.8545765854651
2977.9705,688.2141490205531
2979.045,683.5974322823145
2980.1188,677.4034375546373
2981.192,656.5811691854365
2982.2645,649.4296247485925
2983.3364,620.8477952521739
2984.4077,594.2346652099541
2985.4783,574.9392129272285
2986.5483,541.9104107669457
2987.6177,513.5972253426631
2988.6864,482.4986178488342
2989.7545,442.1135443439405
2990.8219,403.4409560614772
2991.8887,372.1797998138044
2992.9548,332.97901837887247
2994.0204,291.03755081283407
2995.0852,269.404332842052
2996.1495,237.87829728251342
2997.2131,218.15837425616292
2998.276,187.84349150616202
2999.3383,161.08257459408838
3000.4,144.72454720308582
3001.4611,112.81833140547207
3002.5215,104.01284782631996
3003.5812,79.8570159625184
3004.6404,60.29975427082866
3005.6989,54.839980409441694
3006.7567,47.02661143355118
3007.8139,29.008563849951315
3008.8705,23.33475369517072
3009.9264,18.054096715652236
3010.9818,6.115508424491679
3012.0364,7.967904154243854
3013.0905,4.010199176309186
3014.1439,-5.158691317591149
3015.1966,-6.339852175837564
3016.2487,-12.984316711484098
3017.3002,-14.043054902461904
3018.3511,-8.16690701337825
3019.4013,-13.206573018722054
3020.4509,-16.41267130558151
3021.4998,-13.135688327380535
3022.5481,-7.525946574957175
3023.5958,-3.883637313623467
3024.6428,-7.058876624485038
3025.6892,-6.651741791111249
3026.735,-1.7622395788943663
3027.7802,-0.040310302326531655
3028.8247,-0.535876671126573
3029.8685,6.801139007686402
3030.9118,6.620819780501222
3031.9544,14.123248625695794
3032.9963,24.008508455439994
3034.0376,19.426682040671608
3035.0783,30.777851912243364
3036.1184,31.712100406741456
3037.1578,47.6795095529738
3038.1966,43.83016106262744
3039.2348,56.21413617059466
3040.2723,56.98151567346582
3041.3092,63.13237980569005
3042.3455,61.76680823190151
3043.3811,67.08487998541068
3044.4161,67.63667348186021
3045.4505,75.97226646604389
3046.4842,63.941736006388794
3047.5173,80.6451584115996
3048.5498,71.28260935096375
3049.5816,77.40416368731718
3050.6128,77.9598955706698
3051.6434,80.04987837698997
3052.6734,78.72418470264716
3053.7027,83.23288634351212
3054.7314,81.22605430821403
3055.7594,81.55375877305329
3056.7868,85.21606910207004
3057.8136,83.61305384376658
3058.8398,85.94478069448462
3059.8653,91.61131651443577
3060.8902,91.51272730438347
3061.9145,89.49907814897858
3062.9381,89.62043321774456
3063.9612,97.52685578521431
3064.9835,90.11840822971664
3066.0053,89.99515195431172
3067.0264,89.40714746087602
3068.0469,97.05445435133464
3069.0668,96.08713133354149
3070.086,95.15523614480591
3071.1046,87.75882556156608
3072.1226,82.49795540870787
3073.1399,83.32268063352893
3074.1567,78.28305535834747
3075.1727,73.82913287225466
3076.1882,67.71096568151145
3077.203,63.47860555408772
3078.2173,60.73210358084367
3079.2308,55.271510217853404
3080.2438,49.646875313870225
3081.2561,42.90824816493236
3082.2678,44.205677570609566
3083.2789,41.58921190138906
3084.2893,34.608899085701694
3085.2991,30.364786636086023
3086.3083,28.406921718991782
3087.3169,23.235351197221007
3088.3248,21.800121649506593
3089.3321,16.80127942222805
3090.3388,14.688870643763664
3091.3449,14.462941274478936
3092.3503,13.473537127850989
3093.3551,7.370703872727347
3094.3593,11.204487043220468
3095.3629,9.374932099735872
3096.3658,6.732084390634242
3097.3681,6.0759891705272935
3098.3698,0.9566916267059185
3099.3708,0.02423688570138438
3100.3713,6.628670064477745
3101.3711,4.870036037872808
3102.3702,-1.7016203855623075
3103.3688,-0.9862544459768969
3104.3667,1.7661956156674137
3105.364,-1.4441985889092166
3106.3607,-0.21736546564861214
3107.3568,2.6967810070513565
3108.3522,3.24832902227368
3109.347,4.687366746133563
3110.3412,3.263982312263124
3111.3348,0.878263807420808
3112.3277,3.630299285725357
3113.32,-0.32982320748692473
3114.3117,-0.3520156631827831
3115.3028,2.363813222604932
3116.2932,3.4677582704797487
3117.2831,1.45991427740708
3118.2723,-0.7096239943251703
3119.2608,3.7092382029718465
3120.2488,-0.23339729386950125
3121.2361,2.7625713148910336
3122.2229,1.1972481606325687
3123.209,1.0207373471084509
3124.1944,0.0331429660995326
3125.1793,6.384569099179345
3126.1635,4.22511949682314
3127.1471,7.404897845660514
3128.1301,5.624007790069882
3129.1125,7.0325529003807645
3130.0942,6.480636690682729
3131.0753,8.21836260473981
3132.0558,6.695834021509853
3133.0357,4.113154237767105
3134.015,6.570426483327566
3134.9936,10.967753946875604
3135.9716,9.855239751391494
3136.949,11.232986910177942
3137.9258,11.651098337985431
3138.902,13.50967683723458
3139.8775,13.15882509383512
3140.8524,13.99864565860004
3141.8267,14.179240950754263
3142.8004,12.250713249536247
3143.7735,17.263164692392166
3144.7459,17.166697294261226
3145.7178,17.661412897450973
3146.689,17.697413172602026
3147.6596,15.924799613740817
3148.6295,19.193673537919793
3149.5989,20.354136102943386
3150.5676,18.456288274679295
3151.5357,19.350230815453898
3152.5032,21.2360643030307
3153.4701,21.013889121671014
3154.4364,21.933805443275475
3155.402,22.495913229605918
3156.367,24.150312223086132
3157.3315,24.69710194118082
3158.2952,27.286381659851614
3159.2584,25.76825040808913
3160.221,30.992806942020266
3161.1829,26.61014976008937
3162.1442,25.820377050812816
3163.105,30.073586736605478
3164.065,28.7698764816785
3165.0245,31.409343649507257
3165.9834,35.292085315868306
3166.9416,37.218198242444835
3167.8993,38.38777883799915
3168.8563,38.20092313911167
3169.8127,37.957726798485
3170.7684,38.258285086812506
3171.7236,38.55269289521029
3172.6782,37.54104473221166
3173.6321,40.223434720822986
3174.5854,38.14995660864018
3175.5381,45.670703741024866
3176.4902,46.28576908183903
3177.4417,44.14524513823774
3178.3926,44.64922395451835
3179.3428,43.29779713352582
3180.2924,47.59105583161286
3181.2415,46.679090772154254
3182.1899,45.1619922026142
3183.1377,47.63984990366599
3184.0848,53.61275320436302
3185.0314,52.680790957360195
3185.9773,50.54405147918489
3186.9227,54.30262255955658
3187.8674,54.75659148275427
3188.8115,52.956044990030705
3189.755,53.85106927507272
3190.6979,54.54175000200674
3191.6402,57.02817229644848
3192.5818,58.9104207385962
3193.5229,60.18857933836644
3194.4633,60.1627315165715
3195.4031,58.782960092137955
3196.3423,59.59934728236506
3197.2809,60.66197471672245
3198.2189,62.37092342868627
3199.1563,63.32627384511299
3200.0931,67.27810576914978
3201.0292,66.7764983706811
3201.9648,68.67153014681037
3202.8997,68.76327892687598
3203.834,68.60182185350106
3204.7677,69.18723538167593
3205.7008,72.96959528037269
3206.6333,70.09897662669108
3207.5652,75.62545376803489
3208.4964,75.19910035081816
3209.4271,71.81998926520032
3210.3571,74.93819264934989
3211.2865,77.20378192323543
3212.2154,75.36682775744356
3213.1436,75.97740005052313
3214.0712,77.53556794735462
3214.9982,78.2413998330446
3215.9246,80.49496331734386
3216.8503,80.34632522758922
3217.7755,82.84555158616789
3218.7001,86.54270761200377
3219.624,83.13785769556526
3220.5473,88.23106536189371
3221.4701,86.87239330465184
3222.3922,85.71190333519174
3223.3137,90.19965639614152
3224.2346,88.38571257301032
3225.1549,91.27013104931063
3226.0746,92.90297012469787
3226.9937,90.48428718612607
3227.9121,93.86413869151954
3228.83,92.1925801939598
3229.7473,92.41966630788684
3230.6639,94.24545072581488
3231.5799,98.56998621606145
3232.4954,98.19332460448963
3233.4102,100.76551673126255
3234.3244,99.38661245461012
3235.238,103.60666062510707
3236.151,101.87570909946197
3237.0634,103.39380469831684
3237.9752,102.21099322355654
3238.8864,102.72731944312787
3239.797,103.04282710286768
3240.7069,105.25755892133955
3241.6163,105.97155658667884
3242.5251,106.4348607344453
3243.4332,109.94751094048303
3244.3408,109.95954571628752
3245.2477,107.57100247387919
3246.154,111.78191752568286
3247.0598,110.79232610841336
3247.9649,110.55226234096628
3248.8694,117.56175923431394
3249.7733,114.02084869390599
3250.6766,116.82956144957453
3251.5793,118.63792709094307
3252.4814,115.9459740393396
3253.3829,114.35372952971267
3254.2838,118.2112196375512
3255.1841,121.26846929480669
3256.0838,121.7755022513185
3256.9829,120.93234104424118
3257.8814,121.03900699297421
3258.7792,121.39552020759362
3259.6765,124.05189958778537
3260.5731,122.85816281928005
3261.4692,122.86432634728934
3262.3647,125.27040538844317
3263.2595,123.32641393072811
3264.1538,128.73236470942666
3265.0474,124.53826922655712
3265.9404,123.99413769681402
3266.8329,127.54997908950921
3267.7247,128.555801134013
3268.616,129.76161028419588
3269.5066,129.86741170837035
3270.3966,128.87320927723266
3271.286,128.32900556280492
