RamanShift,CorrectedData
30.1047,1186.3380561862186
32.3739,1098.821229179563
34.6426,1017.7543903095268
36.9109,931.9375167245171
39.1787,844.0205753953969
41.4461,760.0035239736538
43.7131,677.6363116705695
45.9796,595.6188800973898
48.2456,508.30116408899727
50.5112,426.0330925240848
52.7764,342.5645891983338
55.0411,261.39557364709447
57.3054,176.17596198007092
59.5692,95.30566769301153
61.8326,13.584602519905019
64.0955,-64.98732275831667
66.3579,-143.06019749656747
68.6199,-220.3834618264072
70.8815,-276.05512670802267
73.1426,-287.0710014708174
75.4032,-182.824137653479
77.6634,207.04528104460917
79.9231,1256.9488973371986
82.1824,3620.5983518675885
84.4412,7962.305272709588
86.6995,13952.531251731025
88.9574,19795.937801176675
91.2148,23795.936293766
93.4717,25507.487904259087
95.7282,25740.60356945666
97.9842,25482.143971084563
100.2398,24748.069533462607
102.4949,23985.39042608916
104.7495,23109.96657098191
107.0036,22105.457650304616
109.2573,21251.173115121393
111.5105,20398.822195441775
113.7632,19569.41390876356
116.0154,18890.307068596332
118.2672,18321.710292755535
120.5185,17815.68201015354
122.7693,17343.230466485627
125.0197,16939.063729290243
127.2696,16585.839692673537
129.519,16318.81608135103
131.7679,15984.600454179832
134.0163,15666.80020682891
136.2642,15344.522575121218
138.5117,15018.174638211709
140.7587,14616.413321810123
143.0052,14277.745401444443
145.2512,13909.527506478531
147.4967,13567.416123498784
149.7417,13312.717599996335
151.9863,13072.18814778815
154.2304,12901.283845564021
156.4739,12676.11064129187
158.717,12505.474353926771
160.9596,12223.9806756627
163.2017,11904.88517363889
165.4433,11535.893292754768
167.6844,11113.960358860912
169.925,10722.141582448963
172.1651,10280.74206287097
174.4047,9891.066792257554
176.6439,9554.970659931929
178.8825,9269.908456306632
181.1206,9024.13487624451
183.3582,8764.154521909315
185.5954,8573.321905223456
187.832,8415.791450467797
190.0681,8301.617496189985
192.3037,8216.454296779753
194.5388,8149.856023610671
196.7734,8072.076765891756
199.0075,8060.870531333472
201.2411,8103.441246925518
203.4742,8101.492759048889
205.7068,8200.678833050168
207.9389,8234.90315326102
210.1704,8282.319322006324
212.4015,8355.030859261919
214.632,8438.341202180465
216.862,8541.903704364307
219.0915,8598.921635032388
221.3205,8711.698177984608
223.549,8856.236431031663
225.777,9010.989404867263
228.0044,9237.460021622755
230.2314,9542.8011133196
232.4578,9785.115419604652
234.6837,10037.70558469676
236.909,10113.574154963626
239.1339,10009.523576395895
241.3582,9801.356193848476
243.582,9455.02425208105
245.8053,9121.179897839731
248.0281,8790.675183320402
250.2503,8574.212069507135
252.472,8384.992429477272
254.6932,8351.36805056603
256.9139,8262.840636258705
259.134,8284.811806526923
261.3536,8288.733098713905
263.5727,8347.505967314748
265.7912,8344.131783937231
268.0092,8427.711836714068
270.2267,8400.047330336656
272.4436,8336.889385219289
274.6601,8249.389037775774
276.8759,8109.997241051036
279.0913,8006.364865596116
281.3061,7825.792700862083
283.5204,7769.681456236361
285.7341,7736.381762848455
287.9473,7795.794174131053
290.16,7934.719166153037
292.3721,8159.657137025347
294.5837,8436.358405511739
296.7947,8709.623208779396
299.0052,8846.751699631925
301.2152,8690.693943776698
303.4246,8350.249918453577
305.6334,7773.219513995486
307.8418,7237.002537232858
310.0495,6779.09871726394
312.2568,6358.457710816949
314.4635,6052.979106829127
316.6696,5824.662430653138
318.8752,5690.357147111863
321.0802,5657.612662781565
323.2847,5640.978327334937
325.4887,5686.403433868545
327.692,5602.387219069178
329.8949,5450.8788627595895
332.0972,5164.777488738666
334.2989,4885.2821662965125
336.5001,4537.0419130754635
338.7007,4305.65569786503
340.9008,4120.972444084306
343.1003,3934.7910320958363
345.2992,3834.7603010524526
347.4976,3717.4290507590686
349.6955,3669.646042673001
351.8927,3650.1100010772843
354.0895,3610.269613558494
356.2856,3571.7735312021123
358.4812,3498.0203689909304
360.6763,3499.6087061900034
362.8707,3452.8370870841936
365.0646,3432.854020962286
367.258,3416.7079825847013
369.4508,3435.547412383321
371.643,3474.970716622949
373.8346,3453.476267212918
376.0257,3435.562401312858
378.2162,3351.677421547636
380.4062,3241.919596186497
382.5956,3089.287159981921
384.7844,2940.078315267194
386.9726,2829.0912334827462
389.1603,2705.1740566682274
391.3474,2632.624898572385
393.5339,2582.4418458922155
395.7199,2515.3729589984814
397.9052,2503.3162724375234
400.09,2495.4197956019543
402.2743,2591.381512851236
404.4579,2657.849383590632
406.641,2805.0213413115907
408.8235,2983.045292927063
411.0054,3204.519117299804
413.1868,3523.990663462113
415.3675,3741.007748401098
417.5477,3886.718153863976
419.7273,3852.91962418788
421.9064,3748.409864842768
424.0848,3609.8365427694134
426.2627,3413.0472874244806
428.4399,3087.739692166284
430.6166,2710.86131622267
432.7928,2324.5596879440927
434.9683,1989.5323085724067
437.1432,1758.8266561038727
439.3176,1563.8901886394233
441.4914,1438.9203466917388
443.6645,1415.0645551345897
445.8371,1328.2702244525535
448.0091,1242.4847509795636
450.1806,1190.905517766847
452.3514,1167.4298954407986
454.5216,1159.605242718757
456.6913,1098.02890664376
458.8603,1106.7982226627919
461.0288,1126.8605152425607
463.1967,1131.9630977817924
465.3639,1186.8032724106033
467.5306,1246.3783299394872
469.6967,1344.635549310915
471.8622,1432.922197003576
474.0271,1517.235526049808
476.1914,1583.572775152743
478.3551,1561.631167843152
480.5182,1563.957911816089
482.6807,1582.6001991503072
484.8426,1674.705206284978
487.0039,1966.6200938332768
489.1647,2332.3920056613406
491.3248,2718.368065969107
493.4843,2882.645375632601
495.6432,2844.621008344171
497.8015,2713.842008969721
499.9592,2660.355393928947
502.1163,2574.108152503126
504.2728,2289.7472473699963
506.4287,2000.1196154662102
508.5839,1583.7721708309546
510.7386,1263.0518075022264
512.8927,1113.4554036803056
515.0461,1010.9298249349577
517.199,1024.7719257013923
519.3512,1062.178550305527
521.5029,1187.246532825564
523.6539,1306.3226967179216
525.8043,1356.3538535665539
527.9541,1348.586801892201
530.1033,1278.5183266520562
532.2519,1238.945199317459
534.3999,1311.8641785745785
536.5472,1510.3220107201305
538.694,1892.6154289321985
540.8401,2349.5911512856437
542.9856,2755.5458769291854
545.1305,2886.5262815156384
547.2748,2748.429013142364
549.4185,2426.650691041461
551.5615,2145.8379069607454
553.704,2038.5372283815323
555.8458,2041.045201326764
557.987,2123.008351434004
560.1276,2161.523183930374
562.2675,2296.5361828129244
564.4069,2492.7438104634766
566.5456,2639.7925062984905
568.6837,2644.4286848070005
570.8212,2296.5487340801137
572.958,1856.2990157646655
575.0942,1433.1758685420082
577.2299,1197.3756125305117
579.3648,1110.7445535167808
581.4992,1142.3289853136794
583.6329,1326.3751906266261
585.766,1535.529440737755
587.8985,1645.8879936654503
590.0304,1665.3970920728025
592.1616,1587.202962164025
594.2922,1486.9018134893631
596.4222,1324.7398397270408
598.5515,1155.4132196862574
600.6802,974.5181189288305
602.8083,801.2006914624453
604.9358,778.407081549607
607.0626,720.9334254408259
609.1888,758.4758516025431
611.3144,802.2304812918755
613.4393,760.4434281811846
615.5636,694.0107979205422
617.6873,679.9786885555932
619.8103,618.6931911918782
621.9327,501.15039013515525
624.0544,408.1963635042557
626.1756,321.72718440651624
628.2961,250.48892186731064
630.4159,181.47764169475522
632.5351,147.43940719207603
634.6537,92.67027984772176
636.7716,98.56631967575777
638.8889,127.22358576354418
641.0056,145.3381362127784
643.1216,112.15602785292867
645.237,141.92331606009066
647.3518,101.88605508879846
649.4659,85.54029777436517
651.5793,115.23209593326101
653.6922,67.8075005265564
655.8043,87.71256136300144
657.9159,86.69332757327902
660.0268,16.14584741095132
662.137,-13.583831737347282
664.2466,-23.499662646432625
666.3556,-35.85546238863935
668.4639,-45.15481327467933
670.5716,-29.55093941919222
672.6786,25.20338615975379
674.785,38.65568565796639
676.8907,80.75348101923373
678.9958,156.79429380077454
681.1002,142.825644752289
683.204,106.59505305553103
685.3072,87.8000364640011
687.4097,58.08811166526539
689.5115,34.10679446887298
691.6127,27.103600103517238
693.7132,-36.87395654317879
695.8131,-70.17836085461931
697.9123,-33.761729843387
700.0109,-64.67547944024955
702.1089,-64.27068829630116
704.2061,-24.097788954608404
706.3028,5.743428105935891
708.3987,29.103413143353464
710.4941,109.88255903880963
712.5887,275.1312583824365
714.6827,495.89990266555833
716.7761,798.4888806281906
718.8688,1081.1985760513617
720.9608,1289.4793647312108
723.0522,1355.5316116518952
725.1429,1274.9556689027777
727.233,1110.2018750179232
729.3224,968.9205557818277
731.4112,774.2620258769839
733.4993,603.8265902966723
735.5867,450.4645462915687
737.6735,309.1261850740866
739.7596,202.0617933519934
741.845,108.12165474181165
743.9298,84.65605083945229
746.014,92.11526215960475
748.0974,109.09956837041864
750.1802,105.25924821889748
752.2624,126.64457936105282
754.3439,152.70583840031213
756.4247,247.24330067366645
758.5048,414.8072399910616
760.5843,682.5979276900161
762.6631,1025.3656309599755
764.7413,1536.0106101644087
766.8188,2171.933115413138
768.8956,2695.933381455876
770.9718,2994.7616213230194
773.0473,2905.2680210856324
775.1221,2579.952736867166
777.1962,2280.3158957383985
779.2697,2080.907598970587
781.3426,2138.0279250318254
783.4147,2350.326931581143
785.4862,2605.1546548972983
787.557,2554.7111077557747
789.6271,2190.946276880528
791.6966,1633.5101234484027
793.7654,1086.5525867267934
795.8335,740.1235896479848
797.901,506.7230442787459
799.9678,423.40085528462623
802.0339,400.00692226394494
804.0993,397.9911405810326
806.1641,424.3534016001504
808.2282,372.44359270566747
810.2916,286.91159703841186
812.3544,188.35729401478784
814.4164,102.28056018208008
816.4778,160.48127020401262
818.5385,174.90929772149684
820.5986,300.16451477064584
822.658,454.84679163847613
824.7166,641.2059956103694
826.7747,976.6419894232477
828.832,1267.3546294019689
830.8886,1523.693762104991
832.9446,1681.1592214172197
834.9999,1639.300825986631
837.0545,1558.168377649612
839.1085,1444.861661849549
841.1618,1323.5804484481432
843.2143,1235.57449285849
845.2662,1119.3435372578806
847.3175,1042.8873114678681
849.368,957.955534116576
851.4179,837.5979134032568
853.467,711.6641479476148
855.5155,650.8539279933866
857.5633,569.6669366676724
859.6105,474.0528505890452
861.6569,400.96134067941057
863.7027,355.6420731201488
865.7478,327.0947100830381
867.7922,334.91891018343995
869.8359,358.51432876577564
871.8789,457.68061782528093
873.9212,606.667425772057
875.9629,745.6743964393972
878.0039,894.5011675939313
880.0441,1042.447369545549
882.0837,1099.8626236591372
884.1226,1026.796540875117
886.1609,979.7987211352774
888.1984,944.4687541134535
890.2352,1020.9562196855022
892.2714,986.4606882825883
894.3069,976.781720126326
896.3416,875.4188655737289
898.3757,808.9216652139894
900.4091,790.6896508821155
902.4418,815.5723463239101
904.4739,841.5192673782803
906.5052,864.5299217284082
908.5358,818.0538086423021
910.5658,663.0904187426677
912.595,489.5392344716747
914.6236,297.59973164060466
916.6515,267.0713811653495
918.6786,240.20365098580987
920.7051,268.296006371178
922.7309,380.39791018861433
924.756,454.8588226223201
926.7804,528.3282000525269
928.8041,512.7554943108698
930.8272,546.9401519457115
932.8495,532.9316143778651
934.8711,498.6793175587409
936.892,383.2826921104406
938.9123,319.7411636682682
940.9318,244.90415403471707
942.9506,184.921081814864
944.9688,129.34136316475997
946.9862,88.91441239124106
949.003,-7.460357492267576
951.019,-21.03353436148427
953.0344,-41.755631563155475
955.0491,0.523047680973832
957.063,70.65261728790574
959.0763,165.73319116942002
961.0888,204.66488253076932
963.1007,321.44780291987263
965.1119,370.3320618380185
967.1223,403.4677655720134
969.1321,400.5550167053498
971.1412,418.19391378684486
973.1495,471.2345513597629
975.1572,456.82701978544355
977.1641,551.871404712876
979.1704,502.41778722278286
981.1759,518.2662428771837
983.1808,584.2668422139195
985.1849,638.0696505881788
987.1884,776.6747275124872
989.1911,886.4821261186717
991.1932,1052.7918917718143
993.1945,1104.9540609721917
995.1951,1071.6686596921572
997.1951,1066.6357028545335
999.1943,973.2051946654683
1001.1928,956.0271286647476
1003.1906,1016.051488660114
1005.1877,1083.4782488990477
1007.1841,1088.1573734685226
1009.1798,1087.3388156207257
1011.1748,955.3725177262822
1013.1691,777.9584112824323
1015.1627,568.5464182326959
1017.1556,381.536452741022
1019.1477,288.2784232858885
1021.1392,225.82223453042025
1023.1299,192.71778825496222
1025.12,228.01498398163312
1027.1093,303.913719305383
1029.0979,425.36388954102404
1031.0859,481.1153869642312
1033.0731,518.8680995970499
1035.0596,465.2719106503773
1037.0454,343.4266981464316
1039.0304,254.13233545471485
1041.0148,138.58869251046235
1042.9985,47.84563670760144
1044.9814,18.353034054172895
1046.9636,-40.48924992022694
1048.9452,-47.18134986953737
1050.926,0.02700403992093925
1052.9061,21.33655298350277
1054.8855,30.848038136295145
1056.8642,76.46220046003327
1058.8421,159.7297806079696
1060.8194,183.50151846873814
1062.7959,228.278152333678
1064.7717,271.8604186591165
1066.7469,330.1990516185924
1068.7213,348.49478266705046
1070.695,405.0483399574514
1072.6679,391.710448157819
1074.6402,360.3818278856943
1076.6117,327.8631958415099
1078.5826,293.25526512189754
1080.5527,280.00874554485017
1082.5221,347.07434399581325
1084.4908,438.6527645601491
1086.4587,586.4447078524681
1088.426,715.6008701008559
1090.3925,729.4719416689604
1092.3584,698.2586057644148
1094.3235,646.1115383001452
1096.2879,610.5814082064899
1098.2515,665.718877952686
1100.2145,768.0246039021604
1102.1767,908.6492357611642
1104.1382,1103.3934155557072
1106.099,1323.6077762253171
1108.0591,1593.4929396755906
1110.0185,1732.6995145760447
1111.9771,1756.0280936612762
1113.9351,1644.7792523388798
1115.8923,1402.4535484561875
1117.8488,1147.201523412732
1119.8045,917.9237045835162
1121.7596,811.3206078715302
1123.7139,754.0427400005337
1125.6675,758.3405995810826
1127.6204,812.0646776833146
1129.5726,790.515457793972
1131.524,768.9934152791448
1133.4748,697.6490175997842
1135.4248,636.2827245269073
1137.3741,581.2949888550429
1139.3226,499.9862570159021
1141.2705,489.40696962824586
1143.2176,410.60756231098276
1145.164,406.53846578895536
1147.1097,417.800106680932
1149.0546,373.242907540307
1150.9989,300.91728674248407
1152.9424,196.22365893043025
1154.8852,59.412435737953274
1156.8272,-23.515973163379385
1158.7686,-19.26115869611749
1160.7092,-37.22247685824368
1162.6491,-20.699091228774705
1164.5883,82.56020646580873
1166.5267,192.2068312829506
1168.4644,357.2921974544952
1170.4014,544.0177172902258
1172.3377,801.1847995269982
1174.2732,1058.8948474615008
1176.2081,1369.8492563785803
1178.1421,1710.1494109741398
1180.0755,2089.2966822455874
1182.0082,2284.6424240888427
1183.9401,2356.737969506865
1185.8713,2220.284628656187
1187.8017,1998.1336881259685
1189.7315,1716.6364123025269
1191.6605,1387.0940455908512
1193.5888,1191.5078152295682
1195.5163,1067.5289345863657
1197.4432,973.8086051138616
1199.3693,980.6480175893848
1201.2947,924.098353052188
1203.2193,934.0607827350505
1205.1432,953.9864686297715
1207.0664,963.1265633875573
1208.9889,1005.9822101197442
1210.9106,1017.4045423064108
1212.8316,1047.8446833678154
1214.7519,1115.7537465501719
1216.6715,1159.782834621261
1218.5903,1209.0830391913296
1220.5084,1208.1554402727888
1222.4257,1279.6011057872292
1224.3424,1264.2210915746819
1226.2583,1348.3664406791777
1228.1735,1455.6381835025386
1230.0879,1587.5373369629287
1232.0016,1753.1649034221282
1233.9146,1793.571869366553
1235.8269,1743.6092037509752
1237.7384,1649.0278575944521
1239.6492,1481.4787644799526
1241.5592,1443.2628415001727
1243.4686,1406.9809909330252
1245.3772,1484.5841006237897
1247.285,1533.8730443479417
1249.1922,1552.1986810351136
1251.0986,1619.4618542762073
1253.0042,1647.7633921401502
1254.9092,1721.6541065012552
1256.8134,1814.4847927562078
1258.7169,1980.806229085154
1260.6196,2154.8191755233966
1262.5216,2364.2243722981802
1264.4229,2564.2725380885586
1266.3234,2753.364367931341
1268.2232,2886.9005312206227
1270.1223,2893.8816698168557
1272.0207,2929.958396711485
1273.9183,2921.631295957146
1275.8151,2856.3009223068784
1277.7113,2824.8178012974186
1279.6067,2805.432429902492
1281.5014,2805.195276847646
1283.3953,2913.5067828041065
1285.2885,3077.6673603911586
1287.181,3299.2273930930205
1289.0727,3528.3372336172342
1290.9637,3691.9472016790733
1292.854,3889.807581710451
1294.7435,3962.368621223808
1296.6323,4060.0805288335214
1298.5204,4160.543473530286
1300.4077,4285.907583703987
1302.2943,4331.6229461390885
1304.1802,4268.6396047609705
1306.0653,4033.3075601788023
1307.9497,3763.7267703153484
1309.8333,3534.347152760305
1311.7162,3385.7185874661045
1313.5984,3369.5909190416987
1315.4798,3352.8639582388714
1317.3605,3364.337482113493
1319.2405,3427.161234192801
1321.1197,3309.9349243606594
1322.9982,3128.1082282293246
1324.876,3027.330788311705
1326.753,2868.8522158396318
1328.6293,2825.522091771636
1330.5048,2794.239968377732
1332.3796,2720.70536967272
1334.2537,2673.417791729008
1336.127,2654.476703411953
1337.9996,2648.531546852736
1339.8714,2635.0817376377818
1341.7426,2631.9766648682
1343.6129,2673.265691294295
1345.4826,2644.0981533466047
1347.3515,2655.123360723019
1349.2196,2645.3905966804496
1351.087,2680.299117924581
1352.9537,2738.9981547072002
1354.8197,2871.536910477108
1356.6849,3045.2645612931274
1358.5493,3213.8802544987184
1360.4131,3326.583106984698
1362.276,3323.922203503087
1364.1383,3270.846595540078
1365.9998,3067.9553013426485
1367.8606,2752.5973064493073
1369.7206,2440.7715657190183
1371.5799,2201.6770064847797
1373.4384,1989.1625316718755
1375.2962,1813.5270221888231
1377.1533,1572.2193390525135
1379.0096,1278.5383251445755
1380.8652,987.0328076244396
1382.7201,736.651600866162
1384.5742,509.99350937346753
1386.4275,371.2073302835706
1388.2802,253.59185563375559
1390.132,169.6458737492312
1391.9832,100.46817041929353
1393.8336,60.207529736784636
1395.6832,41.11273478986732
1397.5322,19.53256806463378
1399.3803,24.615811636044782
1401.2278,6.111247383747468
1403.0745,47.16765694123569
1404.9204,37.08382188089308
1406.7656,62.6085233034255
1408.6101,102.14054193870834
1410.4538,147.97865789053049
1412.2968,222.87165024128262
1414.139,267.2182965935772
1415.9805,398.9673723213109
1417.8213,493.71765012619926
1419.6613,601.9678987202869
1421.5006,811.016881878445
1423.3391,1072.9133573558674
1425.1769,1385.0560747975796
1427.0139,1866.1937731194776
1428.8502,2437.175177386898
1430.6858,3007.0989940032523
1432.5206,3440.4639050001942
1434.3547,3682.8185623383924
1436.188,3750.4615835738814
1438.0206,3686.891549434512
1439.8524,3541.1070031435265
1441.6835,3421.4564510552564
1443.5139,3349.0883641129676
1445.3435,3328.851179045362
1447.1724,3317.4432990902615
1449.0005,3251.2130941969763
1450.8279,3181.9589011403896
1452.6545,3175.2790241832545
1454.4804,3262.8717357687456
1456.3056,3223.4852765872465
1458.13,3180.067854700429
1459.9536,2988.217645935112
1461.7766,2703.232794317445
1463.5987,2346.011413991404
1465.4202,2013.5015920686446
1467.2409,1653.3013922007085
1469.0608,1410.3588579041298
1470.88,1174.122016162425
1472.6984,965.9388798555337
1474.5161,771.7574501221743
1476.3331,660.6757184416783
1478.1493,549.5916685758093
1479.9648,467.0532776795735
1481.7795,405.3085174120706
1483.5935,367.4553547618643
1485.4067,313.74175266444126
1487.2192,275.31567038073354
1489.031,257.27506403426287
1490.842,246.36788699539193
1492.6522,220.44209006173423
1494.4618,205.5456215672284
1496.2705,199.2764276413891
1498.0785,182.48245235827653
1499.8858,174.76163779919534
1501.6924,189.1119242206223
1503.4981,123.03125013142471
1505.3032,144.46755214935638
1507.1075,129.46876566186074
1508.911,141.13282461171457
1510.7138,83.25766164701145
1512.5159,57.74120800452056
1514.3172,37.581394088435445
1516.1178,16.97614972554038
1517.9176,6.1234043668091545
1519.7166,-8.478912706545088
1521.515,-20.382872274540205
1523.3126,-5.540460412861648
1525.1094,-6.2534595723072925
1526.9055,-34.87359685447427
1528.7008,-21.002536888903705
1530.4954,-48.29159591790176
1532.2893,-34.29188036843243
1534.0824,-32.90401423442381
1535.8747,-22.37827893391932
1537.6663,-20.764627173867666
1539.4572,-29.412788102215927
1541.2473,-3.822283428290575
1543.0367,10.5576589723305
1544.8253,13.92784940868387
1546.6132,48.28909808422759
1548.4003,72.99221506314188
1550.1867,145.5380099267186
1551.9723,215.42729152632546
1553.7572,287.56086725795376
1555.5414,372.43954236332775
1557.3247,477.76411920856026
1559.1074,576.7353964353733
1560.8893,690.15416790785
1562.6705,822.3712217227239
1564.4509,940.1373390751842
1566.2305,1017.3032929367146
1568.0094,1089.4698468774259
1569.7876,1132.237754294396
1571.565,1144.5077576900167
1573.3417,1164.3305882442965
1575.1176,1168.5569656921862
1576.8928,1163.137598125324
1578.6672,1132.5231819497749
1580.4409,1082.9644019402194
1582.2138,1019.4119315461048
1583.986,1012.3664333872257
1585.7575,987.078559889268
1587.5282,995.6989533542546
1589.2981,1033.5282462134255
1591.0673,1054.3670609410374
1592.8358,1137.8660096760677
1594.6035,1165.9756940138232
1596.3704,1241.446704170955
1598.1366,1335.079618704358
1599.9021,1431.47500375646
1601.6668,1513.6834121188967
1603.4308,1620.6553822685546
1605.194,1763.3414375454922
1606.9564,1968.3920850832174
1608.7182,2168.5578143818266
1610.4791,2359.189095257497
1612.2394,2599.636375840829
1613.9988,2851.750080670532
1615.7576,3082.0806082889576
1617.5156,3299.178328720961
1619.2728,3472.7435811705873
1621.0293,3550.3766718501056
1622.785,3507.227872244349
1624.54,3370.5974183343824
1626.2942,3180.0855110290004
1628.0477,2894.6923175310194
1629.8005,2664.2679732424076
1631.5525,2422.262584618211
1633.3037,2253.8762314708038
1635.0542,2116.608969389935
1636.804,2008.160831426594
1638.553,1965.381829465684
1640.3013,1966.0719553104973
1642.0488,1956.9811811105155
1643.7955,2016.8094593545038
1645.5416,2079.6567229614175
1647.2868,2209.0228846821155
1649.0313,2333.457836470894
1650.7751,2483.01144819182
1652.5181,2670.433566374386
1654.2604,2867.92401271797
1656.0019,3142.6325822176177
1657.7427,3434.859041189141
1659.4828,3726.603124522021
1661.222,3883.414532757155
1662.9606,3897.9929291694043
1664.6984,3687.7379381994906
1666.4354,3273.2991453082086
1668.1717,2771.576099078974
1669.9072,2259.2183153622136
1671.642,1823.9752822925948
1673.3761,1479.646465412604
1675.1094,1184.0313120249803
1676.8419,958.529254635996
1678.5737,789.7897139116158
1680.3048,679.1121009325088
1682.0351,568.4458188814542
1683.7646,493.0402641501105
1685.4934,415.4448274456827
1687.2215,402.30889454497265
1688.9488,330.9318470703347
1690.6754,308.8630626210388
1692.4012,284.80191548703806
1694.1263,264.3977768696577
1695.8506,239.0000151222066
1697.5742,224.1579959540186
1699.297,192.32108268443244
1701.0191,168.73863639120827
1702.7404,157.96001622889253
1704.461,142.23457966464866
1706.1808,113.11168258604084
1707.8999,106.29067945829047
1709.6182,110.17092361550749
1711.3358,90.2517673288985
1713.0527,78.68256176796149
1714.7688,61.26265719968069
1716.4841,74.24140310421444
1718.1987,75.4181483491011
1719.9126,44.942241059461594
1721.6257,42.06302860623691
1723.338,55.629857910947976
1725.0496,49.642075474486774
1726.7605,55.249027241452495
1728.4706,46.65005866001866
1730.18,29.34451462587367
1731.8886,36.38173956820674
1733.5964,31.06107762276133
1735.3036,23.231872561472755
1737.0099,22.74346784566569
1738.7156,28.39520670435104
1740.4204,11.936432139109456
1742.1246,-3.233513132428925
1743.8279,1.4847134880051271
1745.5306,-0.35951309852680424
1747.2325,-9.416818005803634
1748.9336,-15.937822756072364
1750.634,-17.273054797567056
1752.3336,-12.022882359678533
1754.0325,0.46249888601869316
1755.7307,-10.06698662345434
1757.4281,-4.711414455700378
1759.1247,12.729240390870473
1760.8206,6.855049984875677
1762.5158,3.466086267643732
1764.2102,2.2124211119553365
1765.9039,-10.105873644065468
1767.5968,-12.53872618441892
1769.289,-2.6859637354282313
1770.9804,0.9027117384566736
1772.6711,6.627625105564221
1774.361,13.589101225197737
1776.0502,-0.71253510961742
1777.7386,20.27304075825805
1779.4263,8.996160604185206
1781.1132,20.207156000798932
1782.7994,14.706358430777072
1784.4849,34.34409917472567
1786.1696,33.72070936618957
1787.8535,28.386519795272307
1789.5367,37.341860914872086
1791.2192,43.98706289402344
1792.9009,23.52245552834256
1794.5818,41.34836817357791
1796.2621,62.61512995025487
1797.9415,48.5230695654177
1799.6202,60.52251509995904
1801.2982,50.863794149538535
1802.9755,52.8472337045946
1804.6519,54.273160246928
1806.3277,50.64189972986969
1808.0027,58.05377756401958
1809.6769,68.70911865356038
1811.3504,66.90824732213969
1813.0231,63.701487206314596
1814.6951,67.73916127356279
1816.3664,82.47159185434884
1818.0369,89.69910060174334
1819.7067,92.82200834410469
1821.3757,84.04063501280143
1823.044,100.55529961098546
1824.7115,84.4663203014029
1826.3783,81.77401424124582
1828.0443,88.97869774304581
1829.7096,89.9806863015956
1831.3741,98.68029452190149
1833.0379,93.97783610916395
1834.701,97.27362378178123
1836.3633,113.31796931837334
1838.0248,110.2611835248249
1839.6856,112.9035760738393
1841.3457,116.94545553551279
1843.005,109.73712935090543
1844.6636,104.32890379162382
1846.3214,121.32108403190341
1847.9785,127.91397420269641
1849.6349,120.107877221742
1851.2904,124.00309472764366
1852.9453,136.04992715792923
1854.5994,131.09867371009523
1856.2528,139.9496322211421
1857.9054,136.40309921708422
1859.5572,148.00936982444227
1861.2083,147.5187378057053
1862.8587,159.68149544327207
1864.5084,169.49793354435678
1866.1572,162.21834131935884
1867.8054,148.09300628370102
1869.4528,150.0722143306225
1871.0994,159.35624987243727
1872.7453,173.8453958207383
1874.3905,159.73993349355624
1876.0349,165.79014247047053
1877.6786,170.04630073366206
1879.3215,178.5086846074114
1880.9637,154.02756871553765
1882.6051,182.05322589677326
1884.2458,165.13592744957577
1885.8858,190.27594285187297
1887.525,189.02353993023416
1889.1634,173.8789846084751
1890.8011,169.392540920177
1892.4381,170.16447116013387
1894.0743,181.595035929216
1895.7098,185.98449412664968
1897.3446,174.58310283571336
1898.9786,182.3411172798419
1900.6118,179.90879093664216
1902.2443,180.4863754603116
1903.8761,176.77412070596256
1905.5071,160.07227472384375
1907.1374,154.03108379646574
1908.7669,182.60079260561815
1910.3957,165.58164429278213
1912.0237,168.2238801734311
1913.651,173.2277399072259
1915.2776,164.74346147158894
1916.9034,174.62128111166749
1918.5285,168.21143342517462
1920.1528,164.51415126361007
1921.7764,163.82966579635922
1923.3992,159.55820654766876
1925.0213,152.9500014034902
1926.6427,149.70527665419286
1928.2633,110.47425706064905
1929.8832,186.80716588667747
1931.5023,159.90422529135503
1933.1207,147.11565556568803
1934.7383,162.09167540164344
1936.3552,164.58250202003137
1937.9714,157.0883510207459
1939.5868,144.55943635785843
1941.2015,134.54597041455918
1942.8154,126.39816412844493
1944.4286,133.8662270916543
1946.041,124.90036763234411
1947.6528,132.50079274000882
1949.2637,131.36770815514046
1950.8739,137.651318293224
1952.4834,130.2518262560693
1954.0921,127.5694337689738
1955.7001,132.00434125471656
1957.3074,130.9067478603847
1958.9139,112.57685141302318
1960.5197,111.61484843060907
1962.1247,114.9209343053517
1963.729,112.79530331331262
1965.3325,96.0881485813461
1966.9353,106.39966210835337
1968.5374,113.33003493235492
1970.1387,100.12945702737716
1971.7393,96.99811723414814
1973.3392,101.68620339209974
1974.9383,99.14390237068574
1976.5366,96.72140002249671
1978.1342,82.46888120868698
1979.7311,108.63652982319672
1981.3273,113.77452893527789
1982.9227,95.48306052781754
1984.5173,99.46230544595846
1986.1112,93.16244358001222
1987.7044,86.6336538256669
1989.2968,83.5761141469884
1990.8885,89.69000164170848
1992.4795,83.97549257179708
1994.0697,79.48276230232614
1995.6592,97.51198535861158
1997.2479,82.86333547114327
1998.8359,83.88698539529196
2000.4232,84.53310705779631
2002.0097,85.00187154652667
2003.5955,79.14344910402178
2005.1805,85.30800912280392
2006.7648,81.44572020396026
2008.3484,83.85675009549732
2009.9312,95.89126573096883
2011.5133,91.19943320535867
2013.0946,92.1314176547412
2014.6752,93.43738330319638
2016.2551,96.6674934534908
2017.8342,70.72191047401975
2019.4126,89.75079576650342
2020.9902,74.10431002544465
2022.5672,73.58261304783673
2024.1433,85.03586388963231
2025.7188,78.0642208709587
2027.2935,84.2178414615837
2028.8674,80.89688235063295
2030.4406,70.65149938505647
2032.0131,71.28184760283557
2033.5849,80.43808133543735
2035.1559,94.32035420151306
2036.7261,79.82881901533119
2038.2957,72.71362764795776
2039.8645,68.07493117217155
2041.4325,86.7628799336162
2042.9998,70.577623597188
2044.5664,82.06931096015524
2046.1323,74.68809011400799
2047.6974,83.63410832954787
2049.2617,88.30751213069561
2050.8254,79.2584472050321
2052.3883,90.68705835706396
2053.9504,89.44348959871559
2055.5118,76.12788403503964
2057.0725,75.34038387665669
2058.6325,76.43113057290975
2060.1917,72.75026481973782
2061.7502,79.4979265487691
2063.3079,74.47425496413143
2064.8649,82.47938847497107
2066.4212,75.16346474569355
2067.9767,66.47662061591154
2069.5315,81.6189921736036
2071.0856,71.79071484198175
2072.6389,76.8419232280703
2074.1915,66.42275122098545
2075.7433,51.03333194142624
2077.2945,56.573797845865556
2078.8448,43.59428088044524
2080.3945,59.7449124255686
2081.9434,66.57582342569867
2083.4916,66.18714422784979
2085.039,40.42900451327887
2086.5857,56.65153330137309
2088.1317,56.25485920722872
2089.677,62.33911027942804
2091.2215,47.20441400400614
2092.7652,59.05089724360687
2094.3083,49.82868638883201
2095.8506,64.18790723977418
2097.3921,66.92868509824211
2098.933,57.25114462416559
2100.4731,74.9554098081885
2102.0124,62.191604068444576
2103.5511,65.50985007351323
2105.089,75.36026987005835
2106.6261,69.29298484964738
2108.1626,65.35811565024528
2109.6983,72.55578221688802
2111.2332,76.43610384103067
2112.7675,65.69919908857219
2114.301,68.09518576105211
2115.8337,60.02418100301952
2117.3657,69.0863012780735
2118.897,67.98166244957156
2120.4276,70.81037969001045
2121.9575,61.87256749207222
2123.4866,76.06833964033672
2125.0149,61.79780930065817
2126.5426,63.5610888782071
2128.0695,62.65829016017756
2129.5956,61.28952429815513
2131.1211,67.55490181714299
2132.6458,69.80453262925062
2134.1698,69.78852597104014
2135.693,78.35699038102962
2137.2155,62.71003369985306
2138.7373,68.94776298457646
2140.2584,73.2702846651639
2141.7787,61.92770448210331
2143.2983,60.920127443180036
2144.8171,61.297657936903306
2146.3353,55.66039974258183
2147.8527,73.10845602654854
2149.3693,70.99192939853265
2150.8853,66.96092173718034
2152.4005,59.91553421121989
2153.9149,67.2558673197716
2155.4287,71.53202096279938
2156.9417,63.044094367709704
2158.454,59.642186046589586
2159.9655,52.626393881083686
2161.4764,58.89681515641723
2162.9865,55.10354663155158
2164.4958,66.89668447648069
2166.0045,65.92632431016386
2167.5124,65.49256108259397
2169.0195,61.045489084501924
2170.526,71.08520195169353
2172.0317,59.561792709522024
2173.5367,73.32535367248875
2175.0409,59.325976559477795
2176.5445,65.16375235612145
2178.0473,67.53877145479191
2179.5494,71.15112359622572
2181.0507,77.75089784577358
2182.5513,57.33818255727488
2184.0512,52.91306530706106
2185.5504,59.57563309808211
2187.0488,57.27597240415889
2188.5465,55.21416910335688
2190.0435,62.4403085009817
2191.5397,57.60447535019853
2193.0353,52.306753779769224
2194.5301,58.69722734241327
2196.0241,44.475979067781964
2197.5175,51.34309139855509
2199.0101,47.198646332654334
2200.502,54.54272535457062
2201.9931,42.87540947681009
2203.4835,51.7967791664521
2204.9733,40.206914461822635
2206.4622,50.00589488328092
2207.9505,51.69379954911801
2209.438,36.970707077566885
2210.9248,47.88669556992431
2212.4109,43.541842757781296
2213.8962,34.686225893861774
2215.3809,33.11992179547315
2216.8648,37.993006933062134
2218.3479,41.305557445876275
2219.8304,37.95764909323498
2221.3121,27.599357221403125
2222.7931,27.130756797071626
2224.2733,27.701922510937493
2225.7529,27.26292878239201
2227.2317,26.463849753807835
2228.7098,34.10475929492986
2230.1872,15.135731010864902
2231.6638,38.50683816567266
2233.1397,26.118153872055927
2234.6149,34.71975085764893
2236.0894,28.611701588904907
2237.5632,29.89407818507948
2239.0362,31.81695247931225
2240.5085,21.480396005801822
2241.9801,28.78447998057709
2243.4509,22.429275404864484
2244.921,25.1148529920456
2246.3904,11.5412832312104
2247.8591,17.408636360301898
2249.3271,9.116982501850543
2250.7943,15.86639160430127
2252.2608,21.706933524929582
2253.7266,17.838677962347447
2255.1917,17.811694398097643
2256.656,9.176052135337613
2258.1197,17.231820299108676
2259.5826,7.829067922693184
2261.0447,14.167863867054848
2262.5062,4.848276914867938
2263.9669,23.620375707127323
2265.4269,14.984180450542226
2266.8862,8.439711115618138
2268.3448,23.336987523020298
2269.8026,26.076029409015973
2271.2598,29.00685627650455
2272.7162,29.32948736762478
2274.1719,20.443941634449402
2275.6268,20.150237735754672
2277.0811,22.548394125878986
2278.5346,30.93842905765814
2279.9874,32.87036055844533
2281.4395,20.794206346211467
2282.8908,26.509983810224867
2284.3414,16.66771013181119
2285.7914,28.217402227197226
2287.2406,24.80907684593535
2288.689,24.042750455404075
2290.1368,21.768439274891534
2291.5838,25.33615928325935
2293.0302,27.6459262416854
2294.4758,23.097755657987136
2295.9206,31.44166276352348
2297.3648,35.52766255867664
2298.8082,39.50576972941485
2300.251,28.07599860642972
2301.693,37.83836312535641
2303.1343,32.842876941071154
2304.5748,32.23955333006643
2306.0147,27.978405240407483
2307.4538,25.909445297764478
2308.8922,28.932685848025358
2310.3299,25.148138977984217
2311.7669,31.70581648510847
2313.2031,27.055729915384745
2314.6387,30.9978904977429
2316.0735,37.03230919055545
2317.5076,24.60899664221597
2318.941,27.77796313079716
2320.3737,25.389218688279925
2321.8056,30.89277306886629
2323.2369,23.13863577286679
2324.6674,29.476815991665717
2326.0972,15.90732268526176
2327.5263,31.98016451888634
2328.9547,38.345349998698566
2330.3823,31.302887311054974
2331.8092,22.15278425885981
2333.2355,29.09504833198821
2334.661,25.129686798788043
2336.0858,30.206706636657145
2337.5098,31.526114571697917
2338.9332,43.23791702794574
2340.3558,35.892120114175896
2341.7778,37.23872950678469
2343.199,30.52775052324887
2344.6195,23.209188108658736
2346.0393,36.433046902825936
2347.4583,36.94933131347261
2348.8767,35.80804538398911
2350.2943,41.10919278827441
2351.7113,43.90277684214698
2353.1275,41.688800450334384
2354.543,39.767266078536295
2355.9578,51.08817577556533
2357.3718,42.751531192561515
2358.7852,34.007333469784044
2360.1978,41.05558331997827
2361.6098,47.24628111581592
2363.021,33.97942681941299
2364.4315,42.15501992042368
2365.8413,42.423059568708595
2367.2504,35.88354449257872
2368.6587,37.03647299611498
2370.0664,38.08184302456357
2371.4733,31.819652152806384
2372.8795,46.3498975749078
2374.285,32.572576166735644
2375.6899,40.83768434065928
2377.0939,38.395218183322186
2378.4973,33.045173372991485
2379.9,37.63754520398379
2381.3019,31.122328640163005
2382.7032,34.79951826901856
2384.1037,39.71910836681741
2385.5035,45.63109286183089
2386.9027,33.735465285140435
2388.3011,40.382218711516316
2389.6987,35.82134587837436
2391.0957,32.2028391193096
2392.492,26.626690409703315
2393.8876,22.692891402909936
2395.2824,21.40143348601714
2396.6765,28.90230781918399
2398.07,30.195505348556708
2399.4627,32.88101673125834
2400.8547,22.758832322458147
2402.246,26.628942148514398
2403.6366,26.941336008199414
2405.0265,21.396003433994792
2406.4156,27.542933688969697
2407.8041,33.63211582223266
2409.1918,27.613538607464307
2410.5789,31.98719048202406
2411.9652,35.85305960713663
2413.3508,23.961133824155013
2414.7358,29.761400615903312
2416.12,24.503847225593972
2417.5035,27.038460598826077
2418.8863,23.765227436160103
2420.2684,30.934134167772754
2421.6497,32.995166986187996
2423.0304,31.74831177458907
2424.4104,37.89355408620804
2425.7896,33.33087915679414
2427.1682,30.76027184316183
2428.546,29.231716668816944
2429.9232,42.54519784966294
2431.2996,32.50069930928771
2432.6753,41.49820454582664
2434.0503,34.13769673240961
2435.4246,38.5691586271854
2436.7982,31.592572646926328
2438.1711,37.107920822713254
2439.5433,39.815184869702875
2440.9148,32.11434613197332
2442.2856,32.20538555545113
2443.6557,30.488283764920197
2445.025,34.61302106311052
2446.3937,32.72957744787038
2447.7617,34.43793257091761
2449.1289,37.938065756674064
2450.4955,35.179955985183256
2451.8613,35.4135818571076
2453.2265,39.08892162131076
2454.5909,46.35595317252057
2455.9546,41.514654014576195
2457.3177,39.21500118775805
2458.68,33.25697131720017
2460.0416,31.74054063588744
2461.4025,37.96568504423476
2462.7627,41.53238012525287
2464.1222,40.89060108229546
2465.4811,40.69032270339403
2466.8392,47.08151936767331
2468.1966,43.864165047356096
2469.5533,52.98823324384989
2470.9093,59.10369701992079
2472.2645,39.76052890845267
2473.6191,58.60870085129318
2474.973,47.04818439268536
2476.3262,52.42895049078618
2477.6787,46.600969633270665
2479.0305,56.66421178352516
2480.3816,61.96864643892707
2481.7319,41.414242530212164
2483.0816,52.20096836843015
2484.4306,48.528791850489256
2485.7789,54.09768035128786
2487.1264,45.50760076043707
2488.4733,40.55851942657125
2489.8195,46.20040224324953
2491.165,50.33321469844634
2492.5097,41.75692181813247
2493.8538,42.12148812494718
2495.1972,53.87687772396146
2496.5398,42.073054299031924
2497.8818,57.409980995247
2499.2231,48.13762053696473
2500.5637,47.85593507444423
2501.9035,55.71488627656856
2503.2427,49.014435333661936
2504.5812,56.30454287890018
2505.919,45.98516905531528
2507.256,53.45627344289426
2508.5924,39.967815161773046
2509.9281,51.169752797524666
2511.2631,45.86204453604489
2512.5974,62.79464805153293
2513.9309,62.36752055956788
2515.2638,57.6306186477824
2516.596,55.83389828013469
2517.9275,64.12731484427707
2519.2583,54.76082316952363
2520.5884,48.2343774439164
2521.9178,55.647931307889394
2523.2465,54.25143791953326
2524.5745,54.244849880459924
2525.9018,47.878119249767565
2527.2284,52.20119754410655
2528.5543,67.56403580134634
2529.8796,53.61658453734492
2531.2041,57.20879359232026
2532.5279,69.64061227032505
2533.851,67.26198930332407
2535.1735,75.62287272687672
2536.4952,69.82320990392338
2537.8163,63.71294744117574
2539.1366,66.69203124711396
2540.4562,62.71040659308926
2541.7752,68.81801808353282
2543.0935,66.06480969577183
2544.411,69.1507247189544
2545.7279,75.67570578158018
2547.0441,68.28969482064213
2548.3596,74.99263301637689
2549.6744,68.2844608661236
2550.9885,77.11511811729599
2552.3019,67.58454383446326
2553.6146,60.49267631104419
2554.9266,78.08945316461165
2556.2379,72.42481140781229
2557.5485,89.39868727239798
2558.8585,72.76101626587297
2560.1677,76.81173300175465
2561.4762,70.80077136595105
2562.7841,75.32806447625364
2564.0913,83.84354474244583
2565.3977,75.04714382103089
2566.7035,80.53879253007722
2568.0086,89.5184209371829
2569.313,77.28595830455765
2570.6167,85.64133299922787
2571.9197,82.03447261536098
2573.222,87.61530389071129
2574.5236,90.88375274268901
2575.8246,93.08974421255164
2577.1248,84.63320243271914
2578.4244,92.36405060471498
2579.7232,95.63221108373034
2581.0214,97.28760530131706
2582.3189,103.08015373270428
2583.6157,89.40977588024589
2584.9118,97.02639021549464
2586.2072,104.12991431590547
2587.5019,101.67026478866978
2588.7959,102.39735719967973
2590.0893,118.7111060981249
2591.3819,108.36142500922153
2592.6739,112.19822627107465
2593.9652,109.92142113817556
2595.2557,115.63091974303416
2596.5456,113.62663111894574
2597.8348,114.20846314289702
2599.1234,124.02632255560843
2600.4112,126.13011495571584
2601.6983,129.3197447015923
2602.9848,120.74511489030965
2604.2705,119.40612732574311
2605.5556,117.45268260431635
2606.84,120.63468012839257
2608.1237,117.30201812580867
2609.4067,119.1045936180542
2610.689,118.64230245359988
2611.9707,118.8650392898702
2613.2516,128.77269759786702
2614.5319,123.01516965994176
2615.8115,115.39234647071919
2617.0903,122.35411779467222
2618.3685,116.2503722423512
2619.6461,112.18099720076555
2620.9229,109.74587889442114
2622.199,110.14490242601516
2623.4745,122.37795180078535
2624.7493,120.09490992252108
2626.0234,116.19565847123272
2627.2968,122.43007792598166
2628.5695,113.8980476038738
2629.8415,114.7494455977137
2631.1128,113.93414886132518
2632.3835,119.3020332010384
2633.6535,124.8029732838421
2634.9228,123.63684258370517
2636.1914,123.75351332656714
2637.4593,126.45285650199935
2638.7265,121.83474186203864
2639.9931,124.3990378941935
2641.259,111.54561186762555
2642.5242,117.3243298075065
2643.7887,115.6350566235518
2645.0525,125.72765605223435
2646.3156,110.8019906736763
2647.5781,114.10792181072372
2648.8398,115.39530967820292
2650.1009,111.91401334986142
2651.3613,114.61389074549345
2652.6211,117.3447986657535
2653.8801,112.85659276515707
2655.1385,115.09912752477192
2656.3961,112.72225629710044
2657.6531,124.92583128365357
2658.9094,120.45970355872032
2660.1651,118.22372294733134
2661.42,120.91773806992057
2662.6743,131.5915963646852
2663.9279,125.09514406064523
2665.1808,126.07822607090486
2666.433,134.09068605761695
2667.6846,130.53236642215268
2668.9354,133.0031082249768
2670.1856,132.70275122123064
2671.4351,139.63113383602524
2672.6839,141.9380931674433
2673.9321,144.1734649172572
2675.1795,147.48708336785808
2676.4263,147.87878135990275
2677.6724,159.19839025917713
2678.9179,152.24573995267974
2680.1626,145.27065873542574
2681.4067,151.0229733799731
2682.6501,158.80250920617323
2683.8928,149.15909002364822
2685.1348,141.14253805399528
2686.3761,142.902674027221
2687.6168,140.63931726190697
2688.8568,136.70228564760828
2690.0961,141.14139566748702
2691.3348,140.00646243768222
2692.5727,131.49729966292045
2693.81,127.16371964786333
2695.0466,133.20553338219963
2696.2826,121.02255058398123
2697.5178,128.21457963920489
2698.7524,131.7814277236422
2699.9863,132.1229007309189
2701.2195,120.33880323684707
2702.452,140.42893849601012
2703.6839,135.94310855960316
2704.9151,146.83111407453237
2706.1456,144.04275432827296
2707.3755,149.02782713998954
2708.6046,164.68612888841972
2709.8331,166.81745446202274
2711.0609,166.17159710239707
2712.2881,181.59834838296615
2713.5145,195.1474982154383
2714.7403,194.61883469553845
2715.9654,204.06214396751625
2717.1899,207.57721022943372
2718.4136,227.61381563873158
2719.6367,235.47174027707877
2720.8591,246.15076195000586
2722.0809,261.30065610832673
2723.3019,271.0211957413478
2724.5223,276.9121512253695
2725.7421,283.6732902264797
2726.9611,288.5043776416453
2728.1795,272.75517553110046
2729.3972,269.4254430700355
2730.6142,262.86493670608934
2731.8306,246.22341019264684
2733.0462,232.20061465444394
2734.2612,226.34629875398196
2735.4756,202.9602088317571
2736.6892,174.4920889648023
2737.9022,167.59168120054915
2739.1145,146.90872584150873
2740.3262,137.39296151427516
2741.5372,129.34412537635558
2742.7475,111.16195321132716
2743.9571,107.74617950932634
2745.1661,100.24653764887046
2746.3744,89.96275993101483
2747.582,75.5445776543495
2748.7889,70.4917212178375
2749.9952,67.55392026499601
2751.2008,54.43090373442601
2752.4057,51.022399889189046
2753.61,43.878136448038845
2754.8136,39.04784061950488
2756.0165,39.83123917333603
2757.2188,41.828058488802526
2758.4204,37.68802454686249
2759.6213,38.81086291019437
2760.8215,45.7962987645966
2762.0211,29.89405690775891
2763.22,31.35386167940885
2764.4182,32.27543712033355
2765.6158,25.458506957782106
2766.8127,16.102794596250078
2768.009,13.60802318564754
2769.2045,12.47391571485764
2770.3994,3.100195036682976
2771.5936,4.0865838791876286
2772.7872,-3.7671950605661095
2773.9801,-11.861419126381861
2775.1723,-9.196328027784716
2776.3639,-8.572042978722948
2777.5548,-16.788593321827875
2778.745,-18.645922765021396
2779.9346,-15.043807298179445
2781.1235,-13.931836638408754
2782.3117,-16.359450215181596
2783.4992,-8.875948278921783
2784.6861,-8.280467649145521
2785.8723,-8.62205647464566
2787.0579,-10.349680182343377
2788.2428,-8.362218064815806
2789.427,0.2915539786648651
2790.6106,6.0129435873850525
2791.7935,16.853258397716218
2792.9757,16.563805985900217
2794.1573,24.34589375964697
2795.3382,36.15082896102774
2796.5184,50.47991858865589
2797.698,56.334469279636096
2798.8769,64.96578716627471
2800.0551,75.62517781753365
2801.2327,82.31394615271677
2802.4096,105.83339633487662
2803.5859,120.48483170392717
2804.7615,139.0695545414485
2805.9364,150.73886592417318
2807.1106,176.494065538138
2808.2842,209.5364515619916
2809.4572,227.26732040944228
2810.6294,265.0379663988339
2811.801,293.44968157583776
2812.972,337.9037553357459
2814.1423,371.1514741393544
2815.3119,409.39412106842167
2816.4808,465.28297549319257
2817.6491,495.36931268997034
2818.8167,537.2544032822287
2819.9837,591.0895129397489
2821.15,647.6259019597686
2822.3157,692.5148247286297
2823.4807,732.8075291564168
2824.645,789.8552562280648
2825.8086,836.2092396004356
2826.9716,880.9207050318371
2828.134,938.7908699184859
2829.2957,972.520942847392
2830.4567,1005.8121230176575
2831.617,1008.6655999031749
2832.7767,1028.532552919716
2833.9358,1020.7641513963965
2835.0941,1020.5115543770072
2836.2519,993.7759106976968
2837.4089,977.8583589894989
2838.5653,972.8600279456881
2839.7211,957.3820364809562
2840.8761,966.7754937813946
2842.0306,976.4414994592746
2843.1843,1003.4311434591132
2844.3374,1046.4455059610132
2845.4899,1092.4356571107655
2846.6417,1159.5026565897072
2847.7928,1225.847553154818
2848.9433,1298.8213839680511
2850.0931,1366.6251739328864
2851.2422,1431.5099349645875
2852.3907,1497.8766653121684
2853.5385,1551.3263489095439
2854.6857,1599.5099547118612
2855.8323,1643.528436161006
2856.9781,1696.132730703764
2858.1233,1739.2237593516365
2859.2679,1787.702426154799
2860.4118,1828.2696177711887
2861.555,1884.9262029817187
2862.6976,1904.8730322846077
2863.8395,1941.4609373288106
2864.9808,1960.9907307145556
2866.1214,1971.3632056274596
2867.2614,2016.1791356432332
2868.4007,2015.8392746239545
2869.5393,2008.6443562699117
2870.6773,2038.2950941229992
2871.8146,2048.742181638669
2872.9513,2050.2862918894234
2874.0874,2046.0780774603409
2875.2227,2028.5181704336396
2876.3574,2018.2071824307566
2877.4915,1987.5957047879476
2878.6249,1967.134308659396
2879.7577,1947.023545323329
2880.8898,1904.2139463866304
2882.0212,1895.8060239859503
2883.152,1881.8002712157981
2884.2821,1865.4471622126243
2885.4116,1853.6471522948757
2886.5405,1870.9506781265286
2887.6686,1880.2581578350885
2888.7962,1879.3199908385534
2889.923,1876.8365577523398
2891.0493,1890.9082203986654
2892.1748,1910.5353218313826
2893.2997,1930.2681861952613
2894.424,1940.8071185297185
2895.5476,1947.4024045714893
2896.6706,1990.2043106492388
2897.7929,1989.763083617608
2898.9145,2020.7289504291955
2900.0355,2051.502118138969
2901.1559,2090.4327735946067
2902.2756,2114.2710831287677
2903.3946,2155.41719216978
2904.513,2186.6712250032647
2905.6308,2204.433284360668
2906.7479,2237.503451106726
2907.8643,2264.1317840618403
2908.9801,2277.468319671382
2910.0953,2278.3130717393997
2911.2098,2271.516031295262
2912.3236,2268.227166585208
2913.4368,2259.046423140314
2914.5494,2235.073723809387
2915.6613,2202.30896885077
2916.7725,2195.1020361720684
2917.8831,2173.3527816577994
2918.9931,2134.7110392414593
2920.1024,2106.8266211230157
2921.211,2094.6493181553296
2922.319,2061.778900122993
2923.4264,2047.7651158641056
2924.5331,2042.7576935989782
2925.6391,2030.006341070272
2926.7445,2038.4107455930707
2927.8493,2031.1705741823944
2928.9534,2032.185473469158
2930.0569,2031.7050697725695
2931.1597,2038.7289690899834
2932.2619,2041.4067571017035
2933.3634,2026.2379991007451
2934.4643,2008.9722399660543
2935.5645,1998.1090043142003
2936.6641,1977.5977966720284
2937.763,1939.0881015852947
2938.8613,1895.32938382378
2939.959,1863.3710887663815
2941.056,1787.2126428387037
2942.1523,1715.7034538326407
2943.248,1646.74291166796
2944.3431,1553.0803891073942
2945.4375,1445.1652424462482
2946.5313,1347.4468124490224
2947.6244,1246.4244254285654
2948.7169,1170.1973942232576
2949.8087,1066.6150192072355
2950.8999,983.4765890526618
2951.9904,910.4813817655496
2953.0803,843.278665517146
2954.1696,774.6676993738852
2955.2582,729.7977339694141
2956.3462,686.2180121907035
2957.4335,634.0777696267467
2958.5202,610.7762350043574
2959.6062,590.0626307095716
2960.6916,575.5361730206633
2961.7764,552.09607231528
2962.8605,544.3415332157081
2963.9439,527.8217548232734
2965.0267,518.3859307958862
2966.1089,516.63324951324
2967.1905,511.2128941711685
2968.2714,512.5240427991737
2969.3516,525.1158683146289
2970.4312,528.0875385096668
2971.5102,529.4882159252622
2972.5885,537.917057821515
2973.6662,540.8232161636431
2974.7432,536.6058375376942
2975.8196,537.3640631214837
2976.8954,530.7470287267697
2977.9705,528.6538647916694
2979.045,521.6836964468305
2980.1188,501.98564353636164
2981.192,486.058820687535
2982.2645,475.35233750776626
2983.3364,455.1652987438831
2984.4077,426.79680438919
2985.4783,409.59594988533934
2986.5483,382.96182640601546
2987.6177,342.74352102894386
2988.6864,323.190117002232
2989.7545,288.25069414655263
2990.8219,252.77432905067758
2991.8887,227.36009542087265
2992.9548,206.7070644356602
2994.0204,184.26430499996127
2995.0852,152.48088395162722
2996.1495,137.2058662858658
2997.2131,114.03831547307641
2998.276,90.82729361160023
2999.3383,79.52186165939486
3000.4,59.82107966614569
3001.4611,46.37400688631948
3002.5215,29.529701976172475
3003.5812,25.437223128220865
3004.6404,13.94562823968431
3005.6989,10.50397495341042
3006.7567,6.3113207727911345
3007.8139,-4.183276903820911
3008.8705,-4.8807607411858385
3009.9264,2.667968386872019
3010.9818,-4.637941634672245
3012.0364,-10.799342947522916
3013.0905,-12.667041360347639
3014.1439,-8.541734796378307
3015.1966,-12.123994635103713
3016.2487,-9.164306924082325
3017.3002,-6.56303659216627
3018.3511,2.0295429832178797
3019.4013,-4.536776010621054
3020.4509,-2.7622014066696465
3021.4998,-3.0468957155222824
3022.5481,4.559006146618685
3023.5958,4.005399702038687
3024.6428,17.79218042743372
3025.6892,9.66924375944592
3026.735,20.636484956795925
3027.7802,23.49379918151203
3028.8247,26.841081389258193
3029.8685,38.578226300759866
3030.9118,40.45512836833228
3031.9544,43.12168165850852
3032.9963,48.977779833270574
3034.0376,61.52331612338361
3035.0783,63.5581832698349
3036.1184,71.93227339837898
3037.1578,82.19547799918848
3038.1966,84.59768784311359
3039.2348,84.1887928790498
3040.2723,97.41868220991603
3041.3092,91.1372440967437
3042.3455,95.74436582637759
3043.3811,104.78993377429032
3044.4161,98.37383335851086
3045.4505,94.1459489491694
3046.4842,100.90616393265776
3047.5173,100.50436075390832
3048.5498,96.6404208487923
3049.5816,98.06422464813733
3050.6128,87.57565161636677
3051.6434,96.52458023726194
3052.6734,89.56088811884803
3053.7027,87.48445190390436
3054.7314,93.24514733960149
3055.7594,85.8428492982656
3056.7868,87.87743171977161
3057.8136,93.44876768556583
3058.8398,88.55672939832056
3059.8653,87.60118812622062
3060.8902,80.18201425188352
3061.9145,86.29907728191523
3062.9381,82.00224592110146
3063.9612,89.14138801123732
3064.9835,85.66637057409565
3066.0053,82.22705974003549
3067.0264,82.87332078275227
3068.0469,76.95501815367106
3069.0668,71.27201547548407
3070.086,75.62417560133298
3071.1046,63.31136067163976
3072.1226,65.18343207058444
3073.1399,55.5902505492337
3074.1567,50.33167620681985
3075.1727,48.80756858667294
3076.1882,48.267786728806215
3077.203,39.01218918515721
3078.2173,37.19063402498577
3079.2308,32.152978927429956
3080.2438,20.749081199721417
3081.2561,14.728797827562346
3082.2678,13.491985589164187
3083.2789,12.788501115450487
3084.2893,7.568200902425218
3085.2991,15.080941318207437
3086.3083,3.3765786552343116
3087.3169,12.2549690551337
3088.3248,2.5159686257678118
3089.3321,4.609433352449315
3090.3388,-1.0147808046687885
3091.3449,-2.806817931527803
3092.3503,2.8331880235911058
3093.3551,0.30513115251784484
3094.3593,0.6089055187505323
3095.3629,-6.455597862473013
3096.3658,1.4615120179960854
3097.3681,-3.139809339270755
3098.3698,-0.7096064483169187
3099.3708,-2.997892456490689
3100.3713,-3.254673422172118
3101.3711,-2.879925454795597
3102.3702,-1.97359214960818
3103.3688,4.014411668598399
3104.3667,-3.6158091087822015
3105.364,1.1358503694995932
3106.3607,4.41953107662647
3107.3568,2.535373974422612
3108.3522,3.683519980517076
3109.347,-1.9358900128147525
3110.3412,1.677284849867391
3111.3348,0.4232047635448737
3112.3277,0.4020299064264634
3113.32,7.613916228905111
3114.3117,2.9090156650950973
3115.3028,10.037480072971618
3116.2932,13.149461281419804
3117.2831,11.495111018949956
3118.2723,11.324580882577834
3119.2608,13.588022354368235
3120.2488,14.63558680314003
3121.2361,16.56742546183193
3122.2229,11.483689417026852
3123.209,13.284529589633578
3124.1944,14.820096785723905
3125.1793,15.990541678524394
3126.1635,16.746014793060723
3127.1471,18.28666649445323
3128.1301,15.912646980362254
3129.1125,20.97410626558161
3130.0942,25.27119420577874
3131.0753,23.60406044687994
3132.0558,27.122854382099632
3133.0357,24.827725168611607
3134.015,17.768821692361257
3134.9936,25.39629259101673
3135.9716,28.260286324558066
3136.949,32.860951099002335
3137.9258,30.1484348377638
3138.902,32.97288513564726
3139.8775,28.884449285973247
3140.8524,31.48327425233353
3141.8267,30.9195067094754
3142.8004,35.54329301731343
3143.7735,34.80477922656718
3144.7459,37.80411103252334
3145.7178,39.4914337824209
3146.689,41.46689244545777
3147.6596,40.880631595917535
3148.6295,38.38279539341491
3149.5989,43.12352758875838
3150.5676,43.00297154892846
3151.5357,46.22127020967038
3152.5032,42.92856607669972
3153.4701,48.07500119351942
3154.4364,44.01071717434681
3155.402,52.28585515264921
3156.367,48.05055582178681
3157.3315,52.65495935226127
3158.2952,56.29920543406869
3159.2584,53.48343323065564
3160.221,55.70778134247666
3161.1829,55.67238783515202
3162.1442,55.577390217224206
3163.105,55.77292544051184
3164.065,57.85912990105969
3165.0245,56.18613943718329
3165.9834,64.50408930860691
3166.9416,58.26311421319336
3167.8993,64.56334820376468
3168.8563,60.50492475051172
3169.8127,64.03797667799189
3170.7684,62.81263620571334
3171.7236,62.42903491280451
3172.6782,66.93730375026746
3173.6321,65.73757304481393
3174.5854,68.37997245378261
3175.5381,70.6146309771365
3176.4902,72.99167693103884
3177.4417,70.2612379255066
3178.3926,71.97344084063997
3179.3428,71.27841185392681
3180.2924,81.57627642312053
3181.2415,76.16715929319048
3182.1899,75.9011843933432
3183.1377,78.62847489111367
3184.0848,77.24915319502506
3185.0314,82.61334092731575
3185.9773,81.12115893773259
3186.9227,82.32272724988906
3187.8674,82.268165076187
3188.8115,85.95759080580102
3189.755,86.09112200522408
3190.6979,87.66887538137318
3191.6402,85.3909667802542
3192.5818,89.65751117118417
3193.5229,90.66862266957048
3194.4633,90.82441449424545
3195.4031,91.62499895735509
3196.3423,93.82048746280134
3197.2809,91.81099049823608
3198.2189,96.59661761310636
3199.1563,93.72747743874933
3200.0931,96.4036776405359
3201.0292,100.52532494656225
3201.9648,97.04252512088777
3202.8997,99.70538292231856
3203.834,97.56400213923547
3204.7677,101.96848556296553
3205.7008,100.96893500919576
3206.6333,104.31545127392829
3207.5652,102.70813414347589
3208.4964,103.84708236099684
3209.4271,106.38239364256802
3210.3571,105.46416466579547
3211.2865,108.8424910444613
3212.2154,111.46746733770595
3213.1436,110.58918701624495
3214.0712,113.1077424361191
3214.9982,112.3232248474774
3215.9246,109.93572436939138
3216.8503,114.89532999770029
3217.7755,118.80212962888619
3218.7001,115.30621001047777
3219.624,118.85765670198242
3220.5473,119.1065541098454
3221.4701,121.85298545193547
3222.3922,118.49703275505573
3223.3137,126.13877682747945
3224.2346,124.22829729250952
3225.1549,123.21567251206105
3226.0746,128.35097960576616
3226.9937,126.68429446110024
3227.9121,127.71569168202882
3228.83,130.74524460567443
3229.7473,128.02302529200279
3230.6639,132.39910449352703
3231.5799,127.82355168253
3232.4954,135.19643500730353
3233.4102,132.4178213379039
3234.3244,135.78777619242294
3235.238,134.25636376477433
3236.151,133.52364689099392
3237.0634,137.43968706455385
3237.9752,137.2545444436899
3238.8864,138.61827781224085
3239.797,139.58094458150006
3240.7069,141.89260077657815
3241.6163,142.5033010267763
3242.5251,143.5630985424696
3243.4332,143.17204510899998
3244.3408,148.93019107607844
3245.2477,146.98758536169544
3246.154,144.14427539453953
3247.0598,148.20030713342328
3247.9649,147.75572509571657
3248.8694,148.06057231678614
3249.7733,152.21489035444142
3250.6766,152.11871928588613
3251.5793,154.07209766617504
3252.4814,155.62506252917564
3253.3829,153.62764936803433
3254.2838,152.82989211964698
3255.1841,155.2318231846328
3256.0838,160.28347343531203
3256.9829,158.83487219168674
3257.8814,159.0860471709241
3258.7792,160.6870245018426
3259.6765,161.0878287224001
3260.5731,164.2384827636843
3261.4692,158.23900794590446
3262.3647,160.2394239468851
3263.2595,162.83974886206056
3264.1538,162.33999918447086
3265.0474,162.24018977875835
3265.9404,165.44033388616538
3266.8329,166.79044312553248
3267.7247,164.79052746129656
3268.616,165.1905951899901
3269.5066,167.94065296024033
3270.3966,167.29070576876842
3271.286,164.44075693288892
