RamanShift,CorrectedData
30.1047,1716.6732708637194
32.3739,1598.0338119361236
34.6426,1480.5943358417946
36.9109,1364.1548094336622
39.1787,1248.0151847587117
41.4461,1131.8254002223796
43.7131,1014.6353817499515
45.9796,897.2950439484573
48.2456,783.2542912785725
50.5112,662.2630192280218
52.7764,549.3211154519863
55.0411,430.92846098301715
57.3054,316.2849313604536
59.5692,205.49039781435027
61.8326,90.64472841191267
64.0955,-21.15221083455799
66.3579,-135.20055481920764
68.6199,-237.0502271255961
70.8815,-326.9498006837407
73.1426,-378.09548029188994
75.4032,-285.03020451978364
77.6634,103.55686523668612
79.9231,1203.67941503337
82.1824,3720.6011298905505
84.4412,8350.385682791715
86.6995,14711.496709514344
88.9574,20943.547762332055
91.2148,25187.85224640351
93.4717,27117.02335745188
95.7282,27487.674039321824
97.9842,27350.566964687772
100.2398,26707.014531347406
102.4949,26047.42886359274
104.7495,25213.62181864565
107.0036,24314.90499325372
109.2573,23463.789732028315
111.5105,22630.637136431753
113.7632,21772.60807328846
116.0154,21047.31318311648
118.2672,20487.2128887078
120.5185,19890.71740238125
122.7693,19398.886731583552
125.0197,19002.88068485425
127.2696,18615.65887674402
129.519,18364.030731774736
131.7679,18062.505488311683
134.0163,17806.24220107984
136.2642,17521.49974417914
138.5117,17240.086813647085
140.7587,16864.961930306195
143.0052,16599.18344257812
145.2512,16280.409530234885
147.4967,15919.54820705669
149.7417,15671.507324019642
151.9863,15428.194572904355
154.2304,15308.267488776386
156.4739,15048.733452419343
158.717,14891.099691534168
160.9596,14632.77328333446
163.2017,14293.76115612283
165.4433,13903.570091874162
167.6844,13466.256729625724
169.925,13050.877569379085
172.1651,12582.488976473254
174.4047,12200.847185738456
176.6439,11824.058306180035
178.8825,11456.478324794867
181.1206,11216.963110339246
183.3582,10955.068417004688
185.5954,10727.799886813076
187.832,10558.963052235606
190.0681,10421.413338465487
192.3037,10311.106065106298
194.5388,10228.146447547486
196.7734,10168.389598067439
199.0075,10145.490526663094
201.2411,10196.454141647475
203.4742,10148.535249878722
205.7068,10181.33855625043
207.9389,10235.818664170845
210.1704,10331.530075234841
212.4015,10360.87718867909
214.632,10424.614300424979
216.862,10531.645602785125
219.0915,10619.975183826005
221.3205,10754.007026297642
223.549,10909.745006750307
225.777,11118.892894194212
228.0044,11411.454348542116
230.2314,11792.882918517853
232.4578,12162.582038730716
234.6837,12440.55502586117
236.909,12565.505074963861
239.1339,12472.18525668791
241.3582,12181.74851602737
243.582,11750.247673254458
245.8053,11270.635426823905
248.0281,10879.614357687964
250.2503,10531.136934092552
252.472,10307.605515487432
254.6932,10124.37235601102
256.9139,9974.439606725666
259.134,9846.009317450027
261.3536,9724.28343825834
263.5727,9626.76382076477
265.7912,9507.952219340648
268.0092,9468.20029208966
270.2267,9332.359602035976
272.4436,9245.631617521783
274.6601,9074.417713565652
276.8759,8939.219172729854
279.0913,8812.237186832495
281.3061,8750.472858299487
283.5204,8720.727201434376
285.7341,8735.801143035987
287.9473,8833.045522695878
290.16,9031.311092647602
292.3721,9294.598516794262
294.5837,9636.55836872586
296.7947,9936.541129086414
299.0052,10036.297182154358
301.2152,9825.776812842729
303.4246,9434.530205701583
305.6334,8816.307447023219
307.8418,8244.758528754646
310.0495,7757.433354679812
312.2568,7338.831746135069
314.4635,7075.6534468824575
316.6696,6936.998127295694
318.8752,6807.915386991977
321.0802,6840.504756218526
323.2847,6844.215697143416
325.4887,6853.897603529669
327.692,6742.299800698162
329.8949,6584.271545430791
332.0972,6252.462027086467
334.2989,5928.770369181388
336.5001,5573.745632707143
338.7007,5306.086819367607
340.9008,5153.342875129214
343.1003,5002.66269289754
345.2992,4902.695114044733
347.4976,4820.738929916315
349.6955,4758.992882830871
351.8927,4795.85566689959
354.0895,4659.375928643751
356.2856,4699.452266626082
358.4812,4608.433232815552
360.6763,4584.267332186613
362.8707,4506.253023629402
365.0646,4502.48872019139
367.258,4450.672789857526
369.4508,4419.30355558788
371.643,4447.929295835795
373.8346,4387.348244861585
376.0257,4333.658592446271
378.2162,4193.158484497397
380.4062,4042.896023585916
382.5956,3834.919270351211
384.7844,3732.976245003725
386.9726,3560.7149294047085
389.1603,3455.133268085665
391.3474,3373.3791699709564
393.5339,3329.100509433605
395.7199,3219.495127112854
397.9052,3220.510830356945
400.09,3138.4453943191656
402.2743,3196.3965619477094
404.4579,3249.2120448063233
406.641,3344.5895224947817
408.8235,3525.5266421207434
411.0054,3832.121017345982
413.1868,4227.270226577013
415.3675,4537.871809899139
417.5477,4693.273265124975
419.7273,4676.7220446884185
421.9064,4535.665554090643
424.0848,4394.4011520656095
426.2627,4142.026151990618
428.4399,3806.937823298971
430.6166,3401.633394003724
432.7928,2991.160054048556
434.9683,2658.2149593608374
437.1432,2384.995235956336
439.3176,2172.947983268663
441.4914,2014.2702768815052
443.6645,1964.6091706490515
445.8371,1880.0616982828014
448.0091,1751.674873848171
450.1806,1698.1956926099483
452.3514,1596.321132316205
454.5216,1595.2481537330295
456.6913,1473.0737016633266
458.8603,1496.8947049575072
461.0288,1540.2580777352523
463.1967,1545.1607191473067
465.3639,1654.7495129418276
467.5306,1687.6713274153753
469.6967,1807.8230143170313
471.8622,1981.0514085191608
474.0271,2110.803326815916
476.1914,2150.4755661909458
478.3551,2098.464902519865
480.5182,2081.968090173543
482.6807,2061.9818625382213
484.8426,2122.1529321804555
487.0039,2382.5779910469955
489.1647,2721.2037098630717
491.3248,3192.6267355281416
493.4843,3335.1936877296375
495.6432,3352.2011542287364
497.8015,3197.445689434684
499.9592,3196.0738142347145
502.1163,3118.5320175416164
504.2728,2890.316756307455
506.4287,2576.5244562989756
508.5839,2148.351514379756
510.7386,1792.0443016481458
512.8927,1617.099167718996
515.0461,1473.9124442866978
517.199,1386.7804468746654
519.3512,1347.4994762671886
521.5029,1391.7658193807638
523.6539,1429.4257496568953
525.8043,1462.32552661943
527.9541,1473.3113954979744
530.1033,1448.5295868988633
532.2519,1483.6763166953533
534.3999,1608.4477862754102
536.5472,1881.4901821902386
538.694,2347.399674906581
540.8401,2951.572416076273
542.9856,3439.5045338771743
545.1305,3609.9421269714294
547.2748,3457.131259626145
549.4185,3086.067960009008
551.5615,2700.0482217164063
553.704,2559.3180074840493
555.8458,2451.573253047176
557.987,2467.8098685478435
560.1276,2408.0737396123914
562.2675,2438.4107271890607
564.4069,2449.3666681453724
566.5456,2397.037374964748
568.6837,2295.3186356369515
570.8212,2008.4062141813738
572.958,1671.49585166424
575.0942,1415.7332690677213
577.2299,1262.1141706590242
579.3648,1222.1842465480513
581.4992,1266.1891742235603
583.6329,1470.6746189524674
585.766,1729.8362333398036
587.8985,1810.0696552838672
590.0304,1843.870505384588
592.1616,1739.1343861412024
594.2922,1648.6568816142608
596.4222,1485.933558472956
598.5515,1303.0599668999312
600.6802,1168.6816422184966
602.8083,973.1941067213666
604.9358,950.8428710144581
607.0626,827.5734359717426
609.1888,792.4312929587759
611.3144,726.9619250653923
613.4393,657.4608074571261
615.5636,495.7234080299095
617.6873,404.94518810506634
619.8103,351.72160404671376
621.9327,220.0481081695034
624.0544,233.72014927090277
626.1756,212.88317394787737
628.2961,152.6326264602285
630.4159,93.26394893892211
632.5351,86.77258198860727
634.6537,39.353965281305136
636.7716,31.803537621301075
638.8889,40.8667374193501
641.0056,49.13900276817367
643.1216,51.16577135183252
645.237,75.84248036301506
647.3518,92.41456648275198
649.4659,132.2274656336631
651.5793,148.27661281424298
653.6922,138.0074417007345
655.8043,104.0153844865963
657.9159,92.54587198524678
660.0268,4.044333969934087
662.137,-23.643800711532094
664.2466,-49.773143614242144
666.3556,-51.14807009172364
668.4639,-96.47245826379731
670.5716,-4.349675281082455
672.6786,50.067875465665566
674.785,129.877834038929
676.8907,178.1278400005358
678.9958,297.6655316135475
681.1002,241.5885453597657
683.204,223.69451474432572
685.3072,185.38107085651063
687.4097,127.6958425486373
689.5115,92.33645681924463
691.6127,50.65053938989513
693.7132,-14.214284941204824
695.8131,-44.01039188234063
697.9123,-30.84001514110423
700.0109,-56.50494876128505
702.1089,-90.45667869492172
704.2061,-92.99612640961641
706.3028,-32.52330971076299
708.3987,40.16268262754238
710.4941,97.46308673906242
712.5887,319.8291383559226
714.6827,627.1120722356427
716.7761,961.7631199374446
718.8688,1318.0335067494416
720.9608,1514.9744483421164
723.0522,1626.9371472056446
725.1429,1444.8727906804452
727.233,1143.8825498375918
729.3224,883.5175812994275
731.4112,586.3290302494825
733.4993,377.96803303610795
735.5867,216.93572014437086
737.6735,119.73321827967447
739.7596,77.86165197806258
741.845,68.47214457827795
743.9298,24.11581864042455
746.014,44.59379603990237
748.0974,57.80695773507614
750.1802,57.60618423836786
752.2624,42.79235548413635
754.3439,83.81635083068613
756.4247,170.77862214067136
758.5048,261.0296204385995
760.5843,481.71979504121555
762.6631,753.1495926549578
764.7413,1227.7194551690736
766.8188,1780.429816941316
768.8956,2190.431100052261
770.9718,2501.723708778165
773.0473,2409.908025491004
775.1221,2090.0844075455097
777.1962,1718.2531881973555
779.2697,1518.1646798013608
781.3426,1571.2691775298372
783.4147,1850.2669613734397
785.4862,2182.458295610162
787.557,2212.193426015314
789.6271,1866.6225765396448
791.6966,1332.1459490119742
793.7654,827.9637265949059
795.8335,564.376079129579
797.901,368.333168177538
799.9678,310.5351496565563
802.0339,336.1321758011036
804.0993,396.97439574028976
806.1641,368.0119552419201
808.2282,304.144996104078
810.2916,268.6236564447172
812.3544,186.34807134034781
814.4164,68.06837318126418
816.4778,152.43469249427653
818.5385,106.09715912552201
820.5986,198.55590139679407
822.658,285.31104656894604
824.7166,390.3127199172595
826.7747,598.3110438639051
828.832,783.3061369279421
830.8886,898.7981116453375
832.9446,1080.3370727189867
834.9999,1116.5231158638235
837.0545,1160.2063259914212
839.1085,1205.6367768481286
841.1618,1196.0145305782462
843.2143,1158.239637269693
845.2662,1052.0621350502624
847.3175,1010.132050465345
849.368,926.2993995397337
851.4179,825.1641881969008
853.467,688.1764130973424
855.5155,583.2860626499169
857.5633,535.2431183817425
859.6105,396.04755598706106
861.6569,371.1993458077013
863.7027,357.9984542250131
865.7478,352.19484390835714
867.7922,375.28847394710465
869.8359,439.37929990867997
871.8789,526.4672736076209
873.9212,713.1523424646839
875.9629,898.8344486359674
878.0039,1078.3635271460626
880.0441,1226.6395040312127
882.0837,1251.0622945440264
884.1226,1166.4318016707439
886.1609,1073.0979158869814
888.1984,977.8105160040504
890.2352,994.3694701022941
892.2714,948.9246364839528
894.3069,952.3758635075792
896.3416,903.5729900424813
898.3757,907.1658454342287
900.4091,942.1042499926662
902.4418,916.0880149560071
904.4739,927.0169421414103
906.5052,972.1408242051803
908.5358,863.1094445334456
910.5658,711.1225767909491
912.595,577.9799860113417
914.6236,429.2814301170656
916.6515,441.4766612507774
918.6786,406.8654272623244
920.7051,495.4474715867909
922.7309,623.4225335906376
924.756,679.9403476858279
926.7804,830.0006420501159
928.8041,765.8531380618515
930.8272,763.0975487993892
932.8495,695.4335796825653
934.8711,646.6609285002487
936.892,523.8292860869806
938.9123,383.78833681068863
940.9318,283.9377598010251
942.9506,183.42723034976734
944.9688,96.75642090931797
946.9862,32.47500209780628
949.003,-30.817356434192334
951.019,-45.47130946137986
953.0344,0.5627961069112644
955.0491,80.63506761972894
957.063,187.9456068037798
959.0763,352.8945145794096
961.0888,369.93188998752885
963.1007,460.40782854010104
965.1119,544.2224220497847
967.1223,604.8757577251599
969.1321,590.7179173325894
971.1412,663.398976589684
973.1495,694.6190053068858
975.1572,782.0280666606595
977.1641,804.5262168812988
979.1704,769.5635043788243
981.1759,739.3899695180153
983.1808,853.0056449679978
985.1849,957.5605560040167
987.1884,1097.7547193712708
989.1911,1276.2381422393482
991.1932,1434.0608208003032
993.1945,1508.2727384838254
995.1951,1456.0738643790137
997.1951,1433.8641524922314
999.1943,1355.3435422691182
1001.1928,1323.7119588166752
1003.1906,1298.0693136884584
1005.1877,1366.5655052009533
1007.1841,1320.6004186899445
1009.1798,1257.4239258255802
1011.1748,1071.4358850720128
1013.1691,921.9361423191658
1015.1627,701.6745327426179
1017.1556,528.7008822985626
1019.1477,407.8650099264596
1021.1392,275.8667292787577
1023.1299,325.855849929274
1025.12,337.93217869315777
1027.1093,409.04551912700845
1029.0979,542.7456714081272
1031.0859,584.4824316233571
1033.0731,564.405590432103
1035.0596,505.9149326489387
1037.0454,346.5602374444061
1039.0304,255.291278929908
1041.0148,125.15782775126718
1042.9985,57.65965200138453
1044.9814,50.74651852159877
1046.9636,-19.831806423349917
1048.9452,-44.425557076163386
1050.926,-11.784769559824781
1052.9061,-5.959036186013691
1054.8855,7.352168463425187
1056.8642,40.94942933742641
1058.8421,130.58325793672338
1060.8194,163.65416535258555
1062.7959,200.81266137043713
1064.7717,236.7092541391903
1066.7469,232.7944497996359
1068.7213,273.068752125484
1070.695,275.1326625625152
1072.6679,212.18667982582338
1074.6402,229.18129987918292
1076.6117,175.11701656450896
1078.5826,203.54432143191661
1080.5527,214.2637042803508
1082.5221,344.07565287332545
1084.4908,531.1806528317247
1086.4587,747.7791863356724
1088.426,899.071730253494
1090.3925,910.408753975742
1092.3584,861.4907179022521
1094.3235,714.1180733287874
1096.2879,674.5912629362138
1098.2515,668.7607222642255
1100.2145,736.8768801066108
1102.1767,837.8901585695567
1104.1382,988.0509723904979
1106.099,1191.7097279279587
1108.0591,1417.416821659972
1110.0185,1538.622638147448
1111.9771,1599.4275477771662
1113.9351,1383.1319055496679
1115.8923,1123.33605047124
1117.8488,844.1403077168507
1119.8045,554.5949912281176
1121.7596,438.95040650525334
1123.7139,395.0068535025457
1125.6675,391.41462778476125
1127.6204,493.02402096661535
1129.5726,510.78532074867326
1131.524,523.4988099012753
1133.4748,542.0147660869206
1135.4248,494.38346173312857
1137.3741,522.7551638472596
1139.3226,511.9801344928728
1141.2705,521.40863050597
1143.2176,442.4909036027748
1145.164,478.8772002854221
1147.1097,471.06776263114625
1149.0546,502.11282792841666
1150.9989,414.3626287550287
1152.9424,311.6673926676649
1154.8852,151.5273430793768
1156.8272,70.54270028657811
1158.7686,30.313683070407933
1160.7092,-18.709490493394696
1162.6491,-15.77660263222242
1164.5883,56.91275133434647
1166.5267,165.65913369498776
1168.4644,318.26310616927367
1170.4014,525.7752288201755
1172.3377,811.246058528046
1174.2732,1032.9261469155026
1176.2081,1278.6660374927033
1178.1421,1508.3662634405373
1180.0755,1745.3773451532543
1182.0082,1825.1997879414394
1183.9401,1867.7840796619093
1185.8713,1719.830689919485
1187.8017,1478.840069641179
1189.7315,1288.0626525556854
1191.6605,946.7488576033193
1193.5888,741.7490908437667
1195.5163,701.4137488692304
1197.4432,612.9932208544378
1199.3693,578.1378889599946
1201.2947,540.0981292165852
1203.2193,508.77431187351067
1205.1432,532.5168017791093
1207.0664,595.2759586939756
1208.9889,643.402137053552
1210.9106,714.3456853405332
1212.8316,784.9569456035988
1214.7519,845.8362527479876
1216.6715,875.3839338293565
1218.5903,852.5503074450244
1220.5084,837.3356834384904
1222.4257,864.8403631277415
1224.3424,807.7146394574265
1226.2583,883.7087967237858
1228.1735,991.6731111459267
1230.0879,1082.7078501058677
1232.0016,1201.2132710688966
1233.9146,1245.1396206732225
1235.8269,1187.6871335449432
1237.7384,1119.2560318587512
1239.6492,905.696525912479
1241.5592,833.8088148114002
1243.4686,751.9430886038317
1245.3772,778.2995290000108
1247.285,753.5283101907571
1249.1922,730.1295985838915
1251.0986,753.1535530519595
1253.0042,762.8503251662205
1254.9092,806.0700589663902
1256.8134,930.512890863678
1258.7169,1096.1789492086045
1260.6196,1250.3683530465605
1262.5216,1456.7312104611447
1264.4229,1588.4676170322819
1266.3234,1751.1276537725917
1268.2232,1848.8113858100296
1270.1223,1913.9188607612923
1272.0207,1876.0001077549641
1273.9183,1853.3051367804437
1275.8151,1784.0339390671288
1277.7113,1748.3364873113787
1279.6067,1615.262736369219
1281.5014,1573.3126236133267
1283.3953,1504.886070263754
1285.2885,1504.6829818074293
1287.181,1584.5532486824395
1289.0727,1670.7967462800425
1290.9637,1733.8633341459717
1292.854,1911.552855117994
1294.7435,2057.365134695261
1296.6323,2292.7499792613908
1298.5204,2553.0571746263668
1300.4077,2802.5864836726796
1302.2943,2965.8876437522504
1304.1802,3065.7603641911373
1306.0653,2952.8043246565394
1307.9497,2753.2691741580657
1309.8333,2689.4545321772803
1311.7162,2646.0099906630767
1313.5984,2664.0351146698104
1315.4798,2702.3794427917437
1317.3605,2814.092486982803
1319.2405,2908.2237321731136
1321.1197,2921.672635151899
1322.9982,2785.238623626148
1324.876,2782.6710960861365
1326.753,2739.2694231697424
1328.6293,2747.5829476881518
1330.5048,2745.7109850598536
1332.3796,2708.152823227527
1334.2537,2674.6577226767404
1336.127,2641.4249168115493
1337.9996,2626.303612289439
1339.8714,2609.3429893536486
1341.7426,2608.042201984388
1343.6129,2627.300378068441
1345.4826,2538.8666194121724
1347.3515,2572.6900015489337
1349.2196,2522.4195746234273
1351.087,2574.3543630534496
1352.9537,2636.09336603261
1354.8197,2768.4855570109976
1356.6849,2969.2298830777636
1358.5493,3038.625263637221
1360.4131,3116.820588401377
1362.276,3078.7647166960032
1364.1383,2946.106476678686
1365.9998,2748.0946657193545
1367.8606,2463.4780517268828
1369.7206,2201.2053751292024
1371.5799,1973.3253517194717
1373.4384,1844.9866752788148
1375.2962,1730.638019855105
1377.1533,1483.1780410463489
1379.0096,1199.6053771441857
1380.8652,939.3186516084806
1382.7201,732.2664759030558
1384.5742,491.44745209856046
1386.4275,356.36017494297266
1388.2802,240.50323426980867
1390.132,156.47521634899203
1391.9832,128.92470504542507
1393.8336,39.30028265926558
1395.6832,36.15053020143387
1397.5322,17.574028289851412
1399.3803,-6.3806428190600855
1401.2278,-18.6149030446104
1403.0745,0.36989143649589096
1404.9204,-36.47742958956405
1406.7656,8.441963659688554
1408.6101,49.87726537625531
1410.4538,44.7276696677236
1412.2968,121.74237014291793
1414.139,161.22055996339805
1415.9805,295.8614310732919
1417.8213,373.6641738045273
1419.6613,497.27797553042365
1421.5006,723.25201988767
1423.3391,980.0354855401838
1425.1769,1303.2275439193636
1427.0139,1809.9773566562544
1428.8502,2405.834072349635
1430.6858,2971.5468214985067
1432.5206,3443.5647105435382
1434.3547,3697.5368162099294
1436.188,3755.212180787248
1438.0206,3688.239809589695
1439.8524,3546.368670379359
1441.6835,3468.147694035928
1443.5139,3445.2257759754193
1445.3435,3355.9017769323636
1447.1724,3309.524523189046
1449.0005,3295.792807468726
1450.8279,3209.955389399438
1452.6545,3198.9609956512904
1454.4804,3245.0583207948475
1456.3056,3246.5460274110774
1458.13,3181.772745630369
1459.9536,2998.0870731176656
1461.7766,2683.4375757201815
1463.5987,2325.7727893042756
1465.4202,1964.391222901928
1467.2409,1633.6913622874035
1469.0608,1368.4716735910733
1470.88,1147.330606606396
1472.6984,946.9665974421241
1474.5161,754.328070733718
1476.3331,613.2134416469598
1478.1493,508.62111780436317
1479.9648,434.74950069630177
1481.7795,363.8969867269516
1483.5935,300.1119679529893
1485.4067,280.64283279213305
1487.2192,244.78796666098424
1489.031,231.09575216972735
1490.842,200.01456948066334
1492.6522,224.54279644514827
1494.4618,180.5788089143989
1496.2705,188.82098049420892
1498.0785,148.71768298459756
1499.8858,145.8672862973799
1501.6924,169.9181588571937
1503.4981,177.01866763001453
1505.3032,180.4671778826396
1507.1075,154.46205311168342
1508.911,153.00165500910225
1510.7138,156.9343437222342
1512.5159,124.85847786840532
1514.3172,72.27241449561188
1516.1178,55.97450940325325
1517.9176,32.813117668016275
1519.7166,39.73659380685967
1521.515,-7.556707991394433
1523.3126,12.881566064719664
1525.1094,18.049845258186906
1526.9055,-12.153441256825317
1528.7008,17.670135493353882
1530.4954,-25.180874104722534
1532.2893,-20.757919841211333
1534.0824,-28.312199949325077
1535.8747,-22.19470529067803
1537.6663,-20.856143888009683
1539.4572,-17.997002038953724
1541.2473,0.03244231172539003
1543.0367,11.332091009309806
1544.8253,-1.1981541012319212
1546.6132,44.8416087117439
1548.4003,30.75129314944388
1550.1867,90.48081246465335
1551.9723,122.53007960265131
1553.7572,176.74900660390995
1555.5414,223.63750428361345
1557.3247,290.74548168944966
1559.1074,388.0228456327386
1560.8893,456.8195000173455
1562.6705,519.6353448669124
1564.4509,640.2202756368933
1566.2305,710.9741825863948
1568.0094,836.4469495723297
1569.7876,872.5384533418601
1571.565,924.198562277692
1573.3417,975.5271360371516
1575.1176,992.9240250355851
1576.8928,968.5890699330721
1578.6672,891.6221014604544
1580.4409,830.1729406626873
1582.2138,715.0413996685111
1583.986,657.7772823049472
1585.7575,595.6803852486082
1587.5282,536.9004985983356
1589.2981,532.5374064961743
1591.0673,503.2908877151676
1592.8358,560.5607157029881
1594.6035,543.6466588744042
1596.3704,579.3984800385879
1598.1366,628.0659365682441
1599.9021,673.2987800421106
1601.6668,752.3967557582655
1603.4308,818.7596022818088
1605.194,939.1870506538744
1606.9564,1067.078823728014
1608.7182,1248.3846349659052
1610.4791,1429.1541871584504
1612.2394,1588.087170612709
1613.9988,1735.1832613442093
1615.7576,1980.2421194876024
1617.5156,2220.1133878257224
1619.2728,2453.4466893389745
1621.0293,2601.6416248066307
1622.785,2657.347770473498
1624.54,2592.8146765679776
1626.2942,2470.0418667449994
1628.0477,2240.9788387313492
1629.8005,1993.4250655533979
1631.5525,1822.0299978277362
1633.3037,1644.0930662366973
1635.0542,1545.963683242333
1636.804,1442.341244865751
1638.553,1390.8251316684364
1640.3013,1381.3147097884703
1642.0488,1366.509331455678
1643.7955,1435.6083350867484
1645.5416,1483.211045433276
1647.2868,1575.7167728907734
1649.0313,1676.9748130226544
1650.7751,1879.43444563517
1652.5181,2015.8449337648253
1654.2604,2234.3055216537887
1656.0019,2547.065433385789
1657.7427,2870.2738707015105
1659.4828,3212.4300098709773
1661.222,3404.5329984614837
1662.9606,3427.4819519160246
1664.6984,3275.62595163227
1666.4354,2934.1640447330738
1668.1717,2453.9952455850344
1669.9072,1952.3685392131065
1671.642,1581.4328861023023
1673.3761,1280.437227213939
1675.1094,1009.380487695018
1676.8419,793.961579888175
1678.5737,670.9794060422482
1680.3048,558.0328604664592
1682.0351,473.1708307602403
1683.7646,363.09219894269336
1685.4934,339.5458423012242
1687.2215,302.6306344923105
1688.9488,233.49544577698362
1690.6754,200.83914338996692
1692.4012,235.6605922310373
1694.1263,190.60865519157323
1695.8506,155.63219280635622
1697.5742,146.33006370408202
1699.297,129.6011249571311
1701.0191,93.74423217459025
1702.7404,87.2082396695323
1704.461,49.84200081759536
1706.1808,60.644368122339074
1707.8999,47.61419358890544
1709.6182,60.00032861600357
1711.3358,41.001624126196475
1713.0527,21.416930442052035
1714.7688,24.895097476124647
1716.4841,9.084974926809991
1718.1987,20.88541224355049
1719.9126,12.89525878495715
1721.6257,-7.736636299210659
1723.338,21.138576011858277
1725.0496,-4.830177972036836
1726.7605,3.956027847521
1728.4706,17.64616782242865
1730.18,-14.960783734976758
1731.8886,-4.065852688816449
1733.5964,-6.669915444986145
1735.3036,14.026192208485554
1737.0099,-7.2782988839780955
1738.7156,-5.78415801821393
1740.4204,-32.69208177986275
1742.1246,2.597291029169355
1743.8279,-5.116351799129006
1745.5306,-10.08332249873456
1747.2325,-12.303882191271441
1748.9336,-25.578191265975875
1750.634,-23.7062871963044
1752.3336,8.162048070415949
1754.0325,-2.772730587337719
1755.7307,1.1898316272936427
1757.4281,10.40021721075027
1759.1247,4.00890864757821
1760.8206,28.96638831832206
1762.5158,50.4731385634459
1764.2102,12.929641433754114
1765.9039,12.586378475322817
1767.5968,22.193831104930723
1769.289,4.35248061350012
1770.9804,16.3128080700144
1772.6711,21.275294499933807
1774.361,24.240420765596355
1776.0502,34.25866751659032
1777.7386,37.88051516010455
1779.4263,26.95644376074506
1781.1132,51.83693300432242
1782.7994,59.17246230708406
1784.4849,58.563510566914374
1786.1696,45.110556089975034
1787.8535,58.8640765967948
1789.5367,74.97454935680253
1791.2192,97.94245105079335
1792.9009,48.56825760982247
1794.5818,79.10244398552186
1796.2621,86.84548464384898
1797.9415,76.89785325973571
1799.6202,99.71002263966238
1801.2982,83.58246482113282
1802.9755,77.11565084455196
1804.6519,97.41005091450461
1806.3277,104.51613446442116
1808.0027,76.68436995363481
1809.6769,105.31522479631985
1811.3504,100.30916563981191
1813.0231,103.66665807829486
1814.6951,124.13816670286815
1816.3664,142.37415506796333
1818.0369,140.52508548663536
1819.7067,151.14141884819855
1821.3757,136.0236146367206
1823.044,144.47213082485632
1824.7115,135.08742402502867
1826.3783,145.1199494049397
1828.0443,137.1201607814255
1829.7096,134.03851052011942
1831.3741,155.57544961545955
1833.0379,174.33142772150404
1834.701,157.00689293655978
1836.3633,178.40229161562365
1838.0248,167.9680685436315
1839.6856,186.40466672149796
1841.3457,180.5625274704571
1843.005,212.54209024769534
1844.6636,197.49379270477948
1846.3214,194.0180703678534
1847.9785,213.8153567881336
1849.6349,218.13608357665908
1851.2904,236.0306802063178
1852.9453,228.8995739686452
1854.5994,223.7931897948738
1856.2528,237.56195032724463
1857.9054,238.5062759700677
1859.5572,235.62658475203807
1861.2083,265.2732923167887
1862.8587,266.4968119516907
1864.5084,268.59755429138204
1866.1572,262.3759273055366
1867.8054,256.9823362778552
1869.4528,262.36718386828124
1871.0994,263.9308701669361
1872.7453,267.5237926402697
1874.3905,284.9963461154248
1876.0349,263.19892274431004
1877.6786,274.33191182887094
1879.3215,281.0957000390681
1880.9637,293.59067130154745
1882.6051,283.4672067320007
1884.2458,297.3756845102107
1885.8858,276.3664799812923
1887.525,279.73996551661276
1889.1634,261.29651072387423
1890.8011,282.8364824133869
1892.4381,278.6102447824933
1894.0743,305.5681592001756
1895.7098,296.9105842493136
1897.3446,291.687875457118
1898.9786,293.4503853816941
1900.6118,308.69846366426646
1902.2443,272.0824570115665
1903.8761,301.7527090433405
1905.5071,281.6095606585104
1907.1374,297.0533497384786
1908.7669,305.2344113485515
1910.3957,309.20307758350646
1912.0237,275.85967748577605
1913.651,273.8045370057689
1915.2776,284.2879793352995
1916.9034,280.8603249281341
1918.5285,259.3718913951634
1920.1528,255.8729935386782
1921.7764,255.51394356724995
1923.3992,245.94505113072682
1925.0213,238.56662332382075
1926.6427,212.07896478179464
1928.2633,207.88237775425387
1929.8832,248.07716237001023
1931.5023,223.81361667906185
1933.1207,247.8920362506351
1934.7383,245.16271441582103
1936.3552,216.12594202679338
1937.9714,241.23200748410636
1939.5868,209.33119702705517
1941.2015,220.223794482622
1942.8154,190.31008158448094
1944.4286,185.4903378640738
1946.041,185.21484094973948
1947.6528,178.98386661491804
1949.2637,194.69768878090508
1950.8739,167.05657957915537
1952.4834,166.06080919415126
1954.0921,172.91064613981325
1955.7001,171.30635726945457
1957.3074,151.34820770728675
1958.9139,168.53646086445588
1960.5197,173.8213786386268
1962.1247,163.95322124210452
1963.729,160.08224714897824
1965.3325,151.20871319381058
1966.9353,150.13287461034633
1968.5374,141.50498512024205
1970.1387,161.4752969438323
1971.7393,140.64406088639953
1973.3392,149.81152613847553
1974.9383,125.17794048415544
1976.5366,109.39355020942003
1978.1342,117.00860034847483
1979.7311,129.17333484159371
1981.3273,125.48799645896634
1982.9227,135.70282667905303
1984.5173,133.3680657254372
1986.1112,123.53395246467426
1987.7044,139.9507244296401
1989.2968,124.71861791787614
1990.8885,109.38786782742227
1992.4795,127.55870780913301
1994.0697,127.53137041999071
1995.6592,113.656086941387
1997.2479,125.73308737940533
1998.8359,122.66260060356944
2000.4232,90.89485422607595
2002.0097,122.53007463249833
2003.5955,101.21848729946487
2005.1805,95.26031647830587
2006.7648,118.75578540817241
2008.3484,96.3551163756074
2009.9312,132.05853047960227
2011.5133,131.16624785559543
2013.0946,109.37848731844588
2014.6752,110.64546637134936
2016.2551,103.21740142372255
2017.8342,107.09450777852726
2019.4126,96.3269997065554
2020.9902,101.16509040765686
2022.5672,95.90899211841224
2024.1433,92.45891606374971
2025.7188,92.71507250951345
2027.2935,98.1776707969575
2028.8674,88.34691934019338
2030.4406,99.27302557155508
2032.0131,108.20619603990508
2033.5849,96.19663630138257
2035.1559,113.04455083006542
2036.7261,95.60014313806369
2038.2957,97.91361560704445
2039.8645,108.38516966267616
2041.4325,114.41500575149166
2042.9998,112.50332323617567
2044.5664,104.6503203352645
2046.1323,118.30619414226157
2047.6974,89.8211407041681
2049.2617,98.74535488492575
2050.8254,113.62903065026603
2052.3883,119.32236097847044
2053.9504,113.72553771152798
2055.5118,101.63875149820888
2057.0725,98.2621918500281
2058.6325,105.14604726211383
2060.1917,112.44050524697604
2061.7502,101.49575226566458
2063.3079,100.4119736548264
2064.8649,87.13935373615459
2066.4212,93.97807582722317
2067.9767,105.3783223742148
2069.5315,103.19027488353413
2071.0856,102.71411380780182
2072.6389,87.65001856773961
2074.1915,96.498167556927
2075.7433,65.90873829244492
2077.2945,64.88190732639123
2078.8448,81.11785055177916
2080.3945,71.7167432128058
2081.9434,78.12875974249073
2083.4916,73.85407385668759
2085.039,81.24285848996624
2086.5857,80.19528583835563
2088.1317,82.0615272854584
2089.677,79.44175341292748
2091.2215,66.0361339818005
2092.7652,36.394837958698645
2094.3083,58.168033649884364
2095.8506,87.65588899767499
2097.3921,87.15857136270915
2098.933,89.07624722906758
2100.4731,84.95908220924412
2102.0124,93.45724102497343
2103.5511,86.8708875484017
2105.089,83.35018471710237
2106.6261,93.09529459994155
2108.1626,97.50637843228515
2109.6983,99.33359651854926
2111.2332,96.47710818808628
2112.7675,108.48707177691722
2114.301,106.31364465629304
2115.8337,103.95698311259594
2117.3657,93.51724236907557
2118.897,104.29457660941489
2120.4276,94.2391390821249
2121.9575,97.55108199277129
2123.4866,95.88055660452983
2125.0149,104.62771320506681
2126.5426,109.94270112324648
2128.0695,72.02566864165783
2129.5956,94.97676294346275
2131.1211,103.59613049157133
2132.6458,101.58391679912484
2134.1698,115.99026634330903
2135.693,113.61532258547095
2137.2155,104.70922782705566
2138.7373,110.5721232333567
2140.2584,89.35414892257631
2141.7787,102.85544390719815
2143.2983,87.97614630616499
2144.8171,88.66639320986542
2146.3353,90.22632082892869
2147.8527,105.10606448732142
2149.3693,108.90575860674971
2150.8853,100.3755365578636
2152.4005,75.21553062225439
2153.9149,88.12587207776414
2155.4287,86.20669145007832
2156.9417,101.55811838362843
2158.454,91.33028166077838
2159.9655,103.22330904831233
2161.4764,98.58732739971265
2162.9865,86.32246253623225
2164.4958,81.02883929325208
2166.0045,79.30658164292981
2167.5124,109.0558127471354
2169.0195,87.92665497467488
2170.526,108.01922960379807
2172.0317,106.28365703349027
2173.5367,102.37005658254566
2175.0409,109.07854650692661
2176.5445,103.75924403889621
2178.0473,96.9122653199338
2179.5494,108.43772545392767
2181.0507,110.08573857564443
2182.5513,102.5564177354745
2184.0512,91.74987488295483
2185.5504,103.1662209420565
2187.0488,92.70556591925424
2188.5465,100.46801878936321
2190.0435,81.4036876001428
2191.5397,89.81267939467489
2193.0353,83.04510040200557
2194.5301,84.10105595305868
2196.0241,87.63065054830577
2197.5175,93.58398784721021
2199.0101,73.26117063293077
2200.502,75.9123007527869
2201.9931,76.18747932148653
2203.4835,78.03680669461528
2204.9733,74.21038246588387
2206.4622,88.1583054486373
2207.9505,67.68067371411735
2209.438,61.37758445198324
2210.9248,70.04913417508897
2212.4109,70.54541878251075
2213.8962,59.51653347283536
2215.3809,84.06257273919528
2216.8648,73.43363047956018
2218.3479,72.92979975127491
2219.8304,47.45117287734956
2221.3121,58.297841451497334
2222.7931,55.91989659292085
2224.2733,56.96742883784373
2225.7529,61.240528163293675
2227.2317,66.03928397662185
2228.7098,51.81378507277714
2230.1872,61.06411958631816
2231.6638,54.34037513366411
2233.1397,51.1926387205981
2234.6149,68.57099680949796
2236.0894,64.3255353508157
2237.5632,43.35633960929499
2239.0362,35.36349420642546
2240.5085,50.49708333013541
2241.9801,45.807190814717615
2243.4509,46.04389998949546
2244.921,47.4072937257215
2246.3904,42.84745443421161
2247.8591,35.86446405170955
2249.3271,31.708404086487008
2250.7943,47.42935568817256
2252.2608,43.67739968931164
2253.7266,40.50261644815782
2255.1917,48.905085886191046
2256.656,37.88488751986824
2258.1197,45.2921003765955
2259.5826,36.826803104929695
2261.0447,32.08907390050854
2262.5062,35.57899059070405
2263.9669,44.19663068199861
2265.4269,39.89207132508591
2266.8862,46.4653892286924
2268.3448,43.96666070262472
2269.8026,63.19596159203729
2271.2598,52.70336730241797
2272.7162,52.08895260729696
2274.1719,54.25279175317246
2275.6268,42.99495846565151
2277.0811,56.115525927817544
2278.5346,64.91456689280494
2279.9874,60.442153552595755
2281.4395,61.39835745002529
2282.8908,57.38324952351195
2284.3414,67.44690009748729
2285.7914,57.93937892255417
2287.2406,52.36075507484429
2288.689,33.911097051100114
2290.1368,62.89047282445654
2291.5838,53.89895002894036
2293.0302,74.7365956696749
2294.4758,51.553476212794976
2295.9206,34.649657377068706
2297.3648,56.17520436573068
2298.8082,60.330182035521375
2300.251,53.36465468143024
2301.693,50.27868599514659
2303.1343,52.52233913471082
2304.5748,61.195676755380646
2306.0147,59.34876098718951
2307.4538,61.68165334821697
2308.8922,57.644414763056375
2310.3299,51.187105539484946
2311.7669,64.20978540883698
2313.2031,52.76251359057642
2314.6387,63.24534866207205
2316.0735,60.10834867306767
2317.5076,51.7515710408552
2318.941,50.87507258164169
2320.3737,70.97890959412098
2321.8056,71.71313786823703
2323.2369,55.22781248414594
2324.6674,50.67298780487454
2326.0972,63.79871764116979
2327.5263,62.05505529705306
2328.9547,57.842053438559105
2330.3823,51.4097641111739
2331.8092,66.35823878196197
2333.2355,52.73752840389034
2334.661,65.69768326634403
2336.0858,46.088753131334215
2337.5098,62.110787103896655
2338.9332,59.013833828180395
2340.3558,54.497941327227636
2341.7778,60.21315703394157
2343.199,52.3095278362498
2344.6195,55.587100019947684
2346.0393,57.445919347736435
2347.4583,78.18603102644693
2348.8767,65.60747968845317
2350.2943,61.36030918426741
2351.7113,71.34456270833061
2353.1275,79.56028284147806
2354.543,76.30751145110116
2355.9578,78.28628960898914
2357.3718,66.24665762385712
2358.7852,75.98865502155695
2360.1978,72.26232066547345
2361.6098,73.06769265910589
2363.021,77.70480838333333
2364.4315,63.423704488357544
2365.8413,72.37441684733449
2367.2504,69.1069806991843
2368.6587,59.77143055908482
2370.0664,57.26780025114476
2371.4733,64.24612300176022
2372.8795,68.70643146465113
2374.285,57.44875765107713
2375.6899,49.673132885234054
2377.0939,55.67958791683236
2378.4973,63.218152998852474
2379.9,58.188857827478614
2381.3019,56.09173146671401
2382.7032,63.02680239867368
2384.1037,64.79409854455685
2385.5035,60.49364719529558
2386.9027,61.675474993881835
2388.3011,57.73960797837253
2389.6987,61.03607157007059
2391.0957,52.46489061288412
2392.492,46.576089340359204
2393.8876,46.76969146139322
2395.2824,40.545720219121904
2396.6765,39.304198388986606
2398.07,48.9451483409714
2399.4627,54.618592052018585
2400.8547,46.024551009621064
2402.246,58.763046155083885
2403.6366,53.484097969466575
2405.0265,57.78772634619759
2406.4156,42.22395064386569
2407.8041,35.44278964318278
2409.1918,48.89426170262095
2410.5789,42.128384826223964
2411.9652,34.195176529094624
2413.3508,44.644653905052564
2414.7358,51.52683370596674
2416.12,44.091732237260885
2417.5035,40.68936528909012
2418.8863,42.969748210690796
2420.2684,44.58289594440612
2421.6497,48.7288230028812
2423.0304,29.007543452931486
2424.4104,19.4190708740839
2425.7896,38.063418555789895
2427.1682,34.69059959331139
2428.546,33.150626701275996
2429.9232,40.69351224740694
2431.2996,36.71926826792287
2432.6753,39.27790639210889
2434.0503,46.46943788205931
2435.4246,43.74387360709011
2436.7982,44.051223971824356
2438.1711,40.791498943448005
2439.5433,39.814708048635566
2440.9148,39.570860406147176
2442.2856,35.609964736595884
2443.6557,32.5820293648876
2445.025,39.58706225982587
2446.3937,35.72507106439707
2447.7617,37.39606302571542
2449.1289,44.25004503364562
2450.4955,46.2870236040942
2451.8613,52.65700481046679
2453.2265,47.559994263300496
2454.5909,34.94599704656321
2455.9546,46.81501776862342
2457.3177,44.61706068839044
2458.68,33.95212959662399
2460.0416,54.520227837913126
2461.4025,52.52135841732593
2462.7627,62.20552379472815
2464.1222,46.37272590477187
2465.4811,53.422966060054705
2466.8392,61.206245109447536
2468.1966,65.52256336759297
2469.5533,67.07192053707058
2470.9093,64.95431566523484
2472.2645,63.669747128722065
2473.6191,68.6182126546255
2474.973,64.9997093333418
2476.3262,64.76423356908504
2477.6787,66.91178111607474
2479.0305,62.54234708088734
2480.3816,57.505925900984266
2481.7319,64.25251138840213
2483.0816,55.68209678011954
2484.4306,56.49467467058912
2485.7789,68.04023709744479
2487.1264,55.91877553337372
2488.4733,56.18028077066242
2489.8195,41.9747430424095
2491.165,60.45215201991277
2492.5097,62.76249695472188
2493.8538,51.755766493866076
2495.1972,48.43194865675014
2496.5398,57.39103094522147
2497.8818,59.68300037680888
2499.2231,46.507843395131886
2500.5637,61.765545846979876
2501.9035,47.55609311406556
2503.2427,62.87946996044593
2504.5812,49.735660674617975
2505.919,52.474648916284195
2507.256,47.94641784779151
2508.5924,61.5009501067409
2509.9281,56.338227851270176
2511.2631,58.4082326245084
2512.5974,51.8609454062032
2513.9309,55.69634659202097
2515.2638,41.06441605902046
2516.596,77.46513312729644
2517.9275,58.84847670630211
2519.2583,45.16442493083878
2520.5884,59.312955347222896
2521.9178,64.64404505012863
2523.2465,64.50767054109951
2524.5745,57.65380767524039
2525.9018,66.98243166257998
2527.2284,58.04351713660935
2528.5543,50.087038060996974
2529.8796,58.11296781897522
2531.2041,67.8712792929075
2532.5279,63.56194478402858
2533.851,69.38493591485917
2535.1735,60.740223672302136
2536.4952,69.9777783494128
2537.8163,69.74756963184313
2539.1366,67.79956650546978
2540.4562,69.13373725869292
2541.7752,75.30004950191801
2543.0935,70.69847015421283
2544.411,77.37896538164455
2545.7279,74.8415006432972
2547.0441,80.08604062446511
2548.3596,82.26254926202728
2549.6744,70.37098969200292
2550.9885,80.71132422778669
2552.3019,86.33351447906375
2553.6146,79.0875212484068
2554.9266,75.12330447505383
2556.2379,75.54082330736856
2557.5485,81.99003614248204
2558.8585,83.77090062211846
2560.1677,84.9333735681023
2561.4762,91.47741096454911
2562.7841,90.052967946242
2564.0913,91.10999873318997
2565.3977,83.39845664487257
2566.7035,84.01829408967001
2568.0086,102.06946264197768
2569.313,92.75191303600764
2570.6167,86.66559498527772
2571.9197,99.86045727578653
2573.222,99.18644782687807
2574.5236,104.64351355929125
2575.8246,97.38160040190178
2577.1248,99.75065323715012
2578.4244,95.75061597366084
2579.7232,104.38143152255225
2581.0214,96.14304183743661
2582.3189,111.08538782811252
2583.6157,103.95840944294832
2584.9118,121.61204551946003
2586.2072,116.49623385558016
2587.5019,122.96091103312119
2588.7959,115.35601246893384
2590.0893,123.38147235026031
2591.3819,125.13722371078347
2592.6739,134.52319835037156
2593.9652,137.18932681752085
2595.2557,132.78553831549743
2596.5456,127.2617606756744
2597.8348,142.86792040157047
2599.1234,124.00394272408744
2600.4112,135.91975144544858
2601.6983,135.0152691278381
2602.9848,139.8904169742434
2604.2705,142.09511483749884
2605.5556,150.62928117153524
2606.84,141.4428330093333
2608.1237,139.8356858775819
2609.4067,129.50775388854186
2610.689,142.70894975611782
2611.9707,134.43918489913767
2613.2516,138.99836930933975
2614.5319,139.3864116340726
2615.8115,134.10321913070084
2617.0903,126.49869766272491
2618.3685,132.77275175261389
2619.6461,126.97528465785035
2620.9229,143.0061983081905
2622.199,147.1153933636392
2623.4745,132.45276905413925
2624.7493,135.61822313847983
2626.0234,131.31165205092339
2627.2968,132.98295086955045
2628.5695,129.98201335932595
2629.8415,135.15873195538552
2631.1128,131.61299779304386
2632.3835,136.84470065603
2633.6535,132.70372901194276
2634.9228,131.7899699599352
2636.1914,130.80330927212344
2637.4593,137.4436314027239
2638.7265,128.2608194979208
2639.9931,122.40475532946311
2641.259,134.67531938649165
2642.5242,130.97239093410053
2643.7887,135.09584789063103
2645.0525,128.74556686470078
2646.3156,130.12142311396985
2647.5781,132.27329060864304
2648.8398,124.65104201771044
2650.1009,128.55454868743084
2651.3613,140.98368071755135
2652.6211,124.48830692227523
2653.8801,130.51829470596772
2655.1385,126.92351022811204
2656.3961,140.2038183430085
2657.6531,123.05908263572326
2658.9094,138.58916528928444
2660.1651,131.19392725613045
2661.42,141.17322810280734
2662.6743,146.52692608392385
2663.9279,145.45487804235518
2665.1808,137.80693935570787
2666.433,136.23296394704028
2667.6846,144.33280436134157
2668.9354,144.70631178127155
2670.1856,146.7033359461626
2671.4351,162.02372514828323
2672.6839,168.4673262128698
2673.9321,152.63398434492206
2675.1795,156.02354306476525
2676.4263,161.08584436638625
2677.6724,160.6707286835359
2678.9179,168.97803483910775
2680.1626,168.6576000492878
2681.4067,161.60925984048333
2682.6501,165.68284805252586
2683.8928,173.9281969091552
2685.1348,158.64513697728444
2686.3761,159.23349708454373
2687.6168,157.34310447211283
2688.8568,143.57378478883766
2690.0961,150.1253621101331
2691.3348,146.09765907567703
2692.5727,135.8404968238941
2693.81,138.95369503223253
2695.0466,141.78707201973634
2696.2826,139.74044471591333
2697.5178,132.46362863240006
2698.7524,145.90643788342948
2699.9863,139.36868525859802
2701.2195,143.3501820884385
2702.452,151.55073830979734
2703.6839,156.67016242601994
2704.9151,155.10826142494398
2706.1456,156.26484072770518
2707.3755,169.53970420435792
2708.6046,159.2826541623083
2709.8331,177.84349121356627
2711.0609,183.12201437731517
2712.2881,192.31802089430437
2713.5145,205.78130617406237
2714.7403,208.76166370293947
2715.9654,217.10888490947195
2717.1899,223.82275913458136
2718.4136,237.70307354810052
2719.6367,247.19961308163522
2720.8591,254.4621602897614
2722.0809,267.6404952550598
2723.3019,270.33439551548884
2724.5223,286.39363593260305
2725.7421,288.86798866461265
2726.9611,282.8572230057921
2728.1795,286.1611053617356
2729.3972,278.8793993094665
2730.6142,265.6118655643962
2731.8306,253.50826205314354
2733.0462,232.96834404620756
2734.2612,219.1418642790062
2735.4756,206.87857315727388
2736.6892,193.7782188953272
2737.9022,180.3905476386974
2739.1145,156.06530359513363
2740.3262,144.3522291684801
2741.5372,129.50106520192867
2742.7475,119.01155109514843
2743.9571,107.28342495279855
2745.1661,101.5164236894226
2746.3744,90.06028314673063
2747.582,86.51473815126963
2748.7889,68.92952262898405
2749.9952,60.80436964067178
2751.2008,56.289011557835806
2752.4057,54.98318014393624
2753.61,46.4366065995431
2754.8136,52.949021575394795
2756.0165,38.670155257864394
2757.2188,38.44973730383447
2758.4204,39.83749698348697
2759.6213,28.533163182506428
2760.8215,27.486464388202762
2762.0211,42.24712880255447
2763.22,36.21488435267577
2764.4182,23.539458543210003
2765.6158,13.220578516652154
2766.8127,15.457971180103414
2768.009,7.851363308459327
2769.2045,10.30048152203642
2770.3994,7.155052362638344
2771.5936,1.7648022690647167
2772.7872,-1.2205423914357425
2773.9801,-11.651255269261242
2775.1723,-15.927597821592713
2776.3639,-10.549715109570684
2777.5548,-18.21759307763398
2778.745,-24.731112278568162
2779.9346,-18.93997127140358
2781.1235,-9.593621551359433
2782.3117,-13.641325403342535
2783.4992,-10.682249271980254
2784.6861,-16.41542332505992
2785.8723,-4.739771014698704
2787.0579,-6.204051802935396
2788.2428,8.943022198502831
2789.427,0.5528008563669573
2790.6106,12.526633947977757
2791.7935,15.415871245129097
2792.9757,25.22186239434859
2794.1573,31.345956888005958
2795.3382,44.28950396625237
2796.5184,55.40385255577871
2797.698,59.69035114038195
2798.8769,76.35034764982026
2800.0551,91.48518941694977
2801.2327,107.34622301112313
2802.4096,119.98479408684386
2803.5859,142.25224722515213
2804.7615,157.74992580724108
2805.9364,178.82917179178128
2807.1106,196.99132555994584
2808.2842,228.63772570461765
2809.4572,251.96970884876748
2810.6294,288.23860932899106
2811.801,332.04575896218626
2812.972,364.9424866828658
2814.1423,394.13011810508556
2815.3119,442.65997519347695
2816.4808,481.8833759713708
2817.6491,535.7016340354984
2818.8167,591.2660581637582
2819.9837,624.4779517770326
2821.15,673.3886123835442
2822.3157,722.399331246736
2823.4807,768.6113928961653
2824.645,799.0260746373972
2825.8086,849.2946460898826
2826.9716,886.8183688828134
2828.134,940.9984961524356
2829.2957,967.7862721668113
2830.4567,1007.2829317840192
2831.617,1012.689700184274
2832.7767,1023.0077924749626
2833.9358,1032.6884136365748
2835.0941,1014.4327584195236
2836.2519,999.392011247337
2837.4089,976.3173463992173
2838.5653,984.5099281604461
2839.7211,980.8209110531319
2840.8761,977.7014397542855
2842.0306,1003.952649132708
2843.1843,1036.8756642801868
2844.3374,1083.1216002489832
2845.4899,1143.7415617226027
2846.6417,1210.0366425533357
2847.7928,1277.107925156056
2848.9433,1342.606479845273
2850.0931,1420.1333641644164
2851.2422,1502.5396222308516
2852.3907,1562.7762839606098
2853.5385,1629.4443642443275
2854.6857,1668.8948623448769
2855.8323,1731.3287612306885
2856.9781,1783.1970271812434
2858.1233,1822.3506091627346
2859.2679,1867.3904383093868
2860.4118,1923.6674275319178
2861.555,1954.5824710671427
2862.6976,1986.5864439152015
2863.8395,2013.7802015304092
2864.9808,2035.7645795012183
2866.1214,2048.24039327828
2867.2614,2063.5584379545985
2868.4007,2082.2194881407772
2869.5393,2071.2242978118334
2870.6773,2094.3236001205905
2871.8146,2119.368107507631
2872.9513,2106.5585114703
2874.0874,2114.0954823122634
2875.2227,2091.029669271602
2876.3574,2073.2117004454412
2877.4915,2055.8921830206123
2878.6249,2018.2217034518285
2879.7577,1997.6008276348814
2880.8898,1975.8301012833467
2882.0212,1967.9100501347912
2883.152,1945.0411801684813
2884.2821,1931.5239776845835
2885.4116,1920.2089095328522
2886.5405,1932.1964232478035
2887.6686,1944.6869471618652
2888.7962,1936.5808902855008
2889.923,1953.1286421823052
2891.0493,1976.3805730500642
2892.1748,1975.2870335552789
2893.2997,1979.0983546006437
2894.424,2014.3648473359845
2895.5476,2024.1868031201438
2896.6706,2036.5144931683155
2897.7929,2054.2481684538257
2898.9145,2095.288059584855
2900.0355,2132.984376627105
2901.1559,2158.1373086933945
2902.2756,2186.347023566702
2903.3946,2234.11366744863
2904.513,2252.9873646773135
2905.6308,2287.4182172497517
2906.7479,2312.5563046330676
2907.8643,2328.5516834202053
2908.9801,2345.504387078543
2910.0953,2363.1644257899457
2911.2098,2342.181786281232
2912.3236,2349.706431647577
2913.4368,2347.0883015623394
2914.5494,2310.427312201813
2915.6613,2292.2733562714075
2916.7725,2261.926303372261
2917.8831,2230.736000182779
2918.9931,2213.7522707621038
2920.1024,2186.5249168620185
2921.211,2167.3537180967833
2922.319,2143.2884322154086
2923.4264,2133.6787952933705
2924.5331,2113.724521973258
2925.6391,2087.475305560874
2926.7445,2097.7808182247763
2927.8493,2106.44071125877
2928.9534,2088.054614978853
2930.0569,2088.7221386366145
2931.1597,2100.7928706031007
2932.2619,2072.716378362133
2933.3634,2068.542208389608
2934.4643,2059.2698864342565
2935.5645,2040.698917559388
2936.6641,2027.0287862356154
2937.763,1975.7589565265603
2938.8613,1938.3388722255584
2939.959,1884.3679573683564
2941.056,1809.1456166073135
2942.1523,1729.2712357511082
2943.248,1631.8441825169648
2944.3431,1557.463807329395
2945.4375,1457.8294442944675
2946.5313,1348.5404119436146
2947.6244,1255.7460142299742
2948.7169,1165.7955416212799
2949.8087,1070.5382720278053
2950.8999,985.2734717018702
2951.9904,896.2003961904106
2953.0803,828.8682911876288
2954.1696,779.376393425724
2955.2582,727.6739313482124
2956.3462,674.4101256048468
2957.4335,651.4341895686409
2958.5202,620.4453298685073
2959.6062,590.2927466190175
2960.6916,580.5756337302893
2961.7764,553.1931792095143
2962.8605,539.944565258128
2963.9439,536.328968545635
2965.0267,523.9455603420945
2966.1089,523.3935065542767
2967.1905,517.4219678494961
2968.2714,518.0300996611323
2969.3516,526.9670522483464
2970.4312,525.1319706899981
2971.5102,530.5239947952773
2972.5885,529.3922591220555
2973.6662,537.3858929229641
2974.7432,541.8540201567121
2975.8196,542.2457594081503
2976.8954,534.6602238435894
2977.9705,515.6465212068827
2979.045,505.2537538952804
2980.1188,495.8810191495693
2981.192,481.427409157998
2982.2645,469.3920111500056
2983.3364,440.4239075407568
2984.4077,423.1221760514966
2985.4783,395.13588999923206
2986.5483,368.464118469748
2987.6177,333.40592659747097
2988.6864,295.6103758321867
2989.7545,282.3765242896227
2990.8219,249.80342712940296
2991.8887,222.84013668738635
2992.9548,188.88570280139788
2994.0204,169.93917308086134
2995.0852,142.54959324634353
2996.1495,113.21600731902038
2997.2131,105.18745789457148
2998.276,89.16298643651749
2999.3383,76.19163335650342
3000.4,56.27243817454553
3001.4611,38.304439648743255
3002.5215,28.536675974472587
3003.5812,21.568184964064812
3004.6404,11.248004144485208
3005.6989,7.925170827017723
3006.7567,-0.20127778953371944
3007.8139,-7.88230458561668
3008.8705,-8.518870430913012
3009.9264,-14.061857450883053
3010.9818,-8.462062667471173
3012.0364,-12.72014262466621
3013.0905,-10.186669330451537
3014.1439,-3.912087718586122
3015.1966,-10.59674095800267
3016.2487,-6.590933135878004
3017.3002,1.6051375220533828
3018.3511,1.9913386334782217
3019.4013,-1.182462199967631
3020.4509,8.033602603438567
3021.4998,14.589412438216527
3022.5481,13.48484661855025
3023.5958,18.419784312729917
3024.6428,29.694104554197224
3025.6892,32.457686192196036
3026.735,35.260407779029265
3027.7802,40.15214754242288
3028.8247,47.83278335749901
3029.8685,54.6021926978583
3030.9118,63.31025255877449
3031.9544,73.85683938949933
3032.9963,77.29182900618298
3034.0376,78.66509648640829
3035.0783,95.32651613483995
3036.1184,92.97596146949138
3037.1578,108.16330505511121
3038.1966,109.23841852668812
3039.2348,115.35117243757855
3040.2723,119.30143624875461
3041.3092,120.23907826767692
3042.3455,127.56396560879165
3043.3811,126.77596418415447
3044.4161,129.87493863018187
3045.4505,118.01075231553045
3046.4842,122.28326731010833
3047.5173,116.49234450371546
3048.5498,120.48784356331959
3049.5816,118.81962299096506
3050.6128,109.53754008381782
3051.6434,118.14145095084774
3052.6734,112.93121060564965
3053.7027,105.106672880404
3054.7314,110.91769047797953
3055.7594,102.06411505017854
3056.7868,93.54579713962681
3057.8136,96.81258626830868
3058.8398,99.86433102275089
3059.8653,93.65087902135446
3060.8902,96.92207688387737
3061.9145,95.47777029356877
3062.9381,99.01780396445758
3063.9612,95.44202165579503
3064.9835,95.40026613665447
3066.0053,91.94237922168912
3067.0264,82.31820177154964
3068.0469,74.57757372746318
3069.0668,76.27033420747517
3070.086,71.6963215838557
3071.1046,71.5053734661717
3072.1226,66.34732674702678
3073.1399,58.97201760397115
3074.1567,54.72928155108184
3075.1727,45.51895351271594
3076.1882,40.9908678659379
3077.203,39.64485853262261
3078.2173,36.180759024736574
3079.2308,32.79840245779769
3080.2438,23.897621585516617
3081.2561,18.928248833619648
3082.2678,17.090116388857496
3083.2789,14.033056248698188
3084.2893,11.156900239708875
3085.2991,7.711480048126191
3086.3083,5.896627248617847
3087.3169,2.16217333873675
3088.3248,5.50794975706998
3089.3321,-0.4162120794170505
3090.3388,0.2895191911617303
3091.3449,-1.2250209113491906
3092.3503,3.9400002405978967
3093.3551,-1.3655724874905673
3094.3593,-4.841894269508401
3095.3629,1.610893362719736
3096.3658,-7.657302752107256
3097.3681,-5.946575791399141
3098.3698,-2.3569424361113818
3099.3708,-1.6383599609072235
3100.3713,0.7592379054048308
3101.3711,0.08593380123230077
3102.3702,-3.0581896426095057
3103.3688,1.7269493462156618
3104.3667,-3.6085369086412697
3105.364,-2.314536100798847
3106.3607,-0.19089987459190638
3107.3568,4.862543247860259
3108.3522,8.295966651528033
3109.347,8.009543672756564
3110.3412,4.953447564931309
3111.3348,2.227851501342599
3112.3277,6.732928605746281
3113.32,7.718851979619899
3114.3117,13.835794657111762
3115.3028,11.833929595181559
3116.2932,14.06342961243115
3117.2831,11.074467409123173
3118.2723,14.417215544885948
3119.2608,18.841846468603194
3120.2488,16.748532484986498
3121.2361,15.037445710329138
3122.2229,15.808758093439224
3123.209,20.5126414327506
3124.1944,23.349267368609674
3125.1793,26.868807336236443
3126.1635,27.721432537358424
3127.1471,26.057313905014695
3128.1301,26.676622095030382
3129.1125,27.97952750265759
3130.0942,29.316200256382302
3131.0753,28.036810204895204
3132.0558,29.691526903725162
3133.0357,31.180519628032926
3134.015,31.203957356064052
3134.9936,33.112008754258966
3135.9716,28.55484217701857
3136.949,35.23262564762376
3137.9258,38.3455269038071
3138.902,40.843713330974964
3139.8775,38.7273519310786
3140.8524,39.846609297632156
3141.8267,36.6016516368764
3142.8004,43.442644756586105
3143.7735,45.26975409851954
3144.7459,42.68314467000853
3145.7178,51.08298102568736
3146.689,50.46942729335879
3147.6596,47.84264708999592
3148.6295,51.902803527877666
3149.5989,57.25005924085646
3150.5676,48.48457634375683
3151.5357,50.8565163789027
3152.5032,55.466040403772254
3153.4701,55.363308967278684
3154.4364,53.048482063674626
3155.402,55.621719133579845
3156.367,56.283179087129355
3157.3315,59.93302027824106
3158.2952,61.521400498001114
3159.2584,63.848476938165476
3160.221,64.16440617527618
3161.1829,63.06934414739041
3162.1442,64.71344615092144
3163.105,63.39686685158907
3164.065,64.11976026797878
3165.0245,63.58227978470731
3165.9834,62.28457814519392
3166.9416,69.62680745703504
3167.8993,70.55911920498146
3168.8563,69.73166417751584
3169.8127,66.59459245752966
3170.7684,70.34805343059776
3171.7236,72.1921958163491
3172.6782,77.12716763093208
3173.6321,77.80311616857311
3174.5854,81.72018795222709
3175.5381,82.72852872681773
3176.4902,83.52828342006686
3177.4417,84.0195961324111
3178.3926,85.15261012900416
3179.3428,83.47746783480396
3180.2924,79.59431082324224
3181.2415,85.6532798329761
3182.1899,89.85451480671958
3183.1377,90.54815483065386
3184.0848,87.63433809241506
3185.0314,91.01320187415772
3185.9773,92.834882581693
3186.9227,91.9495157107001
3187.8674,93.6072358285094
3188.8115,93.00817658295614
3189.755,95.20247068580322
3190.6979,98.19024991873184
3191.6402,98.17164511139839
3192.5818,97.04678611155693
3193.5229,97.16580178524492
3194.4633,102.72882002803208
3195.4031,102.58596776383006
3196.3423,105.83737088926237
3197.2809,109.38315427509283
3198.2189,112.02344173371156
3199.1563,109.80835598367715
3200.0931,114.48801862331379
3201.0292,110.91255015286208
3201.9648,113.18206992768246
3202.8997,108.89669619400988
3203.834,114.25654606625855
3204.7677,112.56173556987574
3205.7008,119.01237958774324
3206.6333,117.6085918771255
3207.5652,117.40048500516318
3208.4964,122.13817036291098
3209.4271,123.52175816741878
3210.3571,123.25135741435471
3211.2865,120.92707586416938
3212.2154,125.39902004479976
3213.1436,122.81729527491203
3214.0712,121.73200561918227
3214.9982,128.4932539141135
3215.9246,127.40114177888871
3216.8503,128.85576954775834
3217.7755,130.2072362809614
3218.7001,129.4056397501792
3219.624,133.80107642502065
3220.5473,132.3936414810383
3221.4701,137.0834287557738
3222.3922,140.17053076283256
3223.3137,137.75503864498552
3224.2346,142.6870421432984
3225.1549,138.7666296212865
3226.0746,139.8438880155946
3226.9937,144.26890287520112
3227.9121,143.09175835064573
3228.83,146.81253714977896
3229.7473,144.53132054953383
3230.6639,148.54818835871782
3231.5799,147.96321894082524
3232.4954,146.42648917386853
3233.4102,151.58807445622787
3234.3244,149.29804872201854
3235.238,155.75648438947502
3236.151,155.5634523838512
3237.0634,160.66902207283627
3237.9752,154.62326126848467
3238.8864,159.02623617616064
3239.797,158.77801145499583
3240.7069,156.77865017385935
3241.6163,161.8782138138403
3242.5251,164.27676228824112
3243.4332,160.4243538915822
3244.3408,167.4210452756161
3245.2477,162.46689148785197
3246.154,166.96194590158842
3247.0598,168.256260265455
3247.9649,166.449884658462
3248.8694,165.39286747705683
3249.7733,170.4852554531882
3250.6766,169.8770936648761
3251.5793,173.4684254852878
3252.4814,172.5092925888198
3253.3829,176.89973491518413
3254.2838,175.58979067899998
3255.1841,174.82949632588907
3256.0838,178.4688865455752
3256.9829,178.55799427948722
3257.8814,179.24685068436503
3258.7792,175.58548513136856
3259.6765,181.97392519918924
3260.5731,181.31219671066356
3261.4692,183.95032366888861
3262.3647,184.3883282638395
3263.2595,182.57623084598808
3264.1538,180.9140499219228
3265.0474,186.35180217246983
3265.9404,185.7395024693147
3266.8329,186.7771638206249
3267.7247,184.26479737717284
3268.616,189.6524124219593
3269.5066,186.34001639533696
3270.3966,183.32761484113428
3271.286,184.7152114397795
