RamanShift,CorrectedData
30.1047,1038.307508597407
32.3739,963.6988056831916
34.6426,890.5400923859012
36.9109,818.9313486854726
39.1787,746.1725456564413
41.4461,672.5136461840294
43.7131,595.8546056917335
45.9796,523.395372877913
48.2456,453.0858904823809
50.5112,380.826096010996
52.7764,304.5159224387583
55.0411,235.25529893240645
57.3054,163.99415161351985
59.5692,94.93240425112481
61.8326,24.16997897430609
64.0955,-44.49320303717565
66.3579,-109.8572208452595
68.6199,-174.37170902478624
70.8815,-227.93520467696055
73.1426,-247.69450292961403
75.4032,-184.84412183788385
77.6634,96.17389501117725
79.9231,835.7193506232929
82.1824,2467.6020470424487
84.4412,5385.881777955436
86.6995,9261.168312373025
88.9574,12937.321365447175
91.2148,15494.00055971815
93.4717,16736.46538835302
95.7282,17054.275189578828
97.9842,17063.889134257977
100.2398,16812.766222710125
102.4949,16528.01528461602
104.7495,16276.094981528764
107.0036,16023.363809721295
109.2573,15755.080102705619
111.5105,15416.75203376009
113.7632,14987.787618612263
116.0154,14550.244718822176
118.2672,14102.181046071995
120.5185,13577.204166541436
122.7693,13099.871505388408
125.0197,12644.790351998778
127.2696,12224.467864759696
129.519,11949.461075610416
131.7679,11715.276894245508
134.0163,11544.122110864937
136.2642,11423.553398515904
138.5117,11341.127314804378
140.7587,11210.85030310081
143.0052,11036.17869336437
145.2512,10732.318703445731
147.4967,10427.376440833776
149.7417,10129.357905694204
151.9863,9862.36899391895
154.2304,9716.115500106367
156.4739,9588.20312023113
158.717,9572.837453106757
160.9596,9622.274001664728
163.2017,9717.56817310816
165.4433,9732.525278417426
167.6844,9671.700531397222
169.925,9496.849048526992
172.1651,9216.92584956917
174.4047,8981.335859317704
176.6439,8687.933910397285
178.8825,8430.22474561925
181.1206,8323.313020915597
183.3582,8194.903307916078
185.5954,8081.30009501731
187.832,7989.457788666886
190.0681,7961.580714499397
192.3037,7905.323118254855
194.5388,7855.989166057472
196.7734,7851.182944978231
199.0075,7839.408463528218
201.2411,7911.369651706697
203.4742,7933.770361118845
205.7068,7954.36436425615
207.9389,8023.255354272396
210.1704,8054.796944777727
212.4015,8003.592669149734
214.632,7998.645980218041
216.862,7956.160250776346
219.0915,7932.588773631893
221.3205,7919.134762030319
223.549,7935.1013498913835
225.777,7906.091591943492
228.0044,7815.758463564046
230.2314,7765.204861069528
232.4578,7602.483602618838
234.6837,7517.047428718827
236.909,7401.8990038515185
239.1339,7258.840917328462
241.3582,7186.625684442221
243.582,7091.355747896955
245.8053,7059.18347853056
248.0281,7046.661176267387
250.2503,7025.441070439951
252.472,6982.675319914155
254.6932,6958.1660133015
256.9139,6904.115169386737
259.134,6903.774737372962
261.3536,6948.19659742212
263.5727,7043.532560658409
265.7912,7177.384368724065
268.0092,7373.153692825996
270.2267,7601.242132397271
272.4436,7786.751213139428
274.6601,7914.732384741582
276.8759,7920.187019025338
279.0913,7987.01640866498
281.3061,8014.371767132934
283.5204,8087.104228031453
285.7341,8155.264844819086
287.9473,8273.754590083336
290.16,8206.274354859064
292.3721,7965.874947443592
294.5837,7670.657094071496
296.7947,7432.72144131861
299.0052,7273.568559054198
301.2152,7142.14894282031
303.4246,7060.163015423315
305.6334,6973.9111282480935
307.8418,6892.143562077904
310.0495,6788.910527956899
312.2568,6615.312168007795
314.4635,6365.098556464211
316.6696,6052.869701406644
318.8752,5749.825547264614
321.0802,5564.915977938948
323.2847,5487.890819832216
325.4887,5401.149843697832
327.692,5446.642765410305
329.8949,5602.369246832647
332.0972,5798.478895361444
334.2989,6027.971262369595
336.5001,5998.545841245217
338.7007,5875.252065096707
340.9008,5583.989307047015
343.1003,5216.256881466573
345.2992,4907.104046885918
347.4976,4656.73000967303
349.6955,4428.033927124841
351.8927,4310.714909970993
354.0895,4167.822024660794
356.2856,4089.9542945364055
358.4812,3996.8107012617684
360.6763,3930.390185601288
362.8707,3845.9416483512723
365.0646,3821.3139510041256
367.258,3784.305916592847
369.4508,3814.066329937301
371.643,3918.64393801429
373.8346,3980.5374496599543
376.0257,4120.445534524004
378.2162,4252.366822450768
380.4062,4334.049902080127
382.5956,4210.793319528295
384.7844,4017.4455775709985
386.9726,3748.3551368760363
389.1603,3531.070417936755
391.3474,3384.7398037629555
393.5339,3337.9116420537357
395.7199,3291.0342466607945
397.9052,3415.605898056723
400.09,3590.774843803765
402.2743,3777.189297308116
404.4579,3900.1974360682216
406.641,4089.5473998106427
408.8235,4208.837289259953
411.0054,4354.015164245271
413.1868,4434.279042507334
415.3675,4364.526898246742
417.5477,4270.9066613213
419.7273,4210.516217943552
421.9064,4030.603411616974
424.0848,3783.066043739891
426.2627,3455.8018754045897
428.4399,3148.208629872697
430.6166,2874.733995847837
432.7928,2614.375630551551
434.9683,2411.831162458042
437.1432,2282.498193897769
439.3176,2152.3243030828708
441.4914,2056.957045400517
443.6645,1995.293954714627
445.8371,1937.332544319559
448.0091,1888.6703075567293
450.1806,1852.904718394233
452.3514,1815.833231913468
454.5216,1809.3532846667858
456.6913,1774.412295048207
458.8603,1781.8076633582168
461.0288,1800.636772153186
463.1967,1757.1469861714068
465.3639,1723.6356521448088
467.5306,1651.6000992338559
469.6967,1612.3876393626524
471.8622,1592.5455679393162
474.0271,1537.0711642480874
476.1914,1513.6116916477658
478.3551,1463.8643981264286
480.5182,1422.7265165360532
482.6807,1477.295265089977
484.8426,1532.8178477742658
487.0039,1696.9914538020494
489.1647,1943.3632570582795
491.3248,2188.5304144580023
493.4843,2241.640063482633
495.6432,2187.289319728283
497.8015,2009.125276374678
499.9592,1819.8450047286478
502.1163,1559.3455560057755
504.2728,1287.6239632231955
506.4287,1193.92724380459
508.5839,1083.5024022974121
510.7386,1028.0464313098382
512.8927,1004.80631261503
515.0461,1038.1790177056846
517.199,1105.1115080264371
519.3512,1281.9007346401377
521.5029,1604.243637558524
523.6539,1912.4371439743281
525.8043,1986.4281650378452
527.9541,1742.06359277501
530.1033,1370.6402993474694
532.2519,1107.8551394962433
534.3999,952.6549542559605
536.5472,884.7365735827043
538.694,899.6968179060004
540.8401,958.0324988080265
542.9856,1038.4404188739845
545.1305,1113.0173711087664
547.2748,1208.8601381328626
549.4185,1183.6154914365889
551.5615,1201.8301904216678
553.704,1284.6509826536712
555.8458,1319.8746036798675
557.987,1419.7977762010214
560.1276,1573.4172097191513
562.2675,1919.8295995383141
564.4069,2326.1816252283843
566.5456,2548.3199471609587
568.6837,2461.3912024458095
570.8212,1990.0420027095279
572.958,1489.1189349647848
575.0942,1102.2685663238462
577.2299,875.7374490077927
579.3648,790.3221242150139
581.4992,727.8191243865367
583.6329,749.774974060163
585.766,905.2861904955189
587.8985,1124.699283454469
590.0304,1357.0107536460218
592.1616,1565.267090532203
594.2922,1651.014770004922
596.4222,1526.6502523034233
598.5515,1241.019981156809
600.6802,914.3703850276852
602.8083,661.7478799684559
604.9358,559.498872887827
607.0626,487.21976407703187
609.1888,518.2069482323186
611.3144,620.8568151777417
613.4393,807.8157495552914
615.5636,1073.730129798405
617.6873,1343.4963262623587
619.8103,1539.6106985651404
621.9327,1563.069592889773
624.0544,1436.5193400231765
626.1756,1132.8562551215819
628.2961,823.9266389760287
630.4159,639.3267810490015
632.5351,594.2529625637235
634.6537,551.6014583501455
636.7716,524.6685372956999
638.8889,526.1504627717986
641.0056,563.7434929031679
643.1216,646.5938805530404
645.237,747.5978729472154
647.3518,627.1017108455544
649.4659,486.7016275319511
651.5793,339.99385001929295
653.6922,287.2246004534536
655.8043,229.8900975803699
657.9159,175.58655727374207
660.0268,111.91019310836236
662.137,88.60721690317041
664.2466,105.82383935800863
666.3556,114.10627028665476
668.4639,84.25071844465492
670.5716,63.75339144648933
672.6786,28.710496064133622
674.785,-9.281761567966896
676.8907,-39.1274621332268
678.9958,-44.33059359026629
681.1002,-62.044753014371054
683.204,-43.02309461819823
685.3072,-33.868152787328654
687.4097,-39.73203210663087
689.5115,-24.766498818132277
691.6127,-18.8729222408665
693.7132,-31.102424276548845
695.8131,-41.25593828640558
697.9123,-16.08408691845125
700.0109,-2.737080673883611
702.1089,54.43503062612126
704.2061,100.13222450381909
706.3028,224.40447793712065
708.3987,362.15176690261524
710.4941,445.32406513285605
712.5887,506.6713427388777
714.6827,487.3935653784856
716.7761,426.9406936427713
718.8688,408.4126832489055
720.9608,388.45948564464925
723.0522,438.33104819364326
725.1429,518.3773143749404
727.233,698.5482232842787
729.3224,974.6437088336243
731.4112,1295.0636979494693
733.4993,1418.458107811868
735.5867,1252.076842650239
737.6735,863.4697925094342
739.7596,499.88683491354186
741.845,287.87783875196146
743.9298,195.19266791523114
746.014,148.98118341511417
748.0974,168.44324431144923
750.1802,144.1287081742612
752.2624,145.48743088914762
754.3439,149.31926690041837
756.4247,171.07406919751975
758.5048,224.2516892767053
760.5843,319.25197692349684
762.6631,498.0747796808955
764.7413,770.3699418993883
766.8188,1224.7373029487144
768.8956,1651.1266944949166
770.9718,1992.0379359566705
773.0473,1966.8708302413852
775.1221,1780.075160336094
777.1962,1678.6506895591301
779.2697,1930.9471634280762
781.3426,2513.6143106740074
783.4147,2976.5518407185373
785.4862,3015.659437847139
787.557,2639.786756579768
789.6271,2002.6334212797901
791.6966,1320.049029912705
793.7654,769.2331604176843
795.8335,449.1353775334019
797.901,277.8052383062113
799.9678,190.6422952911089
802.0339,189.74609826504457
804.0993,217.46619509855282
806.1641,224.9521317647086
808.2282,169.25345206192833
810.2916,98.5696975391129
812.3544,42.25040805262506
814.4164,-32.45487752685858
816.4778,13.553379248834062
818.5385,72.02504105210392
820.5986,257.1098351570927
822.658,509.0074881176897
824.7166,832.9677239166958
826.7747,1298.9402614468345
828.832,1695.5248112711588
830.8886,1993.8710709633187
832.9446,2181.028721141719
834.9999,2111.247422486059
837.0545,1818.3768138657497
839.1085,1364.8665130377267
841.1618,928.0661195751645
843.2143,632.1752194025694
845.2662,413.04338916378765
847.3175,363.22019918091974
849.368,298.8552156456335
851.4179,305.7480011173975
853.467,253.74811516712998
855.5155,335.00511430827464
857.5633,382.11855251679026
859.6105,367.9379804185892
861.6569,312.6129448183947
863.7027,242.09298884155396
865.7478,183.6776524872812
867.7922,128.11647333386736
869.8359,81.25898712283106
871.8789,61.40472831452644
873.9212,34.10323055672416
875.9629,71.2040268831488
878.0039,136.15630963625154
880.0441,215.70927044644304
882.0837,323.8120995825757
884.1226,455.4139851564141
886.1609,649.0641120416012
888.1984,915.211660557643
890.2352,1214.2558045334063
892.2714,1287.8957086456458
894.3069,1187.1805254285555
896.3416,939.7093945373808
898.3757,694.4314437555622
900.4091,534.1457914694511
902.4418,548.5515491210845
904.4739,655.9978228110467
906.5052,813.8337131544104
908.5358,844.1583142062709
910.5658,776.8707118833909
912.595,616.819983660952
914.6236,419.85519924543587
916.6515,273.07542217512764
918.6786,176.92971178976586
920.7051,124.46712469833528
922.7309,156.9367157405286
924.756,147.08753851137408
926.7804,202.56864503653287
928.8041,261.9290858707918
930.8272,362.81790954325515
932.8495,421.78416196373655
934.8711,448.37688541387433
936.892,496.5951179574695
938.9123,600.9378931745568
940.9318,767.654239679222
942.9506,882.9431800761786
944.9688,868.2037292935984
946.9862,779.8348934302257
949.003,596.5356699027752
951.019,482.2550483296136
953.0344,384.74201236375484
955.0491,291.8455408356649
957.063,277.2646087283929
959.0763,268.9481881065303
961.0888,285.7952482620258
963.1007,295.654755797349
965.1119,247.6756744570157
967.1223,196.1569650290021
969.1321,160.79758582452814
971.1412,145.24649319324362
973.1495,133.5026418768266
975.1572,132.16498516448792
977.1641,189.38247501041496
979.1704,212.55406204714836
981.1759,191.77869501341502
983.1808,174.55532052240505
985.1849,128.93288326952552
987.1884,130.0603262046361
989.1911,160.68659098827357
991.1932,194.06061798036717
993.1945,226.38134593398718
995.1951,225.8977116615988
997.1951,230.8586497118522
999.1943,193.81309237442383
1001.1928,216.6099696304109
1003.1906,261.64820952278205
1005.1877,406.42673792841197
1007.1841,551.9444781076936
1009.1798,639.6003492567579
1011.1748,638.5932650522946
1013.1691,496.5721327749925
1015.1627,332.83585331960967
1017.1556,189.8333226151908
1019.1477,100.66343326242531
1021.1392,11.675075963672498
1023.1299,-11.432859585343067
1025.12,-58.01160032290227
1027.1093,16.837741026968615
1029.0979,132.96463127612333
1031.0859,224.46836902737778
1033.0731,305.74825155390226
1035.0596,335.8535738841865
1037.0454,312.1336279892421
1039.0304,273.33770248154633
1041.0148,175.11508285224227
1042.9985,74.61505185909846
1044.9814,-8.66310949126455
1046.9636,-46.32012093837329
1048.9452,-10.556615677292939
1050.926,93.32723583492316
1052.9061,197.63136860180566
1054.8855,272.5057166936185
1056.8642,277.6502122043157
1058.8421,271.1647845027983
1060.8194,251.24936018146218
1062.7959,253.95386312106075
1064.7717,229.6782146898595
1066.7469,214.52233371658713
1068.7213,250.28613673319614
1070.695,326.9195381264153
1072.6679,426.5724497801111
1074.6402,578.0947803089566
1076.6117,675.6864340618986
1078.5826,636.6473096069476
1080.5527,447.67729875524583
1082.5221,273.97628695146796
1084.4908,134.04415516351855
1086.4587,27.530781619541813
1088.426,-24.063956792752833
1090.3925,-32.640458218165804
1092.3584,-19.948880402571376
1094.3235,16.160944986330833
1096.2879,108.8893855701499
1098.2515,234.4866475226545
1100.2145,373.5529359287211
1102.1767,537.0384535283629
1104.1382,764.0433993260649
1106.099,1049.3679669559278
1108.0591,1306.0623424116147
1110.0185,1517.1767011931133
1111.9771,1722.161205739786
1113.9351,1967.266003319235
1115.8923,2324.191223977453
1117.8488,2612.936978087777
1119.8045,2507.4533527816284
1121.7596,2047.2404090610598
1123.7139,1440.0981828535942
1125.6675,1059.5766896143523
1127.6204,998.1759303974732
1129.5726,1082.095895661334
1131.524,1137.1865658825573
1133.4748,999.5979107168123
1135.4248,687.4798884479032
1137.3741,428.1824473636543
1139.3226,248.65552887708964
1141.2705,214.1490701194125
1143.2176,230.11300573527024
1145.164,336.94726822782377
1147.1097,374.50178779910493
1149.0546,318.92649128167886
1150.9989,169.07130176308965
1152.9424,68.83613914161924
1154.8852,-32.429078375159406
1156.8272,-55.474433268032044
1158.7686,-47.34968405129803
1160.7092,-63.154035049665254
1162.6491,-60.43621756450011
1164.5883,14.70566801163477
1166.5267,86.87412504399072
1168.4644,194.0715099881927
1170.4014,337.95017843112873
1172.3377,535.9124840189743
1174.2732,790.510777018404
1176.2081,1173.9474023369676
1178.1421,1793.574696977108
1180.0755,2514.694986201798
1182.0082,3011.210577338268
1183.9401,3107.223752566798
1185.8713,2713.0867639555645
1187.8017,2053.501832500513
1189.7315,1439.0711520667192
1191.6605,932.5968959842467
1193.5888,640.9812231924461
1195.5163,464.02628330470634
1197.4432,324.18421952460085
1199.3693,218.85717041544194
1201.2947,129.24727129870644
1203.2193,87.50665530729566
1205.1432,72.98745428164148
1207.0664,69.79179918710179
1208.9889,53.37182025916445
1210.9106,41.7296470353931
1212.8316,70.96740851963659
1214.7519,124.58723329845088
1216.6715,182.99124924872103
1218.5903,229.7315830014595
1220.5084,295.71035935777036
1222.4257,372.52970082144293
1224.3424,447.99172693916444
1226.2583,512.048553532326
1228.1735,658.7522919423973
1230.0879,834.8550483903691
1232.0016,1030.1089225097057
1233.9146,1220.016005585322
1235.8269,1313.1783786010474
1237.7384,1348.4481103405506
1239.6492,1300.4272564557168
1241.5592,1353.3678591139587
1243.4686,1548.4219474784168
1245.3772,1894.2915371785557
1247.285,2346.7286283596213
1249.1922,2781.1852022239473
1251.0986,3156.1132165065883
1253.0042,3490.164601130744
1254.9092,3920.1912544584893
1256.8134,4447.995039950252
1258.7169,4990.727781864549
1260.6196,5504.941259979949
1262.5216,5814.637204167742
1264.4229,5879.717289249814
1266.3234,5768.533131901675
1268.2232,5444.086290001669
1270.1223,5101.978263742807
1272.0207,4869.710498877248
1273.9183,4736.384390137357
1275.8151,4714.501283558406
1277.7113,4844.9124778118185
1279.6067,5244.769224424014
1281.5014,5931.072726472285
1283.3953,6945.72413458623
1285.2885,8110.47454008473
1287.181,9148.874964829422
1289.0727,9648.176349577203
1290.9637,9437.529543596222
1292.854,8779.035299672858
1294.7435,7929.04427621821
1296.6323,7162.957043853015
1298.5204,6463.87409390758
1300.4077,5971.995846082638
1302.2943,5614.672655440187
1304.1802,5333.9548173222665
1306.0653,5108.792570924193
1307.9497,4946.18610210173
1309.8333,4796.935545622724
1311.7162,4715.890986793158
1313.5984,4602.102462949667
1315.4798,4514.019964269976
1317.3605,4548.543434910791
1319.2405,4684.422773888613
1321.1197,4761.857834734517
1322.9982,4673.198424135355
1324.876,4459.044301159396
1326.753,4033.145178142937
1328.6293,3529.2507228318264
1330.5048,2995.9105626404626
1332.3796,2490.3742896907415
1334.2537,2084.141466145451
1336.127,1789.0616292636396
1337.9996,1618.8342954629425
1339.8714,1489.9589632703774
1341.7426,1365.4351150246239
1343.6129,1259.0622181647732
1345.4826,1186.5397264755666
1347.3515,1084.5670811511209
1349.2196,1007.2937115201639
1351.087,954.3690360657556
1352.9537,941.0924631980179
1354.8197,956.4633917833899
1356.6849,1013.7812112773872
1358.5493,1071.8953015708876
1360.4131,1188.6050324169637
1362.276,1386.959762849735
1364.1383,1619.3588400172703
1365.9998,1707.6515971980461
1367.8606,1669.3373514769555
1369.7206,1649.7154028623763
1371.5799,1662.2350346693156
1373.4384,1685.4455137156274
1375.2962,1564.696090196816
1377.1533,1306.63599745393
1379.0096,1087.7144531810636
1380.8652,895.2806620059464
1382.7201,761.4338176791716
1384.5742,600.9231049985192
1386.4275,467.39770114743897
1388.2802,362.10677730015414
1390.132,292.59949995691295
1391.9832,248.47503199689982
1393.8336,232.78253337330716
1395.6832,211.77116155458043
1397.5322,189.8400716813385
1399.3803,143.33841677649343
1401.2278,88.66534796455471
1403.0745,57.92001493665157
1404.9204,8.95156649726232
1406.7656,-19.140849128330956
1408.6101,-20.208083804363923
1410.4538,-37.70079817798705
1412.2968,-33.56945101759993
1414.139,-21.064124460624953
1415.9805,22.215434714327785
1417.8213,63.56969015925006
1419.6613,160.04910530398138
1421.5006,322.00414294266284
1423.3391,525.0352642689486
1425.1769,807.0429272564515
1427.0139,1211.0775846284378
1428.8502,1690.5896810377453
1430.6858,2073.97964902644
1432.5206,2268.197904230691
1434.3547,2254.444841546876
1436.188,2185.9708331893908
1438.0206,2117.076228828186
1439.8524,2055.1113562735045
1441.6835,2061.5265221648297
1443.5139,2043.8220125905336
1445.3435,2094.348093023723
1447.1724,2131.9550084992916
1449.0005,2128.642983108648
1450.8279,2101.5622196236554
1452.6545,2074.5128995297455
1454.4804,2067.3451832967276
1456.3056,2022.609210649288
1458.13,1922.3051006386613
1459.9536,1820.482952089994
1461.7766,1658.24284460538
1463.5987,1460.88483958209
1465.4202,1269.2089818349687
1467.2409,1058.4653015700123
1469.0608,885.6538163011273
1470.88,727.8745329575727
1472.6984,597.2774496120701
1474.5161,460.16255705860067
1476.3331,371.37984011836943
1478.1493,317.3792790109628
1479.9648,290.0108502421731
1481.7795,292.8245271439996
1483.5935,303.9202801483407
1485.4067,330.39807675885004
1487.2192,335.7078814399765
1489.031,366.6996553521917
1490.842,365.32335629888894
1492.6522,387.1789384164681
1494.4618,385.11635218809533
1496.2705,398.03554422515117
1498.0785,359.9864572878555
1499.8858,355.86903015607913
1501.6924,333.4331980098232
1503.4981,296.97889247040666
1505.3032,290.8060418248151
1507.1075,270.71457139024733
1508.911,256.6044035758455
1510.7138,239.17545808360774
1512.5159,201.02765204949037
1514.3172,166.8609002176986
1516.1178,141.87511532215922
1517.9176,122.47020842819211
1519.7166,99.54608918236818
1521.515,81.05266600655978
1523.3126,63.43984632717866
1525.1094,57.85753676011336
1526.9055,56.30564328685159
1528.7008,31.434071310309264
1530.4954,22.292725670346954
1532.2893,13.13151089248413
1534.0824,13.850331279315014
1535.8747,13.899091002123896
1537.6663,20.127694093693208
1539.4572,26.386044447816857
1541.2473,48.02404575701303
1543.0367,54.04160144993921
1544.8253,61.188614475015584
1546.6132,88.41498724024541
1548.4003,109.57062154175037
1550.1867,163.10541829150452
1551.9723,219.16927730577572
1553.7572,301.0620967697828
1555.5414,388.4837726770538
1557.3247,537.8841980104976
1559.1074,708.7132618681876
1560.8893,930.4708479693545
1562.6705,1176.3568329460973
1564.4509,1354.2710841258117
1566.2305,1442.163457072325
1568.0094,1515.7337938067558
1569.7876,1549.3819219285901
1571.565,1541.557653879977
1573.3417,1542.1607866092481
1575.1176,1582.7911016491603
1576.8928,1684.948365110863
1578.6672,1812.032327277595
1580.4409,1979.1927215831179
1582.2138,2221.3792633408675
1583.986,2470.4916480723587
1585.7575,2733.7295490853126
1587.5282,2957.792614982539
1589.2981,3153.2804670295527
1591.0673,3222.392696913943
1592.8358,3307.078864790496
1594.6035,3303.688498590072
1596.3704,3224.321093172742
1598.1366,3116.476110361698
1599.9021,2992.50297973692
1601.6668,2833.301099713629
1603.4308,2693.5198387820205
1605.194,2663.958537099279
1606.9564,2768.816507887396
1608.7182,3052.443037728776
1610.4791,3497.137385517659
1612.2394,4095.7487796238556
1613.9988,4767.176413445804
1615.7576,5381.719439424458
1617.5156,5724.1269623290045
1619.2728,5713.648033111437
1621.0293,5344.631645482488
1622.785,4737.976736016406
1624.54,4008.582187841125
1626.2942,3310.1468367048124
1628.0477,2689.6194782698158
1629.8005,2155.6988750970163
1631.5525,1755.2337628511018
1633.3037,1416.5728556397735
1635.0542,1194.2648500183936
1636.804,985.5084283766014
1638.553,828.7522611613854
1640.3013,743.8950089646514
1642.0488,632.5353240907848
1643.7955,554.8218514052196
1645.5416,513.4532294480414
1647.2868,452.62809121111513
1649.0313,416.2950645517767
1650.7751,391.3527728010822
1652.5181,382.7998351271367
1654.2604,394.7848667845192
1656.0019,420.85647919980966
1657.7427,458.113279851741
1659.4828,570.7538720104858
1661.222,716.8768543650826
1662.9606,953.7808198970351
1664.6984,1178.5143544190769
1666.4354,1339.326034206134
1668.1717,1343.16442374799
1669.9072,1154.9280741411703
1671.642,922.5655230505554
1673.3761,695.325296591745
1675.1094,501.0059116546845
1676.8419,356.605878176068
1678.5737,251.87370108253253
1680.3048,188.9078817346567
1682.0351,132.10691897428433
1683.7646,89.16930975417972
1685.4934,86.9435497060399
1687.2215,70.77813356986962
1688.9488,48.471555216241086
1690.6754,44.172307807946254
1692.4012,44.32888402306298
1694.1263,45.889776097946196
1695.8506,31.90347582566619
1697.5742,17.76847454039671
1699.297,28.983263257277486
1701.0191,15.096332813764548
1702.7404,12.756173757483793
1704.461,-9.138723514901358
1706.1808,-4.289868734285847
1707.8999,-7.298680335716654
1709.6182,-18.316533898453145
1711.3358,-15.094732087939065
1713.0527,1.2156054125557603
1714.7688,-4.386490283867261
1716.4841,-5.551988076260841
1718.1987,-13.481813042640624
1719.9126,-10.126834796663843
1721.6257,-8.337788268675013
1723.338,-12.515307221938656
1725.0496,-18.70994212521782
1726.7605,-18.97211841935723
1728.4706,-8.752074632881431
1730.18,-4.4998597628523385
1731.8886,1.9845646268936434
1733.5964,-16.398718073884083
1735.3036,-5.1996244952702
1737.0099,0.08209255584597486
1738.7156,3.8467322168212377
1740.4204,-8.605406375806524
1742.1246,14.475975876031953
1743.8279,18.941264038417103
1745.5306,15.740843032668181
1747.2325,19.57509759069444
1748.9336,6.344412286995976
1750.634,10.34917150032652
1752.3336,23.239759545996094
1754.0325,25.66656063582468
1755.7307,22.82995874923199
1757.4281,46.330337608976606
1759.1247,38.06808070952229
1760.8206,49.443571082034396
1762.5158,44.80719137700089
1764.2102,46.959323750474596
1765.9039,52.10034991043676
1767.5968,49.28065109527688
1769.289,57.35060802238013
1770.9804,52.8606009163268
1772.6711,68.96100942819248
1774.361,60.65221268044661
1776.0502,71.83458910595073
1777.7386,69.20851653104478
1779.4263,78.62437206372351
1781.1132,66.7325321198989
1782.7994,72.13337232924096
1784.4849,83.92726765409475
1786.1696,89.26459233547394
1787.8535,96.14571977512014
1789.5367,93.57102248212846
1791.2192,95.44087200414128
1792.9009,81.80563895308774
1794.5818,87.81569298649174
1796.2621,97.42140294382034
1797.9415,92.22313678638648
1799.6202,88.47126150128997
1801.2982,85.01614315340021
1802.9755,92.75814692287508
1804.6519,102.54763713971238
1806.3277,101.08497720632886
1808.0027,92.22052949966724
1809.6769,104.60465538582093
1811.3504,106.33771530867989
1813.0231,102.02006866608644
1814.6951,119.95207379250769
1816.3664,122.48408800220977
1818.0369,126.41646740993929
1819.7067,124.69956690560275
1821.3757,121.0337401149427
1823.044,123.16933941670595
1824.7115,134.15671597930304
1826.3783,125.4462197394505
1828.0443,123.88819929229817
1829.7096,123.8830019785346
1831.3741,133.43097389996638
1833.0379,130.43245991957383
1834.701,133.4878035660263
1836.3633,139.69734706366876
1838.0248,146.0114313019685
1839.6856,158.33039577342083
1841.3457,155.65457851040765
1843.005,144.93431596200776
1844.6636,154.26994302075582
1846.3214,153.41179312984468
1847.9785,158.8101981897687
1849.6349,156.26548856690306
1851.2904,168.7779930395218
1852.9453,164.54803882324495
1854.5994,168.12595144591387
1856.2528,180.16205478988968
1857.9054,169.8066710562755
1859.5572,169.71012064455408
1861.2083,169.8727222561431
1862.8587,183.29479289535925
1864.5084,172.62664786779237
1866.1572,183.91860064608568
1867.8054,183.12096297661765
1869.4528,177.7840447665808
1871.0994,179.65815409195943
1872.7453,181.79359725089807
1874.3905,183.94067874496068
1876.0349,171.54970125777572
1877.6786,176.92096563356563
1879.3215,194.50477100105604
1880.9637,186.95141471976376
1882.6051,190.71119220415858
1884.2458,192.18439699919531
1885.8858,189.27132074271776
1887.525,199.47225315072728
1889.1634,195.28748204651288
1890.8011,185.81729325864103
1892.4381,192.1119706628042
1894.0743,193.52179627652413
1895.7098,181.8970501962026
1897.3446,183.58801058302583
1898.9786,194.3449537792103
1900.6118,194.81815429109292
1902.2443,193.95788468156275
1903.8761,187.21441556532773
1905.5071,176.1880156175173
1907.1374,182.2289516411172
1908.7669,190.3374886772349
1910.3957,193.71388994468998
1912.0237,180.20841675892666
1913.651,190.2213284982529
1915.2776,184.40288273889269
1916.9034,184.20333515485845
1918.5285,192.2229395761351
1920.1528,180.7119479906744
1921.7764,181.67061046419985
1923.3992,173.69917525531514
1925.0213,171.99788880591973
1926.6427,169.91699582092178
1928.2633,153.90673928525166
1929.8832,167.46736048466983
1931.5023,160.24909916587058
1933.1207,164.20219340087556
1934.7383,171.62687965921623
1936.3552,163.1233927684043
1937.9714,160.64196583968192
1939.5868,159.7328303530585
1941.2015,169.2462161821254
1942.8154,164.63235160314434
1944.4286,155.74146319991655
1946.041,159.27377590992
1947.6528,153.62951311321967
1949.2637,157.10889659714167
1950.8739,156.7121466127203
1952.4834,155.08948183990037
1954.0921,159.3411193915067
1955.7001,156.06727482946962
1957.3074,156.16816212230947
1958.9139,150.8439936778741
1960.5197,144.9949803423301
1962.1247,144.77133145340508
1963.729,146.17325489887685
1965.3325,136.75095711881045
1966.9353,144.25464309153858
1968.5374,147.88451642788596
1970.1387,138.24077929613168
1971.7393,134.37363238571038
1973.3392,131.23327500365076
1974.9383,147.2199051132452
1976.5366,120.78371936545477
1978.1342,141.87491293904304
1979.7311,133.5936798049363
1981.3273,134.4902125153112
1982.9227,142.11470228640974
1984.5173,136.96733898957086
1986.1112,125.8483110749878
1987.7044,127.85780562318041
1989.2968,133.44600845618697
1990.8885,141.71310411746663
1992.4795,124.75927581602014
1994.0697,134.18470534371704
1995.6592,130.6395732448343
1997.2479,128.07405872180243
1998.8359,133.7383396706564
2000.4232,125.28259270669196
2002.0097,123.20699310782288
2003.5955,133.26171489913645
2005.1805,122.59693087365144
2006.7648,130.96281249176968
2008.3484,122.2095299879229
2009.9312,124.93725228691596
2011.5133,130.54614709145926
2013.0946,122.93638085489101
2014.6752,129.50811872508825
2016.2551,130.3615246205643
2017.8342,123.0967611647518
2019.4126,119.11398967746868
2020.9902,119.81337024756635
2022.5672,106.89506177275689
2024.1433,122.85922195261878
2025.7188,114.00600741778089
2027.2935,113.28557357028012
2028.8674,110.6980746720933
2030.4406,113.1436638523437
2032.0131,117.12249313317307
2033.5849,103.68471340528663
2035.1559,107.5304743881668
2036.7261,117.80992476444771
2038.2957,119.92321214145909
2039.8645,98.07048294843275
2041.4325,126.05188241536825
2042.9998,109.46755479156195
2044.5664,114.6676430657908
2046.1323,112.1522891321581
2047.6974,112.77163373809071
2049.2617,113.42581650949228
2050.8254,106.66497594455245
2052.3883,113.58924940720226
2053.9504,113.84877319472321
2055.5118,115.5436824685064
2057.0725,121.97411125145504
2058.6325,103.29019241103538
2060.1917,109.64205759497327
2061.7502,107.8798374180933
2063.3079,121.20366139880048
2064.8649,103.51365797670178
2066.4212,103.80995437936781
2067.9767,102.59267679923437
2069.5315,107.11195039063728
2071.0856,112.86789928198641
2072.6389,106.26064653057279
2074.1915,90.14031406500953
2075.7433,91.45702275130202
2077.2945,99.71089255405491
2078.8448,95.15204252330204
2080.3945,91.08059071196931
2081.9434,88.84665422146327
2083.4916,98.55034924238294
2085.039,87.44179107686296
2086.5857,84.57109404153448
2088.1317,97.73837157861067
2089.677,90.74373628459352
2091.2215,91.18729977860244
2092.7652,108.71917277231887
2094.3083,92.83946506555276
2095.8506,91.4482853709228
2097.3921,97.64574147265444
2098.933,95.03194024049003
2100.4731,101.55698756771585
2102.0124,89.57098839729883
2103.5511,97.17404665663548
2105.089,95.41626537741399
2106.6261,93.59774661958113
2108.1626,91.21859148892236
2109.6983,98.42890015524563
2111.2332,96.12877187617391
2112.7675,96.26830492504155
2114.301,100.0475966138954
2115.8337,94.01674329209982
2117.3657,93.37584030854373
2118.897,102.17498207194876
2120.4276,87.86426205727855
2121.9575,89.24377271774756
2123.4866,86.21360562792802
2125.0149,86.07385146995512
2126.5426,89.87460006382764
2128.0695,98.16594036880736
2129.5956,92.39796044541004
2131.1211,89.47074737249261
2132.6458,92.53438730493224
2134.1698,83.48896550289976
2135.693,88.98456630122291
2137.2155,82.67127319983922
2138.7373,85.74916880884223
2140.2584,79.71833491161328
2141.7787,85.67885243404203
2143.2983,82.08080150483568
2144.8171,91.57426139591348
2146.3353,80.95931055838685
2147.8527,80.88602652762563
2149.3693,79.60448602940608
2150.8853,77.86476498064474
2152.4005,72.7669385022142
2153.9149,79.51108093634025
2155.4287,82.14726589757913
2156.9417,71.02556620537712
2158.454,77.74605385770826
2159.9655,79.70880014229067
2161.4764,89.71387556938305
2162.9865,70.31134985215624
2164.4958,80.85129180664364
2166.0045,78.63376954576529
2167.5124,79.9588503739293
2169.0195,83.3766008092066
2170.526,89.33708657008015
2172.0317,74.54037254126706
2173.5367,76.03652271411454
2175.0409,76.77560033456655
2176.5445,74.65766788820201
2178.0473,84.63278709284418
2179.5494,74.10101891973932
2181.0507,70.21242349380645
2182.5513,76.76706019895516
2184.0512,81.86498771697097
2185.5504,69.75626396196935
2187.0488,74.79094602941609
2188.5465,67.11909031721393
2190.0435,70.74075247535711
2191.5397,70.45598748264922
2193.0353,70.16484961048582
2194.5301,65.61739242570263
2196.0241,69.91366879348766
2197.5175,75.60373092285477
2199.0101,61.2376303236822
2200.502,63.36541774981117
2201.9931,61.38714334270571
2203.4835,67.30285661017638
2204.9733,56.612606446162886
2206.4622,63.86644107157622
2207.9505,54.41440814120131
2209.438,65.60655467115873
2210.9248,59.49292713342561
2212.4109,55.92357134391318
2213.8962,53.6985325236036
2215.3809,57.86785533424347
2216.8648,63.681583900594546
2218.3479,58.489761768739754
2219.8304,61.542431847946204
2221.3121,52.08963646258428
2222.7931,48.48141732160059
2224.2733,53.417815613045605
2225.7529,50.84887204015672
2227.2317,44.52462677199401
2228.7098,53.14511946912819
2230.1872,42.36038934688429
2231.6638,44.67047508913595
2233.1397,48.27541495615412
2234.6149,48.07524676150581
2236.0894,41.220007836003674
2237.5632,37.35973502970819
2239.0362,49.89446478048046
2240.5085,42.37423315258479
2241.9801,39.099075711341584
2243.4509,38.369027598330035
2244.921,33.28412356413969
2246.3904,33.94439797567077
2247.8591,39.5498848669821
2249.3271,38.30061793268953
2250.7943,28.846630471910885
2252.2608,32.337955400758574
2253.7266,29.824625346877724
2255.1917,31.956672614535137
2256.656,29.484129209752155
2258.1197,36.00702681898406
2259.5826,32.675396833845525
2261.0447,33.939270285880866
2262.5062,22.89867787988112
2263.9669,36.803649981245485
2265.4269,33.654216726386835
2266.8862,32.85040788368178
2268.3448,28.49225288496575
2269.8026,34.3797808335695
2271.2598,26.013020547901192
2272.7162,25.292000502573387
2274.1719,28.166748912069124
2275.6268,26.68729373795111
2277.0811,34.60366266011454
2278.5346,25.31588309158235
2279.9874,30.573982099341606
2281.4395,34.97798649722017
2282.8908,27.577922793306016
2284.3414,27.323817145907014
2285.7914,22.015695437552154
2287.2406,31.103583277531584
2288.689,29.137506054979667
2290.1368,31.767488847995423
2291.5838,24.19355644330426
2293.0302,27.965733309957614
2294.4758,29.534043675072894
2295.9206,35.24851148611026
2297.3648,31.409160395189815
2298.8082,34.9160137019461
2300.251,25.219094391923818
2301.693,19.918425101505818
2303.1343,37.01402821488466
2304.5748,19.50592591706868
2306.0147,24.094140022925444
2307.4538,30.77869215226349
2308.8922,31.859603683950127
2310.3299,30.786895689067023
2311.7669,27.460588920099553
2313.2031,30.48070382166418
2314.6387,19.69726056377101
2316.0735,28.760279011623197
2317.5076,26.769778833450687
2318.941,28.32577940988176
2320.3737,26.778299853848353
2321.8056,24.727358995022655
2323.2369,29.672975395295225
2324.6674,24.215167369283904
2326.0972,21.453952934876725
2327.5263,23.939349867811075
2328.9547,36.871375729286115
2330.3823,32.75004784110581
2331.8092,25.62538315636118
2333.2355,13.897398300642863
2334.661,21.266109643288132
2336.0858,20.681533414660407
2337.5098,25.79368563246271
2338.9332,24.40258210758259
2340.3558,25.958238392971793
2341.7778,16.960669797556307
2343.199,8.409891370680043
2344.6195,17.455917992080572
2346.0393,21.398764457396283
2347.4583,19.28844538770727
2348.8767,24.42497519010567
2350.2943,15.158368078799526
2351.7113,29.238638023747853
2353.1275,16.81579884332632
2354.543,23.489864063523896
2355.9578,25.71084704217253
2357.3718,16.328760902205318
2358.7852,21.89361850944738
2360.1978,22.105432566436548
2361.6098,24.414215556774934
2363.021,21.36997974301073
2364.4315,19.07273714355017
2365.8413,13.372499563099836
2367.2504,18.469278615639496
2368.6587,20.363085781424047
2370.0664,18.35393235601657
2371.4733,23.4918294313494
2372.8795,24.826787915816112
2374.285,22.35881848289216
2375.6899,21.237931557785714
2377.0939,26.664137342116646
2378.4973,25.687445825126133
2379.9,23.607866729414013
2381.3019,28.875409520705716
2382.7032,12.390083428648609
2384.1037,23.051897394136745
2385.5035,16.31086023416333
2386.9027,11.96698053520322
2388.3011,15.570266720623295
2389.6987,16.470727094120093
2391.0957,23.168369803688165
2392.492,13.363202832615343
2393.8876,16.85523393250594
2395.2824,9.644470721332596
2396.6765,8.780920648515803
2398.07,14.714591067031847
2399.4627,15.095489242048302
2400.8547,14.973622291587276
2402.246,10.848997182715834
2403.6366,13.971620732765587
2405.0265,12.341499650577703
2406.4156,12.558640505277936
2407.8041,13.073049742577268
2409.1918,6.134733682601109
2410.5789,6.343698514744574
2411.9652,-0.4000496329441603
2413.3508,15.403495304146304
2414.7358,15.15434338712248
2416.12,1.3025045230567684
2417.5035,12.447988467478126
2418.8863,5.840791963895072
2420.2684,9.98091163133654
2421.6497,10.568344030423418
2423.0304,6.753085621968012
2424.4104,9.28513276109959
2425.7896,4.114481735416916
2427.1682,7.89112873966792
2428.546,9.46506992745583
2429.9232,11.536301373472611
2431.2996,8.404819057759823
2432.6753,14.420618844996284
2434.0503,10.933696515813153
2435.4246,4.094047706635251
2436.7982,0.2516679445509453
2438.1711,4.556552715708108
2439.5433,6.758694992091819
2440.9148,12.95808770012195
2442.2856,7.504723698632233
2443.6557,6.848595716875366
2445.025,9.739696409056364
2446.3937,10.478018360895362
2447.7617,10.813554060715433
2449.1289,6.196295892060107
2450.4955,4.076236130337293
2451.8613,9.403366988992502
2453.2265,11.377680640708945
2454.5909,9.199169164136492
2455.9546,14.567824524148591
2457.3177,4.933638593627052
2458.68,7.54660309977578
2460.0416,12.756709720462595
2461.4025,9.913950058089767
2462.7627,6.768315587492452
2464.1222,14.069797684367131
2465.4811,12.818387656727168
2466.8392,12.514076671888233
2468.1966,6.4568557689826775
2469.5533,18.246715862002247
2470.9093,15.983647800370477
2472.2645,10.667642251044299
2473.6191,22.89868972114391
2474.973,11.126780611113531
2476.3262,14.551905092411005
2477.6787,15.174053225226373
2479.0305,15.643214924231245
2480.3816,13.059379952356494
2481.7319,17.62253791610118
2483.0816,21.382678291370894
2484.4306,20.3897903778456
2485.7789,23.193863261378965
2487.1264,17.394885823926415
2488.4733,17.092846715505175
2489.8195,17.637734412183704
2491.165,19.7295372191021
2492.5097,9.81824326502317
2493.8538,17.853840481414466
2495.1972,14.236316701561009
2496.5398,14.065659580209399
2497.8818,24.891856629742904
2499.2231,21.514895221888764
2500.5637,12.134762479455617
2501.9035,23.601445310103827
2503.2427,13.264930500146477
2504.5812,18.725204599882204
2505.919,21.38225402696054
2507.256,26.536065011780238
2508.5924,19.33662357091697
2509.9281,23.933915455586373
2511.2631,26.72792622363795
2512.5974,19.868641193582278
2513.9309,22.556045416650534
2515.2638,21.590123745387928
2516.596,24.12086080677966
2517.9275,11.948241011909545
2519.2583,15.072248530653269
2520.5884,16.692867413403974
2521.9178,16.610081559833077
2523.2465,18.173874702683463
2524.5745,10.184230408597386
2525.9018,17.091132062478266
2527.2284,20.344562947387544
2528.5543,17.894506175475385
2529.8796,24.64094465544656
2531.2041,19.133861117060633
2532.5279,23.423238043668334
2533.851,20.909057727281834
2535.1735,22.24130222568101
2536.4952,28.01995338755546
2537.8163,18.49499283918209
2539.1366,25.36640192663839
2540.4562,20.53416181105223
2541.7752,22.5482533998877
2543.0935,17.45865739526704
2544.411,24.56535427383011
2545.7279,24.318324337630884
2547.0441,25.017547643069918
2548.3596,26.963004003364688
2549.6744,21.3546729815572
2550.9885,24.19253387105954
2552.3019,21.82656575173769
2553.6146,22.20674746153236
2554.9266,22.63305762011862
2556.2379,26.755474625104455
2557.5485,28.07397664776721
2558.8585,30.78854159183004
2560.1677,32.94914708027653
2561.4762,29.755770428204983
2562.7841,23.708388621222525
2564.0913,33.1069783473788
2565.3977,28.1015160576398
2566.7035,25.041977871901622
2568.0086,35.72833962904576
2569.313,27.960576917533956
2570.6167,30.73866496854521
2571.9197,33.11257873365264
2573.222,31.632292857043183
2574.5236,31.697781651778087
2575.8246,36.65901911459639
2577.1248,31.715978925259492
2578.4244,40.66863439693907
2579.7232,42.41695852564709
2581.0214,34.06092390070927
2582.3189,35.95050268728215
2583.6157,36.035666709913016
2584.9118,41.36638743364432
2586.2072,33.342635963162195
2587.5019,39.51438298948841
2588.7959,40.581598870218784
2590.0893,46.74425356780557
2591.3819,41.45231663888512
2592.6739,38.30575717265151
2593.9652,46.50454384377571
2595.2557,45.498644943871454
2596.5456,45.43802829950721
2597.8348,44.52266128226478
2599.1234,55.302510809346074
2600.4112,53.92754335272673
2601.6983,57.54772483135753
2602.9848,65.11302062491393
2604.2705,55.72339553759468
2605.5556,60.4788137224682
2606.84,63.82923877536962
2608.1237,58.07463368734568
2609.4067,65.51496081115118
2610.689,57.10018191879476
2611.9707,57.53025812713537
2613.2516,51.70514998203032
2614.5319,48.0748174540347
2615.8115,45.939219996652184
2617.0903,53.198316582638256
2618.3685,45.502065725356545
2619.6461,52.60042540618787
2620.9229,51.29335315149217
2622.199,47.93080596162582
2623.4745,55.312740324012
2624.7493,46.189112246765774
2626.0234,51.05987718487523
2627.2968,49.57499013143752
2628.5695,44.83440556895101
2629.8415,44.03807748416449
2631.1128,42.33595941548231
2632.3835,56.12800446092848
2633.6535,48.26416529516757
2634.9228,53.444394031583954
2636.1914,45.41864230092068
2637.4593,53.93686119947694
2638.7265,50.0490013693659
2639.9931,50.70501291333187
2641.259,55.7048454336296
2642.5242,46.24844802546369
2643.7887,45.13576922699002
2645.0525,45.066757113880556
2646.3156,47.391359310449616
2647.5781,49.409522990344385
2648.8398,45.721194853298584
2650.1009,41.37632110495116
2651.3613,47.67484749372903
2652.6211,45.16671935429616
2653.8801,41.70188154456815
2655.1385,44.23027847079385
2656.3961,38.35185412220335
2657.6531,36.7665520457241
2658.9094,38.524315404765446
2660.1651,44.4250869950713
2661.42,45.6688092271425
2662.6743,45.75542406722906
2663.9279,48.78487302489316
2665.1808,54.50709715214265
2666.433,51.57203701313739
2667.6846,52.72963262696601
2668.9354,51.52982349699704
2670.1856,55.72254859930314
2671.4351,54.757746394658625
2672.6839,57.835354786612754
2673.9321,58.705311131137194
2675.1795,68.11755220585025
2676.4263,68.32201420131753
2677.6724,70.61863262692879
2678.9179,68.25734230885371
2680.1626,67.28807736707597
2681.4067,63.36077123900577
2682.6501,68.02535668917261
2683.8928,60.781765848498424
2685.1348,59.72993016765167
2686.3761,60.51978048948342
2687.6168,54.751247059545676
2688.8568,51.32425951819249
2690.0961,55.93874695826605
2691.3348,49.44463795936582
2692.5727,49.041860541703954
2693.81,44.73034223104645
2695.0466,50.460010062740764
2696.2826,39.88079062483126
2697.5178,50.342610000762306
2698.7524,50.34539387517037
2699.9863,54.33906742926615
2701.2195,46.87355534080626
2702.452,57.49878174415693
2703.6839,59.91467030494914
2704.9151,59.62114411382595
2706.1456,66.51812566228409
2707.3755,71.1055368456091
2708.6046,67.03329889390551
2709.8331,71.75133232622272
2711.0609,71.10955699127709
2712.2881,74.05789202027182
2713.5145,80.64625583331485
2714.7403,82.07456610993506
2715.9654,84.09273972319914
2717.1899,90.7006927254281
2718.4136,98.2483403280155
2719.6367,99.28559683534814
2720.8591,106.81237556932956
2722.0809,105.07858885900743
2723.3019,118.58414796530553
2724.5223,119.02896309836188
2725.7421,118.36294328247317
2726.9611,116.43599635164651
2728.1795,106.44802895625998
2729.3972,106.99894658233183
2730.6142,93.33865365139991
2731.8306,85.41705351501315
2733.0462,85.6340485913338
2734.2612,74.53954044435397
2735.4756,71.88342978172545
2736.6892,68.26561656570448
2737.9022,59.386000039713565
2739.1145,54.64447876451902
2740.3262,59.44095070702747
2741.5372,51.075313287700624
2742.7475,53.64746333259109
2743.9571,48.00729715699828
2745.1661,38.45471053974717
2746.3744,42.48959877959004
2747.582,31.76185679073211
2748.7889,33.2213790624827
2749.9952,31.518059766532815
2751.2008,25.00179274235967
2752.4057,23.97247151426012
2753.61,21.379989356513363
2754.8136,24.924239303674028
2756.0165,19.15511417649691
2757.2188,17.22250654649463
2758.4204,23.676308793629175
2759.6213,15.016413125637314
2760.8215,19.74271151349319
2762.0211,16.805095778006773
2763.22,13.703457542561239
2764.4182,21.337688262488996
2765.6158,20.10767925608792
2766.8127,11.463321628279118
2768.009,10.854506282906925
2769.2045,12.681124009182668
2770.3994,8.293065487772765
2771.5936,13.940221272532483
2772.7872,-2.177518165613435
2773.9801,6.139737504857862
2775.1723,0.24190036887546285
2776.3639,-0.22111755002867994
2777.5548,-0.6994042307414929
2778.745,-5.9930454431857925
2779.9346,-1.8021199702362765
2781.1235,-7.176646724243767
2782.3117,-0.3666266143807775
2783.4992,-5.571988855119002
2784.6861,-4.292658998330637
2785.8723,-3.2785069317193916
2787.0579,-5.1793596593255415
2788.2428,-0.295011432905369
2789.427,-3.9252047624119086
2790.6106,-3.5696792106342627
2791.7935,1.4718648724339118
2792.9757,-0.10023720210568854
2794.1573,-5.885650137870414
2795.3382,-1.9840376371077468
2796.5184,-5.495004604420444
2797.698,-0.6181361238752174
2798.8769,-2.1029623844430034
2800.0551,2.250992600085283
2801.2327,0.6442258245126027
2802.4096,6.827234261131991
2803.5859,3.250514875794579
2804.7615,6.214564566079503
2805.9364,9.219880197060604
2807.1106,16.216958571666282
2808.2842,16.30629640062557
2809.4572,19.7883902324985
2810.6294,25.713736452782257
2811.801,36.582831249090134
2812.972,44.69617055189849
2814.1423,52.75424992585545
2815.3119,67.80756448864753
2816.4808,70.10660883041908
2817.6491,97.40187686323884
2818.8167,121.19386179810948
2819.9837,142.03305587201515
2821.15,174.41995011000137
2822.3157,205.90503411678344
2823.4807,243.08879575287727
2824.645,284.4717208197481
2825.8086,332.70429268797386
2826.9716,375.436991883415
2828.134,431.820295604889
2829.2957,453.804677296844
2830.4567,486.04060608552476
2831.617,506.82854655912973
2832.7767,526.2689584454515
2833.9358,523.3622964039974
2835.0941,514.7090098315856
2836.2519,499.75954289141083
2837.4089,473.4643345995782
2838.5653,449.2238189745975
2839.7211,443.48842530033585
2840.8761,426.2085783684217
2842.0306,429.3846985355998
2843.1843,419.0172018965291
2844.3374,430.8065002520219
2845.4899,437.3030012127182
2846.6417,453.60710808119313
2847.7928,460.1692197869918
2848.9433,473.2397307235885
2850.0931,469.6690306827652
2851.2422,475.70750472390705
2852.3907,477.85553320970865
2853.5385,483.56349174579
2854.6857,490.2317511592155
2855.8323,492.96067744141476
2856.9781,512.4506316815003
2858.1233,525.8019700389777
2859.2679,541.115043548847
2860.4118,561.6401979880881
2861.555,589.777773722531
2862.6976,608.6781055016043
2863.8395,615.2415221769577
2864.9808,631.4183465134611
2866.1214,636.8088951235684
2867.2614,646.7134783055509
2868.4007,664.6823999895905
2869.5393,686.0159576387352
2870.6773,685.5644420692086
2871.8146,710.7781372370747
2872.9513,724.3073202427537
2874.0874,732.502261078884
2875.2227,735.2632224950313
2876.3574,753.1404599157393
2877.4915,754.0842214129193
2878.6249,771.5947475270779
2879.7577,784.4722712578802
2880.8898,800.5170178890432
2882.0212,819.6292048595625
2883.152,844.2590416032622
2884.2821,841.9067293576755
2885.4116,861.8724609177452
2886.5405,869.0564206593467
2887.6686,880.758784339631
2888.7962,884.4297190251848
2889.923,883.3693829750075
2891.0493,877.5779256038011
2892.1748,880.355487492574
2893.2997,865.8022004465549
2894.424,875.0181874674184
2895.5476,868.9035628988167
2896.6706,877.7584323342207
2897.7929,869.182892678065
2898.9145,875.9770320572006
2900.0355,868.14092990665
2901.1559,865.8746569016644
2902.2756,855.3782750360872
2903.3946,854.5018376450143
2904.513,840.2453895097601
2905.6308,843.5589668666203
2906.7479,832.2925975494366
2907.8643,838.0463009564612
2908.9801,840.0700881630211
2910.0953,839.913961863979
2911.2098,835.4279163534983
2912.3236,834.6619375266021
2913.4368,816.2160029240345
2914.5494,821.0900817399204
2915.6613,813.7841350062247
2916.7725,799.2981155440123
2917.8831,772.331968036506
2918.9931,769.8356291739483
2920.1024,756.1590279232616
2921.211,736.9520855530125
2922.319,719.9647157701768
2923.4264,719.7468249122106
2924.5331,704.4983121169221
2925.6391,716.0690693246514
2926.7445,719.4089814307562
2927.8493,717.6679261699028
2928.9534,721.0457740826687
2930.0569,724.742388532952
2931.1597,731.2576256741934
2932.2619,740.0413344124095
2933.3634,746.4933563410411
2934.4643,759.9135256531151
2935.5645,775.8016690767255
2936.6641,772.1576057408311
2937.763,775.9311470163734
2938.8613,774.6720965527188
2939.959,778.6802502399217
2941.056,772.0553962213161
2942.1523,721.3473148534327
2943.248,682.7557787722498
2944.3431,641.4805534002714
2945.4375,598.9213973324449
2946.5313,553.2780627489115
2947.6244,510.25029584059905
2948.7169,475.6378372656548
2949.8087,429.3904225797231
2950.8999,390.85778258207006
2951.9904,362.8396437780577
2953.0803,349.08572876447056
2954.1696,315.2457565096967
2955.2582,301.3694424912675
2956.3462,284.50649903425614
2957.4335,275.20663545004237
2958.5202,275.9695582049409
2959.6062,283.1949710132001
2960.6916,279.3825748293728
2961.7764,280.9820677760627
2962.8605,281.29314518204734
2963.9439,288.5654995662841
2965.0267,284.84882063479915
2966.1089,276.9427952079636
2967.1905,271.7971072576608
2968.2714,276.76143798634615
2969.3516,261.4854658785041
2970.4312,259.96886665100516
2971.5102,267.1113134058652
2972.5885,255.81247664541138
2973.6662,265.17202420085783
2974.7432,268.2896213452941
2975.8196,273.2649307000895
2976.8954,263.8476122037175
2977.9705,272.6873230620022
2979.045,273.6837178422918
2980.1188,273.53644838506165
2981.192,270.19516379395
2982.2645,262.25951043723046
2983.3364,252.37913198122567
2984.4077,239.50366946966273
2985.4783,227.2827614224778
2986.5483,219.96604396457013
2987.6177,205.15315094801167
2988.6864,201.8937140252139
2989.7545,185.18736279705723
2990.8219,173.1837248454847
2991.8887,166.18242590056605
2992.9548,153.0830899605339
2994.0204,133.7853393617969
2995.0852,123.78879490993268
2996.1495,116.0430760726656
2997.2131,95.39780107983228
2998.276,82.15258700083876
2999.3383,71.50704995111315
3000.4,58.7108052245579
3001.4611,52.0134674000052
3002.5215,38.5646504691791
3003.5812,31.413967903669203
3004.6404,28.311032789418647
3005.6989,26.55545789823097
3006.7567,16.396855718799486
3007.8139,11.734838474262972
3008.8705,10.419018223791738
3009.9264,6.099006909208072
3010.9818,2.1744163681440227
3012.0364,5.9448583772416725
3013.0905,6.0099446913991414
3014.1439,-1.230712993933878
3015.1966,-3.427503043407256
3016.2487,-2.780801526848137
3017.3002,-0.8409502733284171
3018.3511,-2.908263331712817
3019.4013,-4.483046349772934
3020.4509,0.1844240782703821
3021.4998,0.5939161438290625
3022.5481,-4.954801963529121
3023.5958,-4.211962060175523
3024.6428,-3.977746464009897
3025.6892,-3.052295415431246
3026.735,-3.9857094171512983
3027.7802,-6.228058479450709
3028.8247,-1.4793727953729672
3029.8685,-0.13962033965762544
3030.9118,-1.8087543081102524
3031.9544,1.9132734982708257
3032.9963,4.52652934794267
3034.0376,10.381079490229638
3035.0783,5.126990129190915
3036.1184,10.114327365074786
3037.1578,7.343157246859789
3038.1966,14.413545722381116
3039.2348,12.125558666042537
3040.2723,16.62926180811246
3041.3092,13.924720757603666
3042.3455,13.81200095723645
3043.3811,21.041167710484018
3044.4161,22.562286182699694
3045.4505,22.92542132882528
3046.4842,20.230637878179607
3047.5173,24.678000330827416
3048.5498,22.81757298452709
3049.5816,29.149419890257008
3050.6128,29.323604870819878
3051.6434,31.89019145752428
3052.6734,28.999242888442865
3053.7027,30.250822082746396
3054.7314,33.294991669613324
3055.7594,32.131813975713925
3056.7868,37.66135099476867
3057.8136,37.18366439917989
3058.8398,38.14881548473642
3059.8653,46.90686517539058
3060.8902,49.707874013606556
3061.9145,51.101902072780064
3062.9381,50.48900892922801
3063.9612,51.869253648248474
3064.9835,54.44269479024938
3066.0053,58.75939039694616
3067.0264,57.01939796562739
3068.0469,61.072774405987786
3069.0668,59.01957605752814
3070.086,60.35985864902155
3071.1046,58.99367731904539
3072.1226,58.17108660257853
3073.1399,57.44214044466307
3074.1567,55.35689220863037
3075.1727,50.71539468339037
3076.1882,52.91770010428415
3077.203,43.76386019949892
3078.2173,42.653926168044876
3079.2308,43.33794877129375
3080.2438,44.16597834407807
3081.2561,38.03806478785101
3082.2678,37.604257562405934
3083.2789,32.21460574715566
3084.2893,28.619158045470428
3085.2991,29.717962838574508
3086.3083,33.51106822150061
3087.3169,24.248521992101928
3088.3248,24.93037161312101
3089.3321,24.606664304815226
3090.3388,25.17744703813831
3091.3449,18.442766537977406
3092.3503,29.15266927744524
3093.3551,21.707201545226923
3094.3593,24.206409338480853
3095.3629,24.900338437293513
3096.3658,18.739034379687283
3097.3681,18.07254245468131
3098.3698,18.850907763904345
3099.3708,19.374175228259787
3100.3713,24.442389580142034
3101.3711,20.55559535820369
3102.3702,18.313836856673504
3103.3688,19.26715816422427
3104.3667,17.065603186390476
3105.364,15.909215636034986
3106.3607,17.398039055364734
3107.3568,18.382116827494485
3108.3522,19.46149216155864
3109.347,15.586208082870456
3110.3412,15.006307422128316
3111.3348,16.47183285416851
3112.3277,12.582826903764357
3113.32,18.03933193097076
3114.3117,13.441390170014486
3115.3028,14.189043674728907
3116.2932,13.4823343645336
3117.2831,13.821304016957711
3118.2723,9.905994274707027
3119.2608,10.986446642274373
3120.2488,14.212702525092652
3121.2361,9.284803218730303
3122.2229,10.352789876628819
3123.209,17.016703559381668
3124.1944,8.026585224054472
3125.1793,10.782475657545817
3126.1635,12.834415566488516
3127.1471,9.332445549690618
3128.1301,12.77660607761608
3129.1125,10.416937527404428
3130.0942,12.153480148429168
3131.0753,11.436274085894482
3132.0558,12.615359363469693
3133.0357,10.140775890461526
3134.015,9.312563450023035
3134.9936,12.230761723899647
3135.9716,13.09541030071108
3136.949,5.806548646769521
3137.9258,12.6142160974331
3138.902,13.318451929994502
3139.8775,14.619295295604289
3140.8524,12.316785212228567
3141.8267,8.51096055164055
3142.8004,7.501860062445658
3143.7735,11.339522408139764
3144.7459,12.773986177200136
3145.7178,11.655289844708847
3146.689,15.33347175800813
3147.6596,13.208570147887329
3148.6295,14.830623091801094
3149.5989,8.249668535118417
3150.5676,14.565744274902087
3151.5357,12.578888025718236
3152.5032,12.98913735647556
3153.4701,10.896529710293933
3154.4364,14.051102400401817
3155.402,14.402892631062407
3156.367,14.201937466027886
3157.3315,16.798273825021575
3158.2952,15.591938485747434
3159.2584,14.732968057926762
3160.221,16.021398995361473
3161.1829,18.157267604523817
3162.1442,12.640610031672068
3163.105,14.921462241491824
3164.065,14.449860072262624
3165.0245,18.975839213049376
3165.9834,15.499435208418433
3166.9416,15.020683413177785
3167.8993,16.639619027141094
3168.8563,17.4062770999152
3169.8127,18.62069251471074
3170.7684,17.932899980675607
3171.7236,17.892934020750786
3172.6782,17.950828978548287
3173.6321,15.656619018750831
3174.5854,18.910338126532828
3175.5381,15.16202013050254
3176.4902,19.26169867016486
3177.4417,21.859407233404504
3178.3926,19.35517911548922
3179.3428,19.099047393092675
3180.2924,20.741044949336775
3181.2415,20.431204476352953
3182.1899,18.969558458862213
3183.1377,21.25613917727355
3184.0848,19.79097872230042
3185.0314,20.124108972094866
3185.9773,20.70556160689918
3186.9227,21.835368105714576
3187.8674,20.513559740486627
3188.8115,21.240167564807265
3189.755,21.26522242713284
3190.6979,25.638754963518043
3191.6402,21.060795597365384
3192.5818,23.38137449568983
3193.5229,22.150521614898416
3194.4633,23.668266677584448
3195.4031,23.734639184836045
3196.3423,25.899668401058655
3197.2809,20.463383353311368
3198.2189,27.52581280965659
3199.1563,22.986985333522913
3200.0931,24.446929213080793
3201.0292,26.355672506630846
3201.9648,24.613243028004437
3202.8997,24.669668327476185
3203.834,26.024975709188286
3204.7677,25.229192230586275
3205.7008,26.482344688865922
3206.6333,26.684459628931048
3207.5652,26.385563330862034
3208.4964,25.8856818078947
3209.4271,29.634840809409233
3210.3571,28.133065825928995
3211.2865,30.680382051629003
3212.2154,26.826814399353566
3213.1436,27.072387475143174
3214.0712,28.71712561677014
3214.9982,29.461052891282904
3215.9246,28.104193078558616
3216.8503,28.19656966386391
3217.7755,29.038205851423527
3218.7001,33.02912456349647
3219.624,29.769348431959706
3220.5473,32.50889975839893
3221.4701,30.297800546706416
3222.3922,30.08607247568539
3223.3137,33.27373692116108
3224.2346,33.46081495809801
3225.1549,33.19732732872337
3226.0746,33.63329444065615
3226.9937,34.768736369542076
3227.9121,32.95367285469393
3228.83,33.7881232877371
3229.7473,35.1721067307603
3230.6639,34.905641907971
3231.5799,35.03874719185564
3232.4954,36.32144060584423
3233.4102,37.15373982297934
3234.3244,33.635662153089086
3235.238,35.86722453446424
3236.151,35.148443569038925
3237.0634,35.27933550007503
3237.9752,37.25991621935
3238.8864,35.19020126584799
3239.797,37.87020580595394
3240.7069,38.299944654150785
3241.6163,37.92943224621943
3242.5251,38.90868263494128
3243.4332,37.98770949380345
3244.3408,40.36652610720621
3245.2477,38.595145379672786
3246.154,40.07357981206112
3247.0598,40.801841519277716
3247.9649,37.77994221549324
3248.8694,38.05789320685993
3249.7733,43.035705421730555
3250.6766,38.863389407879
3251.5793,39.590955282722035
3252.4814,42.8684127750426
3253.3829,38.74577121771403
3254.2838,42.42303951492558
3255.1841,43.00022618340873
3256.0838,40.827339315664595
3256.9829,44.00438657419204
3257.8814,37.381375213216494
3258.7792,41.10831204691953
3259.6765,41.38520351566892
3260.5731,43.11205564874933
3261.4692,41.03887406159335
3262.3647,41.915663938513006
3263.2595,46.692430053431565
3264.1538,42.069176761115614
3265.0474,43.195907949407456
3265.9404,43.62262708545764
3266.8329,42.449337204457606
3267.7247,46.07604090537254
3268.616,43.4027403626742
3269.5066,44.879437290073994
3270.3966,41.1561329672559
3271.286,41.9328282251095
