RamanShift,CorrectedData
30.1047,1874.783769962693
32.3739,1742.5861626119736
34.6426,1615.638536513416
36.9109,1487.7408554933218
39.1787,1365.093067221605
41.4461,1238.8951044907722
43.7131,1115.796886442398
45.9796,989.8983198291058
48.2456,859.8493002455492
50.5112,731.9997133873975
52.7764,607.399436351827
55.0411,482.4483389160166
57.3054,357.54628478315055
59.5692,228.8431328319294
61.8326,107.78873836559089
64.0955,-9.467045601058686
66.3579,-136.67436713110035
68.6199,-245.3332797118296
70.8815,-343.4424714536144
73.1426,-396.64817958735887
75.4032,-317.89321035367743
77.6634,78.7335925221297
79.9231,1183.146561067933
82.1824,3777.660026524267
84.4412,8535.988308300202
86.6995,15100.295688028204
88.9574,21521.096361980868
91.2148,25899.65437542782
93.4717,27892.58355842773
95.7282,28294.797482042726
97.9842,28162.0094384091
100.2398,27513.432436715164
102.4949,26804.129204529152
104.7495,25961.11219428496
107.0036,25061.143590375195
109.2573,24160.085317581357
111.5105,23365.849050073484
113.7632,22552.046220420794
116.0154,21828.638027533994
118.2672,21234.08544480334
120.5185,20644.849227332703
122.7693,20171.139917885102
125.0197,19774.867852775078
127.2696,19340.343166605762
129.519,19103.67579623161
131.7679,18800.92548510365
134.0163,18520.151785636153
136.2642,18202.914062234144
138.5117,17961.171494101123
140.7587,17624.183078411457
143.0052,17305.057632727807
145.2512,16943.603798370998
147.4967,16618.530043611278
149.7417,16367.144667282864
151.9863,16117.955802034667
154.2304,15973.171416844152
156.4739,15723.199319509251
158.717,15543.04715809616
160.9596,15263.722423439096
163.2017,14909.982450941807
165.4433,14535.534423370813
167.6844,14077.535374392817
169.925,13675.892192319177
172.1651,13172.3616246859
174.4047,12770.00028227007
176.6439,12426.164644125161
178.8825,12065.911061604646
181.1206,11831.645761800357
183.3582,11526.724851145009
185.5954,11319.404317754876
187.832,11112.290034478969
190.0681,10982.637760972268
192.3037,10877.453145766853
194.5388,10741.59172756844
196.7734,10717.558936308198
199.0075,10673.960094501403
201.2411,10727.300417487724
203.4742,10686.185013867243
205.7068,10732.718884967042
207.9389,10769.406925252362
210.1704,10795.353921861255
212.4015,10841.364554237693
214.632,10937.743393872135
216.862,11034.744903841383
219.0915,11099.373437844815
221.3205,11231.183239234364
223.549,11423.828440368223
225.777,11610.563061292769
228.0044,11894.541007816091
230.2314,12280.666069640654
232.4578,12623.6419175235
234.6837,12891.022099415037
236.909,13044.46003702924
239.1339,12914.409023169883
241.3582,12616.522220196139
243.582,12094.452661323097
245.8053,11730.903253600627
248.0281,11315.776783134075
250.2503,10938.12591871976
252.472,10684.553215996239
254.6932,10540.111121220818
256.9139,10372.401973805278
259.134,10273.3280077603
261.3536,10153.09135337254
263.5727,10123.794038195381
265.7912,9992.237988251301
268.0092,9916.07502832483
270.2267,9764.056883278128
272.4436,9622.035178812606
274.6601,9464.411442989114
276.8759,9350.037107648155
279.0913,9277.113509986119
281.3061,9162.741893699038
283.5204,9148.073409711807
285.7341,9172.709117321927
287.9473,9239.99998434614
290.16,9406.19688687413
292.3721,9652.850608595572
294.5837,10024.161839138194
296.7947,10281.781171601211
299.0052,10448.109098842226
301.2152,10181.696010901034
303.4246,9772.742193336337
305.6334,9167.747829889897
307.8418,8574.213006576058
310.0495,8132.637717731688
312.2568,7719.421871951539
314.4635,7395.965296503993
316.6696,7295.667741463207
318.8752,7134.4288829437155
321.0802,7139.598324103359
323.2847,7151.125596755712
325.4887,7155.7601613183615
327.692,7031.451406697641
329.8949,6876.998650242285
332.0972,6571.1511389865245
334.2989,6194.7080511946115
336.5001,5852.5684994192925
338.7007,5611.631534266229
340.9008,5429.646147815409
343.1003,5280.511276030511
345.2992,5147.575800578767
347.4976,5053.238550322292
349.6955,4985.7983026474485
351.8927,5022.50378440822
354.0895,4920.2536726006165
356.2856,4935.296593995623
358.4812,4867.531126161684
360.6763,4842.755797314294
362.8707,4769.769086993638
365.0646,4757.219426312366
367.258,4671.855198685436
369.4508,4649.474739955631
371.643,4715.526339247173
373.8346,4623.65823918955
376.0257,4578.218635256984
378.2162,4411.6556766871145
380.4062,4281.617466935404
382.5956,4080.352065340765
384.7844,3912.507488425954
386.9726,3761.1817119102125
389.1603,3656.622672387728
391.3474,3602.3282688408653
393.5339,3549.3963636857698
395.7199,3410.8247833153146
397.9052,3392.7613186284016
400.09,3382.603726415695
402.2743,3400.2497295402572
404.4579,3418.8470170391174
406.641,3554.2932439468095
408.8235,3731.6860311093915
411.0054,3997.522963830008
413.1868,4406.851590094948
415.3675,4682.219417915265
417.5477,4901.0739112335195
419.7273,4847.012487170083
421.9064,4707.28251383458
424.0848,4526.181310866528
426.2627,4226.306150832623
428.4399,3915.4042610377473
430.6166,3518.2228265237427
432.7928,3111.15899317842
434.9683,2765.559871707377
437.1432,2518.8725417046226
439.3176,2283.7440551085638
441.4914,2160.171438668902
443.6645,2095.851696297894
445.8371,1999.5818103060847
448.0091,1878.2087420455136
450.1806,1823.3794328723925
452.3514,1677.940805360875
454.5216,1670.389763851308
456.6913,1583.0231959046432
458.8603,1562.7879723779224
461.0288,1634.9309482979734
463.1967,1608.6989630637472
465.3639,1727.088839724889
467.5306,1780.2473852440453
469.6967,1864.821389313005
471.8622,2002.8076238210888
474.0271,2134.902842009411
476.1914,2180.1537770910145
478.3551,2172.657140929932
480.5182,2115.1096235886616
482.6807,2128.9078934031386
484.8426,2196.098597558208
487.0039,2426.8283619496615
489.1647,2792.5437905123
491.3248,3204.9914629126506
493.4843,3386.8179308918225
495.6432,3370.0197141410135
497.8015,3217.1432984832572
499.9592,3262.3851360413864
502.1163,3164.8416467668176
504.2728,2925.5092179871135
506.4287,2618.5342053814384
508.5839,2170.1629353738754
510.7386,1837.5417082031563
512.8927,1617.4168024064165
515.0461,1520.1844781453583
517.199,1427.6909794075218
519.3512,1396.6825349786122
521.5029,1447.3553593674333
523.6539,1475.9556531159615
525.8043,1498.079602292626
527.9541,1498.573378206318
530.1033,1511.533137185117
532.2519,1540.8550205713982
534.3999,1664.4351545922218
536.5472,1936.9696500660975
538.694,2366.054601167194
540.8401,2963.136082699988
542.9856,3461.610145808423
545.1305,3583.5728120051026
547.2748,3475.6700681865186
549.4185,3102.8478654134597
551.5615,2740.5021199900148
553.704,2614.2787171917953
555.8458,2476.173514889415
557.987,2515.282344810679
560.1276,2482.951013921691
562.2675,2462.8753040357333
564.4069,2472.5009721365823
566.5456,2423.5237505792757
568.6837,2336.6393469938594
570.8212,2089.843444775135
572.958,1770.3317039515314
575.0942,1440.6497636530548
577.2299,1278.2432453063957
579.3648,1217.607755931771
581.4992,1266.1388897669422
583.6329,1488.432228873633
585.766,1704.933342652159
587.8985,1817.637785618539
590.0304,1826.7910952394413
592.1616,1718.7887908051816
594.2922,1629.4763733381515
596.4222,1474.9993266728707
598.5515,1280.4031183490915
600.6802,1148.5332011565988
602.8083,931.1850150811442
604.9358,903.4039886231476
607.0626,822.4855409712109
609.1888,757.5250822798735
611.3144,750.1680144788552
613.4393,614.1097319226319
615.5636,497.49562146401513
617.6873,389.5210638147364
619.8103,351.43143471157236
621.9327,248.87210599610262
624.0544,228.08844599560325
626.1756,231.1758205486367
628.2961,216.87959321289236
630.4159,139.79512523430822
632.5351,100.86777569003607
634.6537,5.44290225928853
636.7716,3.5658616125874687
638.8889,50.0319560458629
641.0056,62.0864522320735
643.1216,60.77461634385327
645.237,106.6917139329853
647.3518,90.78300994351594
649.4659,140.14376825259387
651.5793,136.31925182954728
653.6922,124.60472224227487
655.8043,152.89543969549777
657.9159,106.93666314789152
660.0268,16.023650029183045
662.137,-17.898343300232227
664.2466,-31.43406064019655
666.3556,-53.438066986087506
668.4639,-53.664613307031686
670.5716,-1.0174167258628586
672.6786,31.50034174406028
674.785,126.28549125334757
676.8907,185.33486063762757
678.9958,251.3952774696736
681.1002,219.61356746892488
683.204,242.28655384087324
685.3072,207.16105759489437
687.4097,100.93389731750722
689.5115,126.00188952362078
691.6127,61.461849718834856
693.7132,5.5605921487367596
695.8131,-64.05506955569217
697.9123,-65.38837731378953
700.0109,-89.49193313474461
702.1089,-96.61768579786076
704.2061,-76.86669005802105
706.3028,-4.5390354594565
708.3987,60.91595635184058
710.4941,147.1490090748266
712.5887,347.66084579932067
714.6827,605.0521881436689
716.7761,970.8237542496063
718.8688,1350.1262562083502
720.9608,1546.7103964028865
723.0522,1633.2768637149602
725.1429,1398.9763315592136
727.233,1133.009457017546
729.3224,922.8268831820824
731.4112,616.6292418148878
733.4993,399.9671554497436
735.5867,271.3412404541741
737.6735,198.20210919602323
739.7596,128.7503713297374
741.845,69.28663452775072
743.9298,79.66150517498681
746.014,57.07558896353294
748.0974,71.92949078885431
750.1802,61.023814975673304
752.2624,95.15916512942204
754.3439,90.53614424531042
756.4247,169.15535436696882
758.5048,286.867396632686
760.5843,496.92287048919025
762.6631,792.3223725145617
764.7413,1268.6164943176518
766.8188,1806.5058195841048
768.8956,2233.0409193134037
770.9718,2605.772346439997
773.0473,2491.6006315679115
775.1221,2172.976279243485
777.1962,1758.799769097026
779.2697,1559.9215590291024
781.3426,1600.292089352286
783.4147,1861.961784779949
785.4862,2175.231054022541
787.557,2222.500287170911
789.6271,1947.1698525636166
791.6966,1377.1900963142216
793.7654,855.9613450646102
795.8335,576.183911684755
797.901,376.8081004850392
799.9678,308.98421001401584
802.0339,341.01253505216664
804.0993,425.39336729014394
806.1641,363.47699500848466
808.2282,355.7137022338138
810.2916,233.25376935797613
812.3544,201.0474732157163
814.4164,88.8450883092155
816.4778,182.2468871302044
818.5385,151.85314128197206
820.5986,229.9141205453343
822.658,366.58009318259064
824.7166,462.90132515690493
826.7747,658.778078765652
828.832,887.8606116772062
830.8886,963.7991749721441
832.9446,1148.3440108524665
834.9999,1149.7453518821894
837.0545,1225.953419141897
839.1085,1242.668422214756
841.1618,1220.8905584243985
843.2143,1192.3200126677802
845.2662,1097.6569576329457
847.3175,1056.701554084757
849.368,946.9539518115089
851.4179,867.9642900344843
853.467,704.4326985054358
855.5155,639.9092982964867
857.5633,565.2442034354353
859.6105,468.33752155099137
861.6569,418.239354619418
863.7027,384.7997999336403
865.7478,384.768950604197
867.7922,411.646895893653
869.8359,485.683721216883
871.8789,585.2795078723138
873.9212,764.2843323015331
875.9629,892.0482650933482
878.0039,1107.7213691937395
880.0441,1263.1536986281935
882.0837,1265.7452963450014
884.1226,1211.4461926609329
886.1609,1125.0564052352966
888.1984,1023.5259396129622
890.2352,1054.804790088223
892.2714,979.492940720138
894.3069,1019.2403650197193
896.3416,944.4470267030738
898.3757,951.1128792939235
900.4091,956.0878668715304
902.4418,995.3719240040336
904.4739,999.4149756987172
906.5052,1006.8169370091382
908.5358,909.3777129947412
910.5658,793.6971986468016
912.595,609.4252798628331
914.6236,514.7118346033931
916.6515,470.35673473479255
918.6786,428.4098469762248
920.7051,550.4710333433468
922.7309,668.040151567704
924.756,735.5670538761369
926.7804,854.5515858150902
928.8041,800.2935855753349
930.8272,858.442882802141
932.8495,797.8492991378444
934.8711,732.712647640361
936.892,592.7327333891262
938.9123,450.50935413645857
940.9318,342.342301707351
942.9506,231.33136342172656
944.9688,145.07632317609387
946.9862,99.6769625536399
949.003,-11.766938313190622
951.019,58.79439971127795
953.0344,96.16087331443123
955.0491,101.78237859569708
957.063,229.458810692915
959.0763,380.24006372610165
961.0888,415.77602952068264
963.1007,540.7165960996899
965.1119,575.2116473284113
967.1223,598.3610616649712
969.1321,669.2647118154237
971.1412,725.8724645021903
973.1495,758.6341797550704
975.1572,786.4497103451395
977.1641,852.2689014571588
979.1704,818.3415904113826
981.1759,824.9176060054051
983.1808,941.1467688533921
985.1849,1020.3788913203716
987.1884,1195.813776359886
989.1911,1345.8512167217123
991.1932,1494.7409931974762
993.1945,1548.8828731203212
995.1951,1492.0266088759672
997.1951,1498.9719373613443
999.1943,1412.5685805530993
1001.1928,1345.8662454381847
1003.1906,1332.7146248778772
1005.1877,1412.1633982748026
1007.1841,1417.9622317044632
1009.1798,1312.260777120715
1011.1748,1126.9586722977983
1013.1691,950.3055418873591
1015.1627,731.8009992714542
1017.1556,489.69464832909216
1019.1477,431.6860856212952
1021.1392,344.3749028121456
1023.1299,349.810687248857
1025.12,334.2430228349258
1027.1093,395.1714899757426
1029.0979,499.395665734286
1031.0859,527.4151232218283
1033.0731,584.5794305557029
1035.0596,519.0881505791258
1037.0454,322.79084028951183
1039.0304,273.5370514934111
1041.0148,84.92633276947163
1042.9985,38.008229960982135
1044.9814,26.982288061968575
1046.9636,-11.85194831361514
1048.9452,-33.24493482163598
1050.926,-2.6470087170200713
1052.9061,-47.508175137805665
1054.8855,-28.728412778422353
1056.8642,58.892774273357645
1058.8421,147.00616892659673
1060.8194,142.21255350142383
1062.7959,170.8627088479334
1064.7717,250.15741439409248
1066.7469,292.8474478592725
1068.7213,283.38358446126585
1070.695,279.4665964894011
1072.6679,228.5472533991706
1074.6402,197.82632185139664
1076.6117,206.85456622144557
1078.5826,229.03274890642933
1080.5527,234.161630234943
1082.5221,318.6919682452208
1084.4908,552.8245186339191
1086.4587,725.6100339107797
1088.426,886.4492610572997
1090.3925,910.5929397989021
1092.3584,848.8418009965135
1094.3235,702.496566405167
1096.2879,627.9079492914934
1098.2515,679.1766558971649
1100.2145,737.4533861847813
1102.1767,808.0888333251751
1104.1382,989.9836831146713
1106.099,1192.9386132687068
1108.0591,1399.6542916028993
1110.0185,1570.9313740034959
1111.9771,1638.9705023602037
1113.9351,1409.5723028534412
1115.8923,1119.7873852739176
1117.8488,821.2663453166315
1119.8045,555.7597674787139
1121.7596,468.96822804465046
1123.7139,376.1922977413451
1125.6675,419.732542606027
1127.6204,511.4895249139954
1129.5726,487.86380274323164
1131.524,499.25592905680605
1133.4748,528.5664519391648
1135.4248,512.795914482198
1137.3741,530.1448544921441
1139.3226,517.2138046473046
1141.2705,495.0032923245308
1143.2176,401.26383972854455
1145.164,466.94596411405655
1147.1097,466.1001787231435
1149.0546,484.4269921284322
1150.9989,402.57690824155725
1152.9424,299.7504261298891
1154.8852,145.69804083502459
1156.8272,41.270244401075615
1158.7686,27.11752741518285
1160.7092,7.140380051783723
1162.6491,0.33929221415382926
1164.5883,108.11475373417125
1166.5267,166.867251054191
1168.4644,308.5472695354256
1170.4014,518.9552928704288
1172.3377,785.291801666277
1174.2732,1044.3072713405018
1176.2081,1284.802169457722
1178.1421,1548.5769531394799
1180.0755,1773.0820666593208
1182.0082,1839.6679388050143
1183.9401,1866.0849806335173
1185.8713,1723.9835848051189
1187.8017,1499.214125319253
1189.7315,1301.126958935547
1191.6605,1021.6724274215012
1193.5888,832.6008595333515
1195.5163,671.6125738106275
1197.4432,640.0078804668665
1199.3693,564.5370829994717
1201.2947,538.1004785057885
1203.2193,521.0483584377944
1205.1432,573.4810088664672
1207.0664,640.64871065232
1208.9889,690.7517389210625
1210.9106,723.3403623919185
1212.8316,800.6648428766239
1214.7519,853.6754349534931
1216.6715,851.4223851942079
1218.5903,887.5559316336949
1220.5084,868.8263037926481
1222.4257,870.8837223162263
1224.3424,834.5783991613389
1226.2583,913.4105375760482
1228.1735,1008.5303324626584
1230.0879,1098.537969589368
1232.0016,1258.983624639095
1233.9146,1290.6174623093648
1235.8269,1194.0896347078706
1237.7384,1128.3502810361424
1239.6492,934.0995285548379
1241.5592,818.687493241101
1243.4686,772.1642817310967
1245.3772,770.979992474131
1247.285,760.4847161978796
1249.1922,734.528535920228
1251.0986,733.8115270542221
1253.0042,770.6837576676444
1254.9092,849.3952884901664
1256.8134,905.6461725446243
1258.7169,1066.9364543599258
1260.6196,1257.9661694085153
1262.5216,1460.0853424934794
1264.4229,1620.2439858382568
1266.3234,1797.6420970654508
1268.2232,1900.829657595219
1270.1223,1902.2566308713103
1272.0207,1934.9229613291718
1273.9183,1929.6285743817098
1275.8151,1846.8733760926007
1277.7113,1818.6072532292383
1279.6067,1697.730074090312
1281.5014,1599.8416887884305
1283.3953,1549.1919304589246
1285.2885,1593.9306162387147
1287.181,1597.507547772806
1289.0727,1731.3225107669132
1290.9637,1822.525274951684
1292.854,2007.5655927445405
1294.7435,2092.2931983376657
1296.6323,2317.157805847586
1298.5204,2589.8091084678927
1300.4077,2845.8967762206157
1302.2943,3017.620453229687
1304.1802,3134.429755160094
1306.0653,2996.074267500604
1307.9497,2836.7035443957066
1309.8333,2737.117110029145
1311.7162,2674.7644602176406
1313.5984,2700.2950634067547
1315.4798,2759.108361294402
1317.3605,2841.7037685755586
1319.2405,2916.9806723541114
1321.1197,2916.9884313169205
1322.9982,2820.3763749810514
1324.876,2830.74380369368
1326.753,2689.03998959823
1328.6293,2731.714176530686
1330.5048,2782.915581436646
1332.3796,2741.7433939445764
1334.2537,2714.246775853786
1336.127,2680.8248615461634
1337.9996,2646.876758261149
1339.8714,2657.301546429946
1341.7426,2606.598280014994
1343.6129,2644.165986405733
1345.4826,2607.9536669256304
1347.3515,2615.3602964565052
1349.2196,2550.2348238006525
1351.087,2600.826171606772
1352.9537,2704.7832370212127
1354.8197,2802.154891182072
1356.6849,3021.7399781796175
1358.5493,3096.7373140825875
1360.4131,3145.495684742311
1362.276,3135.3638450427625
1364.1383,2991.140518412969
1365.9998,2780.224396928321
1367.8606,2490.7641427528106
1369.7206,2246.8083902481994
1371.5799,2041.555748868599
1373.4384,1884.004805600067
1375.2962,1765.7041270130921
1377.1533,1517.4022608381256
1379.0096,1226.5977371485824
1380.8652,988.8890708438594
1382.7201,765.974764557388
1384.5742,534.6033110337139
1386.4275,392.92319535763636
1388.2802,290.0328972679272
1390.132,159.4808925741254
1391.9832,143.06565418545688
1393.8336,47.33565341633039
1395.6832,20.53936015050931
1397.5322,25.925243798395968
1399.3803,17.24177356501059
1401.2278,-22.76258160387988
1403.0745,-1.5893529349177697
1404.9204,-37.78984425656017
1406.7656,31.684656480369085
1408.6101,29.833238845580127
1410.4538,69.60499209194495
1412.2968,132.59900517401002
1414.139,156.5643663502724
1415.9805,262.0001625532568
1417.8213,340.7554791498533
1419.6613,450.9793988869478
1421.5006,674.6710011038977
1423.3391,953.2293606302483
1425.1769,1278.903545548852
1427.0139,1792.0426144102694
1428.8502,2407.145612976041
1430.6858,2992.4115690873004
1432.5206,3372.4394865137183
1434.3547,3640.978339100873
1436.188,3706.277066969953
1438.0206,3655.784573832363
1439.8524,3484.0497263367542
1441.6835,3444.1213545739374
1443.5139,3381.5482537942225
1445.3435,3333.329184806722
1447.1724,3344.6128746050617
1449.0005,3257.548016849607
1450.8279,3189.4332717545894
1452.6545,3201.3172669587693
1454.4804,3253.2985982065875
1456.3056,3243.5758292293085
1458.13,3175.297491225234
1459.9536,3006.9620829569085
1461.7766,2661.8180714339032
1463.5987,2305.0138935961677
1465.4202,1950.0479597654721
1467.2409,1592.0186572134626
1469.0608,1362.8243537113103
1470.88,1140.1634011100086
1472.6984,942.4341376323118
1474.5161,740.634890099338
1476.3331,622.3639759078742
1478.1493,477.96970504836645
1479.9648,434.3503812876188
1481.7795,348.1543036127514
1483.5935,293.9297666673774
1485.4067,295.7750616135836
1487.2192,271.0384766741572
1489.031,254.71829711414466
1490.842,216.9628054882105
1492.6522,247.27028180384696
1494.4618,212.83900389893097
1496.2705,210.76724713864132
1498.0785,207.45328475977294
1499.8858,177.84538789146973
1501.6924,193.94182558833927
1503.4981,213.44086512654576
1505.3032,181.3407718428316
1507.1075,184.88980893954613
1508.911,194.93623780563757
1510.7138,154.32831798116422
1512.5159,108.61430705683597
1514.3172,85.84246108009211
1516.1178,78.26103501223042
1517.9176,84.51828295612904
1519.7166,44.96245823205936
1521.515,35.89181331512009
1523.3126,52.45460023078522
1525.1094,22.34907064561412
1526.9055,6.573475701616189
1528.7008,16.726066317327422
1530.4954,-52.994906654445
1532.2893,-12.391192528148167
1534.0824,-57.2140111991248
1535.8747,-17.364458774698505
1537.6663,5.506940205779756
1539.4572,-5.250165326104252
1541.2473,-11.486126493820848
1543.0367,-3.8512419716971635
1544.8253,4.054304312343447
1546.6132,32.380366904273615
1548.4003,46.976800309535975
1550.1867,69.74345870976686
1551.9723,124.38019581685148
1553.7572,170.48686464524326
1555.5414,242.71331696560446
1557.3247,316.7094028437332
1559.1074,404.4249699183056
1560.8893,494.4098626608975
1562.6705,558.2639214988521
1564.4509,652.9869819154119
1566.2305,730.1788738111882
1568.0094,848.0894205569257
1569.7876,903.718438221591
1571.565,946.7157343932595
1573.3417,998.5311076228281
1575.1176,1009.0643469940514
1576.8928,998.9152316053714
1578.6672,916.4335304645956
1580.4409,837.3690025903816
1582.2138,738.1713978370608
1583.986,684.8404576852772
1585.7575,615.4759162339651
1587.5282,570.5275007336586
1589.2981,543.7449322801385
1591.0673,570.2779262639051
1592.8358,609.5761926380183
1594.6035,612.9894356527639
1596.3704,628.467353462669
1598.1366,696.9596380923722
1599.9021,725.9659752818388
1601.6668,792.7860438014395
1603.4308,867.3195151618911
1605.194,1000.8160529460474
1606.9564,1099.8253120635782
1608.7182,1273.7969374159966
1610.4791,1444.9305629065657
1612.2394,1605.4758097005815
1613.9988,1817.8822845140403
1615.7576,2075.1495780081877
1617.5156,2304.4772626654612
1619.2728,2494.0148902167966
1621.0293,2681.261989348359
1622.785,2697.3680638061705
1624.54,2627.7825905236314
1626.2942,2532.9550194604635
1628.0477,2275.484774298573
1629.8005,2076.6712533903155
1631.5525,1881.7138323332147
1633.3037,1699.311865958065
1635.0542,1615.2646902785236
1636.804,1537.5216243151262
1638.553,1448.5319709357736
1640.3013,1459.6450176331418
1642.0488,1450.5100374145968
1643.7955,1515.9262886910547
1645.5416,1537.0430153683337
1647.2868,1648.8094461930013
1649.0313,1752.0247945412048
1650.7751,1902.4882573010054
1652.5181,2108.999013840219
1654.2604,2315.2562245017925
1656.0019,2604.4590285386857
1657.7427,2924.8065420512867
1659.4828,3257.2978550954012
1661.222,3462.082028478775
1662.9606,3465.6080904361697
1664.6984,3310.775034581535
1666.4354,2989.631819872744
1668.1717,2522.677372159924
1669.9072,2002.6605873968947
1671.642,1610.1803363106992
1673.3761,1297.98546960179
1675.1094,1022.8248218688077
1676.8419,824.7472147305452
1678.5737,678.9014595775552
1680.3048,581.6363595529201
1682.0351,502.500711010709
1683.7646,403.39330448863075
1685.4934,362.11292549939753
1687.2215,294.95835552178687
1688.9488,264.0783724134508
1690.6754,219.97175108245756
1692.4012,199.9372637960969
1694.1263,183.82368062194837
1695.8506,182.12976962821995
1697.5742,154.8542970448907
1699.297,154.99602728064747
1701.0191,125.50372319564485
1702.7404,122.27614610008277
1704.461,75.41205604912466
1706.1808,84.61021187517508
1707.8999,64.31937165652926
1709.6182,74.53829262537693
1711.3358,62.76573137073319
1713.0527,28.60044373621895
1714.7688,50.99118493781316
1716.4841,19.436709905490716
1718.1987,61.98577305931212
1719.9126,36.18712862498069
1721.6257,24.389530208345604
1723.338,35.491731053381955
1725.0496,4.442484160177628
1726.7605,7.890542173914582
1728.4706,2.2846576953434123
1730.18,-12.27641675367704
1731.8886,-19.643928674136987
1733.5964,3.580997074375773
1735.3036,-1.202568124892423
1737.0099,0.05444707549395389
1738.7156,7.501126036628193
1740.4204,-27.263447880946842
1742.1246,-6.390191391685221
1743.8279,-21.27974884820287
1745.5306,9.867299234880193
1747.2325,-6.599415072363627
1748.9336,-31.98025979853537
1750.634,-27.275537044090015
1752.3336,-24.98522942669115
1754.0325,7.490952918613402
1755.7307,34.0535494592059
1757.4281,43.40309958756734
1759.1247,27.29014235564682
1760.8206,23.21521638136801
1762.5158,34.628860009754135
1764.2102,21.681611353686094
1765.9039,26.074008179757584
1767.5968,28.80658803775168
1769.289,16.779888216711697
1770.9804,27.19444571762051
1772.6711,42.95079737366541
1774.361,22.54947974609604
1776.0502,58.24102896665681
1777.7386,83.77598094160385
1779.4263,77.05487099478705
1781.1132,86.8782336123013
1782.7994,76.04660250969846
1784.4849,83.51051053374977
1786.1696,87.9704897707652
1787.8535,89.92707147195324
1789.5367,94.28078600882145
1791.2192,111.6321628536025
1792.9009,81.58173053572864
1794.5818,102.1300164683098
1796.2621,112.67754724864426
1797.9415,98.87484845272684
1799.6202,112.37244452978757
1801.2982,106.0708589403057
1802.9755,102.27061402103391
1804.6519,120.8722310480207
1806.3277,105.32623027460704
1808.0027,89.98313074541602
1809.6769,108.09345045181999
1811.3504,103.85770648535981
1813.0231,137.82641485664954
1814.6951,142.05009053772937
1816.3664,160.1792471223862
1818.0369,179.31439678390416
1819.7067,162.55605009377814
1821.3757,171.7047158303676
1823.044,197.0109011464765
1824.7115,162.87511147786608
1826.3783,155.7478502901904
1828.0443,158.07961942035672
1829.7096,163.02091914779794
1831.3741,199.82224817115002
1833.0379,198.3341035588437
1834.701,178.95698038108821
1836.3633,192.24137172475457
1838.0248,192.9377688871482
1839.6856,194.59666124316482
1841.3457,219.76853623832812
1843.005,215.35387937219093
1844.6636,233.80317394662598
1846.3214,210.16690110996933
1847.9785,240.1455396725314
1849.6349,252.88956634295482
1851.2904,259.099455428428
1852.9453,260.5256787072494
1854.5994,255.31870536672523
1856.2528,289.2290019889024
1857.9054,268.20703260264236
1859.5572,290.35325834452306
1861.2083,279.06813766905725
1862.8587,298.2521261272268
1864.5084,297.8056764793373
1866.1572,285.52923850318166
1867.8054,267.42325899849675
1869.4528,279.9381819097389
1871.0994,290.4244485071322
1872.7453,292.632497261523
1874.3905,287.01276373951805
1876.0349,291.5156805814022
1877.6786,324.59167755733415
1879.3215,339.6911815223166
1880.9637,333.9146160854407
1882.6051,326.71240145888714
1884.2458,317.3849545156927
1885.8858,320.78268886177284
1887.525,334.8560149291952
1889.1634,307.2053399422057
1890.8011,303.3810677764932
1892.4381,322.0335992356959
1894.0743,315.9133320896435
1895.7098,317.9706608878296
1897.3446,337.95597702061696
1898.9786,323.51966869866465
1900.6118,316.9621207530754
1902.2443,321.83371477976107
1903.8761,319.1348292050161
1905.5071,311.81583923679955
1907.1374,302.4771168917314
1908.7669,314.4190310682752
1910.3957,332.69194764012445
1912.0237,312.24622933678256
1913.651,315.83223556083976
1915.2776,335.85032259242416
1916.9034,329.80084355334475
1918.5285,293.5341482069107
1920.1528,273.20058301842437
1921.7764,277.3004915178535
1923.3992,266.98421450316164
1925.0213,254.15208999930928
1926.6427,282.1544533614224
1928.2633,239.54163740310923
1929.8832,276.9639721164358
1931.5023,252.27178509805162
1933.1207,244.9154011749706
1934.7383,265.94514265149155
1936.3552,223.86132938276296
1937.9714,256.41427856448263
1939.5868,253.9543051537412
1941.2015,236.0317215434825
1942.8154,220.946837587112
1944.4286,231.2499607777254
1946.041,191.79139639894947
1947.6528,227.12144742191413
1949.2637,231.84041489983247
1950.8739,196.1485976147087
1952.4834,207.246292030145
1954.0921,230.33379264825908
1955.7001,223.7113918987052
1957.3074,201.629379907803
1958.9139,176.3880445647619
1960.5197,210.7876717424988
1962.1247,189.87854555005833
1963.729,168.91094798860922
1965.3325,152.88515916054257
1966.9353,154.05145747913684
1968.5374,168.96011982882192
1970.1387,160.76142155351954
1971.7393,147.00563630755096
1973.3392,140.34303613762677
1974.9383,152.723891620406
1976.5366,128.64847192911748
1978.1342,135.1170447097602
1979.7311,153.02987632184522
1981.3273,142.8372317737203
1982.9227,145.58937454343868
1984.5173,130.58656668068033
1986.1112,126.72906877923651
1987.7044,121.41714012703596
1989.2968,121.25103874471733
1990.8885,131.23102143874712
1992.4795,159.2573438030904
1994.0697,132.0802601193991
1995.6592,126.8000230767575
1997.2479,114.5668840434455
1998.8359,107.63109311974767
2000.4232,113.24289926027905
2002.0097,123.85255034334659
2003.5955,129.46029311482926
2005.1805,142.46637308208756
2006.7648,117.42103445787961
2008.3484,113.87452003030376
2009.9312,138.677071413249
2011.5133,131.32892908186386
2013.0946,105.28033212452738
2014.6752,130.98151831633004
2016.2551,128.8827243795604
2017.8342,127.73418572668925
2019.4126,104.68613648136579
2020.9902,107.88880948989936
2022.5672,115.29243655173923
2024.1433,112.84724838745205
2025.7188,110.85347456468207
2027.2935,104.61134352260524
2028.8674,124.52108259186025
2030.4406,95.08291805697809
2032.0131,122.29707495727871
2033.5849,106.21377738125739
2035.1559,120.2832481944406
2036.7261,107.70570920021964
2038.2957,112.38138099915614
2039.8645,126.41048311475697
2041.4325,135.393233946721
2042.9998,133.77985063063988
2044.5664,118.02054894817775
2046.1323,98.36554334320408
2047.6974,114.31504707938075
2049.2617,118.06927243671998
2050.8254,129.5284305520845
2052.3883,133.94273138164408
2053.9504,128.01238358628598
2055.5118,131.08759448747423
2057.0725,92.218570126548
2058.6325,112.30551523397571
2060.1917,107.69863361804073
2061.7502,115.94812796396855
2063.3079,123.1041998799983
2064.8649,104.36704981489129
2066.4212,119.73687698636877
2067.9767,119.41387956848303
2069.5315,100.44825453791782
2071.0856,88.14019767722039
2072.6389,107.28990376445563
2074.1915,84.44756669629078
2075.7433,70.61337929649017
2077.2945,83.58753354434975
2078.8448,83.27022071302963
2080.3945,99.2616312398186
2081.9434,100.01195472930885
2083.4916,85.62137979347335
2085.039,70.59009404416884
2086.5857,80.86828423704173
2088.1317,72.60613642184126
2089.677,87.85383583963448
2091.2215,78.41156700542979
2092.7652,76.07951355570003
2094.3083,93.25785834280396
2095.8506,94.99678345830671
2097.3921,96.49647006119721
2098.933,91.75709836049737
2100.4731,92.42884760026573
2102.0124,106.16189610699348
2103.5511,100.85642128288418
2105.089,94.96259946852433
2106.6261,96.03060599594119
2108.1626,86.16061524753604
2109.6983,100.95280064540748
2111.2332,98.45733475005
2112.7675,106.57438911243298
2114.301,105.7541342989507
2115.8337,111.3967398102609
2117.3657,115.05237408947914
2118.897,98.27120446575509
2120.4276,99.65339711771549
2121.9575,99.29911724127396
2123.4866,120.45852903581135
2125.0149,112.18179570771963
2126.5426,103.51907925880641
2128.0695,110.12054056906209
2129.5956,115.23633948329189
2131.1211,116.06663474509605
2132.6458,111.71158394571148
2134.1698,109.3213435157113
2135.693,110.4460687685555
2137.2155,95.2359139244918
2138.7373,93.59103209930981
2140.2584,95.6615754564391
2141.7787,93.79769522340257
2143.2983,101.64954167110864
2144.8171,82.01726413249116
2146.3353,92.25101092398745
2147.8527,110.70092954186475
2149.3693,121.2671665598823
2150.8853,99.59986744479329
2152.4005,90.54917645068053
2153.9149,111.66523683563219
2155.4287,117.34819095224702
2156.9417,101.7981800364737
2158.454,111.96534415078077
2159.9655,110.99982233965738
2161.4764,109.0017525279427
2162.9865,115.37127153047913
2164.4958,110.85851507209236
2166.0045,96.81361772389846
2167.5124,117.23671294843098
2169.0195,101.87793324008908
2170.526,112.93740992090852
2172.0317,89.21527329414721
2173.5367,123.01165253369345
2175.0409,123.67667592128464
2176.5445,114.16047050854422
2178.0473,118.06316211033209
2179.5494,117.03487539990238
2181.0507,119.27573386987842
2182.5513,117.88585984253632
2184.0512,123.76537444739688
2185.5504,109.91439763512653
2187.0488,85.73304811873959
2188.5465,86.72144351210727
2190.0435,100.37970057177426
2191.5397,92.20793518707069
2193.0353,109.356262243532
2194.5301,89.67479570461455
2196.0241,67.46364844021537
2197.5175,71.9729324234836
2199.0101,92.20275895293435
2200.502,85.05323860735416
2201.9931,82.1744810435057
2203.4835,77.96659506761944
2204.9733,84.97968866418341
2206.4622,76.71386903801931
2207.9505,80.76924254415462
2209.438,77.9459147704788
2210.9248,59.19399049719004
2212.4109,76.41357372502989
2213.8962,71.70476786280096
2215.3809,70.8176755551749
2216.8648,74.152398729776
2218.3479,66.70903860605404
2219.8304,72.2876956619375
2221.3121,78.68846970826826
2222.7931,58.66145983300976
2224.2733,65.9567643372452
2225.7529,73.77448093544263
2227.2317,55.66470668250395
2228.7098,62.67753789558901
2230.1872,47.26307033521198
2231.6638,60.07139913511401
2233.1397,58.70261895640715
2234.6149,61.85682385949076
2236.0894,68.8841073177382
2237.5632,58.58456218595575
2239.0362,50.65828063010804
2240.5085,50.955354230315606
2241.9801,51.27587406011753
2243.4509,45.469930683500024
2244.921,53.88761415169529
2246.3904,30.929014061236103
2247.8591,50.29421946978118
2249.3271,63.433319125699654
2250.7943,41.64640127442226
2252.2608,49.883553527045024
2253.7266,41.64486307820334
2255.1917,46.580416623698056
2256.656,25.540300442884472
2258.1197,36.82460034931228
2259.5826,26.733401901129128
2261.0447,28.96679028824019
2262.5062,37.37485043321567
2263.9669,32.95766696895862
2265.4269,48.165324154624614
2266.8862,32.24790591979672
2268.3448,60.6554957124049
2269.8026,55.08817665790093
2271.2598,61.046031275184305
2272.7162,49.27914153227266
2274.1719,56.18758878672452
2275.6268,52.77145390331043
2277.0811,57.18081718492522
2278.5346,55.56575840675123
2279.9874,64.42635677216549
2281.4395,65.31269092888351
2282.8908,59.32483888036222
2284.3414,56.062877976930395
2285.7914,57.77688497567078
2287.2406,52.21693607303905
2288.689,64.83310688772553
2290.1368,61.37547251625483
2291.5838,49.94410740682133
2293.0302,57.98908539386639
2294.4758,67.96047981239099
2295.9206,49.85836341750655
2297.3648,57.58280828472152
2298.8082,68.38388599096015
2300.251,67.36166753731777
2301.693,60.566223241051375
2303.1343,73.64762274580653
2304.5748,50.20593508956745
2306.0147,77.24122857384691
2307.4538,59.053570998094074
2308.8922,59.7930293893487
2310.3299,71.15967018411311
2311.7669,62.15355922096205
2313.2031,65.97476162687326
2314.6387,48.673341907288886
2316.0735,42.84936390790563
2317.5076,62.10289098768817
2318.941,62.28398607710869
2320.3737,60.0427114856102
2321.8056,55.12912889979725
2323.2369,52.24329940584812
2324.6674,75.28528353865113
2326.0972,58.90514131066311
2327.5263,46.302931981489564
2328.9547,57.0787142216891
2330.3823,60.78254623878911
2331.8092,53.514485669533315
2333.2355,57.77458954284248
2334.661,63.91291435249332
2336.0858,71.92951601451932
2337.5098,64.72444980582304
2338.9332,67.94777028401359
2340.3558,52.04953135945652
2341.7778,59.87978626303675
2343.199,66.28858770514762
2344.6195,78.0759877973851
2346.0393,73.49203798845747
2347.4583,73.93678894631375
2348.8767,73.31029060398214
2350.2943,89.26259215512573
2351.7113,78.59374206030452
2353.1275,74.35378788745356
2354.543,69.04277641857334
2355.9578,80.41075369212967
2357.3718,61.157765056159406
2358.7852,72.78385505459255
2360.1978,60.6390676197866
2361.6098,71.87344595625927
2363.021,70.13703266213906
2364.4315,60.429869616817996
2365.8413,70.55199799831917
2367.2504,78.80345838036419
2368.6587,73.88429063115791
2370.0664,61.34453383086884
2371.4733,63.1842263208232
2372.8795,74.30340582890312
2374.285,72.20210945115059
2375.6899,67.28037354057187
2377.0939,65.93823372815223
2378.4973,65.42572497207357
2379.9,61.24288157113688
2381.3019,67.68973716988421
2382.7032,59.216324800433085
2384.1037,63.272676818004584
2385.5035,57.05882498565961
2386.9027,66.67480043373371
2388.3011,64.52063372197517
2389.6987,66.7463547433872
2391.0957,66.45199274576635
2392.492,59.637576309443375
2393.8876,60.20313335023275
2395.2824,46.748691187570785
2396.6765,45.2742765388648
2398.07,50.87991565403536
2399.4627,50.46563433026131
2400.8547,45.031457855923236
2402.246,52.37741101474376
2403.6366,55.70351814013247
2405.0265,43.459803041727355
2406.4156,46.49628897213188
2407.8041,52.16299874935294
2409.1918,39.85995472643617
2410.5789,37.68717873479818
2411.9652,46.49469220726132
2413.3508,45.28251619977482
2414.7358,41.30067130334601
2416.12,36.79917765615846
2417.5035,43.22805498339403
2418.8863,34.137322642241315
2420.2684,47.52699955760977
2421.6497,32.647104313035925
2423.0304,39.84765501678862
2424.4104,39.27866945067035
2425.7896,49.34016499800691
2427.1682,34.682158649338135
2428.546,36.35466690180374
2429.9232,38.60770590572133
2431.2996,41.74129144786343
2432.6753,43.35543892892679
2434.0503,43.6501633321966
2435.4246,38.57547920740535
2436.7982,38.78140066778451
2438.1711,37.11794144081432
2439.5433,43.785114866162075
2440.9148,31.982933912316184
2442.2856,33.3614111099148
2443.6557,35.3705586697688
2445.025,39.960388469074815
2446.3937,27.93091203132508
2447.7617,22.832140480408725
2449.1289,47.114084660906656
2450.4955,25.12675518907872
2451.8613,31.620162210045464
2453.2265,41.44431561765873
2454.5909,49.09922498956894
2455.9546,44.434899488984
2457.3177,48.151347788119665
2458.68,48.648578114843986
2460.0416,47.92659821551206
2461.4025,62.935415349994855
2462.7627,51.075036298896975
2464.1222,62.14546721346983
2465.4811,70.1467137342172
2466.8392,60.62878088018783
2468.1966,48.94167296896467
2469.5533,63.635393711843335
2470.9093,75.5599463307035
2472.2645,57.215333411071015
2473.6191,70.30155678287406
2474.973,59.01861770388791
2476.3262,63.0165167288726
2477.6787,64.59525382240349
2479.0305,61.25482831889167
2480.3816,72.04523890679661
2481.7319,66.8664836620303
2483.0816,47.968559940052955
2484.4306,48.801464427660676
2485.7789,61.465193331963974
2487.1264,59.35974237205983
2488.4733,53.1351066523946
2489.8195,56.891280683817286
2491.165,58.428258445826486
2492.5097,55.8960333490088
2493.8538,57.04459821966793
2495.1972,46.723945325148634
2496.5398,41.43406636234931
2497.8818,57.724952560931115
2499.2231,43.796594736214956
2500.5637,61.99898312627374
2501.9035,52.88210753121575
2503.2427,56.79595713116055
2504.5812,53.790520577407506
2505.919,47.01578595329738
2507.256,52.27174080426539
2508.5924,60.30837220558942
2509.9281,57.02566670983197
2511.2631,43.52361026647168
2512.5974,45.2021882547308
2513.9309,53.51138561859716
2515.2638,38.80118685003549
2516.596,63.62157590589959
2517.9275,48.02253635503098
2519.2583,56.204051130056314
2520.5884,59.71610268337827
2521.9178,50.80867290536003
2523.2465,48.3817430892052
2524.5745,56.98529402003146
2525.9018,54.719305999138896
2527.2284,61.23375875797615
2528.5543,53.67863148079937
2529.8796,57.103902739528394
2531.2041,67.85955056929652
2532.5279,69.99555243419945
2533.851,65.11188511973774
2535.1735,64.90852471145786
2536.4952,58.485446643787554
2537.8163,66.44262570207002
2539.1366,57.980036086794144
2540.4562,71.44765133402439
2541.7752,82.04544440002473
2543.0935,80.67338752658384
2544.411,75.83145213503508
2545.7279,73.96960883997986
2547.0441,65.73782749770544
2548.3596,73.4360772248042
2549.6744,74.46432648048994
2550.9885,78.87254298961648
2552.3019,78.4606937323947
2553.6146,79.97874490031063
2554.9266,81.02666190024456
2556.2379,79.10440933928953
2557.5485,81.91195101427274
2558.8585,78.9992499309767
2560.1677,82.41626827606547
2561.4762,82.1629674462115
2562.7841,87.13930801392416
2564.0913,89.4452497300847
2565.3977,90.1307514741818
2566.7035,93.84577123125291
2568.0086,98.19026608502963
2569.313,87.71419218078518
2570.6167,100.21750468189225
2571.9197,97.25015787458165
2573.222,102.46210504291048
2574.5236,94.60329849843447
2575.8246,105.8236895280902
2577.1248,110.42322847278228
2578.4244,110.95186461517892
2579.7232,114.40954613371719
2581.0214,114.29622009731588
2582.3189,119.26183243079822
2583.6157,121.80632791602625
2584.9118,116.57965014224351
2586.2072,125.28174148063158
2587.5019,128.96254313657505
2588.7959,115.97199506264292
2590.0893,126.11003592177804
2591.3819,134.4766032172049
2592.6739,129.4716331910463
2593.9652,133.44506074066112
2595.2557,137.54681946869187
2596.5456,133.57684164333182
2597.8348,138.98505815730596
2599.1234,141.72139856757144
2600.4112,139.63579104123596
2601.6983,135.1781623281936
2602.9848,142.19843778198037
2604.2705,142.49654140435223
2605.5556,142.42239577508076
2606.84,139.97592204897228
2608.1237,125.50703995660933
2609.4067,132.21566782881587
2610.689,131.6517227413451
2611.9707,141.21512044779365
2613.2516,138.15577538524144
2614.5319,129.6236005786177
2615.8115,138.81850767129458
2617.0903,130.29040701040822
2618.3685,131.18920755491126
2619.6461,128.71481696085266
2620.9229,135.46714157239012
2622.199,138.74608644653404
2623.4745,130.15155528562286
2624.7493,127.68345040453573
2626.0234,130.44167281663613
2627.2968,139.32612225845332
2628.5695,137.58669716209988
2629.8415,131.02329456642724
2631.1128,128.78581013442135
2632.3835,138.52413821883442
2633.6535,137.58817188456123
2634.9228,140.77780281125592
2636.1914,134.34292130269114
2637.4593,132.9834162548625
2638.7265,151.79917522033656
2639.9931,140.19008442184554
2641.259,130.5060285641307
2642.5242,132.14689095003314
2643.7887,132.16255357733394
2645.0525,122.7028971223458
2646.3156,136.06780093975658
2647.5781,129.0071431572262
2648.8398,119.77080054173575
2650.1009,125.65864857019665
2651.3613,128.77056152181171
2652.6211,129.6064124191978
2653.8801,118.01607299726675
2655.1385,131.5494136948662
2656.3961,129.0563037706845
2657.6531,131.58661116791563
2658.9094,132.69020253919257
2660.1651,129.066943221281
2661.42,136.76669722404608
2662.6743,142.78932726668404
2663.9279,147.18469470072478
2665.1808,145.2026594498052
2666.433,149.7930799657163
2667.6846,142.20581324822183
2668.9354,137.99071479915528
2670.1856,151.34763869829249
2671.4351,154.47643764550344
2672.6839,162.12696282718116
2673.9321,153.49906388495606
2675.1795,161.19258883918837
2676.4263,169.35738417524908
2677.6724,171.5432947665829
2678.9179,168.40016379306303
2680.1626,166.02783271912983
2681.4067,169.37614132522185
2682.6501,168.79492773150082
2683.8928,166.434028364367
2685.1348,152.8432779622725
2686.3761,157.27250959932962
2687.6168,151.52155482121873
2688.8568,148.7402436008964
2690.0961,148.8784043961034
2691.3348,145.63586417717954
2692.5727,146.56244842568083
2693.81,138.35798116680496
2695.0466,137.42228496012626
2696.2826,144.15518098164057
2697.5178,134.2064890331203
2698.7524,144.7260274747888
2699.9863,148.81361332480424
2701.2195,137.56906215406616
2702.452,150.3421880453385
2703.6839,149.93280370569448
2704.9151,152.740720338787
2706.1456,161.0657476489406
2707.3755,171.00769381307384
2708.6046,171.21636539744816
2709.8331,175.29156725824805
2711.0609,177.3831025394951
2712.2881,194.14077263229524
2713.5145,187.81437715392406
2714.7403,208.55371378024984
2715.9654,216.65857830899677
2717.1899,225.27876445235302
2718.4136,242.36406375592094
2719.6367,249.91426551251539
2720.8591,252.47915659131195
2722.0809,269.2085213623435
2723.3019,278.05214167085296
2724.5223,294.95979666999733
2725.7421,283.93126273241285
2726.9611,290.3663132811374
2728.1795,287.6147188998975
2729.3972,278.1762472687557
2730.6142,267.2006631916279
2731.8306,252.48772869066875
2733.0462,249.7372031160262
2734.2612,215.9488432929718
2735.4756,205.57240354940404
2736.6892,185.95763605373395
2737.9022,176.2042909186481
2739.1145,147.91211639725736
2740.3262,150.2308589806304
2741.5372,133.06026368071423
2742.7475,120.4500740071478
2743.9571,108.45003213896814
2745.1661,97.70987905071149
2746.3744,82.27935463241454
2747.582,70.75819779701533
2748.7889,74.74614663465866
2749.9952,68.5429385279084
2751.2008,53.948310111867386
2752.4057,63.911997336209424
2753.61,51.983735611126235
2754.8136,44.81325970769001
2756.0165,35.55030387713634
2757.2188,40.344601922568245
2758.4204,39.39588729158663
2759.6213,32.303893028346806
2760.8215,33.91835178304541
2762.0211,29.438995882841255
2763.22,27.065557315709952
2764.4182,23.047767775237162
2765.6158,28.43535868435424
2766.8127,20.678061235514633
2768.009,13.02560633681901
2769.2045,7.6277246895875805
2770.3994,6.884146864884883
2771.5936,-6.155396642500705
2772.7872,5.158824593377176
2773.9801,-14.123397509122242
2775.1723,-12.602271083227947
2776.3639,-15.12786316942902
2777.5548,-18.65011491152609
2778.745,-14.1188163259676
2779.9346,-12.033571114553865
2781.1235,-14.343841932111559
2782.3117,-9.748971218091924
2783.4992,-9.098158116965578
2784.6861,-7.090504380981656
2785.8723,-10.525020871790048
2787.0579,-16.30064761690346
2788.2428,-0.11621949887569372
2789.427,-2.9704085567923357
2790.6106,14.188113171424334
2791.7935,13.910703322232393
2792.9757,22.148719390208726
2794.1573,23.35351873082277
2795.3382,34.076458478057475
2796.5184,54.56889553235965
2797.698,62.93218645341244
2798.8769,78.91768725520933
2800.0551,94.92675332242231
2801.2327,107.01073925054732
2802.4096,120.3709986858122
2803.5859,124.15888420433873
2804.7615,150.9257471785395
2805.9364,189.37293773923807
2807.1106,188.0518045080023
2808.2842,211.06369421267073
2809.4572,253.25995170056433
2810.6294,274.24191970836796
2811.801,322.0109384401668
2812.972,359.0183453576275
2814.1423,402.71547470230723
2815.3119,444.55365712558125
2816.4808,489.6342192516702
2817.6491,528.8084832592587
2818.8167,585.4277664306894
2819.9837,619.0933807602203
2821.15,670.4566323878323
2822.3157,707.468821262573
2823.4807,762.0312406289241
2824.645,815.8451766566801
2825.8086,847.661907895323
2826.9716,893.782704735884
2828.134,935.4588290927757
2829.2957,965.0915339425837
2830.4567,985.7820629073072
2831.617,998.0816499580308
2832.7767,1004.8415192080181
2833.9358,1022.1128847897166
2835.0941,1008.3469507871603
2836.2519,1009.3449110632536
2837.4089,982.6579493974331
2838.5653,987.4872394756865
2839.7211,974.5339451574234
2840.8761,992.4492204271808
2842.0306,1007.9842095241564
2843.1843,1046.090046763057
2844.3374,1077.5178563787474
2845.4899,1133.7687521451924
2846.6417,1195.6938370611786
2847.7928,1260.8442027878061
2848.9433,1363.8209290292361
2850.0931,1426.9250828811896
2851.2422,1511.207717801178
2852.3907,1579.2698729774636
2853.5385,1639.5125724862307
2854.6857,1677.9868246109659
2855.8323,1744.9936212400305
2856.9781,1775.5839374819182
2858.1233,1820.108730995186
2859.2679,1871.2189416825522
2860.4118,1915.615491245648
2861.555,1952.0992826739164
2862.6976,1970.8711998006465
2863.8395,2016.732106938135
2864.9808,2026.2328486899676
2866.1214,2060.12424949241
2867.2614,2068.7571135194003
2868.4007,2066.8322243436346
2869.5393,2094.7503448502384
2870.6773,2099.5622172560165
2871.8146,2115.118562830269
2872.9513,2127.820081846677
2874.0874,2117.767453427734
2875.2227,2099.711335417734
2876.3574,2072.9523644832984
2877.4915,2058.8911562939343
2878.6249,2028.4783057896261
2879.7577,1994.964387321447
2880.8898,1979.0499549556862
2882.0212,1962.3855428089905
2883.152,1948.7216652075065
2884.2821,1941.4588168535267
2885.4116,1928.1474729621273
2886.5405,1929.4380893337964
2887.6686,1944.9311024875492
2888.7962,1939.1269296480182
2889.923,1960.8259685905268
2891.0493,1965.1285976991294
2892.1748,1971.8351757496207
2893.2997,1980.3960418665108
2894.424,2001.761515455958
2895.5476,2021.3818961201619
2896.6706,2044.1574634437054
2897.7929,2066.4384767973547
2898.9145,2106.275175110302
2900.0355,2128.0677766473545
2901.1559,2173.316478610568
2902.2756,2200.1714569213223
2903.3946,2253.8828657678323
2904.513,2250.0508373366
2905.6308,2269.7754812752996
2906.7479,2300.306884731097
2907.8643,2340.8951121534037
2908.9801,2361.7402049885623
2910.0953,2355.142181273966
2911.2098,2367.951035429604
2912.3236,2346.7667383240455
2913.4368,2346.6392371463494
2914.5494,2326.5684556179085
2915.6613,2278.8042939937222
2916.7725,2259.7466292631066
2917.8831,2240.6953156273353
2918.9931,2210.8501846902154
2920.1024,2181.861045648604
2921.211,2157.077685590854
2922.319,2150.1998697867098
2923.4264,2124.5273419351392
2924.5331,2122.8098242331116
2925.6391,2109.147017632322
2926.7445,2098.9886018563693
2927.8493,2087.334235537381
2928.9534,2100.383556317601
2930.0569,2085.7361809659287
2931.1597,2091.8417052474297
2932.2619,2075.1497040698077
2933.3634,2078.60973142235
2934.4643,2073.6713205428455
2935.5645,2056.3839838829886
2936.6641,2007.4972131577592
2937.763,1977.5604795182983
2938.8613,1932.6232340407748
2939.959,1875.2849080257547
2941.056,1810.5949134475723
2942.1523,1737.752643527712
2943.248,1651.0574733817105
2944.3431,1563.608760747577
2945.4375,1461.2558468527475
2946.5313,1370.0980572885705
2947.6244,1254.5347030338376
2948.7169,1166.6650813663593
2949.8087,1073.688477018601
2950.8999,988.4541630563758
2951.9904,919.8614018086139
2953.0803,824.6594457197023
2954.1696,775.1975380354158
2955.2582,719.3749137549344
2956.3462,680.0408001254632
2957.4335,653.9944172004575
2958.5202,619.4849782329651
2959.6062,587.011689936091
2960.6916,580.5737528280904
2961.7764,552.5203615571031
2962.8605,536.7507049655312
2963.9439,530.0139663705738
2965.0267,524.0593237219232
2966.1089,523.135949669133
2967.1905,521.7930116211642
2968.2714,524.5796717556177
2969.3516,527.5450870321657
2970.4312,532.7384091646836
2971.5102,530.7087845915962
2972.5885,530.7053544239448
2973.6662,540.3772544656833
2974.7432,538.3236152137129
2975.8196,530.0935617611616
2976.8954,526.6862138179226
2977.9705,517.9006857929538
2979.045,516.4860868283511
2980.1188,488.64152088720425
2981.192,473.9660867677427
2982.2645,470.70887838178123
2983.3364,444.9689849014742
2984.4077,398.7454907918866
2985.4783,388.13747606839524
2986.5483,359.3440167589224
2987.6177,335.3141850100151
2988.6864,298.34704937478045
2989.7545,275.6916750531841
2990.8219,254.64712426172218
2991.8887,215.76245645997392
2992.9548,188.536728561048
2994.0204,161.96899532042903
2995.0852,136.70830960823469
2996.1495,112.6537226748926
2997.2131,100.50428440374844
2998.276,81.15904355161035
2999.3383,69.06704787024375
3000.4,51.97734429982438
3001.4611,39.23897908985748
3002.5215,18.150997970075537
3003.5812,13.81244627782121
3004.6404,9.92236916892739
3005.6989,1.5298116611031674
3006.7567,-1.516181327165441
3007.8139,1.4834351073106973
3008.8705,-6.672278985628964
3009.9264,-8.784263570978624
3010.9818,-11.753391957665599
3012.0364,-18.73044969982459
3013.0905,-9.466104935204498
3014.1439,-8.910838684362375
3015.1966,-1.9650374014672707
3016.2487,-9.428998521409767
3017.3002,-6.052999848356876
3018.3511,4.112775009219149
3019.4013,10.268202912314678
3020.4509,5.013160680798023
3021.4998,8.397525031856503
3022.5481,11.921172632546018
3023.5958,8.733980065947094
3024.6428,21.935823795928968
3025.6892,33.32658019902158
3026.735,30.95612543239713
3027.7802,34.72433531996205
3028.8247,48.431085376061446
3029.8685,51.32625076779732
3030.9118,54.409706177961425
3031.9544,69.0813257760833
3032.9963,68.29098318759554
3034.0376,80.938551347118
3035.0783,90.27390250636074
3036.1184,93.99690810764855
3037.1578,105.30743869056755
3038.1966,107.6553638547349
3039.2348,103.7405521466934
3040.2723,118.51287103643267
3041.3092,118.07218695653711
3042.3455,119.71836515446228
3043.3811,114.80126969694254
3044.4161,123.3207634535284
3045.4505,121.47670814575827
3046.4842,124.51896426196294
3047.5173,115.64739107570665
3048.5498,111.91184661536386
3049.5816,114.01218775283519
3050.6128,114.19827024090341
3051.6434,117.81994869222899
3052.6734,106.77707657749005
3053.7027,110.11950618916518
3054.7314,105.09708875196242
3055.7594,99.85967438939502
3056.7868,98.00711217400578
3057.8136,100.33925017974082
3058.8398,96.80593550047513
3059.8653,97.10701422669155
3060.8902,91.74233148081333
3061.9145,104.41173141419358
3062.9381,92.91505726076264
3063.9612,87.5021512103337
3064.9835,88.42285452356987
3066.0053,92.4770075861129
3067.0264,87.61444989937627
3068.0469,80.83502004000354
3069.0668,69.38855570849404
3070.086,77.3748937969973
3071.1046,69.2938705037775
3072.1226,67.89532125335023
3073.1399,65.47908077729261
3074.1567,56.894983128228546
3075.1727,47.59286170399122
3076.1882,41.67254933346425
3077.203,41.333878369602644
3078.2173,35.6766807486361
3079.2308,26.150787993455367
3080.2438,23.056031270184803
3081.2561,19.442241483441023
3082.2678,18.459249307280572
3083.2789,13.006885221337768
3084.2893,7.2849795206547014
3085.2991,7.343362370204716
3086.3083,10.331863862111447
3087.3169,9.550314015065112
3088.3248,6.448542744437191
3089.3321,7.476379870096537
3090.3388,3.8836551474264525
3091.3449,4.720198257046604
3092.3503,-2.064161159259754
3093.3551,2.6304064930888558
3094.3593,-3.446248570356431
3095.3629,-4.994276160348591
3096.3658,-4.063791659617209
3097.3681,-4.654860558073096
3098.3698,0.5824922516512174
3099.3708,-2.251711621019581
3100.3713,3.0425494275145297
3101.3711,-4.434680504547572
3102.3702,-2.0833573494325606
3103.3688,-0.003392736908921279
3104.3667,-1.9446774840055525
3105.364,-2.3571023738579413
3106.3607,1.3094612377264525
3107.3568,7.3551655423925695
3108.3522,-1.3198372813089065
3109.347,10.534604871621184
3110.3412,2.218657291356294
3111.3348,12.882485162723981
3112.3277,-1.5237463516347987
3113.32,11.60012778209608
3114.3117,8.654287819958682
3115.3028,10.238913901993783
3116.2932,14.504186081699316
3117.2831,16.900284310184276
3118.2723,11.877388393515673
3119.2608,15.435677968757773
3120.2488,16.975332554200975
3121.2361,20.596531513778984
3122.2229,21.69945404167231
3123.209,24.284279126096067
3124.1944,27.851185538270926
3125.1793,24.20035180657493
3126.1635,24.28195618087426
3127.1471,22.94617666903173
3128.1301,27.69319103609064
3129.1125,32.67317681763254
3130.0942,30.3363112723072
3131.0753,28.132771332032945
3132.0558,35.0627336253653
3133.0357,32.57637449953171
3134.015,33.97386995113271
3134.9936,33.055395651004915
3135.9716,37.82112693024632
3136.949,40.37123878940099
3137.9258,44.855905850801776
3138.902,38.87530233306913
3139.8775,41.17960200626453
3140.8524,44.818978251696535
3141.8267,41.843604038877686
3142.8004,48.75365188913068
3143.7735,42.349293905342336
3144.7459,48.680701702863075
3145.7178,49.39804647355044
3146.689,50.30149892245514
3147.6596,53.741229260647444
3148.6295,51.517407196182674
3149.5989,55.28020189970401
3150.5676,55.82978202668059
3151.5357,54.31631567977965
3152.5032,63.73997040337062
3153.4701,60.45091319865983
3154.4364,61.099310429453936
3155.402,58.68532785505057
3156.367,62.759130623754274
3157.3315,59.77088329701644
3158.2952,65.3207498086972
3159.2584,66.8588934949479
3160.221,67.73547703871249
3161.1829,68.35066245434592
3162.1442,66.25461107884846
3163.105,69.09748356571377
3164.065,71.07943990588947
3165.0245,68.20063939934832
3165.9834,73.8112406352688
3166.9416,71.41140152082295
3167.8993,72.45127922507052
3168.8563,75.1810302029572
3169.8127,81.30081018491595
3170.7684,77.46077414956942
3171.7236,75.86107626253215
3172.6782,76.70186991481107
3173.6321,81.63330773880229
3174.5854,82.25554159988329
3175.5381,83.26872254709842
3176.4902,85.42300080693678
3177.4417,82.71852577320018
3178.3926,89.50544598546057
3179.3428,89.13390915610466
3180.2924,87.4040621024647
3181.2415,88.46605075053384
3182.1899,85.32002015226468
3183.1377,94.66611447494917
3184.0848,91.95447703267922
3185.0314,96.93525019288555
3185.9773,97.2585754034541
3186.9227,96.9245931429183
3187.8674,98.28344291722584
3188.8115,98.63526326307853
3189.755,100.53019173434369
3190.6979,102.96836489853611
3191.6402,103.79991831786863
3192.5818,100.17498652487043
3193.5229,103.84370301407164
3194.4633,109.1562002782524
3195.4031,103.2626097717559
3196.3423,107.11306185736335
3197.2809,112.0076858652298
3198.2189,110.14661005437972
3199.1563,113.07996156376072
3200.0931,113.1078664308543
3201.0292,109.53044956234241
3201.9648,114.59783473382826
3202.8997,116.36014462561066
3203.834,122.31750077200999
3204.7677,115.8200235437453
3205.7008,121.4178320883605
3206.6333,122.41104439519937
3207.5652,117.2997772394273
3208.4964,121.8341461720993
3209.4271,123.96426557127256
3210.3571,126.34024859666282
3211.2865,130.8622071683432
3212.2154,130.88025194298422
3213.1436,128.54449226863446
3214.0712,132.75503618453988
3214.9982,133.46199044450154
3215.9246,131.36546047477017
3216.8503,132.21555036697652
3217.7755,137.66236289909676
3218.7001,136.5059995269516
3219.624,138.946560329738
3220.5473,138.28414402159297
3221.4701,137.86884792718797
3222.3922,143.8007679883529
3223.3137,146.07999876822925
3224.2346,142.35663339195068
3225.1549,146.13076352385102
3226.0746,150.0024794046976
3226.9937,147.32186981395014
3227.9121,151.78902203104354
3228.83,153.204021862194
3229.7473,155.6669535957274
3230.6639,152.17789998792944
3231.5799,154.63694223841628
3232.4954,156.64416002502503
3233.4102,155.5996314792234
3234.3244,156.75343316603747
3235.238,160.35564009449698
3236.151,164.40632570609722
3237.0634,161.1555618387772
3237.9752,160.70341868641248
3238.8864,162.14996483132308
3239.797,162.64526724879465
3240.7069,164.18939129261332
3241.6163,162.03240069011235
3242.5251,169.67435752673123
3243.4332,166.81532226758532
3244.3408,175.9053536810464
3245.2477,167.844508867333
3246.154,173.23284316761
3247.0598,173.02041024459731
3247.9649,173.70726202868622
3248.8694,170.643448720064
3249.7733,177.22901878184524
3250.6766,181.01401897071003
3251.5793,177.3984942710482
3252.4814,179.83248785710936
3253.3829,183.06604112915815
3254.2838,180.64919368913442
3255.1841,181.2819833083175
3256.0838,180.0644459514948
3256.9829,184.7466157706338
3257.8814,184.1285251170575
3258.7792,188.51020449462277
3259.6765,192.59168256590124
3260.5731,191.0229861083623
3261.4692,189.3541399735586
3262.3647,189.3851671028129
3263.2595,186.9660885439063
3264.1538,189.44692345076825
3265.0474,190.47768910766723
3265.9404,194.10840090440252
3266.8329,189.83907232599645
3267.7247,195.51971491638727
3268.616,192.15033832112238
3269.5066,193.08095023055205
3270.3966,194.96155641352297
3271.286,188.8421607080723
