RamanShift,CorrectedData
30.1047,1392.939452718398
32.3739,1289.9291521893851
34.6426,1193.9688377309778
36.9109,1094.4584825144896
39.1787,998.8480477715464
41.4461,903.137483789188
43.7131,803.6767308659736
45.9796,707.3157202690876
48.2456,612.3543752289463
50.5112,513.842611902808
52.7764,416.0303403243872
55.0411,324.06746538897227
57.3054,228.45388783154755
59.5692,130.33950514642305
61.8326,38.72421254336963
64.0955,-55.142096071236836
66.3579,-147.35952717826268
68.6199,-229.77763638903443
70.8815,-301.64450719320234
73.1426,-320.7059276018293
75.4032,-218.6546721973515
77.6634,197.41968829001132
79.9231,1308.3797674902144
82.1824,3832.7881770590157
84.4412,8437.257515568377
86.6995,14813.950343262379
88.9574,20945.429136012524
91.2148,25139.906221550817
93.4717,27002.34371815497
95.7282,27144.353492703638
97.9842,26889.897142052025
100.2398,26091.48599161182
102.4949,25234.281097895728
104.7495,24283.443256501603
107.0036,23291.033010684485
109.2573,22357.96066086498
111.5105,21557.786274553368
113.7632,20736.219695680324
116.0154,20038.22055259866
118.2672,19531.998266298993
120.5185,19003.512057389737
122.7693,18578.820951159323
125.0197,18193.033782861057
127.2696,17829.709201960053
129.519,17515.305675991072
131.7679,17173.1814941918
134.0163,16896.44477064684
136.2642,16444.85344770903
138.5117,16058.065298766705
140.7587,15648.137932759719
143.0052,15262.928798047245
145.2512,14853.345186507084
147.4967,14488.094237387759
149.7417,14195.032941404326
151.9863,13951.068144390914
154.2304,13747.406550231317
156.4739,13531.154723298656
158.717,13302.969090491979
160.9596,13045.355943398805
163.2017,12690.42144057695
165.4433,12314.571610130675
167.6844,11880.912353260035
169.925,11501.349448019362
172.1651,11013.238553653864
174.4047,10685.68521439527
176.6439,10336.344864342907
178.8825,10000.572830739267
181.1206,9777.174337463388
183.3582,9550.204508388588
185.5954,9337.818369616434
187.832,9170.070851746455
190.0681,9044.916791999996
192.3037,8953.360935897701
194.5388,8862.457938511046
196.7734,8830.6123653779
199.0075,8793.828693411553
201.2411,8858.161311219174
203.4742,8854.66451946965
205.7068,8934.242530250258
207.9389,8966.949467101635
210.1704,9065.68936422199
212.4015,9054.466166140042
214.632,9152.833726727626
216.862,9244.645809311904
219.0915,9295.556085691715
221.3205,9360.86813521944
223.549,9457.035444291898
225.777,9583.711405697235
228.0044,9739.849317653243
230.2314,9942.1523825406
232.4578,10115.67370534149
234.6837,10264.81629161659
236.909,10324.433045769822
239.1339,10214.026769556966
241.3582,10025.750161489479
243.582,9739.155817938536
245.8053,9484.596235017832
248.0281,9227.7738114495
250.2503,9023.240851109704
252.472,8937.999565596892
254.6932,8927.952076277095
256.9139,8887.950415136365
259.134,8926.246524881237
261.3536,8987.59225933873
263.5727,9113.13938307342
265.7912,9200.639570773948
268.0092,9336.794405997574
270.2267,9322.855380295156
272.4436,9296.623891849616
274.6601,9204.551245615326
276.8759,9049.788653580421
279.0913,8914.63723568753
281.3061,8773.248021381396
283.5204,8666.371950960402
285.7341,8587.259876990453
287.9473,8632.512565373732
290.16,8691.930696139836
292.3721,8864.56486299324
294.5837,9100.165572719117
296.7947,9325.233243456994
299.0052,9418.668202344745
301.2152,9290.520683267916
303.4246,8991.340825925368
305.6334,8516.678677110773
307.8418,7976.284193704387
310.0495,7460.0572474197
312.2568,7045.347630207354
314.4635,6680.555059417431
316.6696,6397.179181946536
318.8752,6221.819577885732
321.0802,6162.975763354296
323.2847,6176.897192253313
325.4887,6119.183256854112
327.692,6036.533287659056
329.8949,5942.046553978671
332.0972,5668.472264758157
334.2989,5342.759569522261
336.5001,5060.757561111002
338.7007,4819.415278936816
340.9008,4613.83171180456
343.1003,4428.9058003249465
345.2992,4269.286438970374
347.4976,4196.422477924189
349.6955,4104.112724676877
351.8927,4089.505944754701
354.0895,3996.900862642806
356.2856,3933.946161931284
358.4812,3844.9904862412204
360.6763,3824.5324398542434
362.8707,3772.2705886020904
365.0646,3770.2034600711777
367.258,3743.179544125225
369.4508,3779.4972929259256
371.643,3870.1051212031725
373.8346,3828.0014058918932
376.0257,3838.084485225969
378.2162,3738.252659159263
380.4062,3665.5541892648
382.5956,3490.787299733085
384.7844,3369.7001780990904
386.9726,3183.140976989931
389.1603,3109.757815335719
391.3474,2994.2487802351643
393.5339,2925.5119276894075
395.7199,2861.1452837570923
397.9052,2849.5968452417565
400.09,2897.114580335481
402.2743,2978.4964287343937
404.4579,3058.690301163475
406.641,3243.1440785627383
408.8235,3396.4056112852995
411.0054,3545.822717252844
413.1868,3830.8931804230015
415.3675,4002.3147492951794
417.5477,4056.635134059856
419.7273,4007.7520048843744
421.9064,3886.3629913697205
424.0848,3763.9156830393786
426.2627,3594.757630553191
428.4399,3295.786346931858
430.6166,2909.7993092485103
432.7928,2532.893961618427
434.9683,2228.2677190589
437.1432,1955.967971258293
439.3176,1777.0420856222881
441.4914,1619.137409996887
443.6645,1555.7012744576878
445.8371,1472.7809928889037
448.0091,1398.7738636177473
450.1806,1340.6271702436206
452.3514,1297.0381823781954
454.5216,1293.7041562268732
456.6913,1205.6723350246775
458.8603,1274.4899490695861
461.0288,1309.9042166028648
463.1967,1290.8123431208787
465.3639,1330.3115210209526
467.5306,1322.1989297922955
469.6967,1363.7717356210087
471.8622,1440.4770914712062
474.0271,1515.0121366692983
476.1914,1548.5239961369334
478.3551,1519.159779645639
480.5182,1565.6165814817068
482.6807,1583.091480739853
484.8426,1741.2815408586139
487.0039,2027.6338094456369
489.1647,2404.2453166957475
491.3248,2753.4630725274455
493.4843,2876.784062816787
495.6432,2841.6552459052054
497.8015,2682.823551366293
499.9592,2599.2358803571024
502.1163,2456.8891072064507
504.2728,2201.9300802508096
506.4287,1886.2056232577543
508.5839,1506.0625379755747
510.7386,1241.3976072905061
512.8927,1093.1575990281635
515.0461,1057.8392686001916
517.199,1042.089360486656
519.3512,1128.354608589243
521.5029,1313.5317363887407
523.6539,1479.1674560823958
525.8043,1542.5584667321455
527.9541,1502.2014526082585
530.1033,1392.94308255541
532.2519,1311.7300103962898
534.3999,1334.2088760241531
536.5472,1483.7263062149705
538.694,1779.0789144026257
540.8401,2216.863299183733
542.9856,2484.826041364142
545.1305,2593.613699581074
547.2748,2520.872807623493
549.4185,2235.6998733442324
551.5615,1988.4913793874039
553.704,1926.7937860401253
555.8458,1928.6535337046043
557.987,2032.0170435151122
560.1276,2176.3307173193953
562.2675,2415.390936645037
564.4069,2709.6440612563165
566.5456,2955.3364267636134
568.6837,3017.014341680877
570.8212,2661.3240849686936
572.958,2085.2119054175164
575.0942,1602.9240252045656
577.2299,1270.7566456549466
579.3648,1141.9059520645387
581.4992,1147.0181170216456
583.6329,1297.3893016955208
585.766,1485.8156557852508
587.8985,1609.4433160160224
590.0304,1618.76840425487
592.1616,1571.9870262744025
594.2922,1454.3952716595395
596.4222,1277.0892142753419
598.5515,1070.214913442922
600.6802,923.4184157125019
602.8083,747.1457569321665
604.9358,720.1429637158162
607.0626,711.5060552058985
609.1888,735.1810433434493
611.3144,827.1639329544414
613.4393,841.3007215130492
615.5636,855.8373982218254
617.6873,815.9199438703163
619.8103,762.7943306897087
621.9327,634.5065227519881
624.0544,458.6524765012091
626.1756,388.6281420363648
628.2961,270.97946486992987
630.4159,199.65238662811498
632.5351,187.04284622732484
634.6537,141.79678058745958
636.7716,126.71012475797943
638.8889,149.92881237039546
641.0056,219.448775789102
643.1216,193.865945879219
645.237,196.42625131139175
647.3518,170.27561881760266
649.4659,137.3599731655886
651.5793,97.32523742034391
653.6922,67.0173332732702
655.8043,86.7321814425286
657.9159,56.5157019761009
660.0268,4.213814054655813
662.137,8.9224362937166
664.2466,25.687445212795865
666.3556,35.90462819626737
668.4639,-68.23022762836081
670.5716,-25.771335492616345
672.6786,3.9277729919303965
674.785,-18.086176330649323
676.8907,30.383503145256327
678.9958,42.53367870616421
681.1002,64.01121733476066
683.204,47.16298558840572
685.3072,34.58584938435342
687.4097,3.8266741682327847
689.5115,-17.967674960182194
691.6127,-24.95037112958562
693.7132,-58.12440797160889
695.8131,-76.24252986368629
697.9123,-52.45690052041573
700.0109,-70.5689219935266
702.1089,-44.429472290326885
704.2061,12.211275565401593
706.3028,42.05359240029793
708.3987,95.3477489188972
710.4941,126.39401540521067
712.5887,269.64266118978776
714.6827,424.6939543392309
716.7761,662.3981602237291
718.8688,927.2055399665278
720.9608,1097.6663480668922
723.0522,1224.7808297520533
725.1429,1195.0992192725826
727.233,1132.8217386312535
729.3224,1038.4485978798457
731.4112,880.6799957419298
733.4993,742.5161205565983
735.5867,553.0071518561381
737.6735,396.75326174768816
739.7596,267.0546168083183
741.845,168.56137964756817
743.9298,91.52371020444298
746.014,93.24176673234615
748.0974,116.26570656945842
750.1802,140.84568612154362
752.2624,158.48186063172034
754.3439,202.32438393466327
756.4247,321.22340828023516
758.5048,482.02908389506956
760.5843,744.3415577935812
762.6631,1149.7609721698918
764.7413,1626.0874617747177
766.8188,2315.121149861179
768.8956,2874.7121434215296
770.9718,3230.5105262968136
773.0473,3110.0163535809716
775.1221,2827.1296480628407
777.1962,2503.0004014311035
779.2697,2369.1285771031526
781.3426,2387.1141134663812
783.4147,2571.5569252168953
785.4862,2732.756903179663
787.557,2669.8139124640948
789.6271,2280.1277908520387
791.6966,1691.0983494272132
793.7654,1129.1253764720623
795.8335,754.8586433580531
797.901,527.1979101654051
799.9678,423.1929294257516
802.0339,372.59344839876394
804.0993,349.7992101121854
806.1641,331.10995386783543
808.2282,263.57541546955144
810.2916,205.4953274100808
812.3544,154.66941954641516
814.4164,73.64741968061571
816.4778,128.67905406804675
818.5385,155.86404822760778
820.5986,317.65212639141646
822.658,503.0930112329552
824.7166,746.036422249208
826.7747,1152.6320739062212
828.832,1548.3296732096915
830.8886,1790.2789156389972
832.9446,1970.2294811902284
834.9999,1926.5810319566863
837.0545,1786.3332103293924
839.1085,1594.3356394335642
841.1618,1365.0879245310916
843.2143,1235.3896549405163
845.2662,1071.840406329502
847.3175,977.1397420118265
849.368,882.1872145828565
851.4179,800.8823668665755
853.467,684.9247328650836
855.5155,610.6138385716695
857.5633,539.6492031303715
859.6105,435.3303395790954
861.6569,408.8567555592581
863.7027,330.6279543589808
865.7478,330.44343517782
867.7922,320.0526939090578
869.8359,353.5552231415568
871.8789,425.9505122636492
873.9212,523.6880471281293
875.9629,656.7173093282818
878.0039,822.9377752205091
880.0441,945.3989145940595
882.0837,980.3001890088053
884.1226,978.4410505706437
886.1609,973.4209415824753
888.1984,976.9892945628053
890.2352,1064.7955322959315
892.2714,1113.439067796271
894.3069,1070.9193034302934
896.3416,910.035630430084
898.3757,867.5874293185461
900.4091,826.374071518223
902.4418,833.244919775796
904.4739,866.8493285742097
906.5052,926.5366440639664
908.5358,880.0562037270811
910.5658,712.6073357802215
912.595,515.439359639493
914.6236,353.20158759492733
916.6515,273.8933267821758
918.6786,202.5638808048716
920.7051,312.91255052771885
922.7309,391.58863478978856
924.756,411.2414293010388
926.7804,510.02022585554187
928.8041,481.62431213496166
930.8272,569.2529707207705
932.8495,522.855479378195
934.8711,492.731110179946
936.892,439.02912997017484
938.9123,346.2988006657397
940.9318,356.78937979319744
942.9506,312.05012141613224
944.9688,222.63027603023147
946.9862,151.6790910106938
949.003,57.745811506425525
951.019,-0.5203188504583522
953.0344,-7.370057005302442
955.0491,47.54584529454223
957.063,150.92670992858075
959.0763,200.6218583008722
961.0888,268.0306103062085
963.1007,347.8522838331701
965.1119,389.0861940900486
967.1223,413.88165280660905
969.1321,399.5879678217643
971.1412,431.6544428356174
973.1495,412.88037755238656
975.1572,448.41506735976327
977.1641,499.45780351663416
979.1704,497.6078727977456
981.1759,508.3645569832697
983.1808,517.2271328772968
985.1849,549.644872200277
987.1884,693.9170415003846
989.1911,832.9929018293515
991.1932,928.321707299754
993.1945,960.0027036942429
995.1951,942.5351275122648
997.1951,927.1682056532445
999.1943,892.0011555912624
1001.1928,879.8831855287208
1003.1906,899.5134947480165
1005.1877,993.6912737327293
1007.1841,1048.165703971301
1009.1798,1006.3359570152734
1011.1748,914.0011939345386
1013.1691,743.1605657356376
1015.1627,570.8632142851002
1017.1556,357.35827401785355
1019.1477,265.0948736601913
1021.1392,156.62213836482078
1023.1299,139.5391906335044
1025.12,184.39515140178264
1027.1093,274.6891402098154
1029.0979,375.27027475381146
1031.0859,445.08766998309875
1033.0731,480.1404370943019
1035.0596,437.0276828331662
1037.0454,332.0985091440416
1039.0304,209.30201360101273
1041.0148,83.88729045718901
1042.9985,39.453431872660076
1044.9814,-12.800470831358325
1046.9636,-48.625326728173604
1048.9452,-62.82191701439842
1050.926,-45.59053711964589
1052.9061,-11.380854882585481
1054.8855,-17.842082692413896
1056.8642,59.876680756400674
1058.8421,152.976515011811
1060.8194,195.4084990229876
1062.7959,239.7737102093506
1064.7717,323.72322403623366
1066.7469,357.00811357124803
1068.7213,391.4294486447816
1070.695,421.388295517143
1072.6679,421.63571653434155
1074.6402,440.8727698285238
1076.6117,426.80050931547885
1078.5826,371.31998450227184
1080.5527,281.3822406279778
1082.5221,285.98831921846795
1084.4908,357.48925898580455
1086.4587,451.73609578216383
1088.426,543.4298618848534
1090.3925,592.3715850538138
1092.3584,601.2622876146961
1094.3235,562.2029859694303
1096.2879,588.8946905073353
1098.2515,646.4384059957047
1100.2145,796.1351313128871
1102.1767,985.1358588728563
1104.1382,1196.791573128241
1106.099,1417.9032486803153
1108.0591,1646.2218481624514
1110.0185,1783.648320028984
1111.9771,1842.533596272042
1113.9351,1696.6285910472707
1115.8923,1540.9842000849858
1117.8488,1325.0513021492206
1119.8045,1101.3307605941718
1121.7596,1007.473425523518
1123.7139,904.2301360276397
1125.6675,889.2017211221901
1127.6204,944.2890007805327
1129.5726,921.8427860840166
1131.524,880.5138786710995
1133.4748,816.8530709618299
1135.4248,684.6611465711194
1137.3741,609.8388809453518
1139.3226,524.7870426843092
1141.2705,503.0563942893823
1143.2176,392.69769301410815
1145.164,386.0116910814595
1147.1097,361.9491367874434
1149.0546,289.86077456795465
1150.9989,233.8973452393966
1152.9424,125.35958671957815
1154.8852,36.04823458733517
1156.8272,-48.18597683208645
1158.7686,-18.592313573913998
1160.7092,-34.469560295474366
1162.6491,-2.0163159168896527
1164.5883,123.21916499262079
1166.5267,207.83864800682022
1168.4644,414.84389746729175
1170.4014,586.1366756372317
1172.3377,883.31874063141
1174.2732,1157.0918447032236
1176.2081,1540.857731272894
1178.1421,1884.318132189721
1180.0755,2339.7247638944373
1182.0082,2587.8293239845952
1183.9401,2708.783486660508
1185.8713,2570.488900244194
1187.8017,2332.847185969853
1189.7315,2005.0599393667999
1191.6605,1646.4287326358917
1193.5888,1399.805117927388
1195.5163,1267.790630927273
1197.4432,1206.386793323487
1199.3693,1182.7951141260728
1201.2947,1161.267090281206
1203.2193,1143.9542069071194
1205.1432,1163.4079375093825
1207.0664,1169.8797441540228
1208.9889,1179.121077273001
1210.9106,1180.783375599478
1212.8316,1186.5680660754151
1214.7519,1244.476563834949
1216.6715,1280.2102721465344
1218.5903,1345.4705818338698
1220.5084,1406.8088709185558
1222.4257,1482.276503967496
1224.3424,1496.0748314795
1226.2583,1579.4551891306382
1228.1735,1693.3688976362246
1230.0879,1843.2172619170324
1232.0016,1982.0015699601572
1233.9146,2109.6230913205236
1235.8269,2053.3330757330423
1237.7384,1991.4827518364018
1239.6492,1836.5733277359668
1241.5592,1789.9559916222752
1243.4686,1819.581913320144
1245.3772,1891.7522447548236
1247.285,2029.1181196557554
1249.1922,2097.680652834848
1251.0986,2199.4909388128435
1253.0042,2271.3000511336904
1254.9092,2324.90904134642
1256.8134,2440.6189382870743
1258.7169,2588.8307475426063
1260.6196,2748.545450293779
1262.5216,3009.864001833068
1264.4229,3199.8873299674833
1266.3234,3412.7163324054072
1268.2232,3539.701874856348
1270.1223,3600.1447889026476
1272.0207,3627.2458707296355
1273.9183,3596.505880521203
1275.8151,3561.6755421887865
1277.7113,3551.305543678771
1279.6067,3521.2965373207808
1281.5014,3664.849139931386
1283.3953,3888.213933114188
1285.2885,4196.041461824307
1287.181,4534.532232134718
1289.0727,4872.686708157991
1290.9637,5064.855308661372
1292.854,5242.088403685246
1294.7435,5320.336312621444
1296.6323,5336.499302440934
1298.5204,5332.77758691131
1300.4077,5333.571326435187
1302.2943,5263.330628087402
1304.1802,5135.705545607088
1306.0653,4843.7460801000725
1307.9497,4482.802181315128
1309.8333,4194.523750563574
1311.7162,4002.9106443287055
1313.5984,3894.962677148593
1315.4798,3826.22962353219
1317.3605,3822.5112190388463
1319.2405,3799.7571609656115
1321.1197,3640.9671083844223
1322.9982,3463.9406823696554
1324.876,3275.8274675860175
1326.753,3065.527014058818
1328.6293,2984.988839055104
1330.5048,2890.2124291866494
1332.3796,2775.3472412153387
1334.2537,2733.5927030009425
1336.127,2716.848214649759
1337.9996,2694.9131489321717
1339.8714,2709.18685145008
1341.7426,2695.9186408562673
1343.6129,2744.6078087116475
1345.4826,2766.2036196179506
1347.3515,2775.605310730829
1349.2196,2767.1620915439016
1351.087,2804.073143794749
1352.9537,2867.4876215493114
1354.8197,3009.5046508328196
1356.6849,3180.7733289956195
1358.5493,3346.1427232930128
1360.4131,3497.5618691725795
1362.276,3561.9297686204663
1364.1383,3501.545388647217
1365.9998,3323.4576606440805
1367.8606,2992.115480986853
1369.7206,2676.5677128167536
1371.5799,2389.863189353857
1373.4384,2175.500717052566
1375.2962,1992.0790784686633
1377.1533,1686.2970344029254
1379.0096,1374.7533257353462
1380.8652,1077.696676482954
1382.7201,798.8757969152448
1384.5742,555.1893865247494
1386.4275,410.43613681524766
1388.2802,296.91473373862937
1390.132,198.52385914242586
1391.9832,179.96219190502597
1393.8336,85.37840891958876
1395.6832,59.72118527965176
1397.5322,29.73919522498909
1399.3803,42.131112398152254
1401.2278,2.0956101443225634
1403.0745,27.731361387362995
1404.9204,38.28703903018868
1406.7656,61.71131569840327
1408.6101,102.2028636347386
1410.4538,156.66035446481874
1412.2968,198.3324587922507
1414.139,288.66784565403213
1415.9805,387.26518210384165
1417.8213,467.32313230867476
1419.6613,580.5903565628887
1421.5006,795.9655104875983
1423.3391,1025.9972438980294
1425.1769,1333.4841986497468
1427.0139,1813.375006338354
1428.8502,2361.7682852246126
1430.6858,2925.0626354355372
1432.5206,3347.5566334804716
1434.3547,3588.3488266181357
1436.188,3639.4877286316896
1438.0206,3532.5218174208094
1439.8524,3399.7995344902974
1441.6835,3322.219286019732
1443.5139,3234.0294441907063
1445.3435,3193.828347962626
1447.1724,3182.664303954607
1449.0005,3138.285586847491
1450.8279,3083.940439495471
1452.6545,3092.2270733698933
1454.4804,3127.29366910269
1456.3056,3144.438376403532
1458.13,3100.659313709153
1459.9536,2950.204568011917
1461.7766,2657.222195297596
1463.5987,2310.16022204992
1465.4202,1985.616648180403
1467.2409,1675.5394504989563
1469.0608,1433.576585959334
1470.88,1165.8759947598992
1472.6984,977.5356027632633
1474.5161,802.2033241732706
1476.3331,647.8270634184191
1478.1493,540.7547169051732
1479.9648,499.0341745617352
1481.7795,419.16332090875676
1483.5935,395.24003547655775
1485.4067,308.4621936038311
1487.2192,297.3776666768772
1489.031,302.08432299737706
1490.842,283.2800278932409
1492.6522,257.6126436715431
1494.4618,241.3300298065551
1496.2705,237.0800431964244
1498.0785,213.86053832599828
1499.8858,202.61936730933212
1501.6924,184.55438012187642
1503.4981,194.11342471289754
1505.3032,145.2443471861261
1507.1075,133.24499170415856
1508.911,123.96320097715488
1510.7138,108.24681638283164
1512.5159,73.99367805927886
1514.3172,38.10162506211509
1516.1178,8.418495707028342
1517.9176,19.742127928691843
1519.7166,-9.429640422402372
1521.515,0.8510283068217177
1523.3126,0.03206597153985058
1525.1094,-25.4385955815751
1526.9055,0.886975493834143
1528.7008,-10.193034824308597
1530.4954,-73.03044056695035
1532.2893,-24.076953936621976
1534.0824,-71.33355756175024
1535.8747,-29.650993542000833
1537.6663,-10.97929135479535
1539.4572,-43.16818426413283
1541.2473,-2.417295850892515
1543.0367,27.17418155420455
1544.8253,17.907079769219308
1546.6132,86.18223034047332
1548.4003,115.10046463522758
1550.1867,178.5126131589277
1551.9723,246.51950526602195
1553.7572,321.57196852583365
1555.5414,437.7708280424995
1557.3247,563.3169057044324
1559.1074,706.361019022339
1560.8893,878.7539798737616
1562.6705,997.9965930726357
1564.4509,1117.8896546453643
1566.2305,1209.6839506383876
1568.0094,1285.2802559192542
1569.7876,1295.6293332586765
1571.565,1292.1319325745735
1573.3417,1307.9387908285762
1575.1176,1300.050632061002
1576.8928,1291.9681672327897
1578.6672,1279.1420943043686
1580.4409,1286.4730983164927
1582.2138,1266.011851518495
1583.986,1277.859013294982
1585.7575,1306.01523037045
1587.5282,1353.0811366908065
1589.2981,1429.2573531418075
1591.0673,1476.1444870784035
1592.8358,1573.7431315629574
1594.6035,1661.0538648963939
1596.3704,1749.3772496421989
1598.1366,1814.713831753329
1599.9021,1930.2141396889665
1601.6668,2052.2286837611573
1603.4308,2172.3579549798123
1605.194,2333.2024238325494
1606.9564,2540.2125390834144
1608.7182,2776.288726164428
1610.4791,3028.381385105492
1612.2394,3276.8408881736177
1613.9988,3561.967577352014
1615.7576,3838.1117618554727
1617.5156,4050.6237152791236
1619.2728,4197.853672836976
1621.0293,4202.301829236808
1622.785,4090.6683372078596
1624.54,3868.653307456362
1626.2942,3642.6068097818625
1628.0477,3313.578875297384
1629.8005,3052.7694986898805
1631.5525,2807.828641510525
1633.3037,2589.256234782798
1635.0542,2403.502181451893
1636.804,2311.166358570448
1638.553,2213.6486191560816
1640.3013,2188.7487931147552
1642.0488,2204.266688215939
1643.7955,2240.3020903416245
1645.5416,2318.8047633311353
1647.2868,2450.924448620777
1649.0313,2577.6608644588086
1650.7751,2756.5637045842504
1652.5181,2927.8826369595145
1654.2604,3112.717301981381
1656.0019,3376.9673107678173
1657.7427,3641.88224330961
1659.4828,3937.6616458278804
1661.222,4103.155028124928
1662.9606,4083.411860626443
1664.6984,3857.281572726565
1666.4354,3451.263552985318
1668.1717,2938.3071513899067
1669.9072,2398.3116834149087
1671.642,1964.1264351518275
1673.3761,1590.400668709055
1675.1094,1314.883626553722
1676.8419,1077.8745352489586
1678.5737,903.2226082090601
1680.3048,745.6770480695832
1682.0351,640.8870484338604
1683.7646,566.7017954484545
1685.4934,478.77046885106483
1687.2215,430.6422427123716
1688.9488,394.2662863153546
1690.6754,322.6917646365682
1692.4012,337.21783870991203
1694.1263,295.1936663423676
1695.8506,264.36840196874164
1697.5742,259.39119707190457
1699.297,221.11120049104647
1701.0191,168.97755847144617
1702.7404,152.08941504726954
1704.461,143.99591256291296
1706.1808,113.49619184187395
1707.8999,129.03939226769398
1709.6182,102.22465208895483
1711.3358,90.95110826384825
1713.0527,85.61789672832128
1714.7688,78.07415250881331
1716.4841,59.869009775587074
1718.1987,57.401601918168126
1719.9126,56.221061727392225
1721.6257,32.0265214200881
1723.338,69.36711265086706
1725.0496,35.39196675408584
1726.7605,42.90021437043015
1728.4706,39.64098578666653
1730.18,23.063410860566364
1731.8886,28.866619053492286
1733.5964,32.94973959617346
1735.3036,33.96190143067906
1737.0099,40.252233169579085
1738.7156,39.769863085833094
1740.4204,0.2639190498757671
1742.1246,11.333528534446486
1743.8279,2.677819009646555
1745.5306,-12.604082167757952
1747.2325,7.736952332224973
1748.9336,-14.699824245637501
1750.634,-35.56515873394255
1752.3336,-19.059651114044755
1754.0325,-18.183546071363708
1755.7307,-17.836897885410508
1757.4281,7.380420817933555
1759.1247,6.818715603389137
1760.8206,-4.621708038118413
1762.5158,3.9594553161487056
1764.2102,-1.0874427402095534
1765.9039,-4.2620506531911815
1767.5968,26.38599399476061
1769.289,26.35709619908539
1770.9804,5.601660691369034
1772.6711,15.320091939625854
1774.361,8.712794355858932
1776.0502,14.680172198871333
1777.7386,23.47262964034053
1779.4263,37.34057070514609
1781.1132,41.8843991834392
1782.7994,31.85451849197034
1784.4849,44.60133162864531
1786.1696,34.47524127282941
1787.8535,24.27664965787153
1789.5367,54.5059586723728
1791.2192,35.46356996216491
1792.9009,26.24988462802594
1794.5818,50.21530341610014
1796.2621,62.11022681003578
1797.9415,69.38505479133073
1799.6202,64.69018672038146
1801.2982,61.22602126374022
1802.9755,63.642956441052775
1804.6519,83.59138965971215
1806.3277,67.77171769067718
1808.0027,71.13433646899921
1809.6769,83.52964125201197
1811.3504,65.70802658570574
1813.0231,66.71988618078103
1814.6951,88.26561309085628
1816.3664,108.29559970235641
1818.0369,102.9602375190525
1819.7067,103.50991696176061
1821.3757,121.9450274216897
1823.044,113.16595725495608
1824.7115,125.82309359822284
1826.3783,116.46682245650027
1828.0443,106.49752857656904
1829.7096,107.86559554054566
1831.3741,107.72140586557043
1833.0379,114.96534099013388
1834.701,125.99778127551372
1836.3633,117.0691059333385
1838.0248,132.9296929152606
1839.6856,136.72991900224542
1841.3457,142.17015964596567
1843.005,141.05078893079462
1844.6636,154.87217951940647
1846.3214,159.7847026639679
1847.9785,170.0887280679235
1849.6349,150.8346238368722
1851.2904,162.27275637552793
1852.9453,165.75349058025859
1854.5994,171.32718972470911
1856.2528,182.24421542499067
1857.9054,200.40492758394566
1859.5572,189.55968428197184
1861.2083,198.90884159542247
1862.8587,219.30275370505478
1864.5084,202.6417728025408
1866.1572,225.07624888652708
1867.8054,190.50652992924324
1869.4528,194.58296165215825
1871.0994,198.95588787167935
1872.7453,217.175650458385
1874.3905,209.69258929329953
1876.0349,199.25704208569005
1877.6786,215.31934444790068
1879.3215,224.32982999970636
1880.9637,219.1388302076889
1882.6051,237.29667429513347
1884.2458,221.003689293937
1885.8858,221.51019986303072
1887.525,217.51652845131275
1889.1634,221.72299529258044
1890.8011,209.77991844546705
1892.4381,224.2376137513802
1894.0743,218.94639495392948
1895.7098,214.1065735543516
1897.3446,223.56845886442125
1898.9786,232.03235805484928
1900.6118,232.2485760606637
1902.2443,214.61741549656972
1903.8761,217.03917665479003
1905.5071,215.96415768137422
1907.1374,215.44265455198183
1908.7669,226.12496108263213
1910.3957,235.21136893491848
1912.0237,214.0521675091868
1913.651,204.5976438536709
1915.2776,217.44808287608248
1916.9034,219.90376743815705
1918.5285,203.71497822715355
1920.1528,200.6819937312962
1921.7764,208.05509040165907
1923.3992,199.78454268249925
1925.0213,191.57062293752142
1926.6427,178.2136015325891
1928.2633,145.11374691786068
1929.8832,212.8713257613622
1931.5023,187.73660327998368
1933.1207,196.25984256190213
1934.7383,180.89130481793245
1936.3552,194.83124929629093
1937.9714,198.7299334362824
1939.5868,179.9376127289006
1941.2015,165.15454067784322
1942.8154,167.43096898743443
1944.4286,167.76714771045545
1946.041,162.4133252253814
1947.6528,161.6697482330187
1949.2637,164.73666181003955
1950.8739,157.36430941642175
1952.4834,172.7029328647791
1954.0921,158.8027723940827
1955.7001,157.86406651627794
1957.3074,154.68705215528007
1958.9139,169.42196465636925
1960.5197,168.71903781795436
1962.1247,156.37850374422624
1963.729,161.7505928521864
1965.3325,137.88553399505463
1966.9353,133.9335544085443
1968.5374,125.84487994951678
1970.1387,147.66973513549965
1971.7393,141.05834322557212
1973.3392,140.3609260021194
1974.9383,123.17770383694506
1976.5366,119.70889569824476
1978.1342,136.05471932244018
1979.7311,112.86539124886713
1981.3273,110.19112665631565
1982.9227,120.53213959492086
1984.5173,132.93864301290978
1986.1112,120.46084865318835
1987.7044,119.8489669292776
1989.2968,120.20320705009135
1990.8885,111.073777026058
1992.4795,127.91088366557096
1994.0697,120.31473266629064
1995.6592,115.7355284467676
1997.2479,120.123474222406
1998.8359,115.07877205125669
2000.4232,115.85162279013548
2002.0097,105.9422261450718
2003.5955,98.95078066357928
2005.1805,106.47748383375165
2006.7648,104.17253215417804
2008.3484,113.58612105867405
2009.9312,123.01844493933277
2011.5133,117.91969705238898
2013.0946,115.24006942389133
2014.6752,118.92975290069216
2016.2551,120.33893717724504
2017.8342,110.5178107587094
2019.4126,113.06656094685331
2020.9902,99.38537393826982
2022.5672,115.67443479888698
2024.1433,102.68392760078132
2025.7188,99.26403525928481
2027.2935,96.66493966289318
2028.8674,96.23682170746042
2030.4406,93.57986132219548
2032.0131,101.84423747394067
2033.5849,88.0801281937388
2035.1559,98.93771049419092
2036.7261,107.66716050709965
2038.2957,92.36865337489053
2039.8645,106.89236316332244
2041.4325,117.2884630144681
2042.9998,114.45712500148011
2044.5664,110.14852002462703
2046.1323,108.11281783960521
2047.6974,88.90018710062941
2049.2617,100.56079538078393
2050.8254,104.5948093641532
2052.3883,113.20239472921321
2053.9504,104.88371610849208
2055.5118,118.73893700249482
2057.0725,114.66821986288915
2058.6325,116.77172595395632
2060.1917,110.24961539329661
2061.7502,100.3520471307952
2063.3079,111.17917901384362
2064.8649,99.8811678863126
2066.4212,108.7581694802816
2067.9767,100.66033852902001
2069.5315,108.93782867821483
2071.0856,100.24079256695177
2072.6389,76.86938174493889
2074.1915,79.07374675947995
2075.7433,85.10403738918421
2077.2945,88.86040262192682
2078.8448,86.54299059454479
2080.3945,88.75194855527207
2081.9434,96.33742288691292
2083.4916,87.59955908475376
2085.039,88.63850168070803
2086.5857,97.95439433069487
2088.1317,90.64737980425025
2089.677,73.31759989136845
2091.2215,87.115195475571
2092.7652,90.24030670720504
2094.3083,91.89307286546727
2095.8506,84.72363232715134
2097.3921,103.13212255012195
2098.933,100.71868014500706
2100.4731,79.3834406911169
2102.0124,100.6265387605772
2103.5511,98.44810813167942
2105.089,88.7982815764517
2106.6261,98.27719088244112
2108.1626,85.4849669492146
2109.6983,88.12173969356854
2111.2332,111.38763817745075
2112.7675,100.38279058159378
2114.301,96.70732397285565
2115.8337,103.4113644142667
2117.3657,87.89503700178375
2118.897,105.35846579725239
2120.4276,102.25177398356846
2121.9575,75.52508369004318
2123.4866,100.42851602347218
2125.0149,95.21219133540126
2126.5426,80.92622897309138
2128.0695,85.62074733168447
2129.5956,86.59586399705995
2131.1211,85.95169569889549
2132.6458,92.6383583009092
2134.1698,92.30596680730241
2135.693,103.10463529589333
2137.2155,92.63447692144291
2138.7373,101.09560380766652
2140.2584,98.33812715193562
2141.7787,88.96215714066875
2143.2983,99.46780297690475
2144.8171,86.0051729740585
2146.3353,86.37437445086925
2147.8527,75.57551386602336
2149.3693,98.0586968144662
2150.8853,92.57402813538692
2152.4005,88.67161168738949
2153.9149,89.95155040333748
2155.4287,87.16394632937818
2156.9417,93.40890061214623
2158.454,98.43651352663528
2159.9655,90.89688441375347
2161.4764,87.1901116300437
2162.9865,87.96629262307988
2164.4958,68.3755239685388
2166.0045,92.71790136243317
2167.5124,76.19351981702266
2169.0195,83.8024734173905
2170.526,91.04485548668254
2172.0317,87.42075851002346
2173.5367,89.73027406208894
2175.0409,98.92349284334887
2176.5445,101.1505046569705
2178.0473,94.21139831688697
2179.5494,94.15626162552871
2181.0507,101.18518144321251
2182.5513,89.54824368869276
2184.0512,97.94553326887535
2185.5504,91.42713419518441
2187.0488,99.4431294995893
2188.5465,82.14360129978832
2190.0435,81.17863071904821
2191.5397,87.24829805920172
2193.0353,86.45268281029576
2194.5301,83.09186358989632
2196.0241,78.5159181510437
2197.5175,83.57492341585953
2199.0101,82.66895552130836
2200.502,85.44808976860622
2201.9931,76.36240063227888
2203.4835,75.81196173237413
2204.9733,73.94684592531576
2206.4622,84.16712530940913
2207.9505,72.5728712434925
2209.438,70.86415424473239
2210.9248,63.54104410456739
2212.4109,58.70360990579593
2213.8962,69.55192009580787
2215.3809,62.136042534957596
2216.8648,60.05604438808109
2218.3479,62.061992198654934
2219.8304,64.75395190959625
2221.3121,64.38198884320354
2222.7931,59.14616767423627
2224.2733,51.94655243363627
2225.7529,45.933206560884855
2227.2317,60.206192975997965
2228.7098,60.76557413966066
2230.1872,54.91141191049496
2231.6638,62.64376753946749
2233.1397,51.91270172843133
2234.6149,58.368274552801495
2236.0894,56.210545568868156
2237.5632,59.28957374923925
2239.0362,59.55541750441853
2240.5085,51.65813465201495
2241.9801,35.84778241408367
2243.4509,53.42441749609952
2244.921,43.938096245060706
2246.3904,54.78887447372267
2247.8591,39.426807555459845
2249.3271,45.851950315759495
2250.7943,45.914357185843755
2252.2608,34.71408213841528
2253.7266,36.6011786870331
2255.1917,34.67569999811599
2256.656,31.187698872071905
2258.1197,35.987227762552266
2259.5826,39.67433881133206
2261.0447,42.1990838003162
2262.5062,37.31151411466726
2263.9669,38.56168071755883
2265.4269,39.29963419904993
2266.8862,32.27542476358303
2268.3448,41.73910222260588
2269.8026,31.640716064811613
2271.2598,38.5803153615052
2272.7162,34.30794886758463
2274.1719,40.973664952145555
2275.6268,36.27751164120468
2277.0811,55.21953655104244
2278.5346,42.399786935165594
2279.9874,53.218309494885034
2281.4395,46.22515050751349
2282.8908,48.92035571818042
2284.3414,47.15397040976541
2285.7914,48.02603937594563
2287.2406,43.836606938860314
2288.689,49.6357169403891
2290.1368,53.12341278404824
2291.5838,48.949737376996836
2293.0302,62.51473309516018
2294.4758,48.81844182496752
2295.9206,50.260904827700415
2297.3648,43.84216287645745
2298.8082,52.6122562417288
2300.251,55.27122475558531
2301.693,50.769107723975594
2303.1343,52.90594390013712
2304.5748,51.98177152961648
2306.0147,55.39662832890258
2307.4538,40.40055149466798
2308.8922,43.74357766962021
2310.3299,46.025743092462335
2311.7669,51.94708356446313
2313.2031,42.95763442663565
2314.6387,44.35743050052156
2316.0735,43.996506178088566
2317.5076,58.97489540773154
2318.941,42.24263169788151
2320.3737,52.69974796721999
2321.8056,50.19627671200442
2323.2369,38.58224990149506
2324.6674,52.55769900298969
2326.0972,39.17265509796539
2327.5263,43.22714874232133
2328.9547,40.2712101002312
2330.3823,41.35486890359698
2331.8092,53.278154481608226
2333.2355,50.391095749908345
2334.661,45.8937210913582
2336.0858,41.13605838490889
2337.5098,47.5681350505763
2338.9332,47.33997809701691
2340.3558,51.40161405720596
2341.7778,55.95306899072102
2343.199,60.144368443123085
2344.6195,49.32553740044273
2346.0393,57.19660024726704
2347.4583,58.75758087492932
2348.8767,47.95850260279599
2350.2943,59.2993881626594
2351.7113,53.18025980672701
2353.1275,58.45113919421374
2354.543,65.21204745253158
2355.9578,72.31300512458347
2357.3718,50.00403210115019
2358.7852,70.53514754988464
2360.1978,63.106370138398006
2361.6098,60.817717828950435
2363.021,58.21920795273945
2364.4315,65.36085723278461
2365.8413,60.092681809914666
2367.2504,63.36469717134969
2368.6587,53.026918203383275
2370.0664,62.27935915866283
2371.4733,60.07203375956669
2372.8795,59.05495510568062
2374.285,54.77813569587124
2375.6899,51.091587438457054
2377.0939,51.945321693974165
2378.4973,45.53934931204526
2379.9,52.17368062284049
2381.3019,49.2983255011377
2382.7032,49.56329329997948
2384.1037,49.96859287942584
2385.5035,48.06423260390443
2386.9027,47.25022033816026
2388.3011,44.676563466297694
2389.6987,54.99326889992062
2391.0957,56.150343103867954
2392.492,44.5977919930458
2393.8876,39.485620920858764
2395.2824,41.26383479473043
2396.6765,45.78243812723008
2398.07,40.54143501828867
2399.4627,43.39082911001151
2400.8547,48.68062363909053
2402.246,46.01082140830863
2403.6366,35.53142473364505
2405.0265,43.59243547097162
2406.4156,38.14385512084664
2407.8041,48.335684747905134
2409.1918,42.017925035344206
2410.5789,42.54057618300408
2411.9652,32.05363797054565
2413.3508,39.20710975222369
2414.7358,35.90099056175677
2416.12,40.48527904079356
2417.5035,41.30997347197331
2418.8863,40.17507173308081
2420.2684,41.98057128880146
2421.6497,33.07646920206753
2423.0304,32.862762116007616
2424.4104,31.489446342985502
2425.7896,40.55651786673866
2427.1682,50.7639723561108
2428.546,38.761805074379026
2429.9232,46.350010777183115
2431.2996,55.22858383254447
2432.6753,36.44751814498477
2434.0503,45.40680706674016
2435.4246,39.45644358557183
2436.7982,39.24642023517367
2438.1711,42.576729154675604
2439.5433,43.747362090745355
2440.9148,36.308310364283216
2442.2856,32.75956485871666
2443.6557,43.201116094390954
2445.025,38.43295426405689
2446.3937,43.005069128454124
2447.7617,39.96745006399465
2449.1289,56.07008601703956
2450.4955,40.66296553427742
2451.8613,43.74607660169454
2453.2265,48.919406798649334
2454.5909,43.63294326703999
2455.9546,45.18667265957038
2457.3177,35.08058119261682
2458.68,37.86465463068794
2460.0416,39.73887838748942
2461.4025,39.60323749807935
2462.7627,40.65771660012865
2464.1222,43.30229993527655
2465.4811,53.73697133858627
2466.8392,54.91171421209788
2468.1966,53.72651142048289
2469.5533,51.9813452792946
2470.9093,53.576197566821975
2472.2645,62.41104954154116
2473.6191,51.93588192616812
2474.973,51.700674819307096
2476.3262,68.80540780020578
2477.6787,71.75005993110449
2479.0305,54.684609586189936
2480.3816,50.909034422149034
2481.7319,56.623311548822585
2483.0816,53.177417566962276
2484.4306,51.17132851108636
2485.7789,52.955019883939485
2487.1264,48.17846667655385
2488.4733,56.991643350411096
2489.8195,47.794523885209856
2491.165,51.587081690732475
2492.5097,50.11928969881615
2493.8538,41.59112032542771
2495.1972,48.65254548534108
2496.5398,47.053536677419515
2497.8818,45.04406491400164
2499.2231,47.42410073689007
2500.5637,48.1436142374489
2501.9035,52.752575032799996
2503.2427,54.20095225863031
2504.5812,53.038714523101135
2505.919,60.465829892363786
2507.256,61.68226590218444
2508.5924,50.437989483670094
2509.9281,44.83296695110619
2511.2631,61.06716411439993
2512.5974,51.84054633512778
2513.9309,53.453078364196244
2515.2638,51.804724434106106
2516.596,57.24544824282793
2517.9275,56.22521297028618
2519.2583,50.99398122395189
2520.5884,48.45171504904397
2521.9178,58.44837598084291
2523.2465,57.98392507011181
2524.5745,57.35832278313114
2525.9018,58.07152900634276
2527.2284,58.77350305260552
2528.5543,59.51420365406307
2529.8796,66.94358895512403
2531.2041,56.511616505055144
2532.5279,64.61824318368724
2533.851,59.96342530573554
2535.1735,61.497118539733265
2536.4952,67.31927795457966
2537.8163,60.42985800420365
2539.1366,65.87881246934171
2540.4562,61.066094526432266
2541.7752,63.041656693125674
2543.0935,72.0554508764119
2544.411,70.45742835286467
2545.7279,77.04753967850343
2547.0441,72.7257347047738
2548.3596,75.14196251264673
2549.6744,76.39617145583532
2550.9885,77.28830913663444
2552.3019,82.66832239337691
2553.6146,75.5861572915129
2554.9266,66.09175906980965
2556.2379,69.83507221117316
2557.5485,83.36604053759186
2558.8585,79.784607172704
2560.1677,73.64071440648752
2561.4762,81.73430373107499
2562.7841,86.86531590219181
2564.0913,79.33369085822142
2565.3977,86.73936766889403
2566.7035,88.43228461060392
2568.0086,81.51237909235203
2569.313,86.07958763881629
2570.6167,82.93384595955195
2571.9197,81.92508890331851
2573.222,88.80325048953796
2574.5236,86.71826391838226
2575.8246,83.77006150199077
2577.1248,85.45857468532085
2578.4244,99.23373407562951
2579.7232,92.54546942558909
2581.0214,93.34370949553488
2582.3189,97.97838212034833
2583.6157,101.09941420147447
2584.9118,108.60673166057495
2586.2072,101.8002594083174
2587.5019,101.12992126930214
2588.7959,108.59564005012737
2590.0893,117.29733754609288
2591.3819,107.334934466542
2592.6739,106.00835034784564
2593.9652,111.96750365302546
2595.2557,117.51231178502042
2596.5456,118.69269102709507
2597.8348,115.95855648739166
2599.1234,123.40982208712478
2600.4112,132.34640058792468
2601.6983,114.71820351732367
2602.9848,120.3251410793905
2604.2705,118.21712233101232
2605.5556,123.24405512582507
2606.84,126.80584613529311
2608.1237,119.302400798441
2609.4067,126.5336232862353
2610.689,123.19941657661843
2611.9707,118.89968238219728
2613.2516,116.48432118358403
2614.5319,115.60323227239462
2615.8115,113.00631377540162
2617.0903,115.34346266334614
2618.3685,115.91457477690619
2619.6461,125.31954480332547
2620.9229,105.80826627070235
2622.199,121.58063145394021
2623.4745,123.23653156985995
2624.7493,118.37585661947685
2626.0234,124.09849537144135
2627.2968,115.25433541064592
2628.5695,116.84326308099878
2629.8415,113.815163573865
2631.1128,121.81992091217774
2632.3835,116.90741798071804
2633.6535,112.67753644606853
2634.9228,113.83015680573783
2636.1914,115.5651584304594
2637.4593,118.88241955266619
2638.7265,119.28181724913884
2639.9931,120.36322740783419
2641.259,115.6765247238909
2642.5242,129.12158268881592
2643.7887,118.79827363735103
2645.0525,117.75646861302334
2646.3156,109.74603747137735
2647.5781,111.01684889039336
2648.8398,112.16877045059164
2650.1009,107.45166862232452
2651.3613,114.36540875425658
2652.6211,107.10985512053674
2653.8801,109.83487085165996
2655.1385,108.79031800702307
2656.3961,106.3260575476744
2657.6531,121.69194934676
2658.9094,115.43785221416454
2660.1651,119.46362374285377
2661.42,110.2691203714154
2662.6743,118.15419734380123
2663.9279,126.41870880127226
2665.1808,134.01250770354784
2666.433,125.0354457461608
2667.6846,134.03737328451905
2668.9354,129.01813942367687
2670.1856,133.97759192831506
2671.4351,132.8655772729329
2672.6839,146.43194059225448
2673.9321,149.42652569234792
2675.1795,142.29917491496212
2676.4263,149.64972910758138
2677.6724,150.52802769469793
2678.9179,148.63390860430775
2680.1626,161.41720825912648
2681.4067,151.37776159553107
2682.6501,146.3654019357266
2683.8928,153.32996108814064
2685.1348,143.22126939754787
2686.3761,146.08915567542272
2687.6168,138.88344730102767
2688.8568,136.80397019273346
2690.0961,130.85054888007653
2691.3348,128.62300652455406
2692.5727,132.87116497915815
2693.81,127.49484481065122
2695.0466,117.84386525708476
2696.2826,123.51804428156152
2697.5178,125.66719866874689
2698.7524,136.79114396812543
2699.9863,129.18969447251038
2701.2195,123.41266310680385
2702.452,135.20986150401097
2703.6839,141.6811000630105
2704.9151,144.62618783058304
2706.1456,144.69493243669854
2707.3755,151.48714006506532
2708.6046,155.50261545244302
2709.8331,162.9411618207199
2711.0609,169.2525808367585
2712.2881,172.03667253800984
2713.5145,190.69323526939945
2714.7403,194.22206565548686
2715.9654,194.12295841389948
2717.1899,206.39570632004416
2718.4136,220.74010020809794
2719.6367,236.70592884828147
2720.8591,243.74297880341487
2722.0809,258.95103426925914
2723.3019,263.62987700414556
2724.5223,276.32928617689515
2725.7421,270.19903832003104
2726.9611,282.388907202784
2728.1795,275.64866389239444
2729.3972,255.82807663221388
2730.6142,247.72691090910746
2731.8306,245.1449296516605
2733.0462,227.88189331118883
2734.2612,218.73755988756
2735.4756,198.2616851018231
2736.6892,178.40402248765167
2737.9022,164.56432359610324
2739.1145,151.7923381941954
2740.3262,134.33781440330267
2741.5372,129.9504988268768
2742.7475,109.98013672499201
2743.9571,112.97647205821772
2745.1661,98.13924768732238
2746.3744,86.1182053433098
2747.582,71.96308577579134
2748.7889,72.22362887319616
2749.9952,65.49957380432329
2751.2008,49.290659015735855
2752.4057,45.59662229900141
2753.61,48.417200952780945
2754.8136,48.202131819769534
2756.0165,47.80115125849056
2757.2188,36.16399514544605
2758.4204,44.34039887912718
2759.6213,39.63009749638536
2760.8215,36.332825590668335
2762.0211,32.94831735912351
2763.22,25.926306635569972
2764.4182,27.21652692434418
2765.6158,18.31871147051936
2766.8127,20.53259324700366
2768.009,11.007905043518804
2769.2045,14.344379444460287
2770.3994,3.7417489241449857
2771.5936,14.349745813446702
2772.7872,0.5181024058210824
2773.9801,-8.053449148772756
2775.1723,-10.565176705556269
2776.3639,-11.11726766579443
2777.5548,-13.409803884637086
2778.745,-11.492756155730945
2779.9346,-15.06596130878222
2781.1235,-17.129141360863287
2782.3117,-16.38186782009302
2783.4992,-14.323541074468153
2784.6861,-9.053397857127038
2785.8723,-3.120531809032286
2787.0579,-10.423946127702266
2788.2428,-9.962612836542462
2789.427,-4.085399823736907
2790.6106,6.008924549032599
2791.7935,7.671632733228307
2792.9757,13.603997120223767
2794.1573,12.407290024676058
2795.3382,36.63278362520305
2796.5184,40.63174997635008
2797.698,46.05546076633482
2798.8769,55.05518727705726
2800.0551,55.13220032986351
2801.2327,75.58777019554702
2802.4096,94.97316659357932
2803.5859,105.58965848755633
2804.7615,124.23851389134302
2805.9364,150.47099976290883
2807.1106,162.8383818178379
2808.2842,184.39192426700356
2809.4572,214.38288969289636
2810.6294,236.31253883408772
2811.801,274.03213028532036
2812.972,305.84292027821175
2814.1423,341.6461623040585
2815.3119,381.14310679572804
2816.4808,429.43500076962755
2817.6491,480.3230874307326
2818.8167,525.4086056896693
2819.9837,575.5927896538332
2821.15,622.8268681765336
2822.3157,674.0620643551524
2823.4807,723.8995950588019
2824.645,772.4406704159753
2825.8086,828.0364933161693
2826.9716,875.0382589244749
2828.134,919.5971541256191
2829.2957,951.1643570539454
2830.4567,989.9410366478265
2831.617,1013.6283523339916
2832.7767,1007.8774536397599
2833.9358,1016.6894799561671
2835.0941,1021.2655605954754
2836.2519,1002.8568147030519
2837.4089,986.614351211609
2838.5653,957.4892690252917
2839.7211,956.4826571821011
2840.8761,957.2955951451465
2842.0306,972.7291528127107
2843.1843,994.8843905101204
2844.3374,1026.0123588354118
2845.4899,1066.6140984377773
2846.6417,1123.5406397062861
2847.7928,1189.8430023638675
2848.9433,1250.0221948980443
2850.0931,1316.0792138979095
2851.2422,1382.865043452334
2852.3907,1442.3806544893969
2853.5385,1499.077004108527
2854.6857,1526.0550349853468
2855.8323,1603.4656748047084
2856.9781,1632.809835990915
2858.1233,1688.2384149336121
2859.2679,1745.6022916943484
2860.4118,1783.0523294522884
2861.555,1816.5393739305744
2862.6976,1861.064253021827
2863.8395,1902.9277764532721
2864.9808,1927.7807353414942
2866.1214,1942.7239017738011
2867.2614,1959.0580285596927
2868.4007,1955.333849081432
2869.5393,1960.1520771306996
2870.6773,1997.5134069458406
2871.8146,2007.7685131636772
2872.9513,1992.7680504459
2874.0874,1997.3126533765128
2875.2227,1975.4529366118404
2876.3574,1975.63949483508
2877.4915,1936.5229029749028
2878.6249,1916.1537162035818
2879.7577,1890.2824703281626
2880.8898,1868.2596819941537
2882.0212,1849.2358489442388
2883.152,1848.5114502385059
2884.2821,1836.6869464446845
2885.4116,1829.8127796453912
2886.5405,1835.9893735563712
2887.6686,1831.5671335952436
2888.7962,1827.1464468197341
2889.923,1847.9776819718963
2891.0493,1859.8611895223212
2892.1748,1869.297301461822
2893.2997,1880.1863311826003
2894.424,1898.6785733838858
2895.5476,1908.7243039630462
2896.6706,1934.4237798306622
2897.7929,1948.377238810072
2898.9145,1970.5348993803777
2900.0355,2005.9469605369077
2901.1559,2040.063601569642
2902.2756,2075.934981709092
2903.3946,2099.7612397851317
2904.513,2132.242493868286
2905.6308,2144.7288410314686
2906.7479,2191.570357025167
2907.8643,2196.367096152583
2908.9801,2210.3690908012136
2910.0953,2222.126351394886
2911.2098,2231.1388662537365
2912.3236,2232.356601476638
2913.4368,2219.7795008510743
2914.5494,2182.657485840965
2915.6613,2164.240455712433
2916.7725,2126.5782879050284
2917.8831,2109.970838215897
2918.9931,2088.017941176401
2920.1024,2051.3694102181958
2921.211,2028.3250378927564
2922.319,2016.5845962378653
2923.4264,2006.4978370080548
2924.5331,1981.9144917920112
2925.6391,1979.584272113443
2926.7445,1979.1568696769145
2927.8493,1976.731956391147
2928.9534,1976.2091843732942
2930.0569,1981.4381859731907
2931.1597,1988.3685737785781
2932.2619,1986.7999405628188
2933.3634,1990.881859215588
2934.4643,1977.4638827585622
2935.5645,1982.1955443046
2936.6641,1944.3763571919196
2937.763,1926.6058149367864
2938.8613,1888.6833916117005
2939.959,1821.108542023105
2941.056,1776.0807020906107
2942.1523,1689.9492895227418
2943.248,1635.8137042672167
2944.3431,1540.523329372261
2945.4375,1445.227531527963
2946.5313,1354.3756620191784
2947.6244,1262.767057678488
2948.7169,1149.1510417947152
2949.8087,1072.426925029015
2950.8999,982.1440065510309
2951.9904,907.3015748061373
2953.0803,837.7489084182694
2954.1696,775.0852769383466
2955.2582,729.6599415397991
2956.3462,695.4721556452052
2957.4335,652.3211653805432
2958.5202,625.6562099170714
2959.6062,597.6765219028359
2960.6916,573.5813277293223
2961.7764,557.1698478112506
2962.8605,537.6912968275279
2963.9439,545.0448838853633
2965.0267,532.1798127150525
2966.1089,511.7452815964439
2967.1905,528.2904834875874
2968.2714,523.9146062290802
2969.3516,529.5168323786152
2970.4312,528.4463392547393
2971.5102,536.8022988808316
2972.5885,548.2338779958085
2973.6662,543.8902379705634
2974.7432,554.4205346936511
2975.8196,544.4739186147253
2976.8954,538.6495346392338
2977.9705,532.4965222278861
2979.045,520.514015454896
2980.1188,518.0011430695126
2981.192,498.80702861584575
2982.2645,488.93079045799357
2983.3364,466.97154197198506
2984.4077,446.1283916445411
2985.4783,418.70044329266705
2986.5483,381.1367962720851
2987.6177,364.4365457515131
2988.6864,335.1987830883013
2989.7545,302.8725959954352
2990.8219,265.25706883391274
2991.8887,246.40128293600617
2992.9548,224.10431698141724
2994.0204,191.8652471858353
2995.0852,161.68314752390665
2996.1495,147.55709005162544
2997.2131,129.18614520815447
2998.276,106.26938195708601
2999.3383,87.95586797015096
3000.4,71.64466985638683
3001.4611,61.8848533452732
3002.5215,44.37548344984293
3003.5812,37.81562456428094
3004.6404,23.504340639017073
3005.6989,20.190695246325845
3006.7567,8.873751723438545
3007.8139,7.402573205679914
3008.8705,-1.773777260362408
3009.9264,-3.0562367021262276
3010.9818,-2.245724427015091
3012.0364,-13.29312921062808
3013.0905,-10.349317393777767
3014.1439,-15.615022518916135
3015.1966,-8.590874738814762
3016.2487,-11.377348212170432
3017.3002,-10.074831274841358
3018.3511,-0.38359860297754267
3019.4013,-9.403824225164385
3020.4509,-2.335678337837521
3021.4998,1.2207628067708356
3022.5481,0.015446289854992301
3023.5958,8.298319180401563
3024.6428,6.219328547242924
3025.6892,5.428421376228471
3026.735,15.875544591014545
3027.7802,28.410645060973366
3028.8247,20.08366949672194
3029.8685,15.944564324770965
3030.9118,32.84327577079466
3031.9544,40.5797499010219
3032.9963,48.903932453249524
3034.0376,39.96576875947693
3035.0783,55.865203662664385
3036.1184,57.95218160611461
3037.1578,65.47664647447857
3038.1966,70.68854157288536
3039.2348,79.3378095516976
3040.2723,77.4743923543931
3041.3092,82.69823113107185
3042.3455,87.85926625709021
3043.3811,85.4574372808222
3044.4161,90.34268287204952
3045.4505,85.11494084597922
3046.4842,82.92414811439204
3047.5173,91.22024073791903
3048.5498,83.65315394794999
3049.5816,86.17282206367213
3050.6128,90.47917856774137
3051.6434,89.52215608108577
3052.6734,79.40168631984159
3053.7027,82.16770010492371
3054.7314,85.82012746323011
3055.7594,80.70889759998198
3056.7868,74.28393886219936
3057.8136,83.74517878981368
3058.8398,80.39254417991691
3059.8653,79.47596099214957
3060.8902,85.84535438222667
3061.9145,81.95064871110401
3062.9381,85.14176748128375
3063.9612,73.1186333757621
3064.9835,80.88116822611772
3066.0053,72.47929313274273
3067.0264,80.01292838721804
3068.0469,78.68199355633146
3069.0668,76.4864074067421
3070.086,66.82608791828903
3071.1046,68.35095230594754
3072.1226,62.1609171164323
3073.1399,54.2058982129484
3074.1567,57.78581083709173
3075.1727,48.250569688399196
3076.1882,40.050088888549965
3077.203,37.78428207671749
3078.2173,33.15306249157436
3079.2308,34.95634299395073
3080.2438,30.694036113146126
3081.2561,26.216054028896963
3082.2678,19.722308613999303
3083.2789,22.112711479088716
3084.2893,13.287174037577813
3085.2991,11.345607481752353
3086.3083,5.337922871026194
3087.3169,7.214031151357517
3088.3248,12.173843215325292
3089.3321,-0.5327301166317113
3090.3388,4.594221854186969
3091.3449,5.404615148455491
3092.3503,-1.9516342590939644
3093.3551,-3.0746104477754557
3094.3593,-1.8143780000767151
3095.3629,0.7290292168727888
3096.3658,3.155595461579651
3097.3681,4.365304985260224
3098.3698,2.558142007575128
3099.3708,-3.415909295467941
3100.3713,-0.15686477344277705
3101.3711,-6.014706150989184
3102.3702,-2.5394135856681146
3103.3688,-0.6809071481261526
3104.3667,-0.7390815402682449
3105.364,-2.7138246617370214
3106.3607,0.9449829712492601
3107.3568,1.1374879535805746
3108.3522,2.563827439767067
3109.347,1.9741385729439571
3110.3412,2.868558470608235
3111.3348,5.047224230515354
3112.3277,8.710272921735282
3113.32,2.6578415628657694
3114.3117,6.440067085402006
3115.3028,2.707086394260756
3116.2932,1.5090363299582634
3117.2831,3.0460537059398973
3118.2723,14.218275320560622
3119.2608,5.575837941715065
3120.2488,7.218878195115138
3121.2361,12.247532650714334
3122.2229,8.561937806277655
3123.209,10.162230037094787
3124.1944,11.89854563283609
3125.1793,11.271020781549652
3126.1635,14.329791552298218
3127.1471,18.024993901434357
3128.1301,18.006763642012743
3129.1125,16.325236406838172
3130.0942,19.330547648647922
3131.0753,15.122832656927102
3132.0558,22.052226527855566
3133.0357,19.96886420638498
3134.015,21.572880416944912
3134.9936,18.514409684276302
3135.9716,15.693586317391294
3136.949,22.010544440158
3137.9258,24.665418019508735
3138.902,26.658340802270317
3139.8775,28.03944628861548
3140.8524,26.858867712133588
3141.8267,28.16673802601953
3142.8004,29.763189914879646
3143.7735,31.64835578165281
3144.7459,29.622367731646236
3145.7178,35.03535755368351
3146.689,33.737456740364635
3147.6596,34.37879643393609
3148.6295,35.75950743926988
3149.5989,35.87972021745004
3150.5676,35.78956487196564
3151.5357,36.33917114750854
3152.5032,34.62866843087495
3153.4701,39.25818574546946
3154.4364,36.22785176840992
3155.402,45.0377947842325
3156.367,40.03814271519494
3157.3315,44.87902303317692
3158.2952,38.460562809676844
3159.2584,43.83288866740291
3160.221,45.146126844457754
3161.1829,48.70040314061518
3162.1442,48.74584290418777
3163.105,47.03257099648408
3164.065,49.460711791354285
3165.0245,49.48038919232289
3165.9834,52.54172660830736
3166.9416,49.89484695342131
3167.8993,52.2398726163611
3168.8563,56.8269254868746
3169.8127,51.25612693231105
3170.7684,55.277597751750434
3171.7236,58.79145823171153
3172.6782,59.297828105937164
3173.6321,57.89682652025553
3174.5854,58.538572027516665
3175.5381,58.673182601602306
3176.4902,65.90077563100849
3177.4417,62.37146791749946
3178.3926,61.835375603831714
3179.3428,65.09261420904711
3180.2924,69.14329863383372
3181.2415,67.23754312795356
3182.1899,67.22546124973564
3183.1377,72.50716588513359
3184.0848,66.53276924784646
3185.0314,70.55238282650166
3185.9773,72.5661174443989
3186.9227,74.6740832193141
3187.8674,73.12638954336202
3188.8115,73.47314506191665
3189.755,75.31445768908807
3190.6979,75.65043460425491
3191.6402,77.83118223365128
3192.5818,81.5568062470069
3193.5229,78.42741153573976
3194.4633,84.14310217569972
3195.4031,80.10398145846258
3196.3423,80.0101518341731
3197.2809,86.01171495193627
3198.2189,84.30877166075554
3199.1563,89.05142194951725
3200.0931,87.13976496402
3201.0292,85.72389895954821
3201.9648,89.10392131998863
3202.8997,88.92992857198904
3203.834,91.00201635115796
3204.7677,91.47027940380471
3205.7008,90.93481156621836
3206.6333,92.24570575998523
3207.5652,96.1530539973435
3208.4964,97.85694736807434
3209.4271,97.50747600042834
3210.3571,97.55472904408656
3211.2865,102.39879467365537
3212.2154,101.93976008819384
3213.1436,97.67771146277302
3214.0712,101.86273395306642
3214.9982,100.49491173797044
3215.9246,103.97432797775409
3216.8503,108.85106482773728
3217.7755,105.57520340349659
3218.7001,106.146823732098
3219.624,107.4660047848554
3220.5473,111.88282447161444
3221.4701,109.99735962756068
3222.3922,111.20968596905145
3223.3137,109.71987811247044
3224.2346,114.62800956210451
3225.1549,113.88415272504169
3226.0746,113.58837886208988
3226.9937,115.39075809521549
3227.9121,115.84135941050107
3228.83,117.99025064012159
3229.7473,119.03749845783845
3230.6639,120.83316835751047
3231.5799,121.27732464262154
3232.4954,121.92003040832381
3233.4102,123.06134753699618
3234.3244,126.20133669181718
3235.238,124.39005730535186
3236.151,122.17756754815193
3237.0634,129.0639243468684
3237.9752,126.44918340637663
3238.8864,129.93339914091283
3239.797,128.7166247002212
3240.7069,129.74891193471197
3241.6163,131.2303114076291
3242.5251,135.41087238472733
3243.4332,131.44064281945833
3244.3408,135.21966931116503
3245.2477,134.5479971447839
3246.154,135.22567025305474
3247.0598,133.70273122323738
3247.9649,139.17922129033482
3248.8694,134.1551803523228
3249.7733,140.48064691538468
3250.6766,140.70565814415215
3251.5793,138.38024979845036
3252.4814,141.4044562310478
3253.3829,142.47831041091044
3254.2838,141.0018438929597
3255.1841,144.62508680733376
3256.0838,147.19806787415237
3256.9829,146.62081436728437
3257.8814,144.94335208861784
3258.7792,147.31570537383266
3259.6765,149.53789710917516
3260.5731,152.55994870773452
3261.4692,149.831880087221
3262.3647,150.50370963974527
3263.2595,150.52545425909915
3264.1538,150.9471293340374
3265.0474,154.5687487480601
3265.9404,153.84032487519616
3266.8329,154.76186854378687
3267.7247,156.03338904377026
3268.616,155.35489411746562
3269.5066,153.77638994685842
3270.3966,156.547881160385
3271.286,152.5193708487179
