RamanShift,CorrectedData
30.1047,630.2319555570798
32.3739,581.2262708808298
34.6426,534.3205799022601
36.9109,484.46487050678843
39.1787,435.1091252366269
41.4461,391.2033217893382
43.7131,339.14743351139407
45.9796,293.6914298372328
48.2456,244.43527680981785
50.5112,195.3289375351984
52.7764,152.5723726750707
55.0411,104.2655409378416
57.3054,54.55839950619414
59.5692,8.800904520155939
61.8326,-32.45698842582938
64.0955,-78.76532382532727
66.3579,-123.42382192658891
68.6199,-160.33141611228055
70.8815,-188.1358067610874
73.1426,-172.43309254084804
75.4032,-50.31749264269155
77.6634,333.0684963488471
79.9231,1293.8828805209841
82.1824,3384.233662630252
84.4412,7087.178832494354
86.6995,12084.176346088654
88.9574,16789.834088516734
91.2148,19919.20982404041
93.4717,21183.01114902315
95.7282,21206.295460636342
97.9842,20718.019944221243
100.2398,19898.39157305617
102.4949,19001.317113239234
104.7495,18067.403131884632
107.0036,17156.306006093393
109.2573,16304.581932292505
111.5105,15540.386935345916
113.7632,14860.026877071732
116.0154,14290.15746388421
118.2672,13852.184253597326
120.5185,13426.31266112349
122.7693,13075.597962853262
125.0197,12757.24530091408
127.2696,12456.85968667741
129.519,12194.146003942256
131.7679,11857.609011939032
134.0163,11550.053347956691
136.2642,11147.833530708098
138.5117,10738.303963405586
140.7587,10288.41893778315
143.0052,9927.232638191748
145.2512,9516.79914609815
147.4967,9152.6724436968
149.7417,8880.85641801415
151.9863,8659.404864549928
154.2304,8492.5714899953
156.4739,8285.009914447382
158.717,8129.123673077585
160.9596,7918.16621820721
163.2017,7674.440920866331
165.4433,7367.701072903361
167.6844,7033.499889422299
169.925,6724.840511850145
172.1651,6349.426011278889
174.4047,6041.909391552128
176.6439,5774.643593019195
178.8825,5518.731495610327
181.1206,5333.875921509332
183.3582,5163.579637712705
185.5954,5071.39535787818
187.832,4956.025744027701
190.0681,4888.873407469256
192.3037,4818.640909950582
194.5388,4771.630764330681
196.7734,4761.4454352821485
199.0075,4753.637339761275
201.2411,4815.108847109897
203.4742,4827.312279133483
205.7068,4917.0999094864055
207.9389,4953.923963549925
210.1704,5066.136617534299
212.4015,5136.239998110554
214.632,5220.886181288344
216.862,5296.527191714933
219.0915,5342.115001828723
221.3205,5343.501531102844
223.549,5337.338645589278
225.777,5345.578157905003
228.0044,5335.621827293603
230.2314,5345.871359542885
232.4578,5334.628407084443
234.6837,5335.544568891153
236.909,5332.871390589613
239.1339,5254.810364450974
241.3582,5178.712929417674
243.582,5067.530471884049
245.8053,5016.614326457309
248.0281,4962.965777069361
250.2503,4969.986057485967
252.472,5015.376351843237
254.6932,5106.937794577418
256.9139,5205.771469970996
259.134,5371.2284112370835
261.3536,5589.009599531075
263.5727,5866.665962296089
265.7912,6143.448371085148
268.0092,6420.307638784615
270.2267,6618.644516846376
272.4436,6762.609692519241
274.6601,6810.653786865582
276.8759,6720.977353321669
279.0913,6606.380877217245
281.3061,6476.6147766722725
283.5204,6397.629403742916
285.7341,6326.525045719183
287.9473,6294.401925914799
290.16,6224.3102043782355
292.3721,6245.549978213954
294.5837,6323.071282283312
296.7947,6437.624088992172
299.0052,6562.208307515692
301.2152,6559.173782652775
303.4246,6431.520293580258
305.6334,6140.1475538832365
307.8418,5806.155212831603
310.0495,5427.04285829378
312.2568,5003.760020076638
314.4635,4566.906173716619
316.6696,4219.480744712571
318.8752,3943.7831128942817
321.0802,3818.8626158967363
323.2847,3781.8685519170876
325.4887,3755.5501809638727
327.692,3754.1067252269368
329.8949,3719.5873693406265
332.0972,3571.1412603982253
334.2989,3375.3675082971367
336.5001,3148.965187223357
338.7007,2930.6833376092063
340.9008,2734.020968397361
343.1003,2533.8770592236606
345.2992,2406.3005623837435
347.4976,2252.240404834475
349.6955,2167.4954894697203
351.8927,2092.6146966609404
354.0895,1987.6468851046475
356.2856,1922.7908925712081
358.4812,1853.8455369545209
360.6763,1809.9596169205788
362.8707,1769.3319125969174
365.0646,1799.1611860114826
367.258,1802.9961814988992
369.4508,1869.4856254021888
371.643,1965.928226034407
373.8346,2080.8726730137605
376.0257,2169.7176362991704
378.2162,2232.061765040833
380.4062,2206.3036866917746
382.5956,2099.942006384402
384.7844,1987.6753071880885
386.9726,1826.2521511727882
389.1603,1729.8710805317032
391.3474,1661.830619195518
393.5339,1640.629273796213
395.7199,1618.7655343474662
397.9052,1690.2878744566633
400.09,1749.8447515435373
402.2743,1904.9846061249464
404.4579,2070.0558612193017
406.641,2248.2069207951736
408.8235,2366.536168120574
411.0054,2439.4419639814505
413.1868,2534.122645498387
415.3675,2531.326525397557
417.5477,2480.0018910639083
419.7273,2399.5970045691256
421.9064,2325.660103184883
424.0848,2247.08940018688
426.2627,2137.5830855942168
428.4399,1942.3393269551052
430.6166,1618.5062704419206
432.7928,1321.932042803648
434.9683,1065.3647546042148
437.1432,861.9025031882265
439.3176,705.1433752466437
441.4914,599.0354488514058
443.6645,563.2267950230189
445.8371,492.215478791637
448.0091,492.74955955515
450.1806,473.4770917892947
452.3514,471.64612504231445
454.5216,494.75470412768846
456.6913,490.95086914243984
458.8603,572.1326552360442
461.0288,567.8480926484781
463.1967,569.4452058983934
465.3639,550.822013825963
467.5306,535.6265295769099
469.6967,498.65676078874003
471.8622,502.91070974269496
474.0271,497.98637373345537
476.1914,518.931745026599
478.3551,540.7448109078414
480.5182,594.5735534735841
482.6807,664.315949412784
484.8426,840.0699694686664
487.0039,1141.2835777412965
489.1647,1462.2047299300448
491.3248,1727.0313703214479
493.4843,1810.0114285799973
495.6432,1757.2428170998755
497.8015,1615.623430175151
499.9592,1513.3011445274624
502.1163,1273.123820722215
504.2728,1021.1893041918074
506.4287,745.1454276373997
508.5839,499.54001354826414
510.7386,346.62087696221624
512.8927,288.78582792167526
515.0461,304.88267300285315
517.199,391.90921589410027
519.3512,575.1632572349545
521.5029,868.1925937458582
523.6539,1137.3450163956295
525.8043,1258.4183074711627
527.9541,1191.7602378859046
530.1033,977.0185659691206
532.2519,780.9410381324769
534.3999,699.4753910174586
536.5472,716.1193534561389
538.694,806.6206472858357
540.8401,994.0769871826815
542.9856,1137.9860797566007
545.1305,1154.9956216767514
547.2748,1085.103298232436
549.4185,961.9567831629993
551.5615,900.8537393567567
553.704,967.4918200824604
555.8458,1072.818669600324
557.987,1274.4819224956454
560.1276,1532.2292026255354
562.2675,1929.9581211022896
564.4069,2489.7162737159115
566.5456,2981.751236956823
568.6837,3172.1105624182937
570.8212,2814.5917718760747
572.958,2162.3423553848206
575.0942,1533.3097748532682
577.2299,1071.9914705667343
579.3648,826.484867477443
581.4992,775.737379817705
583.6329,890.1964135549852
585.766,1030.2593668993732
587.8985,1160.7736291589963
590.0304,1236.2365793393928
592.1616,1255.745584838368
594.2922,1158.1980006913627
596.4222,991.3911693763657
598.5515,787.672421789388
600.6802,627.7890789125322
602.8083,523.8884538511757
604.9358,490.0178534328079
607.0626,543.0745792460366
609.1888,674.8059279792933
611.3144,858.4091908902683
613.4393,1017.4316524885944
615.5636,1183.2705886998174
617.6873,1264.323265275174
619.8103,1215.086936133196
621.9327,1027.7088425491902
624.0544,815.0362136475924
626.1756,589.6662682757487
628.2961,454.346217130651
630.4159,366.07326501263015
632.5351,369.89461217856024
634.6537,365.25745522458146
636.7716,383.75898704789233
638.8889,396.546396893119
641.0056,430.01687016729556
643.1216,413.06758831199477
645.237,394.84572846862375
647.3518,285.9984636479112
649.4659,226.97296291213388
651.5793,171.11639246358573
653.6922,137.77591623483295
655.8043,136.8986964472797
657.9159,129.98189394457404
660.0268,138.6226682013803
662.137,164.16817739254475
664.2466,176.96557830668553
666.3556,179.46202609074498
668.4639,142.55467412201233
670.5716,119.59067398315801
672.6786,56.91717583130958
674.785,-13.218671372309473
676.8907,-29.469719235640696
678.9958,-29.438687312106595
681.1002,-34.82800075263458
683.204,-44.93979061567279
685.3072,-55.27584002794538
687.4097,-50.73748316767251
689.5115,-37.025502007433715
691.6127,-33.64017165235509
693.7132,-28.031397322797602
695.8131,15.5012518261874
697.9123,43.408486673206426
700.0109,67.44101794185462
702.1089,152.54955592164606
704.2061,226.93481022768628
706.3028,283.39748894958575
708.3987,364.38829790761247
710.4941,385.2079400880566
712.5887,385.7571148333245
714.6827,434.88651763374946
716.7761,497.24684012209036
718.8688,591.5887695822394
720.9608,730.1129883256262
723.0522,868.8701727477983
725.1429,1000.0609919431781
727.233,1149.1861063174874
729.3224,1289.296166275847
731.4112,1275.7918107315136
733.4993,1181.8736657047848
735.5867,976.9423444580416
737.6735,744.1484484349276
739.7596,531.8425693096669
741.845,393.57529131499905
743.9298,324.54719336523976
746.014,285.25885043895596
748.0974,290.36083426924597
750.1802,273.9537137366233
752.2624,319.0880548179921
754.3439,386.8644207507241
756.4247,489.1833715813127
758.5048,646.0454634876078
760.5843,928.6012477556269
762.6631,1284.1512692109309
764.7413,1825.8460633930763
766.8188,2512.836153000104
768.8956,3080.372042471595
770.9718,3485.004211118772
773.0473,3514.0831074491416
775.1221,3317.6091451201683
777.1962,3109.7827026484956
779.2697,3072.954125374672
781.3426,3200.4737275414263
783.4147,3321.941792661947
785.4862,3310.308572244686
787.557,3082.4242845786766
789.6271,2604.939114849867
791.6966,2023.1032174199681
793.7654,1472.9667206013019
795.8335,1049.1797324751615
797.901,771.7423463931827
799.9678,611.154645215207
802.0339,491.3167040836561
804.0993,478.97859202940344
806.1641,411.3903731701648
808.2282,349.05210683386576
810.2916,294.8638482345332
812.3544,247.72564909567973
814.4164,211.2375581921824
816.4778,237.54962182166037
818.5385,308.3118841693631
820.5986,454.3743870450444
822.658,676.2871691753462
824.7166,1032.9502647431673
826.7747,1588.863701168536
828.832,2153.2774955419773
830.8886,2626.891649065383
832.9446,2781.006141407871
834.9999,2686.5209259696485
837.0545,2353.3859283408638
839.1085,1959.9010472464588
841.1618,1592.066157877519
843.2143,1322.681115826119
845.2662,1109.2957607636772
847.3175,983.0099191348008
849.368,873.3234062911415
851.4179,798.1360277542544
853.467,740.5475803124627
855.5155,716.4078527727288
857.5633,641.7166265365413
859.6105,582.6736758413099
861.6569,540.1287685072821
863.7027,466.181666527973
865.7478,415.982126495609
867.7922,369.22990034060604
869.8359,337.0247358335582
871.8789,355.61637705276917
873.9212,407.7545647062934
875.9629,483.83903594602543
878.0039,567.669523846318
880.0441,655.2957566431305
882.0837,715.6174568957304
884.1226,767.8343406104286
886.1609,881.7461166373687
888.1984,1054.352486148351
890.2352,1211.7531414977184
892.2714,1273.1477644962952
894.3069,1223.6360248373721
896.3416,1055.0675794827703
898.3757,884.5420731579497
900.4091,780.0091400377032
902.4418,764.4684054514046
904.4739,802.6194869283408
906.5052,876.3619943531176
908.5358,865.8955295841488
910.5658,771.0196857162391
912.595,565.5340471852332
914.6236,375.18819071678536
916.6515,243.08168738121185
918.6786,142.56410449694704
920.7051,133.58500695161365
922.7309,152.04395820719856
924.756,186.790520389839
926.7804,245.67425410523538
928.8041,275.4447180911866
930.8272,330.4514686287512
932.8495,343.9940592445446
934.8711,373.3220401606668
936.892,386.18495815928054
938.9123,402.3323562893265
940.9318,441.16377373789874
942.9506,484.7787456687711
944.9688,464.9268028340821
946.9862,379.40747113818634
949.003,243.37027183617465
951.019,139.26472238906354
953.0344,83.79033782417537
955.0491,40.496631776184586
957.063,66.33311704186781
959.0763,123.84930601303586
961.0888,171.79471041817214
963.1007,218.21884074726495
965.1119,232.22120577236
967.1223,225.10131208331222
969.1321,224.50866394777404
971.1412,188.44276338237705
973.1495,197.8031101586712
975.1572,207.38920216377937
977.1641,207.6505353067896
979.1704,201.98660342290714
981.1759,156.2468982708324
983.1808,174.3809095894012
985.1849,190.43812555498153
987.1884,214.4180326001333
989.1911,281.6701152530359
991.1932,358.19385589769445
993.1945,377.38873410141696
995.1951,355.45422584957305
997.1951,350.23980335365013
999.1943,349.7449352705962
1001.1928,375.8690867549667
1003.1906,421.51171946386785
1005.1877,540.4222912957184
1007.1841,643.050255933822
1009.1798,727.395061657262
1011.1748,685.4561503146224
1013.1691,577.4829564805359
1015.1627,400.3749078750807
1017.1556,235.23142644350537
1019.1477,122.10193012731361
1021.1392,49.13583451569684
1023.1299,-5.317446023173034
1025.12,24.191502387513538
1027.1093,95.06214674585681
1029.0979,199.89395380803762
1031.0859,321.7863893796184
1033.0731,362.78891726722213
1035.0596,342.8009980596098
1037.0454,276.32208871765306
1039.0304,185.85164277422155
1041.0148,103.63911099895995
1042.9985,29.63394230299855
1044.9814,-16.414415438920514
1046.9636,-63.306514648391385
1048.9452,-22.842743766999774
1050.926,-4.372858804254065
1052.9061,30.45361242934905
1054.8855,73.53718580816803
1056.8642,101.77837690202978
1058.8421,131.57770054538923
1060.8194,168.7856705549184
1062.7959,228.45279943152127
1064.7717,291.97959798824377
1066.7469,384.21657475360917
1068.7213,471.5642353363464
1070.695,580.573081503022
1072.6679,638.5936103045624
1074.6402,689.7763129861642
1076.6117,648.8216744070987
1078.5826,529.0301725288673
1080.5527,394.4522788247632
1082.5221,277.78845947778245
1084.4908,206.18917672639418
1086.4587,156.65489003118637
1088.426,185.8360567908585
1090.3925,213.73313283756306
1092.3584,259.24657214509534
1094.3235,303.7768265499217
1096.2879,430.1243452960407
1098.2515,573.1895745896891
1100.2145,745.5229563358535
1102.1767,936.0749267076308
1104.1382,1198.7959144228853
1106.099,1413.536338838734
1108.0591,1652.696607324333
1110.0185,1796.4771131134758
1111.9771,1885.428232912992
1113.9351,1853.2003254649362
1115.8923,1781.7937306570911
1117.8488,1718.2087698452315
1119.8045,1578.8457465672009
1121.7596,1422.254947178756
1123.7139,1266.286642247198
1125.6675,1198.4410881172807
1127.6204,1216.5685284708943
1129.5726,1185.6691950055183
1131.524,1142.0933072529488
1133.4748,968.0410728882935
1135.4248,780.4626881657277
1137.3741,607.7083396590178
1139.3226,493.928206137306
1141.2705,451.772460292651
1143.2176,383.24126987783256
1145.164,355.9847981279054
1147.1097,283.4532044455136
1149.0546,164.24664467346065
1150.9989,82.515271820017
1152.9424,5.459237250993283
1154.8852,-70.57130849295118
1156.8272,-84.17621492574563
1158.7686,-72.20462655395022
1160.7092,-14.354846963738055
1162.6491,9.975541582937694
1164.5883,116.38910022903474
1166.5267,215.48839001776378
1168.4644,389.5759708284413
1170.4014,560.3544003855004
1172.3377,796.6262325176185
1174.2732,1113.3940154499323
1176.2081,1542.610289441317
1178.1421,2078.777583616714
1180.0755,2644.0484116749594
1182.0082,3040.02526652712
1183.9401,3190.360614643777
1185.8713,3029.856892095265
1187.8017,2697.5665030483133
1189.7315,2266.49182137109
1191.6605,1884.3351939560953
1193.5888,1602.048945030915
1195.5163,1431.8353799797896
1197.4432,1290.2967881664617
1199.3693,1245.935444636325
1201.2947,1218.503611531809
1203.2193,1191.30353853599
1205.1432,1167.7374631469092
1207.0664,1141.8076109495732
1208.9889,1123.1161958516195
1210.9106,1113.2154203426098
1212.8316,1128.4574756809498
1214.7519,1158.2445419928918
1216.6715,1231.0787881201131
1218.5903,1296.1623713218514
1220.5084,1381.747436546555
1222.4257,1539.3361157810486
1224.3424,1600.9805271946825
1226.2583,1746.6327735634504
1228.1735,1932.5449416535394
1230.0879,2089.319100764813
1232.0016,2315.457300871689
1233.9146,2496.3615710553913
1235.8269,2564.8839172425824
1237.7384,2548.226320396302
1239.6492,2517.290735830761
1241.5592,2531.429093377905
1243.4686,2626.3932976967753
1245.3772,2872.3352281321268
1247.285,3159.456737764781
1249.1922,3449.0096509522073
1251.0986,3681.0957604573123
1253.0042,3843.4168245529027
1254.9092,3984.474564700833
1256.8134,4113.7706639287935
1258.7169,4218.706765419727
1260.6196,4370.33447121887
1262.5216,4550.105341184393
1264.4229,4727.070891471125
1266.3234,4908.132592732839
1268.2232,5055.091868352609
1270.1223,5137.700092632176
1272.0207,5165.158589322374
1273.9183,5148.46863079703
1275.8151,5107.681437778394
1277.7113,5156.248179504028
1279.6067,5281.919974134681
1281.5014,5634.497888268629
1283.3953,6188.332935684943
1285.2885,6835.376073817726
1287.181,7526.828198217747
1289.0727,8155.590136082015
1290.9637,8561.262639339262
1292.854,8761.296378362316
1294.7435,8717.041937911388
1296.6323,8561.099815133726
1298.5204,8252.720420006166
1300.4077,7916.654076894541
1302.2943,7561.901027637483
1304.1802,7178.91143490709
1306.0653,6648.335385756446
1307.9497,6106.522895449531
1309.8333,5631.123912766961
1311.7162,5280.888325424134
1313.5984,5063.615964825199
1315.4798,4888.606609565433
1317.3605,4756.659987603951
1319.2405,4613.475778013803
1321.1197,4324.003612301443
1322.9982,3978.8930758385686
1324.876,3656.9437107568447
1326.753,3311.3050193990057
1328.6293,3066.8264675383516
1330.5048,2819.8074878351354
1332.3796,2630.397482281346
1334.2537,2483.595824670904
1336.127,2408.851862493755
1337.9996,2331.714918403889
1339.8714,2311.8842909667774
1341.7426,2315.359255430745
1343.6129,2377.389063925275
1345.4826,2373.072945426262
1347.3515,2375.310105135709
1349.2196,2355.0997245248936
1351.087,2379.5909613119948
1352.9537,2427.8329496641927
1354.8197,2518.2747999527637
1356.6849,2700.7155982706527
1358.5493,2864.504405528057
1360.4131,3083.5902556280225
1362.276,3285.37215382855
1364.1383,3340.5990745517392
1365.9998,3260.819959365971
1367.8606,2986.3837164336346
1369.7206,2695.139221308923
1371.5799,2428.4853196821937
1373.4384,2193.720830292413
1375.2962,1970.744547593697
1377.1533,1675.1052441029556
1379.0096,1366.1516726296563
1380.8652,1052.9325692322136
1382.7201,816.5466563075261
1384.5742,591.7426457231695
1386.4275,451.2192411812539
1388.2802,339.0751404664684
1390.132,251.25903685130925
1391.9832,211.3196202175227
1393.8336,149.60557793426642
1395.6832,120.31559525750072
1397.5322,110.3483559471315
1399.3803,79.85254255990594
1401.2278,54.37683654909188
1403.0745,52.41991856943059
1404.9204,42.38046873189887
1406.7656,64.55716662327495
1408.6101,102.79869140653318
1410.4538,125.35372159907911
1412.2968,179.3209346903309
1414.139,234.19900691617204
1415.9805,304.4866127192781
1417.8213,377.7824242003371
1419.6613,478.9851104151703
1421.5006,615.8433366417694
1423.3391,819.305763368282
1425.1769,1086.321044924423
1427.0139,1487.7878274468512
1428.8502,1939.1547462090175
1430.6858,2436.7204216064947
1432.5206,2784.13345464331
1434.3547,2974.9924219562868
1436.188,3014.1958723409152
1438.0206,2934.842324842764
1439.8524,2802.0802683654424
1441.6835,2734.458162464143
1443.5139,2672.124438673254
1445.3435,2629.227501182584
1447.1724,2638.1657274607005
1449.0005,2634.637468683894
1450.8279,2585.3410496468045
1452.6545,2596.2247687976987
1454.4804,2627.286898731434
1456.3056,2649.775686080624
1458.13,2598.789351205013
1459.9536,2490.476087966594
1461.7766,2288.784064239464
1463.5987,2028.961422992963
1465.4202,1773.506284308593
1467.2409,1514.316747978241
1469.0608,1263.9908960587322
1470.88,1056.5267954637266
1472.6984,879.2725004669765
1474.5161,728.7260547769674
1476.3331,591.8354933094583
1478.1493,514.4488436929528
1479.9648,467.7141276376001
1481.7795,416.67936170906614
1483.5935,389.69255779587456
1485.4067,363.0517236197602
1487.2192,358.8048630055282
1489.031,354.2999761474707
1490.842,335.5350596518315
1492.6522,313.30810658185646
1494.4618,287.817106645442
1496.2705,291.7100464174064
1498.0785,268.78490959439705
1499.8858,238.63967695596284
1501.6924,210.22232659380415
1503.4981,196.6808342132249
1505.3032,174.81317341730755
1507.1075,141.91731584232548
1508.911,118.09123137642291
1510.7138,88.18288848857219
1512.5159,54.890254466834904
1514.3172,41.81129571744577
1516.1178,16.69397809773909
1517.9176,1.3362670469400655
1519.7166,-21.76387216266812
1521.515,-32.25847427216422
1523.3126,-33.94935660154397
1525.1094,-17.488014208647655
1526.9055,-18.775602997244732
1528.7008,-28.36310416584456
1530.4954,-47.00131134468211
1532.2893,-32.8407348165847
1534.0824,-43.881415321280656
1535.8747,-18.47306551955853
1537.6663,-21.514959696868573
1539.4572,-4.4561875927392975
1541.2473,46.20437598775061
1543.0367,59.01790075683175
1544.8253,94.28555596469369
1546.6132,128.40851027134795
1548.4003,150.3379313939513
1550.1867,237.9749857655779
1551.9723,322.97083831592226
1553.7572,441.6766515949316
1555.5414,568.893584922846
1557.3247,733.9227932031404
1559.1074,928.9654256503536
1560.8893,1126.8226241397983
1562.6705,1300.5455212571328
1564.4509,1471.135238319789
1566.2305,1566.6428836397477
1568.0094,1623.8195508176364
1569.7876,1621.0163177876575
1571.565,1631.7842462458175
1573.3417,1628.124381677962
1575.1176,1651.2877532520924
1576.8928,1684.525373854969
1578.6672,1739.1882398604776
1580.4409,1822.5773307972495
1582.2138,1910.1436088020328
1583.986,2023.8880177858064
1585.7575,2183.86148255811
1587.5282,2319.2149076896017
1589.2981,2479.6991759123302
1591.0673,2611.865146766189
1592.8358,2747.8136549940837
1594.6035,2869.195509220268
1596.3704,2972.561490590862
1598.1366,3059.3623515600298
1599.9021,3200.448814856323
1601.6668,3275.121572614671
1603.4308,3409.4312849655175
1605.194,3556.07857928809
1606.9564,3773.4640488673062
1608.7182,4053.088251427295
1610.4791,4403.301706957549
1612.2394,4744.904894916678
1613.9988,5081.598250730276
1615.7576,5394.832162374891
1617.5156,5611.506967011086
1619.2728,5694.172947851106
1621.0293,5530.980331992127
1622.785,5261.029289589595
1624.54,4872.019935489157
1626.2942,4429.8523319261685
1628.0477,3993.726492415782
1629.8005,3582.592386174632
1631.5525,3216.9499424820874
1633.3037,2899.499054791595
1635.0542,2669.039584387104
1636.804,2462.121363557572
1638.553,2331.8441979015647
1640.3013,2251.6078683964324
1642.0488,2181.512132701087
1643.7955,2191.856725958362
1645.5416,2235.79136149597
1647.2868,2302.715730723055
1649.0313,2383.729502690853
1650.7751,2532.582323423441
1652.5181,2672.5238151076014
1654.2604,2806.153574604297
1656.0019,3005.921172049254
1657.7427,3235.1261495166623
1659.4828,3469.9680190215026
1661.222,3657.146260227496
1662.9606,3674.8603180986856
1664.6984,3509.8096010276513
1666.4354,3160.443480658372
1668.1717,2707.161293536733
1669.9072,2234.512344604184
1671.642,1818.5959117305647
1673.3761,1498.5612504405926
1675.1094,1229.757598073027
1676.8419,1013.1341769810147
1678.5737,850.2401972201264
1680.3048,720.9248587145939
1682.0351,616.1373528862468
1683.7646,540.5768639476692
1685.4934,477.6425699500719
1687.2215,414.88364353890074
1688.9488,359.1992525831738
1690.6754,311.63856080307687
1692.4012,284.65072832680244
1694.1263,260.28491216615794
1695.8506,237.79026648644458
1697.5742,205.31594285011442
1699.297,181.91109044171935
1701.0191,175.92485639265124
1702.7404,150.60638601519327
1704.461,124.30482286237998
1706.1808,98.81930898118458
1707.8999,97.14898517553024
1709.6182,96.24299126114965
1711.3358,80.15046608228636
1713.0527,63.7205475207536
1714.7688,76.95237265686205
1716.4841,50.64507793371513
1718.1987,50.797799024895085
1719.9126,45.55967109753465
1721.6257,33.62982881078892
1723.338,45.25740636821729
1725.0496,45.54153763708064
1726.7605,34.33135603206779
1728.4706,46.67599451245292
1730.18,39.824585694197594
1731.8886,37.17626172650421
1733.5964,34.930154360331244
1735.3036,38.43539497487427
1737.0099,45.29111460003105
1738.7156,21.19644388134475
1740.4204,11.450513011450766
1742.1246,16.702451971019173
1743.8279,3.0513906262158343
1745.5306,-5.503541323817217
1747.2325,-15.813214210450269
1748.9336,-16.528443384677075
1750.634,-5.1498862234811895
1752.3336,-13.77803498469757
1754.0325,-14.563330478798889
1755.7307,-17.80607587369036
1757.4281,-5.106428849605891
1759.1247,-10.714369204082004
1760.8206,-10.079825721431689
1762.5158,1.1473798505785453
1764.2102,-0.3824735383589086
1765.9039,-0.2691069500249341
1767.5968,3.7877623747097005
1769.289,-4.96158011664761
1770.9804,3.9831509855330296
1772.6711,13.122290657065378
1774.361,13.80617383393269
1776.0502,23.735135320896916
1777.7386,26.959509784658167
1779.4263,17.37963165456722
1781.1132,21.645835090380842
1782.7994,30.158454078061823
1784.4849,26.26782238711371
1786.1696,20.624273485455888
1787.8535,37.87814057833066
1789.5367,36.12975666473835
1791.2192,35.32945436489922
1792.9009,35.42756593773606
1794.5818,44.27442328887878
1796.2621,40.37035796968303
1797.9415,38.21570108875994
1799.6202,31.76078335102079
1801.2982,45.30593507921867
1802.9755,49.75148627849853
1804.6519,48.39776650094632
1806.3277,50.49510480113349
1808.0027,64.04382974965529
1809.6769,49.99426941215643
1811.3504,51.346751213844755
1813.0231,48.55160207998597
1814.6951,54.15914842237862
1816.3664,70.51971616730566
1818.0369,65.38363069945899
1819.7067,74.80121669833397
1821.3757,77.8727981895895
1823.044,87.54869845087387
1824.7115,80.42923998110768
1826.3783,80.66474440372644
1828.0443,75.30553253787275
1829.7096,73.8019243960432
1831.3741,92.5042392376804
1833.0379,92.6627955842066
1834.701,83.07791103200339
1836.3633,98.64990225082443
1838.0248,102.72908507964576
1839.6856,105.71577437094356
1841.3457,106.26028394990385
1843.005,115.21292658455445
1844.6636,120.57401398032198
1846.3214,105.24385669050457
1847.9785,122.07276406265987
1849.6349,120.41104439190826
1851.2904,119.70900475264148
1852.9453,122.76695101514292
1854.5994,125.53518785260599
1856.2528,137.51401871055486
1857.9054,132.953745779163
1859.5572,144.85466987346467
1861.2083,132.56709047895856
1862.8587,136.841305632596
1864.5084,146.62761204566027
1866.1572,143.47630506102064
1867.8054,145.58767855527208
1869.4528,135.21202497024638
1871.0994,136.24963529189972
1872.7453,135.85079915406732
1874.3905,137.26580482809004
1876.0349,147.24493922680062
1877.6786,146.43848789037588
1879.3215,142.49673488654344
1880.9637,156.5699628186469
1882.6051,165.00845286506205
1884.2458,159.26248463846605
1885.8858,147.83233610145135
1887.525,151.16828362398633
1889.1634,147.67060209771626
1890.8011,164.48956490260503
1892.4381,159.32544394190904
1894.0743,152.0285094739911
1895.7098,152.1490301639601
1897.3446,155.2872731566406
1898.9786,154.9935040753678
1900.6118,153.61798699060614
1902.2443,156.0109844228848
1903.8761,161.77275735655394
1905.5071,149.75356521585422
1907.1374,152.55366580729924
1908.7669,150.3233154398681
1910.3957,142.06276889700302
1912.0237,158.922279458915
1913.651,150.50209898518688
1915.2776,151.1024777461796
1916.9034,151.52366450723434
1918.5285,153.11590652266727
1920.1528,151.12944953156034
1921.7764,139.66453774183583
1923.3992,148.6214138501225
1925.0213,137.00031915640352
1926.6427,139.40149347444867
1928.2633,137.42517524802543
1929.8832,152.97160152688684
1931.5023,141.89100798653408
1933.1207,154.88362877275222
1934.7383,159.4496966124168
1936.3552,148.48944268356786
1937.9714,144.9530965697495
1939.5868,141.74088636961073
1941.2015,138.90303873227163
1942.8154,137.63977888944373
1944.4286,143.701330683808
1946.041,140.63791658164882
1947.6528,127.64975761223741
1949.2637,138.28707339846596
1950.8739,142.7000822867301
1952.4834,142.78900124055508
1954.0921,151.90404579646565
1955.7001,139.64543006309736
1957.3074,143.71336663004467
1958.9139,134.40806669044878
1960.5197,130.72974000031786
1962.1247,129.72859497158015
1963.729,130.20483870886642
1965.3325,131.0086770195228
1966.9353,136.89031440884605
1968.5374,121.34995407204815
1970.1387,132.83779783543878
1971.7393,132.90404631182696
1973.3392,133.6988987856464
1974.9383,130.02255321229063
1976.5366,125.4252062101641
1978.1342,121.80705309744667
1979.7311,126.16828793806712
1981.3273,127.15910357788403
1982.9227,130.47969160107255
1984.5173,124.43024232021799
1986.1112,121.96094474310826
1987.7044,117.87198663323034
1989.2968,122.76355453446149
1990.8885,120.53583381195972
1992.4795,114.88900860324793
1994.0697,122.12326184049004
1995.6592,124.6387753069614
1997.2479,126.03572956470384
1998.8359,118.76430392937266
2000.4232,117.9746764562658
2002.0097,116.76702401303999
2003.5955,113.99152228760511
2005.1805,125.3983458002017
2006.7648,114.43766793115515
2008.3484,114.50966080680814
2009.9312,118.21449540912704
2011.5133,124.25234157498232
2013.0946,127.6733679590991
2014.6752,125.12774197368003
2016.2551,119.01562975419438
2017.8342,123.5371961848349
2019.4126,114.19260495963806
2020.9902,110.83201853726894
2022.5672,121.80559823446777
2024.1433,122.16350425965504
2025.7188,113.85589560319545
2027.2935,110.98293003382014
2028.8674,108.74476418170116
2030.4406,118.59155356718213
2032.0131,110.07345262316005
2033.5849,109.2906145966167
2035.1559,103.29319163380023
2036.7261,106.33133478805291
2038.2957,119.70519407978463
2039.8645,109.36491846609306
2041.4325,112.21065570702433
2042.9998,112.4425524689766
2044.5664,111.26075429624086
2046.1323,101.91540560868316
2047.6974,106.55664971356236
2049.2617,104.38462889898369
2050.8254,111.29948438748613
2052.3883,123.40135635776369
2053.9504,104.64038387551466
2055.5118,110.01670477242465
2057.0725,103.18045583377568
2058.6325,106.58177274468312
2060.1917,102.32079015845818
2061.7502,108.84764166259436
2063.3079,107.11245982137814
2064.8649,107.46537611061956
2066.4212,113.60652093500494
2067.9767,105.23602362456666
2069.5315,106.50401237327321
2071.0856,101.86061432273323
2072.6389,110.05595554951515
2074.1915,95.94016111158203
2075.7433,100.51335496633806
2077.2945,93.92566011178587
2078.8448,95.87719854079671
2080.3945,90.66809130698493
2081.9434,98.59845850519412
2083.4916,96.21841932358689
2085.039,88.4280919643412
2086.5857,86.92759366745179
2088.1317,92.06704078863277
2089.677,98.24654881432184
2091.2215,93.26623231028702
2092.7652,88.47620485983134
2094.3083,89.72657911359534
2095.8506,87.06746683745826
2097.3921,100.54897890003429
2098.933,93.52122529926328
2100.4731,98.13431502759636
2102.0124,91.83835614227223
2103.5511,88.38345571918683
2105.089,91.01971991585333
2106.6261,95.34725400595062
2108.1626,93.51616235296115
2109.6983,89.07654836689574
2111.2332,100.72851452260454
2112.7675,90.02216240417238
2114.301,88.40759258839921
2115.8337,95.58490475186363
2117.3657,99.90419768706874
2118.897,95.31556923066887
2120.4276,86.66911622027737
2121.9575,86.36493454035246
2123.4866,85.20311920866072
2125.0149,90.93376437932102
2126.5426,84.90696335442124
2128.0695,83.27280852671129
2129.5956,83.68139143987185
2131.1211,80.78280280485535
2132.6458,87.97713249580056
2134.1698,92.3644695790191
2135.693,78.49490224105148
2137.2155,85.16851774479426
2138.7373,89.98540256819547
2140.2584,79.09564233751826
2141.7787,78.69932177917292
2143.2983,81.49652482861347
2144.8171,85.73733463430028
2146.3353,70.37183352972932
2147.8527,68.15010299102357
2149.3693,87.17222379058887
2150.8853,75.6382760193303
2152.4005,73.64833889643069
2153.9149,76.7024908846912
2155.4287,75.80080971042958
2156.9417,71.24337233293966
2158.454,74.23025495350782
2159.9655,69.61153306098731
2161.4764,74.58728140192875
2162.9865,68.55757402676807
2164.4958,67.12248424006793
2166.0045,60.382084660816076
2167.5124,81.88644723677521
2169.0195,70.48564331188766
2170.526,70.32974341123236
2172.0317,71.11881735503152
2173.5367,71.2029342602109
2175.0409,59.182162532507846
2176.5445,71.15656986563079
2178.0473,64.27622336146703
2179.5494,72.59118941033876
2181.0507,73.8015337598058
2182.5513,75.05732143151681
2184.0512,66.15861670910476
2185.5504,78.65548312563033
2187.0488,59.59798355256828
2188.5465,69.13618007483865
2190.0435,63.27013418138199
2191.5397,67.39990666977724
2193.0353,67.0255577049029
2194.5301,62.89714677763823
2196.0241,62.214732708607585
2197.5175,67.32837368946412
2199.0101,60.2381272897145
2200.502,57.99405040558156
2201.9931,64.29619933090692
2203.4835,63.59462977959174
2204.9733,53.33939682257608
2206.4622,60.330554894853776
2207.9505,66.06815789802499
2209.438,52.65225913038523
2210.9248,59.73291122954868
2212.4109,58.860166306607084
2213.8962,52.33407587532338
2215.3809,50.45469086085893
2216.8648,50.57206166503465
2218.3479,59.836238185124785
2219.8304,54.747269812683044
2221.3121,51.75520534090015
2222.7931,52.660093015495136
2224.2733,52.26198056463454
2225.7529,55.16091518988412
2227.2317,47.006943570189605
2228.7098,45.350111832887706
2230.1872,46.34046563524646
2231.6638,39.02805018103277
2233.1397,40.76291021060865
2234.6149,34.695090074056
2236.0894,45.874633713827166
2237.5632,41.95158472542448
2239.0362,44.22598624560442
2240.5085,25.447880991608145
2241.9801,34.41731123841737
2243.4509,32.334319006535
2244.921,35.3989459722917
2246.3904,36.11123348867534
2247.8591,36.82122255468494
2249.3271,30.078953808207984
2250.7943,32.78446751892011
2252.2608,30.937803655707853
2253.7266,29.6390018596137
2255.1917,35.98810146230244
2256.656,33.835141499049655
2258.1197,17.680160645250226
2259.5826,26.773197237947898
2261.0447,30.6142894373844
2262.5062,22.103475136070642
2263.9669,25.340791920374727
2265.4269,16.226277155629987
2266.8862,19.10996795376252
2268.3448,19.941901264435728
2269.8026,21.87211384621412
2271.2598,19.900642258243124
2272.7162,33.57752284094727
2274.1719,31.052791735745018
2275.6268,21.876484748280518
2277.0811,26.548637373670317
2278.5346,28.06928488826668
2279.9874,23.238462302935773
2281.4395,30.856204347851758
2282.8908,25.82254552080383
2284.3414,24.937520011019615
2285.7914,21.751161749501534
2287.2406,20.263504417877584
2288.689,35.32458148026387
2290.1368,25.13442619814191
2291.5838,29.79307147974771
2293.0302,30.550549981973063
2294.4758,28.906894063779077
2295.9206,27.762135778621655
2297.3648,28.76630689088813
2298.8082,27.869438887345268
2300.251,31.42156296709686
2301.693,24.92271005055295
2303.1343,17.172910743907778
2304.5748,27.622195404129343
2306.0147,25.02059421645663
2307.4538,28.518137089907327
2308.8922,28.414853683292904
2310.3299,28.710773370244397
2311.7669,23.155925240244528
2313.2031,24.550338095669304
2314.6387,26.194040507336467
2316.0735,22.18706080056029
2317.5076,22.62942703871545
2318.941,23.27116706330594
2320.3737,22.462308489541897
2321.8056,20.752878699921553
2323.2369,23.092904852320203
2324.6674,23.68241389708396
2326.0972,25.12143255363037
2327.5263,21.109987304552646
2328.9547,16.298104381230928
2330.3823,19.485809803945244
2331.8092,22.373129429995515
2333.2355,30.960088921823512
2334.661,22.896713718139495
2336.0858,26.38302894805406
2337.5098,25.06905951171052
2338.9332,19.504830045422523
2340.3558,19.590364934813124
2341.7778,19.425688370457124
2343.199,18.560824347025687
2344.6195,20.245796664933323
2346.0393,14.13062893898666
2347.4583,20.265344581534578
2348.8767,23.999966863618624
2350.2943,25.834518853627856
2351.7113,23.769023379951363
2353.1275,26.753503012634155
2354.543,26.387980084031028
2355.9578,26.672476658962637
2357.3718,21.257014538370754
2358.7852,17.791615256472824
2360.1978,22.926300134916687
2361.6098,23.61109031743456
2363.021,23.346006718495687
2364.4315,23.08107001645908
2365.8413,28.116300656224098
2367.2504,21.301718851879286
2368.6587,20.537344536350815
2370.0664,24.273197429548986
2371.4733,22.459297046010988
2372.8795,29.14566265754229
2374.285,19.582313311355733
2375.6899,22.269267763207495
2377.0939,25.05654457303092
2378.4973,21.194162078067734
2379.9,23.832138364993853
2381.3019,18.970491308543387
2382.7032,20.50923854512996
2384.1037,23.998397521462493
2385.5035,22.837985479157965
2386.9027,15.928019419849193
2388.3011,23.71851611678983
2389.6987,27.309492183953125
2391.0957,19.800963998127827
2392.492,16.94294766300777
2393.8876,14.535459084278727
2395.2824,19.728513998197286
2396.6765,17.32212799566537
2398.07,16.966316470301194
2399.4627,12.411094642501212
2400.8547,16.056477562999362
2402.246,13.852480158419326
2403.6366,12.499117194820201
2405.0265,14.346403299736721
2406.4156,10.494352975713127
2407.8041,5.242980581830352
2409.1918,10.742300372226055
2410.5789,9.292274223661593
2411.9652,17.242863905476725
2413.3508,15.094031094088336
2414.7358,14.445737293486445
2416.12,14.547943856720394
2417.5035,11.850611992381232
2418.8863,20.253702763581487
2420.2684,21.557177114927754
2421.6497,13.710995788489981
2423.0304,15.265119310766408
2424.4104,12.319508071146174
2425.7896,20.22412230636735
2427.1682,20.978922129973398
2428.546,23.13386745326659
2429.9232,20.53891797776066
2431.2996,13.594033173630805
2432.6753,13.349172305663501
2434.0503,16.204294502705466
2435.4246,15.159358760111843
2436.7982,15.714323911195265
2438.1711,14.469148637674834
2439.5433,17.97379146412652
2440.9148,20.078210770434737
2442.2856,7.4823647567459375
2443.6557,8.486211422425072
2445.025,14.539708692013278
2446.3937,11.992814405189904
2447.7617,15.195486256237416
2449.1289,20.14768181951024
2450.4955,15.499358517408155
2451.8613,13.050473570854194
2453.2265,15.150984045778443
2454.5909,15.700846877606693
2455.9546,12.050018850254787
2457.3177,16.34845659063035
2458.68,18.896116605141174
2460.0416,17.592955236710623
2461.4025,14.588928639301344
2462.7627,12.533992790947082
2464.1222,17.378103523792163
2465.4811,19.221216544641266
2466.8392,21.56328738651837
2468.1966,18.954271390235533
2469.5533,24.64412368097237
2470.9093,27.932799194366396
2472.2645,21.920252619614075
2473.6191,23.15643836658421
2474.973,20.64131062594322
2476.3262,21.82482335679282
2477.6787,29.856930311822396
2479.0305,26.88758502547296
2480.3816,29.31674073361671
2481.7319,30.144350403249973
2483.0816,33.27036670820195
2484.4306,35.844742020858746
2485.7789,26.917428380903004
2487.1264,33.73837746957008
2488.4733,28.407540698921423
2489.8195,22.97486914363492
2491.165,25.490313594313534
2492.5097,27.253824611811638
2493.8538,28.215352502080634
2495.1972,25.374847298533894
2496.5398,36.08225875243136
2497.8818,28.58753636128432
2499.2231,27.49062926178209
2500.5637,27.991486304738316
2501.9035,30.19005606606072
2503.2427,33.83628684174238
2504.5812,34.730126625875926
2505.919,30.721523074191282
2507.256,35.76042349511704
2508.5924,31.89677488986723
2509.9281,29.630523902051664
2511.2631,30.311616856312412
2512.5974,33.639999780986386
2513.9309,32.06561840129467
2515.2638,24.63841810605868
2516.596,36.35834396344393
2517.9275,24.67534079523159
2519.2583,35.43935305961992
2520.5884,25.20032496805362
2521.9178,31.00820037758416
2523.2465,30.662922893259974
2524.5745,31.01443581004753
2525.9018,34.81268211628469
2527.2284,38.60760449016516
2528.5543,33.449145261755916
2529.8796,42.63724637504828
2531.2041,41.22184943954221
2532.5279,45.00289563836537
2533.851,34.03032574242707
2535.1735,44.654080072607655
2536.4952,35.52409860948438
2537.8163,49.290320887093515
2539.1366,48.252686084230675
2540.4562,35.861132886788255
2541.7752,42.365599498131985
2543.0935,40.41602376301648
2544.411,43.86234310254099
2545.7279,51.0544945336444
2547.0441,47.492414634642444
2548.3596,43.97603947330606
2549.6744,49.00530464248237
2550.9885,51.480145295258126
2552.3019,46.80049609466721
2553.6146,39.21629118894202
2554.9266,44.47746425830991
2556.2379,46.633948590835985
2557.5485,53.13567702981072
2558.8585,54.08258195218559
2560.1677,53.3745952035552
2561.4762,46.061648088688514
2562.7841,59.14367137860876
2564.0913,57.27059538372282
2565.3977,50.89234982300104
2566.7035,57.9088638427084
2568.0086,56.37006608018646
2569.313,58.52588459368832
2570.6167,58.876246877766675
2571.9197,59.37107984171564
2573.222,59.96030980606679
2574.5236,57.143862497641464
2575.8246,63.52166304365784
2577.1248,66.24363599989573
2578.4244,54.95970528691828
2579.7232,59.169794162852895
2581.0214,62.473825336229766
2582.3189,66.6217209238813
2583.6157,68.96340241790182
2584.9118,66.34879064416867
2586.2072,72.57780573892512
2587.5019,72.65036717492706
2588.7959,70.16639369915214
2590.0893,73.62580333207467
2591.3819,78.52851339250526
2592.6739,68.77444046299672
2593.9652,85.16350034081665
2595.2557,81.7956081354883
2596.5456,80.5206781048999
2597.8348,84.78862368898376
2599.1234,79.39935752246572
2600.4112,80.4527913921857
2601.6983,82.0988362909901
2602.9848,92.13740240719744
2604.2705,91.91839910813798
2605.5556,86.39173483976805
2606.84,87.90731712886009
2608.1237,90.96505263826907
2609.4067,89.56484715177709
2610.689,94.80660554351607
2611.9707,82.79023179196963
2613.2516,82.91562892755536
2614.5319,83.88269915278892
2615.8115,83.04134384102974
2617.0903,76.99146352681043
2618.3685,77.43295791425032
2619.6461,71.11572593755426
2620.9229,75.83966575659764
2622.199,83.80467482009857
2623.4745,83.8606498183787
2624.7493,83.65748660371327
2626.0234,81.49508018977087
2627.2968,75.47332475364544
2628.5695,79.94211365748015
2629.8415,74.55133950868509
2631.1128,80.65089411524912
2632.3835,83.59066853964788
2633.6535,80.72055303784839
2634.9228,83.44043702991087
2636.1914,76.25020912868996
2637.4593,76.74975711263608
2638.7265,78.43896799769755
2639.9931,77.86772803232537
2641.259,77.08592268058135
2642.5242,78.14343662785024
2643.7887,78.69015378865794
2645.0525,76.37595729609592
2646.3156,73.60072949635469
2647.5781,75.36435197186529
2648.8398,81.36670556905153
2650.1009,76.75767038069387
2651.3613,76.53712568590583
2652.6211,82.60494999622432
2653.8801,81.36102105781521
2655.1385,71.35521579079511
2656.3961,76.13741030167034
2657.6531,75.15747998339532
2658.9094,86.86529946755024
2660.1651,80.6107426341407
2661.42,84.34368249451944
2662.6743,91.26399125393209
2663.9279,84.17154027418735
2665.1808,87.16620000445448
2666.433,90.04784005218733
2667.6846,94.21632915317804
2668.9354,95.47153514274021
2670.1856,96.86332491402459
2671.4351,100.79156440546649
2672.6839,100.00611858686841
2673.9321,103.55685142011743
2675.1795,106.64362586703936
2676.4263,105.71630385389187
2677.6724,102.97474624049642
2678.9179,113.21881282951142
2680.1626,105.49836239384837
2681.4067,103.96325257423058
2682.6501,110.66333995639775
2683.8928,105.0484800864574
2685.1348,102.56852740388376
2686.3761,101.32333529766646
2687.6168,101.31275613111006
2688.8568,98.68664125428609
2690.0961,91.34484100413857
2691.3348,93.0372047307452
2692.5727,88.81358087073545
2693.81,85.1738169303668
2695.0466,87.61775952776128
2696.2826,92.3452544293026
2697.5178,92.30614652519711
2698.7524,96.75027978219879
2699.9863,94.52749724400041
2701.2195,94.9876409867922
2702.452,99.38055214148972
2703.6839,101.55607088913206
2704.9151,103.51403641695305
2706.1456,105.90428689662576
2707.3755,117.92665946468327
2708.6046,124.33099019861612
2709.8331,124.91711399664848
2711.0609,131.98486451369502
2712.2881,136.78407415549907
2713.5145,142.3645740079558
2714.7403,157.3761937891196
2715.9654,155.06876179339912
2717.1899,160.69210474144126
2718.4136,177.94604780320543
2719.6367,185.18041454173039
2720.8591,199.19502674059447
2722.0809,202.78970433157207
2723.3019,210.06426525448705
2724.5223,222.76852542126653
2725.7421,222.30229864319483
2726.9611,222.16539650387108
2728.1795,219.3576283638717
2729.3972,212.47880136211955
2730.6142,203.82872044396106
2731.8306,197.15718842995477
2733.0462,172.51400610237232
2734.2612,176.49897227191371
2735.4756,157.76188402413914
2736.6892,142.95253667961902
2737.9022,134.32072398130504
2739.1145,122.71623824262394
2740.3262,112.38887043379503
2741.5372,104.38841029787551
2742.7475,94.21464645403387
2743.9571,81.76736647755462
2745.1661,83.09635700157611
2746.3744,69.90140384156297
2747.582,67.88229198201645
2748.7889,58.78880570842392
2749.9952,52.87072862744981
2751.2008,44.777843757871096
2752.4057,43.4099335897572
2753.61,38.91678016539947
2754.8136,36.34816509299003
2756.0165,32.853869591553405
2757.2188,34.13367451663271
2758.4204,31.087360395232793
2759.6213,29.86470741302196
2760.8215,28.365495444795044
2762.0211,27.639504066699942
2763.22,28.93651257122974
2764.4182,30.40629997448241
2765.6158,17.148645003191064
2766.8127,17.013326080025593
2768.009,11.550121456169848
2769.2045,8.908809212674726
2770.3994,12.389167315089992
2771.5936,3.1409736398777
2772.7872,-2.185994060391863
2773.9801,-5.891958064557741
2775.1723,-6.927118813378513
2776.3639,-1.7916178869518262
2777.5548,-10.735527663458413
2778.745,-10.258902622816436
2779.9346,-8.161689997022961
2781.1235,-11.293734531637995
2782.3117,-13.204799436938458
2783.4992,-10.394535098793426
2784.6861,-8.562459987125806
2785.8723,-8.707988730452655
2787.0579,-8.38045041831623
2788.2428,-5.279087147451321
2789.427,-4.703057293893551
2790.6106,-2.8514664955978333
2791.7935,-2.6733734069770776
2792.9757,0.5321918037060414
2794.1573,2.8662256751892414
2795.3382,11.229724740888344
2796.5184,9.37368550555692
2797.698,17.749104361651632
2798.8769,30.70697760789244
2800.0551,30.59830136550886
2801.2327,39.72407144866071
2802.4096,47.23528336552533
2803.5859,59.782932227039225
2804.7615,70.06801267178679
2805.9364,79.44151874052301
2807.1106,96.85444377332277
2808.2842,101.65778031584614
2809.4572,127.85251994520883
2810.6294,152.13965322194895
2811.801,175.67016942807948
2812.972,200.84505632421724
2814.1423,229.7152999142778
2815.3119,271.53188419372594
2816.4808,302.49579086087437
2817.6491,349.3579988987167
2818.8167,387.2194842652892
2819.9837,437.331219425048
2821.15,481.8441729702548
2822.3157,526.7593091198589
2823.4807,583.2275872743676
2824.645,633.1999615666961
2825.8086,679.6773802974836
2826.9716,716.3107854353702
2828.134,764.0511121522213
2829.2957,807.4492884567964
2830.4567,837.306234717342
2831.617,856.3728632276133
2832.7767,874.5000779083027
2833.9358,866.6387741163747
2835.0941,848.0398384637936
2836.2519,839.1541488961349
2837.4089,824.6325748785767
2838.5653,807.475977484756
2839.7211,786.6352095419833
2840.8761,780.41111580281
2842.0306,784.3045331534357
2843.1843,800.216290675949
2844.3374,821.847209609393
2845.4899,839.2481031906484
2846.6417,888.2697764381239
2847.7928,922.2630259777472
2848.9433,967.5286395527487
2850.0931,1021.8173956837279
2851.2422,1059.2300632159995
2852.3907,1104.067400776702
2853.5385,1148.5301564006759
2854.6857,1185.5190670820862
2855.8323,1219.4348583297974
2856.9781,1261.1282437974837
2858.1233,1314.3999249444707
2859.2679,1346.7005906188024
2860.4118,1381.2309165245229
2861.555,1418.3915648986708
2862.6976,1468.6331841659767
2863.8395,1485.206408567254
2864.9808,1512.811857656986
2866.1214,1528.6001361375916
2867.2614,1552.9218335833716
2868.4007,1549.577524282626
2869.5393,1572.3677669944364
2870.6773,1571.9931049821098
2871.8146,1582.2040657852756
2872.9513,1582.9511612236333
2874.0874,1583.084887294841
2875.2227,1568.855724167046
2876.3574,1564.6641361775469
2877.4915,1540.0605719750852
2878.6249,1526.945464561761
2879.7577,1483.169231539069
2880.8898,1473.0822752390495
2882.0212,1470.9349831620502
2883.152,1455.9777280775972
2884.2821,1456.3108680458665
2885.4116,1450.884746567257
2886.5405,1461.7496925790597
2887.6686,1461.5060205097177
2888.7962,1465.6540301701784
2889.923,1476.4940067563286
2891.0493,1472.9762208075156
2892.1748,1487.150928098147
2893.2997,1492.9183696728678
2894.424,1500.778771704815
2895.5476,1503.432345437941
2896.6706,1533.1792871084112
2897.7929,1547.869777918068
2898.9145,1562.9539837369603
2900.0355,1590.9820549564395
2901.1559,1604.1541263383178
2902.2756,1622.970316734587
2903.3946,1661.5307289556977
2904.513,1677.2854495823972
2905.6308,1702.934548580126
2906.7479,1720.9780791414705
2907.8643,1750.6160774296723
2908.9801,1758.6985623981914
2910.0953,1751.7255354943284
2911.2098,1742.146980578397
2912.3236,1736.8128639934575
2913.4368,1727.5231346610988
2914.5494,1704.7777241347821
2915.6613,1692.1265466927375
2916.7725,1674.3194995654176
2917.8831,1646.2564630620104
2918.9931,1627.1873007485092
2920.1024,1595.111859728342
2921.211,1567.3799708330653
2922.319,1578.3414489431157
2923.4264,1567.0960932651315
2924.5331,1553.0936872223353
2925.6391,1556.6839985669908
2926.7445,1543.4667795204236
2927.8493,1556.6917667371208
2928.9534,1568.5086814369004
2930.0569,1579.3672292726637
2931.1597,1589.5671002122256
2932.2619,1585.3579684297288
2933.3634,1590.5894922036448
2934.4643,1609.3113139588663
2935.5645,1598.0230602143906
2936.6641,1586.8743413961017
2937.763,1569.4647519496536
2938.8613,1536.8938704519574
2939.959,1516.5112597852767
2941.056,1460.9164674629365
2942.1523,1419.509025833149
2943.248,1354.9384526349631
2944.3431,1284.0042514123359
2945.4375,1203.605912159841
2946.5313,1118.892912032009
2947.6244,1050.1147161473123
2948.7169,969.920778435293
2949.8087,903.6105423243479
2950.8999,823.6834415436647
2951.9904,763.3889007863265
2953.0803,697.9263365085825
2954.1696,654.295157532792
2955.2582,618.7447657020521
2956.3462,591.5745563165076
2957.4335,552.0839184888556
2958.5202,531.5722354160487
2959.6062,513.6888847742002
2960.6916,485.28323892370156
2961.7764,475.6546650880552
2962.8605,472.75252563793146
2963.9439,468.5261781874543
2965.0267,452.4249756232224
2966.1089,453.5482661465729
2967.1905,447.8453934345937
2968.2714,441.11569662888996
2969.3516,451.00851039261363
2970.4312,454.42316497775954
2971.5102,460.7089861262374
2972.5885,473.8652950357258
2973.6662,477.94140829681305
2974.7432,480.78663776143526
2975.8196,479.500290502114
2976.8954,469.5816687835055
2977.9705,472.4800700752627
2979.045,465.0447871512226
2980.1188,457.2751080604215
2981.192,449.12031620144813
2982.2645,436.27969040014034
2983.3364,416.152504991133
2984.4077,400.5880299462639
2985.4783,381.88553107584573
2986.5483,367.4942701843113
2987.6177,339.61350525723844
2988.6864,316.64249060526197
2989.7545,290.9804771428824
2990.8219,268.52671261817534
2991.8887,240.08044186941163
2992.9548,216.79090704959515
2994.0204,192.80734791092618
2995.0852,175.22900203769518
2996.1495,153.80510508612014
2997.2131,135.78489096012885
2998.276,108.46759202559792
2999.3383,104.65243929055532
3000.4,84.43866267835324
3001.4611,70.07549106581956
3002.5215,56.8121524853957
3003.5812,53.79787426876834
3004.6404,41.18188317950279
3005.6989,34.66340544318575
3006.7567,25.191666873585234
3007.8139,20.765892937835417
3008.8705,14.685308851153934
3009.9264,7.8491396210997095
3010.9818,7.956610108378925
3012.0364,0.8569450952064699
3013.0905,-2.9506307157688525
3014.1439,1.2331073695326609
3015.1966,-3.3425864780087977
3016.2487,-5.7784580998437605
3017.3002,-10.825219944984099
3018.3511,-12.88352673564566
3019.4013,-14.253925050096996
3020.4509,-5.98683276017465
3021.4998,-6.782525341003975
3022.5481,-8.491218459250831
3023.5958,-1.7130600241533784
3024.6428,-4.998113117677406
3025.6892,-2.446423708319344
3026.735,-3.057987833425443
3027.7802,-0.8327770905693228
3028.8247,0.17926747197356008
3029.8685,5.0282131253709395
3030.9118,8.514127138997992
3031.9544,4.3870767319479
3032.9963,12.047129038172955
3034.0376,16.294351147755094
3035.0783,22.278810030304896
3036.1184,25.600572492489675
3037.1578,33.359705118188685
3038.1966,24.35627423527569
3039.2348,32.24034583802728
3040.2723,36.86198567715775
3041.3092,39.6712591809779
3042.3455,50.26823140917898
3043.3811,52.452967024739735
3044.4161,44.325530187956645
3045.4505,46.835984534596605
3046.4842,49.98439325717129
3047.5173,48.4208190798326
3048.5498,50.29532422688848
3049.5816,52.10797043843874
3050.6128,50.558818951630144
3051.6434,53.64793048252997
3052.6734,57.275365241617436
3053.7027,58.841182902892456
3054.7314,58.895442567601435
3055.7594,53.9882027485792
3056.7868,57.31952136970622
3057.8136,57.58945581498111
3058.8398,60.89806289520723
3059.8653,59.69539884529337
3060.8902,59.48151929116767
3061.9145,59.15647926180446
3062.9381,61.27033319136311
3063.9612,67.17313492243815
3064.9835,63.1649376849212
3066.0053,61.64579403697243
3067.0264,64.76575590510296
3068.0469,60.32487459936593
3069.0668,64.62320078215737
3070.086,59.56078451262454
3071.1046,59.087675203682835
3072.1226,53.753921672639905
3073.1399,56.05957214592672
3074.1567,49.25467431243504
3075.1727,51.03927530046104
3076.1882,40.5634217457544
3077.203,36.62715977367205
3078.2173,40.68053510393685
3079.2308,37.22359309000015
3080.2438,33.25637867850804
3081.2561,32.92893644387064
3082.2678,22.341310627934547
3083.2789,25.043545143257006
3084.2893,18.285683678982224
3085.2991,19.61776967381911
3086.3083,21.639846383619528
3087.3169,16.20195686805789
3088.3248,16.804143970409996
3089.3321,8.546450371932139
3090.3388,5.128918585839273
3091.3449,11.35159103988201
3092.3503,10.664510110521775
3093.3551,9.76771806070417
3094.3593,4.5612570467297076
3095.3629,4.79516912722184
3096.3658,4.91949631519131
3097.3681,9.384280575697431
3098.3698,3.589563824604454
3099.3708,8.085387883934004
3100.3713,0.07179453981194683
3101.3711,3.698825497510427
3102.3702,1.0165217450739874
3103.3688,0.17492423355909636
3104.3667,6.724073903856947
3105.364,0.9140116951096644
3106.3607,4.644778479218573
3107.3568,3.3664151189450706
3108.3522,1.3789624306027974
3109.347,3.7324611968412427
3110.3412,0.8769521865204126
3111.3348,3.4124761311757084
3112.3277,4.889073753573072
3113.32,-0.2932142576462411
3114.3117,-0.6343472627316658
3115.3028,1.1657183072776718
3116.2932,-0.39296764152821595
3117.2831,2.789644785283528
3118.2723,3.9636094078924486
3119.2608,-0.8210199814183028
3120.2488,1.535810369998373
3121.2361,2.0341624167791252
3122.2229,2.274098098202586
3123.209,-1.3443206667941752
3124.1944,3.278968017985065
3125.1793,1.794039478499883
3126.1635,1.8009690079202443
3127.1471,8.399831881475876
3128.1301,-0.3092966436131661
3129.1125,5.823658605874925
3130.0942,3.8987758930352783
3131.0753,3.416133422726489
3132.0558,2.775809360819366
3133.0357,10.27788183902345
3134.015,7.172428961290237
3134.9936,7.659528728792395
3135.9716,6.189259070978437
3136.949,5.311697840701598
3137.9258,13.026922828922565
3138.902,7.085011773485078
3139.8775,8.036042281963688
3140.8524,10.380091891082941
3141.8267,7.167238057207001
3142.8004,9.047558132899226
3143.7735,14.42112939905067
3144.7459,16.78802904607683
3145.7178,16.948334120181883
3146.689,14.652121499689741
3147.6596,14.199467893440996
3148.6295,16.140449863755038
3149.5989,11.425143830956614
3150.5676,15.653626053966029
3151.5357,17.275972677452117
3152.5032,18.592259689547426
3153.4701,19.20256290562486
3154.4364,23.0569579551347
3155.402,19.105520275501682
3156.367,19.348325073581144
3157.3315,17.585447365173323
3158.2952,22.81696197259531
3159.2584,21.2929435423097
3160.221,22.11346649260952
3161.1829,22.02860502885838
3162.1442,26.63843313528524
3163.105,26.093024575833027
3164.065,29.542452848060343
3165.0245,25.986791188595525
3165.9834,26.97611253864241
3166.9416,24.810489579536984
3167.8993,27.489994722854107
3168.8563,33.41470013206381
3169.8127,27.234677695736202
3170.7684,31.149998968294398
3171.7236,30.210735231814787
3172.6782,30.466957456873786
3173.6321,29.51873631194048
3174.5854,34.266142160814404
3175.5381,32.20924507210777
3176.4902,31.598114771771325
3177.4417,36.08282066366341
3178.3926,33.66343183566124
3179.3428,36.64001701481382
3180.2924,40.96264459153588
3181.2415,37.18138258984196
3182.1899,35.29629862412017
3183.1377,38.70745993694477
3184.0848,36.11493341792712
3185.0314,37.56878556960389
3185.9773,38.96908253336247
3186.9227,42.76589007490243
3187.8674,40.759273570232494
3188.8115,39.69929796770252
3189.755,42.936027808069625
3190.6979,42.91952723509792
3191.6402,43.999859963191305
3192.5818,42.02708927755836
3193.5229,45.601278023409094
3194.4633,47.17248862568262
3195.4031,45.5907830533053
3196.3423,48.15622280347857
3197.2809,44.96886891749609
3198.2189,49.12878195508927
3199.1563,50.98602202630084
3200.0931,49.990648749885715
3201.0292,49.8927212347386
3201.9648,50.5922980898477
3202.8997,51.38943742527404
3203.834,53.23419684515562
3204.7677,53.776633439736116
3205.7008,56.9168037669172
3206.6333,55.05476384683422
3207.5652,55.490569130454496
3208.4964,53.024274518197686
3209.4271,55.005934355577786
3210.3571,58.98560245786602
3211.2865,59.81333209027431
3212.2154,60.73917592815849
3213.1436,54.91318604874111
3214.0712,62.285413921852964
3214.9982,61.10591046819296
3215.9246,58.524725985605876
3216.8503,60.091910160877376
3217.7755,62.457512095545844
3218.7001,63.82158029023059
3219.624,60.28416262097578
3220.5473,65.84530632560976
3221.4701,65.60505803911924
3222.3922,66.66346373803789
3223.3137,69.77056874284875
3224.2346,67.47641770740023
3225.1549,70.78105458783506
3226.0746,69.28452266553175
3226.9937,70.08686451405828
3227.9121,70.68812201413738
3228.83,70.13833634562309
3229.7473,72.73754798148829
3230.6639,69.8857966933224
3231.5799,71.9331215253394
3232.4954,72.37956082289527
3233.4102,71.72515221201475
3234.3244,73.61993259492698
3235.238,75.01393815660956
3236.151,72.20720434584074
3237.0634,76.59976586125939
3237.9752,78.99165667943231
3238.8864,76.28291001092859
3239.797,79.02355827640082
3240.7069,78.1136331336724
3241.6163,80.95316545033114
3242.5251,79.44218531282851
3243.4332,78.58072199808436
3244.3408,82.41880398859658
3245.2477,81.85645898105591
3246.154,82.24371384796495
3247.0598,85.53059464326176
3247.9649,83.16712659844714
3248.8694,84.85333408971601
3249.7733,83.78924066159198
3250.6766,84.52486901006529
3251.5793,84.96024099323381
3252.4814,86.64537762394663
3253.3829,87.43029906545048
3254.2838,89.71502461453828
3255.1841,89.54957269369993
3256.0838,89.13396082827506
3256.9829,89.51820564810751
3257.8814,87.50232289170151
3258.7792,89.18632740237918
3259.6765,89.77023314843937
3260.5731,94.25405320631769
3261.4692,92.33779975474735
3262.3647,93.32148402992101
3263.2595,92.65511634465334
3264.1538,91.08870607854416
3265.0474,91.22226168464209
3265.9404,93.15579070510866
3266.8329,94.73929976988273
3267.7247,93.77279457734531
3268.616,96.95627987848425
3269.5066,92.63975948655954
3270.3966,98.52323624526827
3271.286,93.20671207190988
