RamanShift,CorrectedData
30.1047,651.6975688762077
32.3739,604.6661611658058
34.6426,557.834746938428
36.9109,510.0033136304371
39.1787,463.6718430998484
41.4461,415.64031210464356
43.7131,371.75869276608586
45.9796,321.6769530490353
48.2456,272.84505720076464
50.5112,228.46296625177678
52.7764,180.08063850412395
55.0411,138.8980299752287
57.3054,92.91509488170715
59.5692,48.03178605119501
61.8326,2.54805538217704
64.0955,-40.93614570717986
66.3579,-82.17086582418935
68.6199,-126.8557446240695
70.8815,-155.8896008750889
73.1426,-162.31998605662747
75.4032,-100.5928943109524
77.6634,125.19730179632973
79.9231,721.8072346226261
82.1824,1992.4435352733713
84.4412,4188.712827635927
86.6995,7073.371715673222
88.9574,9796.176761461053
91.2148,11670.734456341503
93.4717,12511.101193694889
95.7282,12705.38325019418
97.9842,12648.586777401337
100.2398,12443.167799824485
102.4949,12212.632215485888
104.7495,12022.085797976124
107.0036,11760.584198759458
109.2573,11523.88294907929
111.5105,11261.587462573181
113.7632,10916.153037639866
116.0154,10515.9848600622
118.2672,10126.138006461519
120.5185,9665.017448299293
122.7693,9239.128055775634
125.0197,8862.574602440465
127.2696,8507.51176945243
129.519,8265.944149344441
131.7679,8085.476249574276
134.0163,7953.862494940284
136.2642,7852.607229386044
138.5117,7774.014717316522
140.7587,7681.639144610602
143.0052,7501.234619407027
145.2512,7288.25517302815
147.4967,7023.654761783979
149.7417,6786.787269101963
151.9863,6571.406508173013
154.2304,6448.816224320161
156.4739,6354.720097152385
158.717,6353.621741790491
160.9596,6377.824709808093
163.2017,6475.082489242584
165.4433,6518.748504353113
167.6844,6491.476114648003
169.925,6351.768614448095
172.1651,6124.629233159468
174.4047,5893.361136670514
176.6439,5672.917429623336
178.8825,5496.601157726425
181.1206,5372.765309959102
183.3582,5280.012820334675
185.5954,5202.296569138798
187.832,5136.269383857001
190.0681,5111.334039951847
192.3037,5081.193261523206
194.5388,5040.399721557613
196.7734,5050.456042229667
199.0075,5037.414795309972
201.2411,5080.778502064575
203.4742,5105.449633385371
205.7068,5179.080609356478
207.9389,5206.073799007516
210.1704,5258.631519577299
212.4015,5255.606036243907
214.632,5216.299561599105
216.862,5204.8142556786
219.0915,5191.6522263551005
221.3205,5215.615529453177
223.549,5236.106168880882
225.777,5200.0760963901075
228.0044,5156.32721137169
230.2314,5083.161361215706
232.4578,5006.030341748956
234.6837,4914.4858979666315
236.909,4826.779724803624
239.1339,4679.863468049965
241.3582,4657.188725227894
243.582,4576.907047061017
245.8053,4579.219937701051
248.0281,4565.778855530648
250.2503,4547.38521314026
252.472,4524.6403774625505
254.6932,4522.895669956342
256.9139,4470.7523668340455
259.134,4477.661699079125
261.3536,4515.8748529675195
263.5727,4608.142969998552
265.7912,4709.867146512799
268.0092,4948.398432769407
270.2267,5168.8378319288495
272.4436,5298.386297667627
274.6601,5429.844731973855
276.8759,5470.513983851788
279.0913,5543.094848007238
281.3061,5565.388064440879
283.5204,5642.394317722439
285.7341,5719.51423676777
287.9473,5795.5483940687745
290.16,5744.297304922225
292.3721,5561.311426669406
294.5837,5303.991159208634
296.7947,5124.236846825114
299.0052,5019.248780764139
301.2152,4900.0772010286355
303.4246,4850.77229742904
305.6334,4794.084210775025
307.8418,4731.613033368544
310.0495,4633.808809570706
312.2568,4492.6715364264965
314.4635,4307.85116464281
316.6696,4058.947599999834
318.8752,3841.160705199244
321.0802,3667.640302353244
323.2847,3606.8361751624307
325.4887,3562.9980706510014
327.692,3596.0756997747894
329.8949,3744.5687378596504
332.0972,3885.926824270684
334.2989,4072.699560927311
336.5001,4073.4865108896756
338.7007,3962.0871964909384
340.9008,3785.501099329389
343.1003,3484.3776613824502
345.2992,3207.2162867725374
347.4976,3011.116344778291
349.6955,2829.2771726061874
351.8927,2709.898077351545
354.0895,2606.0283378169124
356.2856,2557.2172057058597
358.4812,2496.9639066616755
360.6763,2462.267640755479
362.8707,2379.1775830887564
365.0646,2353.6428841403185
367.258,2366.762670597206
369.4508,2386.7860456100325
371.643,2498.8620886617846
373.8346,2574.439855367593
376.0257,2707.4683763539642
378.2162,2797.496656503011
380.4062,2876.8236736221606
382.5956,2775.9983775438795
384.7844,2619.4696893324017
386.9726,2417.43650229198
389.1603,2248.047683532179
391.3474,2116.4520759881925
393.5339,2115.248500114745
395.7199,2088.8357552020407
397.9052,2193.9126193877955
400.09,2337.927849921375
402.2743,2501.4301821130202
404.4579,2651.4683278936936
406.641,2767.5909741800588
408.8235,2934.5967813740926
411.0054,3038.48438220187
413.1868,3148.252380043499
415.3675,3154.5493478942435
417.5477,3110.373827266845
419.7273,2996.224328128561
421.9064,2831.749329342906
424.0848,2615.9472798111565
426.2627,2360.316600117095
428.4399,2100.705684685033
430.6166,1866.562904336125
432.7928,1652.9866088844692
434.9683,1491.3751294785416
437.1432,1397.3767807369513
439.3176,1287.6398623645582
441.4914,1224.3126600924552
443.6645,1185.493446775341
445.8371,1145.5304830247878
448.0091,1124.822017597432
450.1806,1096.9662877946084
452.3514,1060.261519669437
454.5216,1080.0559283053744
456.6913,1061.4477181832617
458.8603,1094.8850829833837
461.0288,1109.9162057715457
463.1967,1074.889258664707
465.3639,1079.6524026806665
467.5306,1010.8537880883314
469.6967,1000.4915543600864
471.8622,948.8638308597829
474.0271,928.1687369463625
476.1914,907.5543824901324
478.3551,861.5188680797073
480.5182,861.1602852281703
482.6807,878.9767168334156
484.8426,933.3162371817343
487.0039,1097.7769117696598
489.1647,1309.1067967605604
491.3248,1511.5539373400425
493.4843,1558.3163656026445
495.6432,1518.5420985273731
497.8015,1406.4791375100713
499.9592,1214.475468761163
502.1163,991.0790644262843
504.2728,781.9378845063193
506.4287,719.5498790913634
508.5839,616.5129904521364
510.7386,587.8751536638592
512.8927,568.284297636631
515.0461,598.088345401794
517.199,646.385214307853
519.3512,801.8228157224312
521.5029,1088.1990545492972
523.6539,1357.861827673998
525.8043,1427.7090211000886
527.9541,1237.3385072525098
530.1033,924.7981442791115
532.2519,702.0857779543658
534.3999,568.7992448047653
536.5472,517.736374335952
538.694,515.9449903655714
540.8401,572.8229115339109
542.9856,644.3679513218121
545.1305,697.2779174818907
547.2748,764.4006113230844
549.4185,776.3838271815557
551.5615,780.6253517494624
553.704,833.6229639551275
555.8458,928.6744349206192
557.987,1019.3275274317812
560.1276,1134.6299949877148
562.2675,1403.879580894246
564.4069,1772.2240171109088
566.5456,1973.8610215584422
568.6837,1914.2882944353496
570.8212,1519.9535162015218
572.958,1105.3543481739762
575.0942,805.7384364701929
577.2299,656.3534161541193
579.3648,541.6969142323132
581.4992,504.3165511478019
583.6329,549.2099419266451
585.766,669.8246965517428
587.8985,836.3584195138938
590.0304,1023.8587086056514
592.1616,1246.7731532559856
594.2922,1311.5493326552805
596.4222,1191.084813526194
598.5515,935.6271494758876
600.6802,669.3738822006799
602.8083,474.47254404062187
604.9358,386.62066064202463
607.0626,354.3657529064767
609.1888,374.8053378693676
611.3144,468.5369290224262
613.4393,614.8080361093389
615.5636,849.6161641884219
617.6873,1088.1088121699186
619.8103,1250.7334704679124
621.9327,1286.8876186154012
624.0544,1175.9187236380485
626.1756,909.5242396926487
628.2961,653.851609176807
630.4159,508.1982653928944
632.5351,480.411635104766
634.6537,463.7891399942946
636.7716,419.72819693923793
638.8889,407.0762181794653
641.0056,451.78061175756284
643.1216,521.4387816453545
645.237,575.29812729687
647.3518,494.1060429517438
649.4659,372.50991709663776
651.5793,277.2071332771602
653.6922,209.94507131382488
655.8043,147.67110825507189
657.9159,115.18261904989686
660.0268,75.42697717058309
662.137,78.35155493759339
664.2466,62.95372391712408
666.3556,86.13085489186142
668.4639,54.23031801495472
670.5716,45.54948257824799
672.6786,30.485717331283013
674.785,-24.96360943189211
676.8907,-55.90112972208499
678.9958,-37.62922616364358
681.1002,-27.1997229286344
683.204,-25.41406827315859
685.3072,-9.07343872808724
687.4097,-28.178756937749313
689.5115,-17.880854902822648
691.6127,-20.4802831182069
693.7132,-17.42741344906608
695.8131,-32.97241316253803
697.9123,-7.265275425898835
700.0109,14.694335987977865
702.1089,64.25682988631797
704.2061,108.5724682799264
706.3028,223.4915125370444
708.3987,339.26422294019085
710.4941,420.14085753697236
712.5887,455.27167098235805
714.6827,428.85691372990914
716.7761,407.2468316804752
718.8688,374.9416664463406
720.9608,352.84165556732114
723.0522,397.99703283382496
725.1429,458.1580285078444
727.233,607.1748688714106
729.3224,846.8977756249706
731.4112,1128.4269643972266
733.4993,1240.6626423478965
735.5867,1075.3550053524268
737.6735,754.6042368796388
739.7596,472.01050964480055
741.845,299.823988817142
743.9298,205.84483484579232
746.014,176.22320518164452
748.0974,182.80925521714653
750.1802,190.85313858251902
752.2624,196.20500707988595
754.3439,182.76501060284863
756.4247,198.18329708295914
758.5048,245.41001262412283
760.5843,335.845301348415
762.6631,491.23930492380987
764.7413,731.3421616598353
766.8188,1094.3540049536268
768.8956,1452.5249608889026
770.9718,1733.1051446058427
773.0473,1731.1946567193836
775.1221,1559.6935805134099
777.1962,1475.601981959865
779.2697,1708.7199114337582
781.3426,2182.2974045540795
783.4147,2564.7344798526283
785.4862,2631.5811340382315
787.557,2286.437338172371
789.6271,1749.553037000721
791.6966,1157.42815240458
793.7654,714.7125887697193
795.8335,441.406238907628
797.901,289.9589884826728
799.9678,210.62071874515732
802.0339,219.091308045794
804.0993,241.82063262909196
806.1641,251.45856654865202
808.2282,208.7049814398706
810.2916,149.05974642356068
812.3544,88.2727285334895
814.4164,30.443793312827438
816.4778,68.07280542202079
818.5385,131.50962921707924
820.5986,265.8541283732866
822.658,483.5061652508339
824.7166,765.0155995513733
826.7747,1141.6322861414947
828.832,1482.956072237639
830.8886,1733.5867936399218
832.9446,1897.1742713189078
834.9999,1837.6683089092885
837.0545,1580.2686910740185
839.1085,1179.9751840993722
841.1618,840.887538468939
843.2143,606.4554928665584
845.2662,447.17877756719736
847.3175,362.55711678127227
849.368,307.74023024741564
851.4179,318.0778340786892
853.467,312.0696413107553
855.5155,344.46536179849863
857.5633,355.1147022761097
859.6105,354.01736603312384
861.6569,327.67305280793425
863.7027,252.63145879876265
865.7478,205.54227692709992
867.7922,141.9051975881257
869.8359,117.31990912159836
871.8789,113.4360984482264
873.9212,98.30345131552167
875.9629,135.22165233663418
878.0039,173.74038514168024
880.0441,235.40933200856398
882.0837,337.1781734777842
884.1226,434.8465877357494
886.1609,578.3642495970962
888.1984,823.1308295279941
890.2352,1065.9459922109763
892.2714,1120.8093940972713
894.3069,1052.9706809786503
896.3416,824.8294874387939
898.3757,620.6354375316787
900.4091,502.238147062988
902.4418,509.68722563205483
904.4739,604.6322778158337
906.5052,723.6729030944052
908.5358,768.4586949015311
910.5658,696.239239434246
912.595,547.414115204996
914.6236,379.432893763842
916.6515,275.6951411867012
918.6786,188.75041975516797
920.7051,137.4482889938863
922.7309,131.93830653999885
924.756,137.2700286561667
926.7804,207.09301028567097
928.8041,229.80680499909522
930.8272,323.51096429609606
932.8495,384.6050373782673
934.8711,418.1385702120924
936.892,456.6611049180092
938.9123,536.3721794350686
940.9318,677.4213271357166
942.9506,759.8580760286768
944.9688,762.4319473484629
946.9862,666.6424547310107
949.003,520.3891041879388
951.019,413.42139506444437
953.0344,330.2888215018347
955.0491,282.5908735072044
957.063,217.7770377847628
959.0763,235.59679821281225
961.0888,231.44963649188503
963.1007,252.18503196654547
965.1119,216.85246166686193
967.1223,175.40140010105824
969.1321,137.3813196088313
971.1412,140.84169077587103
973.1495,115.23198281405075
975.1572,121.4016635268299
977.1641,176.3501995653487
979.1704,175.22705636673345
981.1759,170.5316976046097
983.1808,146.96358520033436
985.1849,125.97217936995094
987.1884,113.0569388598692
989.1911,120.91732115678042
991.1932,161.05278261680633
993.1945,198.76277838689657
995.1951,203.49676200347403
997.1951,191.65418501533804
999.1943,165.08449693631837
1001.1928,178.43714536370635
1003.1906,225.76157624394864
1005.1877,339.65723373912624
1007.1841,462.8735597536979
1009.1798,560.0599927955559
1011.1748,531.6159667438583
1013.1691,435.34090987716536
1015.1627,302.43424515787683
1017.1556,170.99539119498786
1019.1477,86.12376357315043
1021.1392,16.318776167066517
1023.1299,-9.020158009797342
1025.12,-6.543626107161344
1027.1093,28.99787483663249
1029.0979,117.2539131540666
1031.0859,211.62405688764738
1033.0731,274.3078729073445
1035.0596,310.30492596688964
1037.0454,297.86477807693836
1039.0304,247.63698814509826
1041.0148,170.42111210032817
1042.9985,64.31670339522134
1044.9814,22.72331377815817
1046.9636,-4.709505645644185
1048.9452,6.417796001799616
1050.926,88.55481664643412
1052.9061,169.35109010042152
1054.8855,213.75614929037602
1056.8642,229.76952544940423
1058.8421,217.94074767304983
1060.8194,209.36934275916337
1062.7959,219.45483532618846
1064.7717,205.24674789887558
1066.7469,203.5446008074291
1068.7213,240.34791232959196
1070.695,273.10619870766095
1072.6679,374.71897378045514
1074.6402,510.0357486557368
1076.6117,578.4060306940746
1078.5826,546.279322155684
1080.5527,371.5551195167204
1082.5221,221.78291379054872
1084.4908,114.31219227498514
1086.4587,16.04244005001874
1088.426,-23.426858947484106
1090.3925,-30.89622094107972
1092.3584,4.734071879995554
1094.3235,32.514045979751245
1096.2879,119.84368052882019
1098.2515,204.67295437269286
1100.2145,318.30184515842757
1102.1767,449.6803284863513
1104.1382,639.60837677378
1106.099,884.8859579412197
1108.0591,1129.863033513091
1110.0185,1313.6895561649644
1111.9771,1479.0154672737776
1113.9351,1674.0906950795788
1115.8923,1995.1151530322581
1117.8488,2220.738737840803
1119.8045,2126.66132626305
1121.7596,1720.9827728494492
1123.7139,1215.5029108838398
1125.6675,902.321556440234
1127.6204,866.3885134376196
1129.5726,945.0535767717683
1131.524,986.26653267457
1133.4748,844.8771579273798
1135.4248,586.735219448889
1137.3741,362.64047570902085
1139.3226,208.69267931035165
1141.2705,210.2915792290537
1143.2176,212.58692235437547
1145.164,286.428453472648
1147.1097,340.6159152443388
1149.0546,258.7990474656294
1150.9989,143.92758652654402
1152.9424,61.80126622911621
1154.8852,-7.53018106389527
1156.8272,-44.91702360774343
1158.7686,-60.60945443117453
1160.7092,-65.60721784187035
1162.6491,-35.75945265906739
1164.5883,6.035357714100883
1166.5267,79.67908711143082
1168.4644,165.17360930636914
1170.4014,290.1707972755703
1172.3377,468.72252234395637
1174.2732,660.3806529347421
1176.2081,1002.4470527839226
1178.1421,1515.1235790236833
1180.0755,2110.612078761741
1182.0082,2545.3643839545784
1183.9401,2609.032305452558
1185.8713,2271.0176286524
1187.8017,1701.2721128605071
1189.7315,1181.0474946731038
1191.6605,765.4954936736949
1193.5888,541.6678176353121
1195.5163,376.2661666760323
1197.4432,284.09223549725357
1199.3693,189.39771503771453
1201.2947,124.28429339523245
1203.2193,70.30365677364944
1205.1432,62.40749013396635
1207.0664,41.79747773414692
1208.9889,39.67530320807964
1210.9106,56.99264977168241
1212.8316,62.151200244120446
1214.7519,97.90263687463221
1216.6715,173.2486412909484
1218.5903,199.1408941417717
1220.5084,268.78107434332287
1222.4257,334.0708588204152
1224.3424,384.5619218100519
1226.2583,452.205934208529
1228.1735,567.0545630665251
1230.0879,715.2594709126615
1232.0016,891.4223146050117
1233.9146,1056.4447438490593
1235.8269,1125.2783994360652
1237.7384,1160.6749115928433
1239.6492,1109.2358992934237
1241.5592,1179.2629699050908
1243.4686,1325.9577197027688
1245.3772,1632.0717331687574
1247.285,2009.2565815257803
1249.1922,2388.963819675847
1251.0986,2698.394982428402
1253.0042,2977.5015807032537
1254.9092,3351.0850984362646
1256.8134,3764.846989788286
1258.7169,4235.538675409314
1260.6196,4643.961538300884
1262.5216,4907.416919109137
1264.4229,4950.406112040607
1266.3234,4854.130362227654
1268.2232,4598.140865298579
1270.1223,4306.738768340384
1272.0207,4121.675172458665
1273.9183,4007.7511356916293
1275.8151,3983.3676748607345
1277.7113,4086.1257667099308
1279.6067,4410.426348149491
1281.5014,5011.870315228432
1283.3953,5884.458519891517
1285.2885,6822.891763964801
1287.181,7655.1207904297535
1289.0727,8092.596274038936
1290.9637,7918.3188129937025
1292.854,7384.288924569442
1294.7435,6676.8070468583655
1296.6323,6039.77354410979
1298.5204,5478.53871380497
1300.4077,5067.302793027418
1302.2943,4754.515964075266
1304.1802,4556.378358573624
1306.0653,4363.290060602438
1307.9497,4215.351108677878
1309.8333,4097.711497683207
1311.7162,3999.3711803481865
1313.5984,3913.930068425454
1315.4798,3839.4880336739398
1317.3605,3838.344908713275
1319.2405,3925.000487768211
1321.1197,3991.404526680054
1322.9982,3907.506742040103
1324.876,3733.9068105256165
1326.753,3343.5043697387864
1328.6293,2923.5490199427386
1330.5048,2487.090327965557
1332.3796,2056.62783139984
1334.2537,1737.4110429672837
1336.127,1500.289454823304
1337.9996,1346.112541749209
1339.8714,1242.0797635234148
1341.7426,1133.6405664632098
1343.6129,1051.7443844650888
1345.4826,964.9906400891409
1347.3515,899.9287453780148
1349.2196,829.8081027244502
1351.087,809.828105521904
1352.9537,776.4881388657527
1354.8197,787.8375797530953
1356.6849,831.9257974161515
1358.5493,888.4521532087647
1360.4131,989.9160001655196
1362.276,1161.6166824364827
1364.1383,1353.7535342725641
1365.9998,1441.1258783085077
1367.8606,1424.033023641527
1369.7206,1393.0242649575785
1371.5799,1404.3488827022875
1373.4384,1403.6061433910418
1375.2962,1314.7952994957395
1377.1533,1090.8655894522185
1379.0096,904.7662385483663
1380.8652,745.9464611634162
1382.7201,617.7054626289387
1384.5742,497.99244081704046
1386.4275,387.70658742277783
1388.2802,303.3470891612824
1390.132,253.41312887062122
1391.9832,223.60388635539084
1393.8336,194.21853888605847
1395.6832,178.65626149705622
1397.5322,147.36622728063094
1399.3803,121.99760754246563
1401.2278,70.14957211458523
1403.0745,39.72128960903774
1404.9204,21.21192793638056
1406.7656,-9.679345390044091
1408.6101,-26.40336306900872
1410.4538,-42.36086110262522
1412.2968,-21.40231172341055
1414.139,-27.127763978878647
1415.9805,16.562946892548553
1417.8213,61.12025665880992
1419.6613,130.59460092221707
1421.5006,275.4364146738799
1423.3391,447.6461315989627
1425.1769,689.0241826282677
1427.0139,1042.0209942161382
1428.8502,1441.386985926677
1430.6858,1787.0225669037786
1432.5206,1916.9281318774702
1434.3547,1942.0040577075551
1436.188,1859.7507020845583
1438.0206,1809.7184032789646
1439.8524,1766.657480963754
1441.6835,1736.1682367147255
1443.5139,1754.8009544411043
1445.3435,1784.2059006904337
1447.1724,1808.0333244622525
1449.0005,1784.0334569140382
1450.8279,1765.2565111229378
1452.6545,1750.3026823257674
1454.4804,1750.7221481067781
1456.3056,1693.9650685471975
1458.13,1635.9815862210335
1459.9536,1544.971826762643
1461.7766,1390.735899446569
1463.5987,1242.5738980976366
1465.4202,1077.4859026333143
1467.2409,904.9219805453313
1469.0608,777.2821885505596
1470.88,620.5165743166531
1472.6984,497.87517773844274
1474.5161,386.80803250559757
1476.3331,315.66516732903256
1478.1493,284.39660705158485
1479.9648,259.0023733594412
1481.7795,239.8324850948229
1483.5935,253.73695850992726
1485.4067,269.7658074586293
1487.2192,289.769043257435
1489.031,317.0966745251967
1490.842,328.59870698307805
1492.6522,320.62514318127523
1494.4618,313.8759823840005
1496.2705,319.1512206492166
1498.0785,322.8508508961286
1499.8858,304.42486285243194
1501.6924,279.97324301731487
1503.4981,259.54597484572014
1505.3032,231.89303899285824
1507.1075,212.36441351848225
1508.911,200.010074163416
1510.7138,198.72999454484125
1512.5159,152.12414627983844
1514.3172,134.34249899818906
1516.1178,110.73502080843627
1517.9176,96.75167847569855
1519.7166,79.5424376577439
1521.515,61.15726304482541
1523.3126,53.69611853177139
1525.1094,48.95896740184071
1526.9055,36.19577240133049
1528.7008,9.056495786950109
1530.4954,11.891099453451716
1532.2893,16.64954520502397
1534.0824,20.731794726946646
1535.8747,12.787809538006059
1537.6663,12.31755094967184
1539.4572,20.370980145536578
1541.2473,27.948058186017988
1543.0367,44.94874592782571
1544.8253,54.47300394818967
1546.6132,85.62079237485614
1548.4003,101.69207079084208
1550.1867,139.03679792295816
1551.9723,183.30493148109417
1553.7572,261.84642778477337
1555.5414,329.86124132046916
1557.3247,467.74932395619135
1559.1074,620.6606242613393
1560.8893,815.9950861278207
1562.6705,1015.3026472409365
1564.4509,1160.3832371260373
1566.2305,1241.53677515545
1568.0094,1287.4131690976687
1569.7876,1289.5123143058204
1571.565,1290.6840932589039
1573.3417,1308.9783755407948
1575.1176,1339.8450178285307
1576.8928,1416.2338637093635
1578.6672,1515.4447433720998
1580.4409,1675.8774728432059
1582.2138,1868.3318529947041
1583.986,2072.607667939841
1585.7575,2295.054683108547
1587.5282,2468.322643204676
1589.2981,2640.311269981534
1591.0673,2724.3202605092047
1592.8358,2777.8492854546603
1594.6035,2802.6979882416695
1596.3704,2733.21598451551
1598.1366,2643.1028618944824
1599.9021,2519.0081806647286
1601.6668,2391.98147468136
1603.4308,2287.6722526094104
1605.194,2271.0799991940985
1606.9564,2354.8041763039214
1608.7182,2573.644223096579
1610.4791,2951.099555181726
1612.2394,3464.36956243258
1613.9988,4049.4536052113617
1615.7576,4522.101009236601
1617.5156,4820.061059732287
1619.2728,4812.682996701404
1621.0293,4479.766011946329
1622.785,3981.1592491426036
1624.54,3365.311807168118
1626.2942,2799.0727450891663
1628.0477,2247.9410883189275
1629.8005,1842.1658342798526
1631.5525,1485.2459579149868
1633.3037,1220.680415745715
1635.0542,1020.6181494409645
1636.804,855.6580884628586
1638.553,713.6491520673405
1640.3013,634.6902509537736
1642.0488,546.2302886850309
1643.7955,489.1181624770852
1645.5416,426.0027640836072
1647.2868,380.1329803670892
1649.0313,352.5576939299938
1650.7751,325.0257835734569
1652.5181,327.28612457303666
1654.2604,329.9875889540351
1656.0019,342.8790454688947
1657.7427,399.7593595701819
1659.4828,488.27739328167354
1661.222,618.7820046295562
1662.9606,796.5220467572428
1664.6984,999.7463666203271
1666.4354,1122.403803209184
1668.1717,1115.593185516726
1669.9072,980.1133313118282
1671.642,770.563047207434
1673.3761,569.0911300153543
1675.1094,397.6963688417709
1676.8419,269.22754710195454
1678.5737,207.63344423421404
1680.3048,145.56283698458333
1682.0351,109.01450002276351
1683.7646,73.43720656282744
1685.4934,68.32972872870528
1687.2215,54.54083790995651
1688.9488,42.119304812843666
1690.6754,37.413899598222315
1692.4012,29.27339200575466
1694.1263,31.796551400965882
1695.8506,29.182146856648387
1697.5742,21.07894712762959
1699.297,4.785720676916526
1701.0191,2.901235756727374
1702.7404,12.32426057142493
1704.461,-8.046436703639301
1706.1808,-4.762088016356756
1707.8999,-14.873844930715904
1709.6182,-1.332811437446935
1711.3358,-7.339942937570413
1713.0527,-8.546181517320065
1714.7688,-8.052395936900894
1716.4841,-11.609369580165549
1718.1987,-7.317805387532644
1719.9126,-11.578290321819168
1721.6257,-16.99133824096748
1723.338,-1.5073473358004321
1725.0496,-13.726546053673019
1726.7605,-9.199147783540639
1728.4706,-0.8252287861644163
1730.18,-21.40477342281929
1731.8886,8.512242189254493
1733.5964,-5.673944233496513
1735.3036,4.486904940252771
1737.0099,1.7950840245298423
1738.7156,8.100887288493823
1740.4204,-1.2953910166472724
1742.1246,2.4565432793071977
1743.8279,15.006997287513741
1745.5306,14.806278094562913
1747.2325,10.854692636976779
1748.9336,12.102547703214213
1750.634,12.200149973187763
1752.3336,24.297806005786697
1754.0325,26.09582223789812
1755.7307,16.09450486343053
1757.4281,30.644159815335343
1759.1247,31.89509286561838
1760.8206,38.79760947984437
1762.5158,40.102014804630926
1764.2102,45.6086135986161
1765.9039,37.26771021942409
1767.5968,32.329608568593585
1769.289,47.544612174985105
1770.9804,42.463024244166036
1772.6711,38.28514750625595
1774.361,48.16128426674595
1776.0502,53.14173644827747
1777.7386,52.37680549188008
1779.4263,62.416792307165906
1781.1132,65.36199727998087
1782.7994,58.76272017200267
1784.4849,66.26926009128897
1786.1696,60.531915558271976
1787.8535,68.95098443069037
1789.5367,71.47676396096494
1791.2192,67.60955071200783
1792.9009,70.64964053196263
1794.5818,77.99732859287928
1796.2621,64.95290936031029
1797.9415,74.81667651983594
1799.6202,74.3389231075073
1801.2982,87.56994141120981
1802.9755,78.41002297544128
1804.6519,82.50945846900004
1806.3277,74.41853777658525
1808.0027,72.48754995780155
1809.6769,88.41678332806987
1811.3504,80.60652547793552
1813.0231,78.30706311377708
1814.6951,82.71868213590801
1816.3664,90.24166766157214
1818.0369,81.57630398082733
1819.7067,91.62287448131497
1821.3757,93.08166173491304
1823.044,89.25294739727201
1824.7115,92.3870121932257
1826.3783,91.88413595507996
1828.0443,103.0445975912703
1829.7096,101.6686750913916
1831.3741,101.35664541459323
1833.0379,108.8087845033383
1834.701,110.07536728652303
1836.3633,107.40666760495651
1838.0248,126.00295819869507
1839.6856,122.31451073372864
1841.3457,118.59159561601837
1843.005,114.23448202838017
1844.6636,125.29343796771605
1846.3214,127.16873028858322
1847.9785,126.66062459260479
1849.6349,129.01938520971794
1851.2904,123.2952752032536
1852.9453,131.2885563463492
1854.5994,131.04948917918978
1856.2528,120.8783329290743
1857.9054,127.22534551280796
1859.5572,134.79078363841313
1861.2083,130.52490274165962
1862.8587,142.92795691040988
1864.5084,137.1501989272781
1866.1572,137.34188014559868
1867.8054,129.70325054720502
1869.4528,134.73455874051206
1871.0994,139.4860520369025
1872.7453,135.8079764004142
1874.3905,143.00057640022442
1876.0349,144.81409524743253
1877.6786,141.09877472313224
1879.3215,144.55485516027534
1880.9637,152.93257548082806
1882.6051,152.7321731612085
1884.2458,152.30388414850904
1885.8858,148.2979428625
1887.525,141.6645821999141
1889.1634,144.6540335745044
1890.8011,140.9665269833789
1892.4381,140.1522909771054
1894.0743,134.21155269658686
1895.7098,154.09453788120322
1897.3446,147.25147092822
1898.9786,145.682574693957
1900.6118,142.53807056222115
1902.2443,135.5681784599925
1903.8761,144.77311688887107
1905.5071,138.1031029947751
1907.1374,144.65835247589348
1908.7669,148.68907964938387
1910.3957,144.39549738582105
1912.0237,140.17781706889048
1913.651,139.48624863832174
1915.2776,150.37100063206697
1916.9034,144.08228019321712
1918.5285,140.12029296115293
1920.1528,124.13524313443327
1921.7764,145.52733351041445
1923.3992,130.4967656451006
1925.0213,131.84373963922326
1926.6427,133.26845428854608
1928.2633,121.57110707039658
1929.8832,152.70189412941738
1931.5023,130.36101039454059
1933.1207,135.1486492676786
1934.7383,133.16500284713482
1936.3552,136.96026187972575
1937.9714,140.53461578061842
1939.5868,135.28825259537814
1941.2015,131.82135896422437
1942.8154,130.2341201744955
1944.4286,133.27672019531678
1946.041,124.24934169347262
1947.6528,129.95216600298113
1949.2637,126.38537321536728
1950.8739,117.94914212263438
1952.4834,123.44365025293257
1954.0921,119.51907395492151
1955.7001,123.97558834282427
1957.3074,119.11336733567373
1958.9139,114.2325836127477
1960.5197,124.38340866219016
1962.1247,109.96601282981987
1963.729,115.83056521762182
1965.3325,115.32723382792108
1966.9353,118.1061855047376
1968.5374,121.26758593881937
1970.1387,118.51159963985356
1971.7393,107.28838990485099
1973.3392,106.59811884570763
1974.9383,101.59094750143629
1976.5366,108.01703584506856
1978.1342,114.07654283372722
1979.7311,107.56962634436468
1981.3273,106.1964431131687
1982.9227,109.35714880063017
1984.5173,111.80189800527614
1986.1112,104.4308442320621
1987.7044,111.89413986792499
1989.2968,103.8419362554946
1990.8885,106.3243836184597
1992.4795,99.79163114209018
1994.0697,106.49382694841324
1995.6592,99.93111816154044
1997.2479,106.55365084064488
1998.8359,103.11157004558936
2000.4232,102.90501977070073
2002.0097,114.43414297919117
2003.5955,102.24908160522273
2005.1805,99.79997643861634
2006.7648,97.98696724670299
2008.3484,102.81019279881389
2009.9312,100.86979088441137
2011.5133,96.56589826485515
2013.0946,100.1486506928079
2014.6752,106.4681829552743
2016.2551,101.92462883777262
2017.8342,95.21812106113987
2019.4126,91.79879132696749
2020.9902,87.86677038466587
2022.5672,93.17218806565802
2024.1433,94.41517332269893
2025.7188,95.79585417682301
2027.2935,88.56435770491225
2028.8674,91.6208100258915
2030.4406,89.56533637304199
2032.0131,93.0480610634379
2033.5849,82.5691075185008
2035.1559,86.87859822917198
2036.7261,87.77665486070248
2038.2957,84.66339820955682
2039.8645,89.5389481944336
2041.4325,96.15342388739771
2042.9998,86.85694346512457
2044.5664,86.14962414275578
2046.1323,97.43158226686444
2047.6974,89.6029333225282
2049.2617,84.61379182050973
2050.8254,85.46427137554258
2052.3883,91.20448475622288
2053.9504,88.33454387650409
2055.5118,78.90455973829523
2057.0725,81.11464246016021
2058.6325,86.1149013716182
2060.1917,75.60544499104094
2061.7502,72.28638097565226
2063.3079,81.50781622662191
2064.8649,79.06985692225635
2066.4212,78.27260842578403
2067.9767,82.36617530973444
2069.5315,77.50066136391195
2071.0856,76.07616955445928
2072.6389,82.8928020725125
2074.1915,82.85066034844772
2075.7433,73.5998449837125
2077.2945,74.69045575124869
2078.8448,78.47259168799985
2080.3945,72.2463510840048
2081.9434,75.16183144457693
2083.4916,74.31912955256621
2085.039,79.31834143920491
2086.5857,74.00956239253367
2088.1317,67.14288690741091
2089.677,78.01840873859976
2091.2215,72.63622096943482
2092.7652,75.9964159030668
2094.3083,69.84908511628498
2095.8506,67.44431942591382
2097.3921,65.73220895028817
2098.933,78.0128431332995
2100.4731,79.1363107615174
2102.0124,71.55269984138306
2103.5511,69.51209758797563
2105.089,74.414590500847
2106.6261,76.51026438442909
2108.1626,71.44920429900787
2109.6983,68.88149453976689
2111.2332,79.25721868739856
2112.7675,77.72645963378068
2114.301,74.08929947821866
2115.8337,74.49581954275425
2117.3657,71.39610040853677
2118.897,73.04022191175727
2120.4276,74.07826317464628
2121.9575,72.01030258903256
2123.4866,76.98641780596176
2125.0149,72.65668575637756
2126.5426,59.52118260135933
2128.0695,66.62998377542021
2129.5956,70.68316411786111
2131.1211,68.03079780168434
2132.6458,69.32295829306076
2134.1698,72.75971837785323
2135.693,67.19115014869578
2137.2155,67.36732497062496
2138.7373,72.58831353676646
2140.2584,57.104185866572266
2141.7787,59.26501125361153
2143.2983,65.77085842041186
2144.8171,60.12179549685027
2146.3353,63.16788995509603
2147.8527,67.25920866610045
2149.3693,60.395817869135726
2150.8853,65.47778313088213
2152.4005,64.40516941406224
2153.9149,58.82804102662135
2155.4287,64.14646163245311
2156.9417,56.81049430717144
2158.454,55.720201484925155
2159.9655,60.82564503175922
2161.4764,62.72688625651722
2162.9865,56.8739858597861
2164.4958,60.767003914884526
2166.0045,55.45599992639188
2167.5124,61.841032791217685
2169.0195,53.87216085171133
2170.526,50.49944183181299
2172.0317,60.222932916741456
2173.5367,54.04269078672144
2175.0409,49.408771519748484
2176.5445,64.12123065339131
2178.0473,52.38012323113162
2179.5494,49.285503655238585
2181.0507,46.43742580418075
2182.5513,54.78594306357206
2184.0512,52.48110835465229
2185.5504,61.272974050802645
2187.0488,52.611592000593646
2188.5465,64.89701343986621
2190.0435,48.02928907834598
2191.5397,49.308468976788845
2193.0353,55.28460271565871
2194.5301,51.45773938233435
2196.0241,53.47792751134989
2197.5175,49.545215122661375
2199.0101,52.40964970144614
2200.502,48.12127823742958
2201.9931,46.78014719624025
2203.4835,41.33630256229526
2204.9733,46.539789852210106
2206.4622,48.19065416923752
2207.9505,52.68894015123317
2209.438,46.93469195414639
2210.9248,38.7279532070371
2212.4109,33.768767069619
2213.8962,37.30717631432606
2215.3809,38.393223375905336
2216.8648,40.42695031603262
2218.3479,36.15839881245165
2219.8304,38.43761013863673
2221.3121,34.66462520647872
2222.7931,31.73948454349295
2224.2733,32.61222833054808
2225.7529,30.532896431118616
2227.2317,36.5015283825561
2228.7098,29.868163416883704
2230.1872,26.082840401109138
2231.6638,28.095597903559224
2233.1397,32.606474231732136
2234.6149,32.46550741216993
2236.0894,33.27273514535
2237.5632,35.078194807094405
2239.0362,30.48192344049812
2240.5085,24.18395773787438
2241.9801,23.484334086717354
2243.4509,30.083088632682347
2244.921,25.630257286580445
2246.3904,30.225875658392283
2247.8591,20.06997910179689
2249.3271,23.362602668214436
2250.7943,16.503781208365012
2252.2608,23.143549339343167
2253.7266,25.98194151320547
2255.1917,14.768991950573763
2256.656,13.554734612251082
2258.1197,11.089203311350616
2259.5826,12.872431725438446
2261.0447,25.904453421189373
2262.5062,14.085301836554095
2263.9669,13.665010150439116
2265.4269,17.993611400897976
2266.8862,20.27113848933402
2268.3448,20.947624137214802
2269.8026,20.87310086329603
2271.2598,17.04760097685744
2272.7162,16.421156578448063
2274.1719,11.44379959814114
2275.6268,12.165561801798958
2277.0811,9.986474840846654
2278.5346,19.506570245054263
2279.9874,11.175879444327052
2281.4395,17.84443367350434
2282.8908,14.812264055667583
2284.3414,13.829401535453485
2285.7914,18.645876909375943
2287.2406,9.21172083565557
2288.689,18.926963786053875
2290.1368,15.441636140216701
2291.5838,18.855768088520563
2293.0302,17.969389666925622
2294.4758,19.33253072283412
2295.9206,14.29522092395473
2297.3648,12.807489744670647
2298.8082,26.21936651641215
2300.251,13.730880442535408
2301.693,14.842060464203314
2303.1343,17.30293538527087
2304.5748,10.86353386117139
2306.0147,15.77388437430875
2307.4538,12.78401529845246
2308.8922,9.64395484963336
2310.3299,9.153731116041854
2311.7669,8.763372089429026
2313.2031,8.072905670008538
2314.6387,10.482359670360893
2316.0735,13.541761822338003
2317.5076,1.5011397529685837
2318.941,20.21052095386335
2320.3737,16.51991792024694
2321.8056,14.829342945238693
2323.2369,15.93880815675982
2324.6674,14.798325534437936
2326.0972,14.107906898512397
2327.5263,16.767563921240537
2328.9547,20.877308133799886
2330.3823,18.437150899692654
2331.8092,10.247103373649338
2333.2355,16.257176526028104
2334.661,3.017381224715791
2336.0858,11.977728175028346
2337.5098,8.688197938643384
2338.9332,8.448770957462841
2340.3558,7.309427586507752
2341.7778,3.5701480963111862
2343.199,13.180912684312375
2344.6195,12.59170151224896
2346.0393,7.052494610049678
2347.4583,10.563271881726564
2348.8767,17.874013160766992
2350.2943,15.184698175025574
2351.7113,7.3453064736172
2353.1275,18.755817453809982
2354.543,14.76621043941907
2355.9578,18.82646456670136
2357.3718,16.686558824251904
2358.7852,14.496472012401
2360.1978,10.006182764613925
2361.6098,2.6656695693911843
2363.021,7.824910815171904
2364.4315,9.083884863738547
2365.8413,14.642569998624879
2367.2504,14.800944412526007
2368.6587,13.208986151711827
2370.0664,15.266673114442767
2371.4733,10.32398306688981
2372.8795,13.380893622557323
2374.285,10.587382291710412
2375.6899,8.643426450805123
2377.0939,8.849003370423986
2378.4973,8.454090234715409
2379.9,12.758664139338066
2381.3019,12.312702095409747
2382.7032,12.916180986462052
2384.1037,14.469077572899494
2385.5035,8.02136848596524
2386.9027,8.22303021221154
2388.3011,4.474039157977302
2389.6987,16.82437164737115
2391.0957,14.524003959761615
2392.492,0.672912206273736
2393.8876,4.771072352792714
2395.2824,4.268453642810414
2396.6765,7.515025272108289
2398.07,2.7607563937836517
2399.4627,6.1056160857833675
2400.8547,10.149573398446876
2402.246,8.142597321057963
2403.6366,2.0846567414046717
2405.0265,3.1257204658493833
2406.4156,3.3657572799081663
2407.8041,1.0047359378402234
2409.1918,5.692625160247076
2410.5789,2.1793936576835335
2411.9652,8.865010083778031
2413.3508,10.09944307036534
2414.7358,5.982661160630073
2416.12,4.014632796762783
2417.5035,5.4453263611274565
2418.8863,2.4747101959422366
2420.2684,5.302752588971828
2421.6497,10.079421803234482
2423.0304,8.954686048720987
2424.4104,10.578513434628235
2425.7896,1.3008719806067006
2427.1682,0.5717296005215076
2428.546,6.491054195229594
2429.9232,9.658813659870816
2431.2996,5.174975824674561
2432.6753,10.5395084232822
2434.0503,1.7523791375854216
2435.4246,5.16355554408085
2436.7982,4.2730052017420235
2438.1711,7.380695617906838
2439.5433,5.786594257183424
2440.9148,4.940668510372973
2442.2856,0.34288571041111027
2443.6557,9.1932131408268
2445.025,3.2416180817202758
2446.3937,-2.6619322787399256
2447.7617,5.832529215198747
2449.1289,-0.12500368800812112
2450.4955,4.365462701770184
2451.8613,8.053922075914556
2453.2265,3.1403680821516105
2454.5909,8.524794287669067
2455.9546,4.207194228251183
2457.3177,5.287561354434445
2458.68,2.96588907468373
2460.0416,11.092170744588543
2461.4025,7.766399690079595
2462.7627,0.3885691261660895
2464.1222,9.708672190193283
2465.4811,5.426702015620947
2466.8392,8.192651638822554
2468.1966,2.6565140419044724
2469.5533,11.568282125047062
2470.9093,8.727948761865662
2472.2645,17.13550671029276
2473.6191,14.990948640981856
2474.973,7.994267053231056
2476.3262,14.395454296429307
2477.6787,8.194502640022904
2479.0305,8.441404209503844
2480.3816,13.586151048419254
2481.7319,8.028735115902464
2483.0816,10.019148235225657
2484.4306,15.957382149373757
2485.7789,17.393428501140306
2487.1264,16.97727877374541
2488.4733,8.608924276474852
2489.8195,10.938356148841592
2491.165,21.065565444269623
2492.5097,14.790543106799362
2493.8538,16.613279869815642
2495.1972,10.28376631879803
2496.5398,16.351992873093423
2497.8818,13.717949849211152
2499.2231,17.43162740014077
2500.5637,14.643015541693046
2501.9035,14.052104115362056
2503.2427,13.908882816212326
2504.5812,16.913341198787236
2505.919,16.215468678541527
2507.256,14.865254501796585
2508.5924,17.61268775271924
2509.9281,19.657757366823603
2511.2631,13.600452103497275
2512.5974,14.940760525550616
2513.9309,20.678671059789508
2515.2638,11.364171983612493
2516.596,11.147251367631554
2517.9275,16.827897168816946
2519.2583,23.80609723266656
2520.5884,15.231839236399423
2521.9178,23.405110619173627
2523.2465,16.025898667829267
2524.5745,19.344190435155326
2525.9018,16.40997281368209
2527.2284,17.873232502498126
2528.5543,13.483956036592133
2529.8796,15.342129772220972
2531.2041,18.4977399308018
2532.5279,19.70077258033075
2533.851,17.201213603826375
2535.1735,16.699048687299864
2536.4952,20.29426334475039
2537.8163,21.086842923187078
2539.1366,18.726772566676516
2540.4562,15.764037208416937
2541.7752,18.048621594338954
2543.0935,17.580510312733054
2544.411,18.15968777140381
2545.7279,20.33613820235081
2547.0441,20.509845655976903
2548.3596,18.630793979323585
2549.6744,18.798966814334335
2550.9885,20.364347616644693
2552.3019,21.17691965390054
2553.6146,15.636665990104461
2554.9266,27.593569477490405
2556.2379,23.047612811925433
2557.5485,22.498778413341086
2558.8585,23.847048471192863
2560.1677,23.742404949948536
2561.4762,28.33482957560551
2562.7841,19.37430383673734
2564.0913,23.110808938569562
2565.3977,23.49432589258504
2566.7035,26.024835479158583
2568.0086,25.902318243721822
2569.313,26.12675447145824
2570.6167,24.898124188528186
2571.9197,26.516407159824666
2573.222,30.031582901259583
2574.5236,29.94363066358079
2575.8246,24.252529397220655
2577.1248,29.608257753175394
2578.4244,32.76079413991613
2579.7232,35.6101166698316
2581.0214,31.806203127702588
2582.3189,34.79903094220879
2583.6157,34.03857722396816
2584.9118,34.67481873560831
2586.2072,33.15773189937147
2587.5019,32.03729279075168
2588.7959,35.16347715366584
2590.0893,39.186260411658054
2591.3819,33.3556176366377
2592.6739,42.37152350865182
2593.9652,36.23395237419146
2595.2557,38.69287815603229
2596.5456,47.648274414610626
2597.8348,45.300114323433945
2599.1234,45.39837057952724
2600.4112,48.79301542691445
2601.6983,54.23402065563607
2602.9848,46.571357567802636
2604.2705,52.25499692318459
2605.5556,46.434909015838855
2606.84,45.96106361727254
2608.1237,54.88343003464371
2609.4067,49.95197711549997
2610.689,49.016673158554624
2611.9707,44.37748596300128
2613.2516,41.88438283786718
2614.5319,42.33733064840493
2615.8115,47.3862958410233
2617.0903,37.58124443875812
2618.3685,45.42214199078256
2619.6461,41.60895367045731
2620.9229,45.041644196921936
2622.199,42.62017787322657
2623.4745,39.89451855200508
2624.7493,44.664629659689666
2626.0234,42.830474223767595
2627.2968,40.442014825079866
2628.5695,34.69921361616281
2629.8415,39.65203234513268
2631.1128,45.55043241311381
2632.3835,39.99437482471035
2633.6535,44.33382012902206
2634.9228,43.968728475204955
2636.1914,43.099059569076985
2637.4593,38.324772676768845
2638.7265,49.39582663342097
2639.9931,44.3121798909263
2641.259,45.72379040721947
2642.5242,37.380615697113456
2643.7887,38.93261281818346
2645.0525,40.42973845419846
2646.3156,36.57194889960161
2647.5781,40.859200044538625
2648.8398,40.19144741343618
2650.1009,42.21864612212889
2651.3613,40.0907508845373
2652.6211,39.1077159923955
2653.8801,38.96949533653009
2655.1385,34.3260424166906
2656.3961,35.07731034293164
2657.6531,34.67325188204748
2658.9094,37.76381945005963
2660.1651,30.898965116257102
2661.42,35.4286405722909
2662.6743,38.152797200822334
2663.9279,42.27138603022675
2665.1808,43.134357707351455
2666.433,44.29166245633019
2667.6846,41.49325006995315
2668.9354,42.08906989809415
2670.1856,49.229070875694646
2671.4351,48.91320151680554
2672.6839,54.34140984318722
2673.9321,54.063643387467835
2675.1795,51.77984913886169
2676.4263,56.83997354594666
2677.6724,55.243962539502235
2678.9179,55.14176148190839
2680.1626,56.833315183105526
2681.4067,58.81856790161663
2682.6501,57.29746332763176
2683.8928,58.46994456315511
2685.1348,49.385954137216714
2686.3761,48.145433994147254
2687.6168,51.64832558441799
2688.8568,43.894569877046024
2690.0961,39.83410732456542
2691.3348,41.06687794056458
2692.5727,42.94282134029095
2693.81,33.411876728323364
2695.0466,38.12398287981247
2696.2826,35.12907823579036
2697.5178,39.97710085604936
2698.7524,42.517988449091206
2699.9863,44.50167832364656
2701.2195,42.67810736326635
2702.452,45.497212006484915
2703.6839,49.308928265055584
2704.9151,50.863191695759724
2706.1456,50.30993736228919
2707.3755,52.79909981970425
2708.6046,56.23061311996577
2709.8331,57.05441078704348
2711.0609,59.920425782601285
2712.2881,63.07859049775905
2713.5145,65.62883672443252
2714.7403,64.2210956237517
2715.9654,72.15529770055832
2717.1899,69.38137281748305
2718.4136,77.29925011560383
2719.6367,85.5588580421848
2720.8591,95.21012427149782
2722.0809,90.10297562222618
2723.3019,97.23733796095223
2724.5223,100.36313625322862
2725.7421,98.23029449223478
2726.9611,94.98873566751874
2728.1795,94.73838178632585
2729.3972,88.52915390601427
2730.6142,77.96097213655841
2731.8306,75.5337557026412
2733.0462,77.14742304933588
2734.2612,66.7018918663783
2735.4756,62.24707907203009
2736.6892,55.13290091753424
2737.9022,57.409273031663076
2739.1145,56.77611049185984
2740.3262,46.283327801475366
2741.5372,47.38083889609936
2742.7475,41.16855724848858
2743.9571,43.14639585759133
2745.1661,38.21426731067055
2746.3744,34.67208376352545
2747.582,31.719756989812424
2748.7889,30.707198416467435
2749.9952,23.384319153228887
2751.2008,22.901030002763264
2752.4057,22.25724153389413
2753.61,17.902864086434874
2754.8136,14.837807777626608
2756.0165,16.811982545681815
2757.2188,17.625298180435067
2758.4204,13.927664303601034
2759.6213,19.068990360641408
2760.8215,14.899185657741384
2762.0211,17.518159310396214
2763.22,8.425820285109552
2764.4182,13.822077373203342
2765.6158,15.95683928174168
2766.8127,13.480014579567808
2768.009,11.291511675956798
2769.2045,12.941238845383623
2770.3994,9.529104249408164
2771.5936,6.455015920177857
2772.7872,2.1188817945491394
2773.9801,-5.129390255171614
2775.1723,-2.439892377866755
2776.3639,1.087334520189927
2777.5548,2.0522739072492584
2778.745,-0.24509075931115376
2779.9346,-1.2047760426362686
2781.1235,-3.926796057414549
2782.3117,-1.6611528826219342
2783.4992,-3.5578093685418253
2784.6861,-4.366711770540547
2785.8723,-4.53777080146881
2787.0579,-0.020853550726940284
2788.2428,2.2842182246150458
2789.427,-6.222377024186073
2790.6106,-1.5404608687155985
2791.7935,-7.269792719012429
2792.9757,0.08988340408836848
2794.1573,0.33889610498104616
2795.3382,-1.1724260128389403
2796.5184,-5.243754349264833
2797.698,0.4752514083458834
2798.8769,1.5349839577416162
2800.0551,-2.314164008081832
2801.2327,2.228200188521811
2802.4096,7.312492343696874
2803.5859,3.6891282313060003
2804.7615,6.758523552086842
2805.9364,12.421093969885703
2807.1106,13.577255080963766
2808.2842,15.377422357371046
2809.4572,20.12201113538555
2810.6294,24.861436597511187
2811.801,34.14611372503211
2812.972,40.17645725061814
2814.1423,43.202881565478094
2815.3119,53.62580065905621
2816.4808,67.59562808876817
2817.6491,80.91277687577173
2818.8167,97.82765936526852
2819.9837,120.74068709333258
2821.15,145.00227061776144
2822.3157,171.51281928894576
2823.4807,199.92274100725382
2824.645,232.03244195792547
2825.8086,278.4923263269735
2826.9716,319.752795980086
2828.134,354.464249998028
2829.2957,385.6770842640367
2830.4567,415.6416911167069
2831.617,422.1084590378624
2832.7767,446.1277723529107
2833.9358,441.3500111661747
2835.0941,432.07555112069923
2836.2519,416.3547634460297
2837.4089,403.53801505095583
2838.5653,384.4756686807195
2839.7211,372.9680830451829
2840.8761,358.61561300945164
2842.0306,356.2186097089505
2843.1843,360.47742069294816
2844.3374,357.64238994852764
2845.4899,371.5138578579973
2846.6417,380.5921612272424
2847.7928,394.1276331470092
2848.9433,390.92060290212277
2850.0931,397.771395836132
2851.2422,403.7803333833799
2852.3907,402.0977330004956
2853.5385,412.0239081063054
2854.6857,410.9091680986578
2855.8323,419.00381825516274
2856.9781,430.1081597443387
2858.1233,437.7224895446658
2859.2679,458.34710033354264
2860.4118,481.4822804111434
2861.555,490.4283134941709
2862.6976,508.3354784845052
2863.8395,521.3040493797438
2864.9808,529.284295094129
2866.1214,536.7764793288626
2867.2614,547.1308604923038
2868.4007,553.4476916250468
2869.5393,564.8772202963776
2870.6773,574.7696885411052
2871.8146,594.0253327452667
2872.9513,601.1443835472026
2874.0874,611.3770656449997
2875.2227,622.7235977253015
2876.3574,630.4841923609811
2877.4915,643.6590558976751
2878.6249,653.0983883761794
2879.7577,656.2523834006985
2880.8898,669.7712280444538
2882.0212,689.8551028181427
2883.152,709.3541815347506
2884.2821,708.3686311087122
2885.4116,734.5986113609199
2886.5405,733.6942750285805
2887.6686,737.1057675029151
2888.7962,735.033226838201
2889.923,736.676783717659
2891.0493,741.8865614741771
2892.1748,734.8626760738762
2893.2997,729.5052360640108
2894.424,744.8643426432095
2895.5476,734.5900897150484
2896.6706,738.4825637344602
2897.7929,740.0918438104768
2898.9145,735.618001667305
2900.0355,741.6111016282327
2901.1559,730.6212006603682
2902.2756,726.248348314709
2903.3946,719.2925868360401
2904.513,709.1039512066636
2905.6308,707.1324692159559
2906.7479,700.0781615622539
2907.8643,709.6910418725697
2908.9801,706.9211167731346
2910.0953,701.168385793269
2911.2098,700.9328413930824
2912.3236,696.2144690210002
2913.4368,692.8132471161201
2914.5494,697.0791471553946
2915.6613,678.6621336876442
2916.7725,674.1621642908977
2917.8831,662.3791897565628
2918.9931,642.4631541344257
2920.1024,630.0639948504808
2921.211,629.9316429060909
2922.319,614.8160230019789
2923.4264,614.9670535395516
2924.5331,599.6346467720552
2925.6391,603.8687088030658
2926.7445,605.5191397398135
2927.8493,609.0358336508407
2928.9534,604.2186785494993
2930.0569,609.4175563587823
2931.1597,628.7823429594971
2932.2619,627.2629081382743
2933.3634,628.0591153939221
2934.4643,643.7208219526195
2935.5645,647.2978787599543
2936.6641,657.1901303243069
2937.763,666.1474146810779
2938.8613,667.9695632937676
2939.959,648.7064009644016
2941.056,642.0077458153107
2942.1523,607.2234094817612
2943.248,570.2531971789424
2944.3431,544.2469080498092
2945.4375,499.05433553478514
2946.5313,465.8252676318244
2947.6244,428.30948734833817
2948.7169,406.25677303348516
2949.8087,360.8168987533292
2950.8999,335.5396345113668
2951.9904,310.3247467029251
2953.0803,293.2719983679352
2954.1696,270.3311494430811
2955.2582,255.40195693232644
2956.3462,243.6341751363239
2957.4335,238.87755580170656
2958.5202,232.88184823876588
2959.6062,230.39679936901783
2960.6916,244.6721537851601
2961.7764,235.90765377592257
2962.8605,230.55303918331344
2963.9439,243.4580474902648
2965.0267,241.3724138741781
2966.1089,239.14587107787474
2967.1905,232.22814943045165
2968.2714,228.2189768695473
2969.3516,218.36807901051907
2970.4312,221.22517918653432
2971.5102,217.58999854707974
2972.5885,217.76225602939047
2973.6662,234.2416683948018
2974.7432,234.17795022702657
2975.8196,225.17081376736104
2976.8954,234.8699689153218
2977.9705,233.82512331871771
2979.045,230.2359822766578
2980.1188,237.70224875
2981.192,227.67362339724235
2982.2645,223.3498044998605
2983.3364,216.63048806259388
2984.4077,203.6153678566841
2985.4783,195.2541354870679
2986.5483,182.79648052252855
2987.6177,177.14209057930793
2988.6864,164.19065144568341
2989.7545,154.89184713851134
2990.8219,145.39536003274168
2991.8887,135.35087095440596
2992.9548,124.20805927558223
2994.0204,112.36660301483988
2995.0852,111.22617894866767
2996.1495,89.6864627298884
2997.2131,79.9471288990633
2998.276,73.65785109988909
2999.3383,54.5683021765912
3000.4,49.92815423681674
3001.4611,37.98707884252997
3002.5215,36.89474705641345
3003.5812,25.700829561279278
3004.6404,22.454996670992045
3005.6989,16.60691844240793
3006.7567,16.806264707833265
3007.8139,13.102705133505339
3008.8705,11.24590921759878
3009.9264,7.235546327261176
3010.9818,4.271285717181399
3012.0364,4.25279656969272
3013.0905,0.42974802441577253
3014.1439,-0.24819082155664773
3015.1966,-3.5313508754293252
3016.2487,-1.8700605649807756
3017.3002,-3.3146130397943807
3018.3511,-4.865282767548393
3019.4013,-0.37231110293689085
3020.4509,-5.535890796479123
3021.4998,-1.7062108793065818
3022.5481,0.41659492099830686
3023.5958,-2.967590078100386
3024.6428,-5.058882563304422
3025.6892,-1.50736957509082
3026.735,1.0369123843001375
3027.7802,4.173941871250236
3028.8247,-5.546302568228029
3029.8685,-2.0738424298614575
3030.9118,2.941356198185872
3031.9544,2.249347945435588
3032.9963,1.800187411995907
3034.0376,4.29392917548158
3035.0783,4.030627795505495
3036.1184,10.86033778874139
3037.1578,4.633113631556654
3038.1966,9.249009691715415
3039.2348,13.708080290650713
3040.2723,13.460379657305282
3041.3092,17.355961883541156
3042.3455,15.69488092661669
3043.3811,16.977190570230476
3044.4161,24.10294444113245
3045.4505,20.92219599630063
3046.4842,20.68499845168367
3047.5173,22.09140481400827
3048.5498,20.591467883151296
3049.5816,20.285240238075474
3050.6128,25.22277425182901
3051.6434,26.654122094607786
3052.6734,25.529335684379987
3053.7027,22.34846667257267
3054.7314,27.66156645531953
3055.7594,30.618686205269697
3056.7868,31.119876818456746
3057.8136,32.46518888472738
3058.8398,34.20467268272964
3059.8653,35.68837816645966
3060.8902,39.76635494786696
3061.9145,39.588652282017236
3062.9381,42.055319026312716
3063.9612,48.36640364226915
3064.9835,44.7719541708491
3066.0053,47.82201816935121
3067.0264,47.66664274735459
3068.0469,52.0558745362182
3069.0668,49.03975969063468
3070.086,52.16834384473799
3071.1046,43.29167214226442
3072.1226,49.609789205267006
3073.1399,44.72273922288207
3074.1567,39.980565888148135
3075.1727,47.33331244687639
3076.1882,40.58102174507232
3077.203,40.82373615540851
3078.2173,37.06149764474722
3079.2308,37.044347771713475
3080.2438,35.72232772431737
3081.2561,32.045478320125525
3082.2678,27.263840019481435
3083.2789,27.27745296227377
3084.2893,30.9863570157529
3085.2991,20.240591774394687
3086.3083,22.34019652281151
3087.3169,22.68521034320979
3088.3248,21.075672094394065
3089.3321,20.66162040831675
3090.3388,22.743093706173596
3091.3449,19.6701302025441
3092.3503,22.94276788457691
3093.3551,20.811044542719443
3094.3593,20.674997737991447
3095.3629,17.6846648233023
3096.3658,20.840082944811428
3097.3681,21.4912890718317
3098.3698,16.38831996527513
3099.3708,11.53121217114085
3100.3713,17.020002071544866
3101.3711,13.104725933291007
3102.3702,14.385419852983205
3103.3688,20.11211979617812
3104.3667,16.63486158457826
3105.364,15.303680838764947
3106.3607,16.818613012970886
3107.3568,16.629693408392043
3108.3522,12.736957158038322
3109.347,12.8404392286227
3110.3412,12.290174459488618
3111.3348,13.936197561575185
3112.3277,13.578543122919747
3113.32,13.717245592197756
3114.3117,13.152339282299259
3115.3028,13.533858368941878
3116.2932,7.361836896319893
3117.2831,10.686308773289035
3118.2723,8.357307835086722
3119.2608,11.274867810087336
3120.2488,10.189022343092198
3121.2361,9.999804966153981
3122.2229,11.307249109435197
3123.209,9.711388103100312
3124.1944,9.262255164241381
3125.1793,8.859883412836595
3126.1635,6.204305876241612
3127.1471,8.545555493213271
3128.1301,9.333665140465385
3129.1125,6.518667609256198
3130.0942,5.900595597507369
3131.0753,6.479481737953854
3132.0558,8.755358604324684
3133.0357,7.028258705554137
3134.015,12.348214463022913
3134.9936,6.465258227829146
3135.9716,5.129422227588876
3136.949,7.490738625265578
3137.9258,8.149239532528497
3138.902,10.304956986139551
3139.8775,10.507922941368264
3140.8524,9.158169250434618
3141.8267,8.205727660479361
3142.8004,9.050629827061584
3143.7735,11.89290732368309
3144.7459,9.882591633339402
3145.7178,9.719714120096995
3146.689,11.604306049196431
3147.6596,10.93639858868113
3148.6295,12.216022790551513
3149.5989,10.893209597444006
3150.5676,12.017989829834882
3151.5357,10.8903941992683
3152.5032,11.360453297108563
3153.4701,11.778197605816025
3154.4364,11.79365749424651
3155.402,7.406863213473883
3156.367,9.36784489663544
3157.3315,11.776632602799893
3158.2952,13.633256297357477
3159.2584,11.287745827932113
3160.221,8.590130905815201
3161.1829,12.640441129420687
3162.1442,15.78870601126124
3163.105,14.284954937445129
3164.065,11.929217136193571
3165.0245,18.37152169287824
3165.9834,18.211897573578668
3166.9416,15.200373560659166
3167.8993,13.836978254365079
3168.8563,11.92174010293802
3169.8127,10.204687416249818
3170.7684,16.18584838495491
3171.7236,13.765251097660862
3172.6782,14.692923481116797
3173.6321,15.618893324419314
3174.5854,13.443188269735824
3175.5381,14.915835803044807
3176.4902,16.136863275892882
3177.4417,16.706297890668328
3178.3926,16.6741666883908
3179.3428,18.190496543017005
3180.2924,16.305314161762002
3181.2415,18.71864606993586
3182.1899,17.830518629795566
3183.1377,14.940958016411635
3184.0848,16.299990226549387
3185.0314,12.807641107564603
3185.9773,15.463936343813192
3186.9227,17.518901491574645
3187.8674,16.422561952489115
3188.8115,18.224942953007748
3189.755,18.02606955535607
3190.6979,19.925966639510197
3191.6402,19.82465890518557
3192.5818,18.37217085283797
3193.5229,20.768526784676606
3194.4633,22.013750819188992
3195.4031,18.00786686717737
3196.3423,18.550898619306526
3197.2809,16.44286958616258
3198.2189,21.133803092822653
3199.1563,18.823722299935213
3200.0931,22.71265015681069
3201.0292,19.050609424522317
3201.9648,23.68762263701683
3202.8997,19.373712137734856
3203.834,20.15890003324082
3204.7677,22.343208236362017
3205.7008,20.62665845833675
3206.6333,21.159272186971222
3207.5652,22.691070703805096
3208.4964,23.622075078785286
3209.4271,24.60230615494803
3210.3571,20.531784539108813
3211.2865,24.0105305920601
3212.2154,19.7885644692765
3213.1436,25.115906086127335
3214.0712,25.942575160096286
3214.9982,25.418591157507986
3215.9246,26.493973285261323
3216.8503,23.268740496069285
3217.7755,21.542911477705132
3218.7001,20.5665046852547
3219.624,24.739538358374727
3220.5473,27.36203053105691
3221.4701,28.983998989897536
3222.3922,27.705461247872634
3223.3137,28.876434528118217
3224.2346,25.69693577671569
3225.1549,27.916981650982105
3226.0746,28.036588551265147
3226.9937,27.055772598742685
3227.9121,29.0245496342267
3228.83,24.59293522797147
3229.7473,29.01094465998576
3230.6639,29.22859296434901
3231.5799,24.695894885031198
3232.4954,26.96286487371639
3233.4102,29.279517135129687
3234.3244,25.395865604367557
3235.238,32.261923923731274
3236.151,29.677705481563446
3237.0634,27.79322334358745
3237.9752,30.208490278749604
3238.8864,27.72351877806402
3239.797,29.7883210304599
3240.7069,29.602908947631278
3241.6163,33.367294143388975
3242.5251,33.28148793551473
3243.4332,30.04550130811734
3244.3408,32.7593449124907
3245.2477,32.92302909947371
3246.154,28.036563892311833
3247.0598,28.949958985020217
3247.9649,27.213223791248417
3248.8694,32.976367435146386
3249.7733,33.689398768731834
3250.6766,30.6523263142588
3251.5793,31.015158257087336
3252.4814,33.37790247605422
3253.3829,32.19056653984465
3254.2838,34.85315768336484
3255.1841,31.665682819615284
3256.0838,34.32814851306496
3256.9829,34.940561011525986
3257.8814,35.702926219528976
3258.7792,36.61524969219898
3259.6765,32.62753662763176
3260.5731,35.93979185777057
3261.4692,31.452019888283317
3262.3647,34.01422486543997
3263.2595,33.67641062099034
3264.1538,35.68858064654193
3265.0474,35.70073809693817
3265.9404,32.56288577013666
3266.8329,36.77502610708761
3267.7247,35.73716122311239
3268.616,36.09929286578208
3269.5066,32.66142242529616
3270.3966,35.12355093086114
3271.286,35.13567908506934
