RamanShift,CorrectedData
30.1047,120.21971319942841
32.3739,109.4148399840606
34.6426,102.55996556649563
36.9109,90.905087650388
39.1787,80.75020291379248
41.4461,73.39530712571296
43.7131,62.440395247651296
45.9796,59.0354615071562
48.2456,50.1804995073724
50.5112,36.52550226108997
52.7764,30.170462279293965
55.0411,18.965371707714404
57.3054,9.560222390376682
59.5692,0.9550059816524623
61.8326,-6.1002859596888115
64.0955,-15.055661884427755
66.3579,-22.061069301488278
68.6199,-29.56630531373207
70.8815,-30.620946633938505
73.1426,-27.974274607496916
75.4032,-6.325264676539803
77.6634,50.627387179803605
79.9231,204.28504817179822
82.1824,526.6990850034351
84.4412,1069.5708623358548
86.6995,1754.2517395632074
88.9574,2410.6430653839334
91.2148,2836.7461709539575
93.4717,3008.962363322773
95.7282,3026.6429211724108
97.9842,2981.839093095279
100.2398,2934.9020974173577
102.4949,2859.983122646234
104.7495,2811.483327940475
107.0036,2739.5038438588176
109.2573,2648.4457728451644
111.5105,2553.710189948379
113.7632,2440.3981437328703
116.0154,2315.860657225941
118.2672,2206.8487290509156
120.5185,2080.6633346725116
122.7693,1992.3054274869592
125.0197,1910.9759400838554
127.2696,1810.6757851297425
129.519,1788.4558561814047
131.7679,1743.6670286888677
134.0163,1711.5601602175993
136.2642,1673.6360908963973
138.5117,1651.2956437384573
140.7587,1601.4396250206148
143.0052,1542.9688245067491
145.2512,1492.9840159463427
147.4967,1430.43595765919
149.7417,1379.1253930352464
151.9863,1349.3030511601064
154.2304,1324.1196473281116
156.4739,1321.3258833405732
158.717,1318.8224477576064
160.9596,1314.2600159260674
163.2017,1328.5892500045884
165.4433,1328.0607990092017
167.6844,1299.0252986700475
169.925,1251.6333714366583
172.1651,1182.7856267683137
174.4047,1130.5826616079594
176.6439,1076.5250610706858
178.8825,1049.9133989657564
181.1206,1019.6982383371848
183.3582,1000.13013172985
185.5954,980.9096214916502
187.832,980.2372399691823
190.0681,963.4135096999471
192.3037,965.0389434190731
194.5388,957.9140442275552
196.7734,959.8393055759983
199.0075,967.4152113358672
201.2411,979.9422357802342
203.4742,975.3208435080201
205.7068,997.9014893187226
207.9389,1006.4846182586323
210.1704,1012.4706653950245
212.4015,1004.5600557303295
214.632,1011.4032041422709
216.862,1014.000515462972
219.0915,1017.552384410525
221.3205,1014.6091955630171
223.549,1021.571323323012
225.777,996.9891319469826
228.0044,986.2629754756883
230.2314,964.8431979799979
232.4578,942.2301336681503
234.6837,918.0741070999528
236.909,897.6754334129123
239.1339,872.3344185637937
241.3582,862.2013595326089
243.582,857.7265445760249
245.8053,864.2602533286961
248.0281,856.1027568480116
250.2503,855.8043175487583
252.472,849.7651892846958
254.6932,863.0856173515402
256.9139,862.6158385473569
259.134,864.0560810393547
261.3536,883.6565643685851
263.5727,928.7174994355389
265.7912,958.0890883041411
268.0092,1016.1715237511434
270.2267,1060.4149889724058
272.4436,1093.7696570020753
274.6601,1125.8856902701482
276.8759,1129.613240268925
279.0913,1147.3524472318495
281.3061,1141.5534400962342
283.5204,1170.116336325867
285.7341,1175.0412419690012
287.9473,1190.5782513727281
290.16,1176.377447133726
292.3721,1134.2388999428924
294.5837,1106.9126687273506
296.7947,1079.6488010718356
299.0052,1056.7473334919557
301.2152,1052.5582917068314
303.4246,1017.531690868111
305.6334,990.9675356018593
307.8418,980.4658203588252
310.0495,937.5265296800824
312.2568,898.0996383020466
314.4635,837.4351115858689
316.6696,787.4829059117043
318.8752,728.7429692853573
321.0802,703.915241837804
323.2847,687.2996564125916
325.4887,688.1461388141149
327.692,702.0546079737732
329.8949,738.5749759415037
332.0972,763.2571477466981
334.2989,788.0010210329982
336.5001,762.8064858114742
338.7007,736.3234242131869
340.9008,689.1017107411328
343.1003,627.9912125350746
345.2992,575.3917898437581
347.4976,529.8032966360181
349.6955,497.62558112677107
351.8927,487.15848623290185
354.0895,454.4518498950396
356.2856,441.1055051822291
358.4812,431.6692806189974
360.6763,414.6930003188163
362.8707,412.4264840784647
365.0646,415.9195475477925
367.258,426.12200225238564
369.4508,435.7836555586342
371.643,458.80431057170915
373.8346,482.8337660389451
376.0257,502.5218161196336
378.2162,519.3182501447294
380.4062,520.9228524199689
382.5956,494.9354020579067
384.7844,462.70567296186914
386.9726,439.9834340858288
389.1603,389.2184497567014
391.3474,378.51047990156985
393.5339,377.15928055533345
395.7199,387.814603967787
397.9052,409.67619861713297
400.09,444.0938091034284
402.2743,489.36717592996865
404.4579,516.2460351591114
406.641,554.1801179595434
408.8235,596.9191503374914
411.0054,623.1128527573817
413.1868,683.1609397144487
415.3675,729.8131194727998
417.5477,728.1190934649337
419.7273,656.1785558252179
421.9064,566.8411934068304
424.0848,516.206686501163
426.2627,455.824709731196
428.4399,398.7449325578434
430.6166,339.4170198837721
432.7928,297.2906326241996
434.9683,252.06542830017338
437.1432,225.14106145983533
439.3176,201.51718413067397
441.4914,192.64344608876627
443.6645,198.56949509501897
445.8371,198.4449769839041
448.0091,186.81953560419947
450.1806,187.4428128202337
452.3514,179.31444862814033
454.5216,180.78408114962645
456.6913,169.30134671325482
458.8603,171.56587983974805
461.0288,186.4273133568165
463.1967,184.58527837651286
465.3639,170.98940414661638
467.5306,169.08931806905366
469.6967,156.58464583585896
471.8622,149.52501144817256
474.0271,137.36003734129008
476.1914,133.6893444552577
478.3551,146.2125523565212
480.5182,147.52927927463406
482.6807,144.98914197702447
484.8426,163.34175575582867
487.0039,194.73673445329177
489.1647,245.42369027824157
491.3248,292.9522334921394
493.4843,298.42197190220963
495.6432,307.532510386156
497.8015,267.8334508374621
499.9592,227.87439207428588
502.1163,172.9549302364519
504.2728,124.82465918503976
506.4287,108.23317105158162
508.5839,90.73005671936335
510.7386,86.11490598933847
512.8927,86.58730775516096
515.0461,94.44685004933558
517.199,113.74312003849423
519.3512,159.12570394480144
521.5029,222.0441868529922
523.6539,259.6481522565439
525.8043,258.38718142849393
527.9541,212.26085304539765
530.1033,157.3187431999395
532.2519,110.96042586219573
534.3999,84.18547342905617
536.5472,79.29345718780564
538.694,88.48394758387508
540.8401,97.40651426976137
542.9856,120.11072601312185
545.1305,126.89615060754954
547.2748,139.61235464553124
549.4185,137.7589034505918
551.5615,154.03536095013305
553.704,175.7412896939686
555.8458,197.17625069155906
557.987,220.43980319495154
560.1276,255.2815044844317
562.2675,297.1509096358866
564.4069,343.74757117238914
566.5456,385.72103864550286
568.6837,375.42085816931694
570.8212,313.1965720007106
572.958,241.09771864235472
575.0942,185.0238334649548
577.2299,148.9744494282404
579.3648,134.9490976417028
581.4992,117.74730772508997
583.6329,126.86860794865788
585.766,151.912525405191
587.8985,205.77858591878726
590.0304,233.6663137944206
592.1616,266.2752312792786
594.2922,248.15485828388705
596.4222,201.65471205601966
598.5515,145.47430736190222
600.6802,107.1131569512138
602.8083,73.12077211889027
604.9358,66.44666308873707
607.0626,60.94033935335142
609.1888,78.40130974086469
611.3144,116.1290824700061
613.4393,146.5731649754921
615.5636,189.5830635307491
617.6873,227.65828294347284
619.8103,266.0483261255288
621.9327,270.35269371220147
624.0544,235.72088367829178
626.1756,177.552391295073
628.2961,131.04670947661134
630.4159,114.65332936144887
632.5351,111.37174077766213
634.6537,97.05143240679445
636.7716,96.7418918166718
638.8889,88.79260560460693
641.0056,83.45305940049298
643.1216,99.47273794629723
645.237,96.50112514945727
647.3518,79.18770392268266
649.4659,56.38195621367299
651.5793,50.533363178250966
653.6922,32.99140540842018
655.8043,27.305562990850603
657.9159,30.37531568229906
660.0268,17.300142966467547
662.137,11.07952402330443
664.2466,21.06293785975663
666.3556,11.049863371977153
668.4639,5.789779245490081
670.5716,2.9821640553211637
672.6786,0.17649631859876536
674.785,-3.677745477369399
676.8907,-10.231084608473793
678.9958,-0.18400760992835785
681.1002,-15.336898808412343
683.204,-8.440140692369368
685.3072,-4.043962534625962
687.4097,-8.448509291002779
689.5115,-3.3038855181362123
691.6127,4.639888627944174
693.7132,-7.667174002976026
695.8131,-1.3250606075093856
697.9123,9.016318212799206
700.0109,5.657065093759911
702.1089,19.89728258101968
704.2061,42.8370731636561
706.3028,60.8765391317736
708.3987,70.41578234710619
710.4941,88.65490406262393
712.5887,101.74400482713895
714.6827,92.43318430291424
716.7761,89.42254113477156
718.8688,94.16217304320128
720.9608,91.80217685446723
723.0522,103.89264845321179
725.1429,135.6336828060554
727.233,172.6753738406927
729.3224,234.66781412848297
731.4112,283.96109451403095
733.4993,284.4053034952643
735.5867,236.55052673049966
737.6735,163.59684703400103
739.7596,132.29434485452828
741.845,98.64309900487228
743.9298,94.59318697488095
746.014,102.79468526797257
748.0974,110.74766944163332
750.1802,111.45221402540278
752.2624,105.85839244134468
754.3439,99.81627699700016
756.4247,98.17593894132744
758.5048,98.98744852512255
760.5843,128.65087501742266
762.6631,154.16628669739157
764.7413,210.13375055768392
766.8188,294.5033320492928
768.8956,375.8750945218744
770.9718,434.8490983800515
773.0473,423.6254002696967
775.1221,400.85405248819166
777.1962,375.38510309666344
779.2697,431.8185961476994
781.3426,515.5545719400355
783.4147,571.6930664542238
785.4862,544.8841105152696
787.557,466.3777292312494
789.6271,355.52394226139825
791.6966,238.62276460117437
793.7654,154.7242076907977
795.8335,114.67828058426028
797.901,90.83499078831278
799.9678,80.6443446629238
802.0339,87.25634765971267
804.0993,77.6710044238556
806.1641,76.18831872796659
808.2282,57.05829356794959
810.2916,42.78093117782498
812.3544,35.45623322103165
814.4164,32.93420093319958
816.4778,41.26483519539636
818.5385,55.098136559348404
820.5986,76.43410516413405
822.658,137.97274059785116
824.7166,201.41404168425697
826.7747,276.5580058673826
828.832,365.95462857711743
830.8886,406.65390247777225
832.9446,432.40581657411155
834.9999,408.11035580436135
837.0545,325.36750078268904
839.1085,246.27722804215898
841.1618,188.88951086216105
843.2143,138.95432005931298
845.2662,119.37162456133797
847.3175,91.29139190641581
849.368,97.36358843901087
851.4179,85.08817959067335
853.467,82.01512981931842
855.5155,83.89440273197988
857.5633,104.27596111554044
859.6105,90.15976691793958
861.6569,79.04578104435666
863.7027,73.93396349837485
865.7478,60.17427349311936
867.7922,55.41666950237527
869.8359,57.51110939818659
871.8789,52.857550498431124
873.9212,57.205949545876365
875.9629,68.40626275471425
878.0039,68.55844576707796
880.0441,101.76245354103833
882.0837,116.86824034908193
884.1226,136.0757594460713
886.1609,169.18496291818656
888.1984,214.89580149085043
890.2352,255.4582241976375
892.2714,259.522177923164
894.3069,241.6376069974648
896.3416,193.20445315535346
898.3757,153.37265571526802
900.4091,140.89215206360302
902.4418,147.5628780530261
904.4739,158.4347681272842
906.5052,169.1077552544955
908.5358,162.181770818431
910.5658,142.1567445117838
912.595,109.1326044054307
914.6236,79.55927714868051
916.6515,51.886688299517004
918.6786,45.16476262033109
920.7051,33.593424354647254
922.7309,37.27259729434297
924.756,35.20220489536143
926.7804,50.682170240920755
928.8041,57.56241606221727
930.8272,81.19286458362637
932.8495,78.5234374538993
934.8711,88.05405550985927
936.892,102.48463880309532
938.9123,126.11510650465675
940.9318,146.29537676074665
942.9506,152.37536645641728
944.9688,150.10499101376809
946.9862,123.13416433114526
949.003,91.21279880584575
951.019,79.54080560382477
953.0344,58.91809497891063
955.0491,50.19457638952372
957.063,56.92015870490377
959.0763,50.994750292345316
961.0888,47.46825894994129
963.1007,48.84059196583735
965.1119,49.16165615349678
967.1223,47.13135783797759
969.1321,43.59960285272132
971.1412,37.71629655985612
973.1495,35.1313438855143
975.1572,32.19464937866553
977.1641,42.606117236966725
979.1704,41.06565133612878
981.1759,43.1231551258021
983.1808,28.22853164498099
985.1849,30.031683501428574
987.1884,28.932513020623446
989.1911,43.78092222772716
991.1932,43.37681285857673
993.1945,46.07008621120053
995.1951,48.16064314985874
997.1951,54.49838407811126
999.1943,53.28320891791202
1001.1928,55.465017046231424
1003.1906,67.44370730720789
1005.1877,82.76917799032924
1007.1841,96.2413267106474
1009.1798,102.11005025552265
1011.1748,110.57524444990213
1013.1691,85.08680409763338
1015.1627,61.39462289681114
1017.1556,30.84859369466369
1019.1477,13.898608724473206
1021.1392,12.39455991103614
1023.1299,7.136339040162852
1025.12,5.5238377737186966
1027.1093,17.956947702205525
1029.0979,37.08556036088794
1031.0859,59.30956710546184
1033.0731,65.62885892076827
1035.0596,67.6433261985527
1037.0454,59.10285867427319
1039.0304,45.00734540695487
1041.0148,25.206674864594675
1042.9985,12.2507350651166
1044.9814,10.039413774378431
1046.9636,5.622598635731492
1048.9452,17.95017719213297
1050.926,24.822036930314425
1052.9061,37.78806515750637
1054.8855,44.19814893271905
1056.8642,43.90217493708292
1058.8421,41.6000294097463
1060.8194,47.191598150836285
1062.7959,50.12676654447989
1064.7717,48.605419502888935
1066.7469,47.87744143700809
1068.7213,60.39271627172775
1070.695,82.20112745316442
1072.6679,85.55255782350741
1074.6402,101.69688940293577
1076.6117,107.0340033561032
1078.5826,92.36377983069474
1080.5527,58.086097904056146
1082.5221,32.100835729896176
1084.4908,8.457870881062036
1086.4587,4.057080609393097
1088.426,-3.951657917850298
1090.3925,-1.1684675739777504
1092.3584,11.306568244763525
1094.3235,11.973377815116578
1096.2879,32.28188930075987
1098.2515,59.38203074563785
1100.2145,87.42372987087583
1102.1767,109.2069138037798
1104.1382,157.73150879741854
1106.099,214.897440012792
1108.0591,268.9546310335851
1110.0185,288.10300329450934
1111.9771,339.69247554072945
1113.9351,378.2229636363812
1115.8923,425.04438004867586
1117.8488,434.1566334625951
1119.8045,380.6596283126778
1121.7596,305.8032646918962
1123.7139,222.13743888662668
1125.6675,170.3620441252134
1127.6204,186.0269714146266
1129.5726,196.78211005821686
1131.524,193.27734749906517
1133.4748,162.16256921243155
1135.4248,106.48765874080289
1137.3741,63.70249800504075
1139.3226,41.30696786113049
1141.2705,43.400948528032814
1143.2176,57.93431981163883
1145.164,63.10696108383104
1147.1097,64.06875113714898
1149.0546,34.46956813306326
1150.9989,21.159289592357254
1152.9424,3.4377926911191707
1154.8852,-7.145045606154895
1156.8272,-16.539348369346726
1158.7686,-14.245167289333153
1160.7092,-14.312388828900794
1162.6491,1.059242858384664
1164.5883,9.720126599721766
1166.5267,25.67066121171672
1168.4644,42.611245413774554
1170.4014,80.74227766859406
1172.3377,122.76415601276153
1174.2732,171.12727767544152
1176.2081,253.2320386581572
1178.1421,378.3788332511597
1180.0755,469.66805321237894
1182.0082,519.7500865159573
1183.9401,480.8253164393566
1185.8713,387.7941210625389
1187.8017,282.7068736572128
1189.7315,199.76394361714688
1191.6605,118.21569750904064
1193.5888,93.46249990195531
1195.5163,65.95471418279465
1197.4432,47.14270280383846
1199.3693,32.07682755781934
1201.2947,19.557449766043305
1203.2193,17.634930429047813
1205.1432,22.159630351796636
1207.0664,17.53191016290475
1208.9889,19.252130269390477
1210.9106,24.42065090295364
1212.8316,26.28783210277311
1214.7519,39.75403366382204
1216.6715,45.069615118195316
1218.5903,58.38493560044776
1220.5084,77.450353794438
1222.4257,96.26622780017578
1224.3424,99.23291494316777
1226.2583,120.85077158625882
1228.1735,158.87015309996502
1230.0879,184.5414136462955
1232.0016,228.714905798558
1233.9146,261.49098028464675
1235.8269,274.11998554530715
1237.7384,293.05226740637556
1239.6492,288.4881689524882
1241.5592,315.37803033775947
1243.4686,356.9721888314225
1245.3772,427.6709785489303
1247.285,497.57473003601467
1249.1922,587.8337695616962
1251.0986,644.8484184192496
1253.0042,730.8189920236109
1254.9092,790.8457993412329
1256.8134,862.4291420303783
1258.7169,913.1193138408522
1260.6196,931.4665998981691
1262.5216,926.9212761966503
1264.4229,904.4836094159515
1266.3234,881.4038569665161
1268.2232,851.932267213952
1270.1223,809.0690797098284
1272.0207,777.8645254863925
1273.9183,764.5688274852009
1275.8151,769.4322008691657
1277.7113,813.2548531555102
1279.6067,901.9369841671366
1281.5014,1027.2287855943991
1283.3953,1183.330440108282
1285.2885,1339.092120107482
1287.181,1445.463986157392
1289.0727,1486.996185432483
1290.9637,1436.5388506525878
1292.854,1372.5920996675777
1294.7435,1276.9560359619345
1296.6323,1184.7807492942206
1298.5204,1093.9163166534381
1300.4077,1048.6628031807818
1302.2943,1026.7702630782837
1304.1802,999.6887400613479
1306.0653,964.2182675776762
1307.9497,914.1088690780831
1309.8333,884.4105583712006
1311.7162,842.7233401245729
1313.5984,808.0472101616376
1315.4798,791.3321558785998
1317.3605,777.5281565911921
1319.2405,777.7351837018264
1321.1197,742.1532008376327
1322.9982,682.3821638483895
1324.876,607.5720211623436
1326.753,529.1227143839208
1328.6293,459.28417904182595
1330.5048,399.9563453735385
1332.3796,337.48913902369554
1334.2537,292.082481637372
1336.127,261.33629148475075
1337.9996,239.60048391519013
1339.8714,227.2249716646861
1341.7426,204.20966507322964
1343.6129,205.6044722085627
1345.4826,193.05929909633107
1347.3515,186.02404970613588
1349.2196,173.7486260769855
1351.087,170.0829283876484
1352.9537,165.12685507940773
1354.8197,179.03030289271715
1356.6849,178.04316691676183
1358.5493,193.71534045042438
1360.4131,228.7967150121558
1362.276,268.53718018325435
1364.1383,282.8866232570508
1365.9998,287.3449288415047
1367.8606,289.86197871570937
1369.7206,277.8376517853096
1371.5799,273.17182405733047
1373.4384,268.31436876042096
1375.2962,246.96515639151244
1377.1533,197.62405476439278
1379.0096,160.29092922319887
1380.8652,130.3656431358272
1382.7201,102.19805826726508
1384.5742,89.13803507884381
1386.4275,73.83543300991448
1388.2802,59.64011060844837
1390.132,45.65192568406303
1391.9832,37.87073544997497
1393.8336,31.646396662882353
1395.6832,29.078765700775648
1397.5322,16.767698625182675
1399.3803,14.36305120684358
1401.2278,11.764679048821904
1403.0745,5.622437610550605
1404.9204,1.786182233816362
1406.7656,-6.044231795817836
1408.6101,-1.7189492106508624
1410.4538,1.6619456388937124
1412.2968,-6.951614425305024
1414.139,-2.1096965979870674
1415.9805,2.687701372735546
1417.8213,13.740602814619706
1419.6613,39.39903102854555
1421.5006,62.51300917798733
1423.3391,95.1325600324293
1425.1769,143.25770573622617
1427.0139,203.03846748240767
1428.8502,286.6748650314265
1430.6858,350.0169161133513
1432.5206,374.06463559150177
1434.3547,370.96803482902897
1436.188,352.4271214484377
1438.0206,340.591899362553
1439.8524,326.36236895992886
1441.6835,329.63852722319996
1443.5139,343.8203678713776
1445.3435,346.6078813270875
1447.1724,344.8510545747521
1449.0005,340.24987113271527
1450.8279,336.9543110708109
1452.6545,324.46435105637386
1454.4804,332.92996438719666
1456.3056,330.25112111642795
1458.13,312.92778796791725
1459.9536,287.20992836300275
1461.7766,255.5475025937451
1463.5987,223.49046808010598
1465.4202,199.83877968657225
1467.2409,161.1923900427263
1469.0608,137.0012497797627
1470.88,107.9653079169525
1472.6984,94.38451210355447
1474.5161,76.4588089091742
1476.3331,74.23814395957254
1478.1493,60.27246211592296
1479.9648,61.411707497017574
1481.7795,59.65582361892365
1483.5935,59.604753383591856
1485.4067,65.35843909641477
1487.2192,65.766822466738
1489.031,63.22984455032298
1490.842,69.29744574526273
1492.6522,73.11956581735245
1494.4618,65.84614383941289
1496.2705,49.6771181530695
1498.0785,50.06242644148699
1499.8858,57.302005891058855
1501.6924,48.4457931875545
1503.4981,51.74372444372386
1505.3032,42.99573528785908
1507.1075,33.10176083081541
1508.911,33.36173575349102
1510.7138,35.32559440576637
1512.5159,21.843270803904602
1514.3172,22.664698610913376
1516.1178,16.289811271367796
1517.9176,10.468542003196205
1519.7166,17.050823861429024
1521.515,12.736589796411238
1523.3126,13.275772587979532
1525.1094,10.718304888604962
1526.9055,5.964119218001372
1528.7008,7.913147988699507
1530.4954,2.0153235535893828
1532.2893,1.9705781864295204
1534.0824,-1.4211558591747462
1535.8747,2.740053650676316
1537.6663,6.50415314722909
1539.4572,6.5210890343298615
1541.2473,10.240807650783267
1543.0367,17.4132552701833
1544.8253,18.188378063715902
1546.6132,17.916122028434643
1548.4003,28.34643297950936
1550.1867,30.07925655294889
1551.9723,49.514538101298115
1553.7572,65.00222267630937
1555.5414,80.09225483458982
1557.3247,106.48457848272466
1559.1074,145.47913672637634
1560.8893,177.77587160636176
1562.6705,212.3747237087066
1564.4509,235.82563184167782
1566.2305,247.02853268979538
1568.0094,242.43336057932328
1569.7876,242.8900473662403
1571.565,241.79852248219163
1573.3417,237.90871292992244
1575.1176,251.6205432941926
1576.8928,258.5339357806751
1578.6672,279.1988100788379
1580.4409,309.26508329280955
1582.2138,330.6826697347311
1583.986,367.7514806240926
1585.7575,401.87142387355794
1587.5282,429.6924037182761
1589.2981,449.66432037468235
1591.0673,464.08706976228746
1592.8358,481.6105433039595
1594.6035,480.18462778169584
1596.3704,484.7592051613888
1598.1366,463.48415260708424
1599.9021,451.9093424352363
1601.6668,437.0346423274574
1603.4308,432.60991544626734
1605.194,437.3350205838391
1606.9564,473.75981220624715
1608.7182,524.8341404062155
1610.4791,598.3078505388709
1612.2394,675.9807827109981
1613.9988,754.6527710463041
1615.7576,806.2736429086877
1617.5156,816.3432181155207
1619.2728,783.9113084214375
1621.0293,706.9777174176415
1622.785,607.1922408562228
1624.54,515.4046674194941
1626.2942,426.9647797178463
1628.0477,349.22235520762325
1629.8005,288.4271670755213
1631.5525,236.77898501601356
1633.3037,196.0275758393011
1635.0542,166.97270398779546
1636.804,137.86413194363251
1638.553,126.50162051922092
1640.3013,107.73492914832832
1642.0488,92.6138159997065
1643.7955,82.8380381647579
1645.5416,71.35735180874696
1647.2868,72.77151226855784
1649.0313,66.4802741675013
1650.7751,66.38339140117353
1652.5181,65.78061720036794
1654.2604,68.92170413204411
1656.0019,71.80640410535557
1657.7427,87.23446834023895
1659.4828,112.55564733856676
1661.222,138.7696907298668
1662.9606,162.27634701811058
1664.6984,179.97536331957286
1666.4354,182.06648512776508
1668.1717,156.6494561364454
1669.9072,119.32401821870707
1671.642,91.78991168114885
1673.3761,67.39687563712943
1675.1094,46.84464828210855
1676.8419,34.88296713757731
1678.5737,25.81156925658064
1680.3048,16.330191343333667
1682.0351,18.13856984393618
1683.7646,9.53644104118601
1685.4934,11.72354103649542
1687.2215,6.049605835912615
1688.9488,0.9143713282504393
1690.6754,4.117573341825789
1692.4012,0.40894769581186097
1694.1263,2.88823016820632
1695.8506,3.5051565329175673
1697.5742,3.60946253497184
1699.297,1.2008838843437957
1701.0191,-2.8708437450863755
1702.7404,-0.35598469144719047
1704.461,-3.304774613138335
1706.1808,-3.1674456122725587
1707.8999,-6.744196776264431
1709.6182,-1.835195549747084
1711.3358,-2.640542002827914
1713.0527,-1.1603178720107508
1714.7688,-0.9445785147851211
1716.4841,0.9066323029349235
1718.1987,-7.806719748425394
1719.9126,0.7653309924929488
1721.6257,-2.4771718238209246
1723.338,2.815815445468928
1725.0496,3.84436119014498
1726.7605,2.4585337718314975
1728.4706,-1.2415984862907976
1730.18,2.2940327143735146
1731.8886,-1.0344919240111494
1733.5964,4.322908277779561
1735.3036,6.216324333544094
1737.0099,5.145847213852164
1738.7156,8.111567827110349
1740.4204,9.513577030266674
1742.1246,9.301965599153391
1743.8279,6.7268242144672
1745.5306,10.138243463885232
1747.2325,10.136313867816568
1748.9336,9.771125845288253
1750.634,8.542769713964589
1752.3336,12.801335693798563
1754.0325,12.496913919315716
1755.7307,16.779594397028063
1757.4281,11.499467008478746
1759.1247,16.15662146741502
1760.8206,17.15114737258955
1762.5158,14.683134161188946
1764.2102,17.502671098888328
1765.9039,14.759847304531547
1767.5968,18.6047517219358
1769.289,19.687473147320105
1770.9804,16.05810019085598
1772.6711,21.016721265840317
1774.361,21.363424624989023
1776.0502,16.7482983108508
1777.7386,19.121430152340253
1779.4263,24.68290781088885
1781.1132,23.782818756713908
1782.7994,22.02125021320387
1784.4849,28.748289165918948
1786.1696,21.46402238020704
1787.8535,25.718536333933173
1789.5367,22.51191729032223
1791.2192,24.494251255413843
1792.9009,20.065624010128488
1794.5818,23.276121090444292
1796.2621,22.375827831683154
1797.9415,25.214829336405813
1799.6202,25.043210483414896
1801.2982,27.911055899364612
1802.9755,23.7184499604773
1804.6519,28.065476763864694
1806.3277,27.902220169454097
1808.0027,28.878763756517998
1809.6769,24.645190825306912
1811.3504,34.801584387283725
1813.0231,29.348027207459467
1814.6951,30.484601702829337
1816.3664,29.111389996908486
1818.0369,26.07847390836602
1819.7067,33.885934964757155
1821.3757,29.6838544328526
1823.044,29.97231324056358
1824.7115,35.30139201896293
1826.3783,29.171171099400567
1828.0443,28.381730460212395
1829.7096,29.783149788022882
1831.3741,28.97550848563904
1833.0379,32.65888565803658
1834.701,31.733360120436174
1836.3633,34.24901036146974
1838.0248,28.75591455243577
1839.6856,29.804150522142464
1841.3457,33.24379581183911
1843.005,36.72492766473354
1844.6636,31.94762299159561
1846.3214,34.61195833594607
1847.9785,34.11800992182964
1849.6349,33.165853627171316
1851.2904,33.65556498871632
1852.9453,33.5872192115512
1854.5994,38.76089116420718
1856.2528,37.376655379343134
1857.9054,32.3845860020092
1859.5572,29.834756803488943
1861.2083,33.37724123122018
1862.8587,34.71211243429322
1864.5084,36.239443228025905
1866.1572,40.359306080615056
1867.8054,39.17177309786318
1869.4528,33.476915981979715
1871.0994,35.274806043456465
1872.7453,35.86551425801608
1874.3905,35.9491112486331
1876.0349,38.275667279627086
1877.6786,38.74525225582647
1879.3215,38.15793569930318
1880.9637,39.6137867446766
1882.6051,40.66287414498686
1884.2458,35.70526625713629
1885.8858,36.19103103139848
1887.525,29.12023606099436
1889.1634,32.042948577234654
1890.8011,35.75923552022772
1892.4381,34.869163509652466
1894.0743,38.022798807595706
1895.7098,39.57020732745252
1897.3446,37.61145460239008
1898.9786,35.196605769873486
1900.6118,35.32572559125332
1902.2443,35.19887847591423
1903.8761,38.96612847998355
1905.5071,34.92753930760003
1907.1374,36.983174273241005
1908.7669,39.28309634210865
1910.3957,37.327368109573314
1912.0237,35.71605177817446
1913.651,39.99920917717789
1915.2776,39.07690177868895
1916.9034,36.54919065482093
1918.5285,36.966136486918145
1920.1528,36.27779959083294
1921.7764,39.73423991275645
1923.3992,38.08551703610175
1925.0213,33.63169014693966
1926.6427,36.122818050485876
1928.2633,28.108959215639246
1929.8832,37.64017175007052
1931.5023,33.86651348036102
1933.1207,36.43804185669025
1934.7383,34.50481399057266
1936.3552,40.816886629142275
1937.9714,33.424316174485014
1939.5868,36.277158620518065
1941.2015,35.57546962691539
1942.8154,35.86930449057947
1944.4286,30.508718152658133
1946.041,36.09376519560625
1947.6528,33.4244998967915
1949.2637,35.750976172644016
1950.8739,31.823247605348826
1952.4834,33.04136741958119
1954.0921,33.80538852178405
1955.7001,34.015363487986605
1957.3074,32.87134455616426
1958.9139,31.723383624138705
1960.5197,33.571532261018234
1962.1247,33.315841718677405
1963.729,34.606362913275504
1965.3325,34.89314642781335
1966.9353,27.426242499228294
1968.5374,31.255701015526228
1970.1387,33.88157159045073
1971.7393,32.40390352518847
1973.3392,35.622745782110485
1974.9383,31.888146999548766
1976.5366,33.550155459607865
1978.1342,32.95881912551101
1979.7311,32.01418562497983
1981.3273,33.16630225614787
1982.9227,28.465215997006936
1984.5173,32.61097349388574
1986.1112,34.753621108460976
1987.7044,35.543204876299654
1989.2968,34.72977048543247
1990.8885,26.963363268458195
1992.4795,33.194028210677914
1994.0697,27.521810027759003
1995.6592,33.146753103428665
1997.2479,33.56890154619609
1998.8359,36.48829913310303
2000.4232,32.30498930550226
2002.0097,28.469015139863657
2003.5955,31.830419389607243
2005.1805,34.93924452346302
2006.7648,33.095532691856704
2008.3484,35.099325695821705
2009.9312,29.950665005436193
2011.5133,32.049591739785214
2013.0946,31.19614671844704
2014.6752,29.240370440504208
2016.2551,27.48230309307776
2017.8342,31.571984570885107
2019.4126,24.909454493820576
2020.9902,28.944752166058663
2022.5672,28.077916642679426
2024.1433,32.20898668931548
2025.7188,30.98800079082031
2027.2935,27.014997109957648
2028.8674,28.690013499611226
2030.4406,31.56308754251488
2032.0131,26.934256534502282
2033.5849,28.60355745577627
2035.1559,26.621027017197136
2036.7261,28.586701643589677
2038.2957,27.45061749356846
2039.8645,33.662810439881014
2041.4325,29.32331608076882
2042.9998,25.13216967784524
2044.5664,28.18940619949059
2046.1323,34.245060362763496
2047.6974,23.74916660282861
2049.2617,29.351759012400038
2050.8254,26.55287144670028
2052.3883,30.652537467434342
2053.9504,27.600790370778597
2055.5118,28.547663146384124
2057.0725,30.443188507894064
2058.6325,29.887398883474958
2060.1917,27.08032639686155
2061.7502,30.172002872914533
2063.3079,28.76245986569141
2064.8649,29.85172862752968
2066.4212,25.88984012314222
2067.9767,31.32682501872469
2069.5315,28.662713721574406
2071.0856,30.097536325720455
2072.6389,26.331322638564814
2074.1915,27.864102166534124
2075.7433,26.895904152741792
2077.2945,26.726757561660236
2078.8448,26.256691088802796
2080.3945,29.685733162415403
2081.9434,27.613911948177005
2083.4916,27.54125531490928
2085.039,23.267790855294763
2086.5857,26.393545886603505
2088.1317,26.96854749342762
2089.677,29.542822496423767
2091.2215,24.66639744656314
2092.7652,23.289298599388772
2094.3083,31.4115519637799
2095.8506,26.733183315722755
2097.3921,28.204218117088146
2098.933,26.874681562415134
2100.4731,25.344598564200624
2102.0124,27.163993766194693
2103.5511,29.332891558701505
2105.089,25.651316060385284
2106.6261,28.26929109658144
2108.1626,25.73684023611223
2109.6983,31.403986765106993
2111.2332,29.07075371232669
2112.7675,26.487163792492396
2114.301,25.553239429617634
2115.8337,30.069002782844294
2117.3657,24.9844757557819
2118.897,31.149679951349995
2120.4276,22.764636722623365
2121.9575,29.82936711118012
2123.4866,29.293891930952043
2125.0149,27.0082316975773
2126.5426,25.172406633755187
2128.0695,24.236436692102785
2129.5956,27.800341573513123
2131.1211,28.064140736514915
2132.6458,25.477853361633493
2134.1698,27.54149834875284
2135.693,25.755094342978495
2137.2155,23.318659714001157
2138.7373,24.132212573960516
2140.2584,26.995770801809726
2141.7787,26.10935203517991
2143.2983,27.5229736417445
2144.8171,27.336652728083465
2146.3353,24.550406125547042
2147.8527,26.764250392118896
2149.3693,27.478201840278757
2150.8853,25.392276514863795
2152.4005,28.706490185929383
2153.9149,25.920858369608055
2155.4287,23.585396294967495
2156.9417,25.900118931866857
2158.454,22.36504101431133
2159.9655,21.880177017305016
2161.4764,27.445541192201688
2162.9865,24.4111475715533
2164.4958,24.27700991345651
2166.0045,21.59314173189658
2167.5124,26.059556298088665
2169.0195,24.8762666673166
2170.526,22.293285634268642
2172.0317,19.610625744870404
2173.5367,25.928299322114654
2175.0409,18.74631849288795
2176.5445,22.56469512479397
2178.0473,21.68344089797324
2179.5494,21.152567266919334
2181.0507,24.42208546929149
2182.5513,24.592006531223205
2184.0512,19.312341234627283
2185.5504,22.283100115496453
2187.0488,21.10429351670011
2188.5465,22.62593155827672
2190.0435,22.198024149221908
2191.5397,21.92058097227202
2193.0353,20.69361148818321
2194.5301,20.8171249385058
2196.0241,21.991130357854132
2197.5175,21.76563657267141
2199.0101,19.24065218948951
2200.502,16.766185597183963
2201.9931,18.342244992223826
2203.4835,19.818838403416237
2204.9733,18.795973676145934
2206.4622,19.62365845760931
2207.9505,25.601900207043045
2209.438,18.98070618744731
2210.9248,18.36008340580328
2212.4109,23.090038679285087
2213.8962,19.820578641466113
2215.3809,17.95170969501939
2216.8648,19.1334380444123
2218.3479,17.565769714595163
2219.8304,16.448710539184034
2221.3121,17.28226617613724
2222.7931,16.816442118926105
2224.2733,18.50124368819931
2225.7529,20.036676036441236
2227.2317,17.722744131123804
2228.7098,14.209452739352187
2230.1872,15.596806451004198
2231.6638,17.13480971386315
2233.1397,17.62346681974431
2234.6149,12.812781889114845
2236.0894,19.702758866207304
2237.5632,15.043401567126452
2239.0362,15.134713610949461
2240.5085,13.126698466319553
2241.9801,17.219359450532792
2243.4509,15.162699749618298
2244.921,15.756722377411606
2246.3904,15.351430196121186
2247.8591,19.79682591038832
2249.3271,14.592912071340066
2250.7943,15.489691032135255
2252.2608,13.687165000003702
2253.7266,10.835336027278345
2255.1917,11.684206029420551
2256.656,14.483776813538313
2258.1197,12.634050069897484
2259.5826,13.13502734392624
2261.0447,13.786710054712302
2262.5062,13.1390994899931
2263.9669,10.892196799639066
2265.4269,15.946003002129657
2266.8862,12.650519007022424
2268.3448,11.305745564414934
2269.8026,12.6616832978995
2271.2598,12.468332718011027
2272.7162,10.625694208667596
2274.1719,12.73376802910397
2275.6268,11.942554332298116
2277.0811,14.4020531438903
2278.5346,16.712264370095326
2279.9874,13.073187773107463
2281.4395,13.184822947998285
2282.8908,8.997169359107517
2284.3414,13.610226338926708
2285.7914,8.273993129975963
2287.2406,15.988468838673029
2288.689,10.403652488695869
2290.1368,11.869542943837729
2291.5838,10.786138963855336
2293.0302,11.353439189810075
2294.4758,12.42144215490201
2295.9206,8.9901462787968
2297.3648,9.109549856945833
2298.8082,11.579651094898978
2300.251,7.900448107110762
2301.693,9.371938892239143
2303.1343,13.544121369937557
2304.5748,11.316993366139968
2306.0147,10.640552571339256
2307.4538,11.714796562858268
2308.8922,11.63972281161442
2310.3299,11.615328671376972
2311.7669,10.141611379518096
2313.2031,10.268568057256658
2314.6387,10.396195724395554
2316.0735,9.424491298052004
2317.5076,10.003451591381335
2318.941,8.083073323294002
2320.3737,9.063353112665993
2321.8056,9.144287497542663
2323.2369,9.575872925335787
2324.6674,14.408105752014308
2326.0972,17.14098223778852
2327.5263,16.724498498787852
2328.9547,18.658650479731904
2330.3823,21.193433958095312
2331.8092,14.478844524766416
2333.2355,13.114877558699234
2334.661,11.451528294059344
2336.0858,8.238791833863587
2337.5098,7.276663166613517
2338.9332,6.615137198422929
2340.3558,11.404208762639115
2341.7778,4.093872626457909
2343.199,8.334123443033207
2344.6195,4.42495582458011
2346.0393,12.116364299972616
2347.4583,6.208343353835133
2348.8767,3.850887349628536
2350.2943,6.943990588730287
2351.7113,7.4876473340090115
2353.1275,9.481851778893457
2354.543,8.52659804193597
2355.9578,3.121880146870396
2357.3718,8.567692032164572
2358.7852,11.214027605067571
2360.1978,8.910880687151533
2361.6098,11.558244987848425
2363.021,8.556114127481365
2364.4315,9.604481610791126
2365.8413,6.853340856957303
2367.2504,8.052685189114754
2368.6587,9.002507861864885
2370.0664,5.352802049282303
2371.4733,5.203560835416511
2372.8795,5.854777250789127
2374.285,9.506444273886132
2375.6899,9.108554824645836
2377.0939,3.1111017279421844
2378.4973,5.114077717563575
2379.9,6.917475496187535
2381.3019,8.921287715350772
2382.7032,9.375506957415311
2384.1037,7.7301257155303205
2385.5035,6.335136389089939
2386.9027,8.790531300187084
2388.3011,3.196302707563305
2389.6987,6.402442782054891
2391.0957,5.408943662535137
2392.492,6.715797423852905
2393.8876,7.772996086767762
2395.2824,1.8305316048812728
2396.6765,9.338395854065098
2398.07,6.846580691885578
2399.4627,2.955077882525174
2400.8547,2.863879121700478
2402.246,5.77297607557729
2403.6366,4.632360381682744
2405.0265,5.942023619814194
2406.4156,7.7019573234454555
2407.8041,3.1621529666300887
2409.1918,4.872601946402142
2410.5789,6.333295628174113
2411.9652,2.9942253286324956
2413.3508,7.805382301130848
2414.7358,7.266757769080542
2416.12,5.628342877839202
2417.5035,7.190128700096878
2418.8863,5.852106252260228
2420.2684,7.564266478834682
2421.6497,6.0266002658046745
2423.0304,4.939098423511965
2424.4104,3.9517517020323254
2425.7896,5.564550802050604
2427.1682,5.477486384734092
2428.546,4.590549055604654
2429.9232,-0.5462706345906838
2431.2996,1.7670178189895722
2432.6753,4.530410378430545
2434.0503,2.8439029881471214
2435.4246,4.357491547250234
2436.7982,1.6211719264116624
2438.1711,7.084939952728419
2439.5433,4.148791437085777
2440.9148,4.6127221195196455
2442.2856,3.326727698578054
2443.6557,3.6908038266818437
2445.025,6.304946122984617
2446.3937,1.1191501697320376
2447.7617,4.383411486120252
2449.1289,-0.3022744198459719
2450.4955,4.112087916003986
2451.8613,4.776496977562232
2453.2265,6.840951207599986
2454.5909,2.705449001123611
2455.9546,3.919988684729944
2457.3177,0.5345685579613786
2458.68,1.0991868811604633
2460.0416,2.913841909324063
2461.4025,2.6785318864572503
2462.7627,1.3432550274266362
2464.1222,5.608009520313594
2465.4811,4.722793539767004
2466.8392,2.7876052043556427
2468.1966,5.952442585420435
2469.5533,3.5673037264262533
2470.9093,2.78218661131352
2472.2645,3.597089188349692
2473.6191,2.2120093779803653
2474.973,2.026945064680291
2476.3262,4.191894110804171
2477.6787,5.206854358437241
2479.0305,7.57182360774577
2480.3816,7.186799606827535
2481.7319,9.251780028062143
2483.0816,6.966762471961211
2484.4306,5.431744446518643
2485.7789,6.446723390060754
2487.1264,3.861696686596389
2488.4733,4.176661655667218
2489.8195,4.891615578197964
2491.165,6.156555693346682
2492.5097,2.8214791913553583
2493.8538,6.186383200900401
2495.1972,3.8012648224434713
2496.5398,6.7161210945824195
2497.8818,5.030949017902415
2499.2231,1.1457455258275075
2500.5637,7.410507501472239
2501.9035,0.4752318164937819
2503.2427,2.0399152684442257
2504.5812,3.7045546501233844
2505.919,4.119146733931963
2507.256,5.88368825522511
2508.5924,4.99817590816658
2509.9281,6.86260632808326
2511.2631,4.7269761003203
2512.5974,5.091281741596859
2513.9309,3.45551972136235
2515.2638,4.7196864581533475
2516.596,7.133778335951256
2517.9275,4.347791691540728
2519.2583,6.561722790368634
2520.5884,3.025567854403988
2521.9178,5.089323039998625
2523.2465,1.9529844732486978
2524.5745,1.6665482293571614
2525.9018,4.680010363997177
2527.2284,1.8933669161764612
2528.5543,3.5066138781026766
2529.8796,6.0697472230498875
2531.2041,4.732762889226066
2532.5279,6.345656754141672
2533.851,2.858424647979639
2535.1735,4.8710623374663555
2536.4952,3.933565560744057
2537.8163,7.795930007244358
2539.1366,4.058151327063314
2540.4562,2.520225092337668
2541.7752,5.932146834622671
2543.0935,7.593912060271343
2544.411,9.205516216315289
2545.7279,3.9669546738469847
2547.0441,7.378222711903781
2548.3596,4.0393155698535494
2549.6744,4.050228413281928
2550.9885,6.760956367381411
2552.3019,5.021494516842203
2553.6146,4.431837878744986
2554.9266,6.341981419955523
2556.2379,3.8519200630212325
2557.5485,6.46164866706971
2558.8585,3.821162052709397
2560.1677,4.580454975932248
2561.4762,5.489522154518603
2562.7841,7.698358260444266
2564.0913,7.05695791078989
2565.3977,2.8153156456525323
2566.7035,3.9734259345597422
2568.0086,3.631283218885926
2569.313,4.63888190027123
2570.6167,5.1462163440429975
2571.9197,2.7532808691398003
2573.222,2.9100697430380507
2574.5236,4.4665772056814035
2575.8246,9.42279746791283
2577.1248,7.4287246959095725
2578.4244,5.28435296162089
2579.7232,6.939676262708815
2581.0214,5.244688543991906
2582.3189,5.949383680891941
2583.6157,6.4037554963838375
2584.9118,4.807797753948677
2586.2072,7.7615041530300175
2587.5019,7.114868344993447
2588.7959,8.217883903589524
2590.0893,6.5705443314202014
2591.3819,6.32284304890856
2592.6739,8.82477341077226
2593.9652,8.826328708500604
2595.2557,10.727502145335123
2596.5456,8.4782868362541
2597.8348,10.378675788960791
2599.1234,9.07866192637563
2600.4112,9.178238067632293
2601.6983,9.47739694107785
2602.9848,10.576131183277042
2604.2705,6.7744333360206355
2605.5556,8.272295835338113
2606.84,7.8197110495146305
2608.1237,6.166671264112416
2609.4067,7.363168686496586
2610.689,3.6591954623656164
2611.9707,8.954743663786324
2613.2516,7.1998053262336015
2614.5319,7.494372395634947
2615.8115,2.5884367459198003
2617.0903,5.2319901760739
2618.3685,6.425024459198632
2619.6461,10.51753131607547
2620.9229,7.009502403235743
2622.199,5.800929272035454
2623.4745,6.741803403735581
2624.7493,5.682116221587812
2626.0234,6.421859081425865
2627.2968,5.811023282262319
2628.5695,6.449600058891171
2629.8415,6.487580587996213
2631.1128,6.824955981765285
2632.3835,7.161717287510406
2633.6535,6.547855484294054
2634.9228,7.283361479561549
2636.1914,4.568226115279678
2637.4593,7.2524401605816
2638.7265,5.185994338918249
2639.9931,5.968879301216155
2641.259,5.151085646541922
2642.5242,6.882603914273375
2643.7887,9.96342459227752
2645.0525,7.89353809959529
2646.3156,8.472934755633425
2647.5781,2.851604800863271
2648.8398,7.179538391026874
2650.1009,9.10672565335021
2651.3613,5.333156643263955
2652.6211,3.0088213251314997
2653.8801,5.033709609984747
2655.1385,4.05781137876739
2656.3961,5.381116462086062
2657.6531,6.2536146499693
2658.9094,5.925295678634491
2660.1651,5.446149221762866
2661.42,4.966164893782754
2662.6743,5.285332254661
2663.9279,5.803640814702817
2665.1808,10.07108003136014
2666.433,10.587639304048508
2667.6846,10.053307931472673
2668.9354,8.61807510646102
2670.1856,6.18192992130885
2671.4351,10.294861382130755
2672.6839,7.856858433222065
2673.9321,10.517909915929508
2675.1795,8.728004593031294
2676.4263,6.68713112212653
2677.6724,8.19527807353429
2678.9179,8.702433950702364
2680.1626,8.558587175125751
2681.4067,8.913726081275144
2682.6501,7.2678389180353875
2683.8928,10.2209138451541
2685.1348,10.222938949700541
2686.3761,6.023902216534864
2687.6168,10.573791528287828
2688.8568,6.922594707351209
2690.0961,7.1702994703789145
2691.3348,7.566893464798902
2692.5727,5.862364266336165
2693.81,9.706699375046796
2695.0466,6.199886232363262
2696.2826,4.791912182651039
2697.5178,4.982764508276759
2698.7524,5.822430443687949
2699.9863,4.960897173504492
2701.2195,5.1481518241219675
2702.452,7.484181472327002
2703.6839,6.818973143424721
2704.9151,10.252513787878456
2706.1456,8.234790287961864
2707.3755,8.115789423423458
2708.6046,9.545497891663857
2709.8331,12.973902308925844
2711.0609,9.350989195997215
2712.2881,12.4267449439268
2713.5145,9.201155850253507
2714.7403,11.474208088248822
2715.9654,12.195887739172719
2717.1899,15.066180769543067
2718.4136,16.1350730239189
2719.6367,11.502550196197419
2720.8591,18.668597818925157
2722.0809,17.033201309623138
2723.3019,16.896345899126416
2724.5223,18.30801664793806
2725.7421,18.118198447597678
2726.9611,16.926876006564747
2728.1795,18.23403385211676
2729.3972,15.039656342262461
2730.6142,16.943727652670283
2731.8306,13.096231808612139
2733.0462,10.447152665922651
2734.2612,11.846473949474138
2735.4756,12.944179279667416
2736.6892,9.79025215843859
2737.9022,12.484675958282004
2739.1145,12.127433953789456
2740.3262,9.318509294706033
2741.5372,9.15788500950245
2742.7475,6.7955440334644095
2743.9571,8.88146921029876
2745.1661,6.215643315756957
2746.3744,4.848049036775755
2747.582,9.128668998135531
2748.7889,4.957485776136174
2749.9952,3.1344818557909093
2751.2008,4.809639672538104
2752.4057,5.9829416304713305
2753.61,3.1543700855877788
2754.8136,4.623907334055218
2756.0165,3.9415356404977686
2757.2188,4.107237223300444
2758.4204,0.3209942614329293
2759.6213,3.6327888927925613
2760.8215,6.442603252066725
2762.0211,2.500419437614994
2763.22,2.7562194833708915
2764.4182,0.8599853982637597
2765.6158,1.0616991636607978
2766.8127,3.311342752329317
2768.009,1.0088981264196661
2769.2045,0.20434721496877728
2770.3994,3.797671936924658
2771.5936,1.938854209191824
2772.7872,-0.5721240893019015
2773.9801,2.2647189009827997
2775.1723,2.649370755104883
2776.3639,2.7318190254761063
2777.5548,0.31205123801453993
2778.745,-1.7599451086799363
2779.9346,0.8158174808720773
2781.1235,-3.810655915998435
2782.3117,1.7606397698813652
2783.4992,1.879747676136894
2784.6861,0.7467109227872157
2785.8723,0.16157261105391285
2787.0579,1.474375834691486
2788.2428,1.6851636858387238
2789.427,2.843979241890665
2790.6106,0.500865563390704
2791.7935,0.30586568244248724
2792.9757,-0.940977373858999
2794.1573,1.510379418522625
2795.3382,-0.09001151601231783
2796.5184,0.6579022318327006
2797.698,0.15417397056926774
2798.8769,2.798857002129914
2800.0551,0.6920046269055007
2801.2327,2.7836701172982856
2802.4096,0.723906738790518
2803.5859,-0.9872322709722496
2804.7615,0.600306318416493
2805.9364,-0.7634144001863703
2807.1106,5.971668660073
2808.2842,3.3556262125583203
2809.4572,2.5385289109166393
2810.6294,9.270447375238767
2811.801,5.901452200230267
2812.972,7.431613887892233
2814.1423,11.511002881211276
2815.3119,9.03968954885788
2816.4808,15.017744144392502
2817.6491,13.145236830978718
2818.8167,17.372237621602665
2819.9837,23.09881639779819
2821.15,28.02504286737676
2822.3157,30.150986507161733
2823.4807,40.126716513726
2824.645,40.05230178213263
2825.8086,46.02781080617751
2826.9716,59.40331167913357
2828.134,60.778872033995626
2829.2957,66.70455890972539
2830.4567,71.18043873749589
2831.617,72.0565772814346
2832.7767,80.78303959386463
2833.9358,76.20989000654333
2835.0941,73.03719204339771
2836.2519,70.66500846625584
2837.4089,71.29340130657397
2838.5653,64.52243188915824
2839.7211,63.752160825880814
2840.8761,57.082648083389515
2842.0306,59.01395299081062
2843.1843,60.84613430644394
2844.3374,58.979250198449755
2845.4899,59.063358226527
2846.6417,64.5485153605822
2847.7928,66.23477797988826
2848.9433,68.42220181823294
2850.0931,68.21084194705628
2851.2422,64.6007527535763
2852.3907,66.89198794290263
2853.5385,70.53460057413744
2854.6857,73.27864303746296
2855.8323,77.32416701771552
2856.9781,71.87122346694498
2858.1233,78.9698625639596
2859.2679,79.17013376885538
2860.4118,84.22208575202967
2861.555,88.9757663921786
2862.6976,87.08122272577734
2863.8395,89.43850089954348
2864.9808,87.29764618938239
2866.1214,91.10870297681436
2867.2614,89.72171477038333
2868.4007,93.43672416754613
2869.5393,98.35377286854253
2870.6773,95.62290163924507
2871.8146,94.59415026198856
2872.9513,101.91755756287878
2874.0874,100.59316142208013
2875.2227,106.27099870058133
2876.3574,106.55110525343963
2877.4915,106.08351587300217
2878.6249,105.96826428610524
2879.7577,109.55538315874978
2880.8898,110.54490409725426
2882.0212,115.33685761238331
2883.152,114.38127310945242
2884.2821,115.42817884040872
2885.4116,115.97760191338648
2886.5405,120.7295682822382
2887.6686,117.2841027410405
2888.7962,122.54122887657425
2889.923,118.90096910277934
2891.0493,117.61334460818341
2892.1748,119.17837539230436
2893.2997,121.6460802785268
2894.424,119.96647689845145
2895.5476,119.28958166721836
2896.6706,118.36540980030277
2897.7929,117.99397532028411
2898.9145,122.6752910660878
2900.0355,122.7593686966994
2901.1559,116.04621864435171
2902.2756,122.03585011368376
2903.3946,119.77827114887243
2904.513,120.22348857373618
2905.6308,115.77150801431071
2906.7479,120.42233389439691
2907.8643,118.92596948008057
2908.9801,116.43241683322418
2910.0953,118.9916768264305
2911.2098,119.80374916797822
2912.3236,121.06863237622929
2913.4368,120.93632377150811
2914.5494,114.85681946345281
2915.6613,113.33011435233828
2916.7725,111.05620218987133
2917.8831,109.13507559445749
2918.9931,108.01672607394039
2920.1024,105.30114404481296
2921.211,106.08831884340077
2922.319,106.92823875301806
2923.4264,107.37089099609585
2924.5331,100.61626172578282
2925.6391,105.71433602151868
2926.7445,101.51509795658055
2927.8493,102.3685305471023
2928.9534,105.42461579406674
2930.0569,102.93333467477143
2931.1597,109.79466711226776
2932.2619,109.50859200027384
2933.3634,108.32508713456104
2934.4643,111.24412921581497
2935.5645,111.71569386147021
2936.6641,113.93975557652023
2937.763,115.91628774880147
2938.8613,108.94526262675294
2939.959,111.5266512996507
2941.056,108.1604237673182
2942.1523,101.59654891431242
2943.248,95.13499454358612
2944.3431,85.62572744212655
2945.4375,76.81871344557106
2946.5313,76.81391753329972
2947.6244,70.01130391650545
2948.7169,69.41083603824205
2949.8087,61.56247664145029
2950.8999,53.76618777496254
2951.9904,51.02193087198645
2953.0803,51.82966682806777
2954.1696,45.789356028533035
2955.2582,43.70095834041206
2956.3462,41.26443317284115
2957.4335,39.22973949794705
2958.5202,39.19683587521217
2959.6062,38.065680471821516
2960.6916,37.33623106299182
2961.7764,36.508445043282975
2962.8605,39.53227943389261
2963.9439,35.95769089093395
2965.0267,40.68463567519738
2966.1089,36.81306968789643
2967.1905,38.94294842339829
2968.2714,37.52422700793946
2969.3516,37.70686017832695
2970.4312,33.89080229612555
2971.5102,34.476007345831434
2972.5885,34.11242897303279
2973.6662,39.15002047855769
2974.7432,37.78873482210999
2975.8196,42.07852457189333
2976.8954,40.31934191822401
2977.9705,38.61113863063311
2979.045,41.65386607545831
2980.1188,39.797475232925855
2981.192,39.64191666672344
2982.2645,36.03714054256395
2983.3364,35.93309662974114
2984.4077,32.329734337177385
2985.4783,34.77700271446412
2986.5483,36.37485048789545
2987.6177,31.22322603599548
2988.6864,27.622077373539838
2989.7545,25.97135220307188
2990.8219,26.520997950914207
2991.8887,25.520961783675908
2992.9548,23.021190602756114
2994.0204,14.671631054344346
2995.0852,17.972229554418263
2996.1495,14.672932372239202
2997.2131,15.373685597346245
2998.276,10.474435172549153
2999.3383,7.675126886920857
3000.4,8.175706424789954
3001.4611,8.176119393733778
3002.5215,7.926311319572623
3003.5812,2.9762276463655866
3004.6404,7.97581373890867
3005.6989,4.6750149322355945
3006.7567,3.423776481621978
3007.8139,3.1720435955933013
3008.8705,3.819761448437287
3009.9264,5.316875182721237
3010.9818,0.41332990281485493
3012.0364,0.8090706599191044
3013.0905,2.304042501101666
3014.1439,3.2981904653395198
3015.1966,1.091459568569224
3016.2487,1.333794793745433
3017.3002,0.17514111290822498
3018.3511,2.46544348475971
3019.4013,1.7546468662506314
3020.4509,-1.1073038103226942
3021.4998,-4.070463630210401
3022.5481,0.6651233833024222
3023.5958,-1.0505461291376577
3024.6428,0.7325244664647066
3025.6892,3.214342299060675
3026.735,4.844914490276178
3027.7802,-0.22575187040626332
3028.8247,1.952350258046721
3029.8685,0.12923017192966668
3030.9118,1.304897148013609
3031.9544,1.9293604617772786
3032.9963,3.352629375650448
3034.0376,2.3247131327692934
3035.0783,2.5956209427437003
3036.1184,1.565361991936431
3037.1578,3.8839454407540543
3038.1966,3.4013804339495124
3039.2348,2.6676760774363224
3040.2723,5.532841443114201
3041.3092,3.296885576206133
3042.3455,3.1098174666066676
3043.3811,0.8716460712415355
3044.4161,4.182380315938271
3045.4505,4.242029117807988
3046.4842,7.15060135213799
3047.5173,5.308105851795322
3048.5498,2.764551378141018
3049.5816,6.569946639455068
3050.6128,5.8243003163719465
3051.6434,2.4776210238266927
3052.6734,5.179917318511343
3053.7027,4.981197732341727
3054.7314,5.331470745434526
3055.7594,9.380744788094411
3056.7868,8.029028237311401
3057.8136,9.776329376268059
3058.8398,4.022656407856676
3059.8653,8.818017437206265
3060.8902,8.162420529219272
3061.9145,11.155873660617978
3062.9381,5.798384726500469
3063.9612,9.3899615104061
3064.9835,10.230611737890374
3066.0053,9.220343040609203
3067.0264,9.209162947912379
3068.0469,8.647078896946276
3069.0668,11.384098232765638
3070.086,6.9702282139544405
3071.1046,11.45547598525567
3072.1226,9.689848621710054
3073.1399,10.323353083803555
3074.1567,6.855996235123655
3075.1727,8.787784836024306
3076.1882,7.568725578299496
3077.203,10.79882506586538
3078.2173,6.678089826950847
3079.2308,6.756526281796543
3080.2438,4.584140783862221
3081.2561,2.4609396190423904
3082.2678,5.686929027390157
3083.2789,4.262115224349252
3084.2893,4.236504368494119
3085.2991,3.3101025757780462
3086.3083,8.1829159197893
3087.3169,5.454950441015118
3088.3248,5.276212098113598
3089.3321,4.196706795193325
3090.3388,4.616440383600784
3091.3449,3.885418672715385
3092.3503,3.3036474257521373
3093.3551,3.071132367071879
3094.3593,6.187879187998975
3095.3629,6.153893549146469
3096.3658,3.4691810492486255
3097.3681,3.7337472255007764
3098.3698,2.147597580406451
3099.3708,6.410737579131711
3100.3713,5.923172665366646
3101.3711,2.3849082186939583
3102.3702,0.8959495594646505
3103.3688,5.256301984180636
3104.3667,5.315970780384335
3105.364,1.4749611830551626
3106.3607,4.533278374012831
3107.3568,4.5909275203274404
3108.3522,4.6479137437363285
3109.347,0.7042421200675619
3110.3412,4.759917678670073
3111.3348,2.864945441850379
3112.3277,2.1193303843158304
3113.32,2.423077452124316
3114.3117,2.9761915701404416
3115.3028,2.678677638998032
3116.2932,3.080540529569003
3117.2831,4.931785085938497
3118.2723,3.8824161213862602
3119.2608,0.5324383998741915
3120.2488,2.38185664654004
3121.2361,1.9806755811971701
3122.2229,4.3788998998403805
3123.209,1.826534278657718
3124.1944,3.1735833500482418
3125.1793,3.0700517281456694
3126.1635,1.6159439953478838
3127.1471,4.161264703352259
3128.1301,2.7560183876967237
3129.1125,2.2502095423065676
3130.0942,5.543842633546902
3131.0753,3.3369221052807365
3132.0558,1.429452345932667
3133.0357,1.5214377105580645
3134.015,1.4128825399177822
3134.9936,1.7037911595583015
3135.9716,4.744167880897289
3136.949,6.084016998314497
3137.9258,1.073342758748006
3138.902,4.162149348295728
3139.8775,2.650440942322146
3140.8524,3.2382216745702594
3141.8267,-0.22450434772133843
3142.8004,3.212266950303732
3143.7735,1.348541886300275
3144.7459,3.484326745800436
3145.7178,0.6196278008509362
3146.689,2.8544512886552322
3147.6596,2.3388034402205102
3148.6295,2.572690458009445
3149.5989,5.756118521096678
3150.5676,0.18909378282994993
3151.5357,2.271622338995819
3152.5032,3.7537102834899105
3153.4701,3.7853636874916283
3154.4364,1.61658858464327
3155.402,3.4473909707335118
3156.367,3.5277768253851383
3157.3315,0.25775209374703323
3158.2952,2.387322685690309
3159.2584,3.266494508508562
3160.221,3.5452734456221577
3161.1829,4.123665347786527
3162.1442,4.651676030304364
3163.105,1.0793112672417182
3164.065,4.006576786147879
3165.0245,2.9834783037790222
3165.9834,5.360021496825556
3166.9416,2.6862120121431143
3167.8993,5.662055442987112
3168.8563,4.987557355750852
3169.8127,4.062723260207081
3170.7684,3.187558616252983
3171.7236,0.1620688431585089
3172.6782,1.9362593283180267
3173.6321,5.160135457505216
3174.5854,4.733702597131167
3175.5381,1.7569660620056116
3176.4902,5.629931119601265
3177.4417,4.852603019821174
3178.3926,2.1749869562690876
3179.3428,3.997088074022715
3180.2924,4.0189114964099
3181.2415,4.340462306787606
3182.1899,3.3117455483236764
3183.1377,4.382766220781339
3184.0848,7.803529290806363
3185.0314,2.8240396812168616
3185.9773,5.894302236795655
3186.9227,4.364321774085165
3187.8674,5.334103050684794
3188.8115,2.9536507805507264
3189.755,3.92296962429812
3190.6979,3.992064213005628
3191.6402,4.760939138522209
3192.5818,2.379598952776181
3193.5229,2.1980481600864734
3194.4633,2.366291240976025
3195.4031,4.634332653987292
3196.3423,3.552176833999824
3197.2809,5.969828169549844
3198.2189,6.0372910136518065
3199.1563,4.204569659621885
3200.0931,4.221668340403344
3201.0292,5.488591246893755
3201.9648,0.4053425277740059
3202.8997,2.371926276839076
3203.834,4.988346583830523
3204.7677,4.154607514770641
3205.7008,3.5707130857982627
3206.6333,2.4366672715061464
3207.5652,7.252474010779919
3208.4964,2.7181372181385353
3209.4271,4.9836607355762155
3210.3571,4.9490483779058065
3211.2865,2.214303910103551
3212.2154,2.629431047655209
3213.1436,4.394433483903502
3214.0712,5.2593148858968455
3214.9982,6.924078876739319
3215.9246,4.288729026941851
3216.8503,5.603268837774589
3217.7755,4.667701767620387
3218.7001,5.882031218829415
3219.624,3.846260547074823
3220.5473,3.460393049209452
3221.4701,2.774431983623538
3222.3922,2.988380574103387
3223.3137,4.702242016690983
3224.2346,6.516019477544505
3225.1549,5.529716075799712
3226.0746,3.893334865432169
3226.9937,4.856878845120282
3227.9121,4.3203509746091076
3228.83,7.433754165074917
3229.7473,8.697091284490469
3230.6639,4.210365126490982
3231.5799,5.67357839774076
3232.4954,4.736733762800457
3233.4102,6.349833829494942
3234.3244,10.16288115828175
3235.238,3.625878246120083
3236.151,6.888827488340321
3237.0634,5.701731244014067
3237.9752,6.21459180332465
3238.8864,5.827411399438083
3239.797,5.990192203374464
3240.7069,2.0029363278797745
3241.6163,6.315645825798079
3242.5251,7.628322729944075
3243.4332,8.790969009976
3244.3408,3.253586559268865
3245.2477,7.116177183287984
3246.154,5.278742654962814
3247.0598,3.9412846760610374
3247.9649,5.753804895562907
3248.8694,6.266304923035829
3249.7733,5.828786310509157
3250.6766,6.0412505473491995
3251.5793,8.353699064634398
3252.4814,4.666133233030695
3253.3829,7.228554339667042
3254.2838,8.74096362501106
3255.1841,5.253362257244828
3256.0838,5.665751317140781
3256.9829,6.978131832937738
3257.8814,3.3905047762169973
3258.7792,4.65287104877855
3259.6765,5.915231518517342
3260.5731,5.927587006799605
3261.4692,7.989938275839255
3262.3647,4.902286028574339
3263.2595,6.96463088804352
3264.1538,6.5769734282626
3265.0474,7.4893141536010726
3265.9404,9.151653502658693
3266.8329,3.0139918391420792
3267.7247,3.1763294352413096
3268.616,7.1386665330065435
3269.5066,3.951003342724648
3270.3966,4.96334000329582
3271.286,4.9756766141102275
