RamanShift,CorrectedData
30.1047,1295.842883212771
32.3739,1199.9045659714366
34.6426,1112.066235771673
36.9109,1017.2778676560063
39.1787,925.6894255462988
41.4461,833.6508631916348
43.7131,748.5121250842037
45.9796,656.6731473796858
48.2456,561.3338587486398
50.5112,473.3941812948921
52.7764,381.6040315089307
55.0411,291.0133211473012
57.3054,207.4219581505091
59.5692,116.97984754892634
61.8326,29.33689229870538
64.0955,-59.35700581379993
66.3579,-144.4519452956046
68.6199,-225.64743167723555
70.8815,-288.99152741428645
73.1426,-302.6300407445087
75.4032,-201.95589288029498
77.6634,197.141018240069
79.9231,1276.2728122176668
82.1824,3709.8516066821717
84.4412,8184.989506500531
86.6995,14343.048579441172
88.9574,20398.740811422635
91.2148,24519.928044932964
93.4717,26330.47191847281
95.7282,26531.333825343532
97.9842,26244.724895541774
100.2398,25448.35599375085
102.4949,24666.187722206818
104.7495,23718.930428662174
107.0036,22793.194214207542
109.2573,21866.738942744247
111.5105,21005.124250241668
113.7632,20178.95955400179
116.0154,19499.504061275366
118.2672,18978.866777523555
120.5185,18407.70651321247
122.7693,18001.53188901956
125.0197,17620.501341545205
127.2696,17196.123127374485
129.519,16929.705326887448
131.7679,16570.20584850292
134.0163,16286.632431342681
136.2642,15926.592648826445
138.5117,15546.59391150761
140.7587,15129.593470673648
143.0052,14755.548422146096
145.2512,14404.565710450548
147.4967,14017.652132557128
149.7417,13745.164341390297
151.9863,13495.608849697994
154.2304,13315.342032776516
156.4739,13090.770130966086
158.717,12915.749251453492
160.9596,12664.335370517832
163.2017,12315.684335280715
165.4433,11916.101866220393
167.6844,11514.143560658278
169.925,11090.164896754763
172.1651,10636.421237528808
174.4047,10276.517835097726
176.6439,9929.309835214615
178.8825,9611.402280867407
181.1206,9370.600115750927
183.3582,9130.808187445988
185.5954,8938.381249827395
187.832,8748.123965461877
190.0681,8622.04090753235
192.3037,8569.336561740496
194.5388,8480.715327567592
196.7734,8452.181518801546
199.0075,8429.73936442312
201.2411,8477.343008891257
203.4742,8481.696512367515
205.7068,8515.75385024002
207.9389,8566.668913079942
210.1704,8632.295506300914
212.4015,8676.987349649873
214.632,8799.89807655082
216.862,8898.631233657867
219.0915,8964.54027962616
221.3205,9015.07858412453
223.549,9162.399427176413
225.777,9270.605998654457
228.0044,9468.701396807317
230.2314,9715.988627177594
232.4578,9916.820600620871
234.6837,10131.85013083286
236.909,10258.579932341054
239.1339,10129.712618354455
241.3582,9915.750699496279
243.582,9567.196585092614
245.8053,9257.352585312037
248.0281,9027.220914651167
250.2503,8780.803695033104
252.472,8674.952958108737
254.6932,8616.420647720928
256.9139,8547.95862096301
259.134,8560.268648764126
261.3536,8595.302416573817
263.5727,8725.761524238958
265.7912,8759.397485653386
268.0092,8839.161727453335
270.2267,8863.655588681064
272.4436,8801.530319987214
274.6601,8709.837083385886
276.8759,8561.326952875866
279.0913,8424.50091535758
281.3061,8268.409872118189
283.5204,8196.20464019985
285.7341,8163.18595396063
287.9473,8193.254465796546
290.16,8332.860746471759
292.3721,8475.305284817896
294.5837,8774.438486337982
296.7947,9002.510671781993
299.0052,9110.572074155518
301.2152,9004.122836439044
303.4246,8669.463010507341
305.6334,8138.292558193949
307.8418,7585.161354637796
310.0495,7125.019193594884
312.2568,6676.715792969608
314.4635,6348.500799416173
316.6696,6098.923792821635
318.8752,5916.634289588048
321.0802,5859.231745128227
323.2847,5868.06555568865
325.4887,5871.9350589234855
327.692,5809.2395338062415
329.8949,5684.37820059108
332.0972,5385.800221439773
334.2989,5066.504701670317
336.5001,4746.390692742709
338.7007,4517.5571954519
340.9008,4335.403163128944
343.1003,4130.72750392932
345.2992,4043.2790826544842
347.4976,3970.556722798621
349.6955,3866.009207423129
351.8927,3843.5352798838394
354.0895,3742.6336448765014
356.2856,3739.752968661516
358.4812,3641.541880072953
360.6763,3640.948970547355
362.8707,3590.272795105857
365.0646,3600.5618723601056
367.258,3582.5146850190395
369.4508,3601.979679785969
371.643,3643.705267539066
373.8346,3643.2898231367126
376.0257,3624.0316850002328
378.2162,3551.52915511806
380.4062,3460.53049923831
382.5956,3293.2339475938134
384.7844,3142.1376958121073
386.9726,2976.239906588402
389.1603,2887.1887111965316
391.3474,2777.4322111479414
393.5339,2743.4184790821837
395.7199,2673.245559864501
397.9052,2645.711470925944
400.09,2652.314202965117
402.2743,2757.001720223516
404.4579,2827.1719604195005
406.641,2987.17283370141
408.8235,3157.0022219458606
411.0054,3367.7079771577555
413.1868,3685.487919771982
415.3675,3859.4898365463378
417.5477,3967.61147738376
419.7273,3947.0505535922857
421.9064,3827.3547368038417
424.0848,3681.221659179857
426.2627,3488.348914608214
428.4399,3193.0840601645777
430.6166,2816.924618041143
432.7928,2430.51807849927
434.9683,2061.8619036310793
437.1432,1813.9035312235155
439.3176,1598.9903784449089
441.4914,1509.3198443245528
443.6645,1460.9393119018405
445.8371,1359.246149122977
448.0091,1293.3377093247673
450.1806,1275.061332251562
452.3514,1211.3643447143459
454.5216,1215.6940607734869
456.6913,1127.0977823757148
458.8603,1152.9727993108118
461.0288,1216.016390097595
463.1967,1164.0758217251532
465.3639,1232.3983490224164
467.5306,1262.63121517756
469.6967,1325.8716510547747
471.8622,1399.8668748919536
474.0271,1494.264091668285
476.1914,1530.0604923642877
478.3551,1572.5032530178469
480.5182,1527.3395343662487
482.6807,1550.8664814217573
484.8426,1695.0312239232444
487.0039,1964.5308761009237
489.1647,2340.7625352346986
491.3248,2691.823278959184
493.4843,2864.0101615013627
495.6432,2846.37021017
497.8015,2706.5004236337627
499.9592,2647.047772097618
502.1163,2508.0591987015378
504.2728,2234.6816201150195
506.4287,1922.0119279269747
508.5839,1532.5969913795052
510.7386,1241.783660494597
512.8927,1075.8187699682712
515.0461,1015.2991420787166
517.199,1005.1715883459347
519.3512,1095.9329101369422
521.5029,1234.729898767042
523.6539,1365.109334592209
525.8043,1446.017985621127
527.9541,1409.6026062113888
530.1033,1319.959936260413
532.2519,1235.0367015695974
534.3999,1299.379614740752
536.5472,1446.2853760253292
538.694,1795.250672680986
540.8401,2258.1221775025297
542.9856,2623.8465453322697
545.1305,2717.420408431308
547.2748,2634.5403728222755
549.4185,2346.0530173536135
551.5615,2084.204894528357
553.704,1977.2925333890216
555.8458,1976.5124421360779
557.987,2074.361109197065
560.1276,2176.435003234419
562.2675,2354.530572166963
564.4069,2578.194242149175
566.5456,2812.872415790238
568.6837,2803.1114699173995
570.8212,2466.907753229185
572.958,1998.707586393015
575.0942,1546.3072654072403
577.2299,1211.3030662831407
579.3648,1126.8912495689365
581.4992,1137.7680636998011
583.6329,1288.2297458420198
585.766,1499.922521784194
587.8985,1575.3926044326327
590.0304,1622.9361916944163
592.1616,1563.1494657227122
594.2922,1462.1285924413169
596.4222,1309.4697221425467
598.5515,1099.7189904974293
600.6802,957.4225200823075
602.8083,775.9264224763356
604.9358,745.1767996844446
607.0626,698.4197459523093
609.1888,734.951348073846
611.3144,783.4176858587816
613.4393,801.4148317673335
615.5636,777.8888504255592
617.6873,765.7857984453713
619.8103,691.601724659804
621.9327,539.3826702440365
624.0544,449.0246694572379
626.1756,351.7737511647556
628.2961,270.82593974169686
630.4159,208.47725604544212
632.5351,177.37371822511523
634.6537,144.56134234506862
636.7716,127.23614269592326
638.8889,136.04413212268628
641.0056,165.8313221980061
643.1216,139.74372313409367
645.237,168.52734348486047
647.3518,109.12819040677823
649.4659,121.99226937105777
651.5793,97.81558475764541
653.6922,95.64413972656803
655.8043,52.123936459705874
657.9159,37.55097618249965
660.0268,13.9712595991532
662.137,9.130787038373455
664.2466,-0.6244413108397566
666.3556,-23.74851647604737
668.4639,-36.19552324664801
670.5716,-45.21930916435667
672.6786,11.676639822371726
674.785,24.08928950597692
676.8907,58.815605562136625
678.9958,143.0025534256365
681.1002,89.99709794311275
683.204,86.39620253117391
685.3072,52.44682970647227
687.4097,7.345941121693613
689.5115,-25.25950209493749
691.6127,16.777387798847485
693.7132,-53.69624911225037
695.8131,-76.483272911315
697.9123,-52.636007255907316
700.0109,-66.95601173569048
702.1089,-44.29432010663004
704.2061,-33.25129723413556
706.3028,21.873134516641585
708.3987,81.4793849609905
710.4941,148.9678636954868
712.5887,276.0889795019066
714.6827,453.34313967237176
716.7761,714.1807487380993
718.8688,1014.8022066968915
720.9608,1188.1079064047335
723.0522,1324.8482305695907
725.1429,1252.5235500183462
727.233,1124.0342223294028
729.3224,1037.8305925559343
731.4112,854.8629945107732
733.4993,670.9317516284591
735.5867,508.98717879490505
737.6735,357.87958418671224
739.7596,230.40927089061734
741.845,161.97653841455576
743.9298,100.93168396238616
746.014,108.37500311820259
748.0974,111.7567904567859
750.1802,95.42733946917724
752.2624,143.53694252884816
754.3439,159.3858910550025
756.4247,269.4744750314785
758.5048,448.2529828482602
760.5843,695.5717002005913
762.6631,1087.4809083011933
764.7413,1611.3308814070642
766.8188,2239.921882900395
768.8956,2780.0041600500645
770.9718,3104.827937725735
773.0473,2975.993412997037
775.1221,2687.300751885323
777.1962,2354.600090652004
779.2697,2208.941538685496
781.3426,2254.6751818282155
783.4147,2449.9010838331596
785.4862,2685.719285906587
787.557,2663.429804755742
789.6271,2266.6326302306807
791.6966,1672.7777255471701
793.7654,1105.3150312546531
795.8335,736.5944711747961
797.901,530.965958076129
799.9678,401.27939736124245
802.0339,387.63468912306416
804.0993,393.98172944173166
806.1641,369.8204105210443
808.2282,312.05062062498473
810.2916,248.7722443193452
812.3544,162.28516304941877
814.4164,121.33925577278023
816.4778,117.93439982415293
818.5385,139.37047132486805
820.5986,268.99734521692153
822.658,443.16489504861784
824.7166,656.822991678282
826.7747,1049.1715015325935
828.832,1414.4102844700064
830.8886,1668.5391898572689
832.9446,1838.7080529170325
834.9999,1793.516692186573
837.0545,1652.7649078160812
839.1085,1498.9024820205905
841.1618,1365.3791804874872
843.2143,1263.0947539151348
845.2662,1085.6489393481097
847.3175,1027.8914612000408
849.368,913.8220330280728
851.4179,833.6903581104507
853.467,714.6461305871962
855.5155,643.3890362614547
857.5633,512.7187537899063
859.6105,458.2849553953529
861.6569,402.8873081734073
863.7027,349.4254746368424
865.7478,322.7991132695606
867.7922,321.20787906121404
869.8359,330.85142377346165
871.8789,455.2793959558785
873.9212,557.0914408495373
875.9629,710.8871991427222
878.0039,883.6163059528026
880.0441,963.6783892882831
882.0837,1024.1730683215083
884.1226,999.7999525880441
886.1609,974.1086413817211
888.1984,994.498723998373
890.2352,1056.1697799927588
892.2714,1016.2713789746576
894.3069,1046.953079992145
896.3416,903.3644319305968
898.3757,833.2049732058658
900.4091,838.9742332001715
902.4418,802.1217329636838
904.4739,857.5469851568469
906.5052,905.2494944188966
908.5358,833.0287568135973
910.5658,708.8342593522266
912.595,511.6154807157727
914.6236,349.5718924968751
916.6515,256.2529611720365
918.6786,216.90814972204134
920.7051,258.78691856515434
922.7309,375.3387259505653
924.756,428.7630275395986
926.7804,525.3092752401972
928.8041,488.8269166726732
930.8272,575.2153942042514
932.8495,527.5741453138853
934.8711,501.8526017283857
936.892,411.3501898988252
938.9123,342.2163312577559
940.9318,304.25044312423415
942.9506,255.80193939514902
944.9688,186.62023092489835
946.9862,112.35472600986031
949.003,29.454831080218355
951.019,9.019951442618549
953.0344,-30.80050789083907
955.0491,-11.107141998245424
957.063,92.29976173937393
959.0763,177.52002690134213
961.0888,213.75347614398015
963.1007,310.19993034842264
965.1119,357.9592082582694
967.1223,388.8811255151286
969.1321,400.0154941810306
971.1412,425.8621224291983
973.1495,404.8208144327127
975.1572,459.5913701060326
977.1641,479.2735853154154
979.1704,511.4172513312096
981.1759,486.02215463103676
983.1808,524.688076578339
985.1849,615.0147936763533
987.1884,732.3520771814347
989.1911,875.2996921998038
991.1932,987.0073965141655
993.1945,1036.774939154242
995.1951,997.6520592796733
997.1951,997.3384856823577
999.1943,928.8839371776776
1001.1928,915.7881226076388
1003.1906,933.3007415254215
1005.1877,1044.371484326326
1007.1841,1070.6000320726544
1009.1798,1058.9860553829985
1011.1748,904.5292141699538
1013.1691,761.7291577562628
1015.1627,541.5855264193797
1017.1556,361.49795281947263
1019.1477,267.816064200857
1021.1392,176.78948419287917
1023.1299,186.4678337467176
1025.12,196.00073204566615
1027.1093,268.7877964083473
1029.0979,400.82864219337534
1031.0859,459.7728820715056
1033.0731,483.97012470521076
1035.0596,460.519974159246
1037.0454,312.42202965866454
1039.0304,218.3758858233232
1041.0148,111.23113414885665
1042.9985,7.187363947137783
1044.9814,-14.155836582265692
1046.9636,-38.49887931165176
1048.9452,-57.14203469651875
1050.926,8.914811411437768
1052.9061,-6.027655990565108
1054.8855,20.73124800554433
1056.8642,71.9422685241334
1058.8421,160.056150482249
1060.8194,169.87363807752445
1062.7959,227.14547390702865
1064.7717,273.02239886909956
1066.7469,309.6051515906256
1068.7213,396.99446796829216
1070.695,425.94108080273145
1072.6679,375.1457189246594
1074.6402,411.50910690537785
1076.6117,357.03196556473813
1078.5826,354.2150116074972
1080.5527,284.60895816810444
1082.5221,301.96451483885903
1084.4908,403.03238836598393
1086.4587,528.2132824760592
1088.426,634.1578968653503
1090.3925,669.5669259480001
1092.3584,663.8410577965788
1094.3235,591.430973787983
1096.2879,592.2873486607023
1098.2515,662.4608512389168
1100.2145,793.1021444239432
1102.1767,921.8618844924822
1104.1382,1134.790719790224
1106.099,1379.4392894442335
1108.0591,1604.5582212336885
1110.0185,1759.898129143363
1111.9771,1816.2596111124658
1113.9351,1672.1932474812256
1115.8923,1461.899600427285
1117.8488,1225.4292154063605
1119.8045,1019.2326232551677
1121.7596,896.3603425561341
1123.7139,834.012881699362
1125.6675,822.0407401113516
1127.6204,869.2444088784905
1129.5726,844.7243708667556
1131.524,815.431100249687
1133.4748,752.3150627535979
1135.4248,671.5267159504856
1137.3741,582.0665098892041
1139.3226,535.0848879033401
1141.2705,498.9822875058144
1143.2176,411.7091408587112
1145.164,385.6158751342864
1147.1097,365.4529133877095
1149.0546,344.6206748179957
1150.9989,270.3195749696315
1152.9424,179.50002594090984
1154.8852,82.71243712693649
1156.8272,-22.892783872188375
1158.7686,-44.265230283483106
1160.7092,-39.50426663505277
1162.6491,-11.658815245356891
1164.5883,114.57259621476442
1166.5267,178.24155654603055
1168.4644,403.24965340344716
1170.4014,547.0984726596107
1172.3377,835.6895961546325
1174.2732,1111.8246002576416
1176.2081,1438.8050529808734
1178.1421,1804.8325112183284
1180.0755,2197.958517475967
1182.0082,2416.6345962114174
1183.9401,2541.712249902728
1185.8713,2427.0429568616073
1187.8017,2180.9781699826344
1189.7315,1881.569317889971
1191.6605,1529.0678073979907
1193.5888,1330.975026505379
1195.5163,1191.6423479201585
1197.4432,1111.8211310405986
1199.3693,1086.012723348551
1201.2947,1083.0684612076711
1203.2193,1047.4396701214828
1205.1432,1083.8776647628383
1207.0664,1104.2337493301948
1208.9889,1086.9592171832373
1210.9106,1099.6553506393248
1212.8316,1127.7734211462157
1214.7519,1200.064689155126
1216.6715,1243.9804038395287
1218.5903,1292.571802372262
1220.5084,1312.4401094863606
1222.4257,1380.2365369891413
1224.3424,1375.4622835635291
1226.2583,1490.8685340900847
1228.1735,1592.9064596947392
1230.0879,1714.877216594752
1232.0016,1851.0319450783118
1233.9146,1945.3217682848426
1235.8269,1910.6477908434608
1237.7384,1840.4610979300596
1239.6492,1683.612755614071
1241.5592,1624.5538115603158
1243.4686,1570.1852965975013
1245.3772,1652.1582253087963
1247.285,1754.3735965755259
1249.1922,1873.2323927574434
1251.0986,1906.885578670568
1253.0042,1961.984100398602
1254.9092,2017.3288849563942
1256.8134,2096.620839738953
1258.7169,2286.5608519680045
1260.6196,2435.649787899072
1262.5216,2674.18849092207
1264.4229,2884.4777800704233
1266.3234,3107.068447635673
1268.2232,3221.6112570645946
1270.1223,3238.0069407332776
1272.0207,3255.056198801709
1273.9183,3233.809699049805
1275.8151,3192.4680767069276
1277.7113,3171.2319346643562
1279.6067,3175.4518438886917
1281.5014,3227.228343634226
1283.3953,3385.911941400731
1285.2885,3633.503112415692
1287.181,3888.102298047481
1289.0727,4184.909903329441
1290.9637,4383.726294413906
1292.854,4562.501795604114
1294.7435,4624.036687366035
1296.6323,4666.931204540635
1298.5204,4744.03553572851
1300.4077,4778.34982286095
1302.2943,4799.874160428901
1304.1802,4714.458595139822
1306.0653,4465.153125702425
1307.9497,4146.557703680848
1309.8333,3907.572235987689
1311.7162,3724.446588069979
1313.5984,3606.8305862990255
1315.4798,3578.2740198016763
1317.3605,3625.126641636476
1319.2405,3648.1881690792306
1321.1197,3486.4582831544867
1322.9982,3321.3366284049116
1324.876,3173.622814508599
1326.753,2985.5664179302785
1328.6293,2895.4669833984535
1330.5048,2885.374025785968
1332.3796,2766.6370310110015
1334.2537,2741.4054561380053
1336.127,2712.4287305650487
1337.9996,2671.1562562761574
1339.8714,2703.037408131071
1341.7426,2700.4715342779728
1343.6129,2722.307955834667
1345.4826,2718.0459669142583
1347.3515,2737.2348344067686
1349.2196,2706.9737980217687
1351.087,2767.1120700964802
1352.9537,2836.248835898392
1354.8197,2976.7332530238727
1356.6849,3149.414450706812
1358.5493,3292.141528413771
1360.4131,3414.413554117171
1362.276,3452.9295628680193
1364.1383,3413.538555573199
1365.9998,3214.139498610295
1367.8606,2902.181324221505
1369.7206,2594.8129325076516
1371.5799,2313.433194547739
1373.4384,2131.7909554726484
1375.2962,1948.6350372789275
1377.1533,1659.6142406452218
1379.0096,1345.2773467638326
1380.8652,1049.673120230913
1382.7201,787.6003121898575
1384.5742,581.8576632873283
1386.4275,395.9939062939902
1388.2802,282.75776816193866
1390.132,177.64797188332886
1391.9832,144.21323762274005
1393.8336,67.00228376827727
1395.6832,46.66382726592019
1397.5322,46.84658439163286
1399.3803,10.349270954737221
1401.2278,3.720602296099969
1403.0745,32.209293653089844
1404.9204,46.71406022587871
1406.7656,76.08361689254707
1408.6101,123.61667806403602
1410.4538,169.9619573904547
1412.2968,219.1681672857485
1414.139,272.98401846424713
1415.9805,406.4082194485982
1417.8213,488.33947603161687
1419.6613,603.6764899420396
1421.5006,800.7679580252116
1423.3391,1026.1125710897204
1425.1769,1335.2090119364748
1427.0139,1824.2059531052691
1428.8502,2399.452053783809
1430.6858,2971.6959549177454
1432.5206,3403.336273458219
1434.3547,3646.8215966394146
1436.188,3712.000477662167
1438.0206,3624.4214332591
1439.8524,3497.0829430428357
1441.6835,3416.183450381787
1443.5139,3351.171363673543
1445.3435,3297.995057153861
1447.1724,3246.9528715467895
1449.0005,3208.193114596429
1450.8279,3152.26406157735
1452.6545,3146.1639556822056
1454.4804,3186.641008581002
1456.3056,3210.393400482105
1458.13,3145.419279727479
1459.9536,2991.6167625551625
1461.7766,2700.633933748997
1463.5987,2353.4688481766643
1465.4202,2048.2695336995093
1467.2409,1708.2839946441954
1469.0608,1451.5602148546914
1470.88,1180.4961610921246
1472.6984,974.3397856020274
1474.5161,814.3390288249684
1476.3331,653.0918214581143
1478.1493,577.8960860552525
1479.9648,500.99973863925516
1481.7795,428.750689454032
1483.5935,364.9468437334999
1485.4067,320.23610242406903
1487.2192,303.31636282268937
1489.031,275.6855190239521
1490.842,250.19146208928578
1492.6522,249.28208032326893
1494.4618,229.65525952857024
1496.2705,212.25888301504074
1498.0785,214.14083179598128
1499.8858,191.448984762108
1501.6924,170.08121866273268
1503.4981,157.5854083326767
1505.3032,157.55942690595475
1507.1075,127.80114594072984
1508.911,135.10843541957092
1510.7138,98.12916404704538
1512.5159,65.06119917663818
1514.3172,34.25240718054647
1516.1178,19.050653780359426
1517.9176,27.253804355147622
1519.7166,5.659724093476143
1521.515,-1.983722088622926
1523.3126,-15.728669331706442
1525.1094,-7.977232958949571
1526.9055,-21.03137116412654
1528.7008,-27.24296244845118
1530.4954,-51.86367520974272
1532.2893,-26.094905688632025
1534.0824,-67.48753200763986
1535.8747,-22.142171601180053
1537.6663,-31.308767703223566
1539.4572,-23.487042347453098
1541.2473,8.873595207036487
1543.0367,10.973970336696766
1544.8253,27.51490832924901
1546.6132,79.19723436267668
1548.4003,74.37177333981617
1550.1867,167.68934937153608
1551.9723,233.25078582498918
1553.7572,324.45690439043574
1555.5414,411.0085244256361
1557.3247,504.2564620437797
1559.1074,650.0515292479786
1560.8893,797.2445329987813
1562.6705,927.086273756222
1564.4509,1027.5775440078914
1566.2305,1105.96912697052
1568.0094,1197.811795585063
1569.7876,1226.7063117327807
1571.565,1211.4034253168147
1573.3417,1213.253873973239
1575.1176,1213.5083832241044
1576.8928,1220.9676664589124
1578.6672,1193.482424932091
1580.4409,1169.1033476883822
1582.2138,1126.8811118377052
1583.986,1125.5163827989527
1585.7575,1150.5598147222026
1587.5282,1166.6120505023773
1589.2981,1214.7737215288016
1591.0673,1233.8454475246854
1592.8358,1338.5278360655084
1594.6035,1417.6714823882949
1596.3704,1476.9769683447985
1598.1366,1576.6448616100597
1599.9021,1661.6257150893562
1601.6668,1725.5700659215217
1603.4308,1859.0284346291337
1605.194,2015.7513244790698
1606.9564,2224.489220147927
1608.7182,2440.0425861547883
1610.4791,2682.6118647738476
1612.2394,2941.8974738788784
1613.9988,3195.149804517534
1615.7576,3446.519218318499
1617.5156,3656.2060449589662
1619.2728,3807.3105796509353
1621.0293,3875.383081044354
1622.785,3799.2237697160617
1624.54,3632.332827489072
1626.2942,3419.0103981941647
1628.0477,3111.156589338786
1629.8005,2873.2714742402877
1631.5525,2634.205095104455
1633.3037,2391.5074654043574
1635.0542,2287.5285722710196
1636.804,2178.618378920394
1638.553,2097.67682569315
1640.3013,2088.053831143775
1642.0488,2064.199292849993
1643.7955,2150.763087508989
1645.5416,2228.5450711759586
1647.2868,2335.0950783984645
1649.0313,2452.162921438621
1650.7751,2623.698389207597
1652.5181,2796.9512460949336
1654.2604,2986.171230253195
1656.0019,3244.7580518654295
1657.7427,3524.11139125298
1659.4828,3817.030896289605
1661.222,4013.066179607955
1662.9606,4006.966815670369
1664.6984,3799.8823388085275
1666.4354,3399.01224328444
1668.1717,2898.355985361298
1669.9072,2344.862987312167
1671.642,1892.3826424265608
1673.3761,1522.36432054536
1675.1094,1247.9073725856279
1676.8419,1037.7611342407845
1678.5737,852.0249287251745
1680.3048,729.6980688755375
1682.0351,627.6798590083645
1683.7646,519.4195961431715
1685.4934,477.56657102267945
1687.2215,407.9700691954213
1688.9488,358.1293714342637
1690.6754,299.1437544323735
1692.4012,281.6124913016283
1694.1263,248.88485216246772
1695.8506,228.6101043192084
1697.5742,225.437512587323
1699.297,214.11633949617953
1701.0191,170.7958453207766
1702.7404,162.92528819495237
1704.461,124.0539245445907
1706.1808,118.03100916632138
1707.8999,121.30579561623927
1709.6182,74.37753627012808
1711.3358,91.49548229071661
1713.0527,68.65888409695799
1714.7688,55.866991192851856
1716.4841,49.51905239580901
1718.1987,53.66431596457278
1719.9126,51.90202966270044
1721.6257,35.981440717106125
1723.338,57.45179583569279
1725.0496,21.362341366550027
1726.7605,28.71232308325034
1728.4706,42.40098654574558
1730.18,24.22757702686249
1731.8886,27.69133937542756
1733.5964,21.64151819799008
1735.3036,24.577357824187857
1737.0099,25.89810236724952
1738.7156,14.852995694630408
1740.4204,-2.408718585193128
1742.1246,20.41220298772896
1743.8279,2.9650279364423113
1745.5306,-3.2509764201276994
1747.2325,-2.9865427927034034
1748.9336,-1.6923714147505962
1750.634,-29.169132684177384
1752.3336,-9.467480092100232
1754.0325,-11.93777573000716
1755.7307,-23.730287109259734
1757.4281,3.4048375171569205
1759.1247,5.417686961821346
1760.8206,2.858350003267333
1762.5158,-6.573084634146653
1764.2102,-4.326528254646291
1765.9039,-4.5518264973406986
1767.5968,-8.498781779324418
1769.289,1.132848955053305
1770.9804,-3.6066063357302482
1772.6711,10.683180295476632
1774.361,16.902572825817515
1776.0502,19.35193512560545
1777.7386,42.53163089613372
1779.4263,27.092023645177505
1781.1132,20.233476455200616
1782.7994,26.856352137747308
1784.4849,19.41101330202946
1786.1696,14.747822288697535
1787.8535,32.217141244297636
1789.5367,13.219332167898756
1791.2192,50.2547567364054
1792.9009,17.073776494531558
1794.5818,50.72675248444739
1796.2621,28.96404557758251
1797.9415,47.286016138105424
1799.6202,50.69302424054513
1801.2982,46.88542948656823
1802.9755,47.763590970916994
1804.6519,63.1278673194829
1806.3277,65.37861668052255
1808.0027,39.31619657101646
1809.6769,59.49096385416078
1811.3504,70.40327499999194
1813.0231,67.8034858836404
1814.6951,71.54195167620355
1816.3664,82.01902687074607
1818.0369,75.13506524491231
1819.7067,85.14041975615919
1821.3757,82.28544261059278
1823.044,101.22048516292125
1824.7115,93.04589794499907
1826.3783,96.81203047647932
1828.0443,82.21923134655799
1829.7096,107.56784817631387
1831.3741,107.80822776463674
1833.0379,114.34071583474179
1834.701,89.31565703176466
1836.3633,112.68339485743445
1838.0248,101.79427192032517
1839.6856,113.39862970217837
1841.3457,111.74680866679546
1843.005,142.33914814399532
1844.6636,140.6259863461314
1846.3214,154.65766006217063
1847.9785,150.8345046748218
1849.6349,150.40685402021927
1851.2904,145.57504042615392
1852.9453,133.7893947163484
1854.5994,153.90024625877413
1856.2528,155.70792308351383
1857.9054,155.41275168164657
1859.5572,175.01505698717574
1861.2083,163.41516237997985
1862.8587,177.11338948978755
1864.5084,186.91005831217808
1866.1572,165.8054870715987
1867.8054,172.54999212339771
1869.4528,182.04388816487062
1871.0994,182.2374881678138
1872.7453,166.2811032835857
1874.3905,171.07504284117158
1876.0349,182.21961450674735
1877.6786,200.41512423574113
1879.3215,206.3618761613866
1880.9637,204.71017241276695
1882.6051,212.26031305534798
1884.2458,184.86259610749403
1885.8858,204.16731746496544
1887.525,200.42477117490034
1889.1634,188.93524924276562
1890.8011,193.04904166978167
1892.4381,188.81643656781716
1894.0743,201.78772011825004
1895.7098,209.61317661429666
1897.3446,212.54308833129835
1898.9786,219.0777354484676
1900.6118,205.01739601958707
1902.2443,196.76234590766444
1903.8761,184.7128589255335
1905.5071,188.31920691840742
1907.1374,183.03165988437104
1908.7669,190.15048593832353
1910.3957,195.12595136484651
1912.0237,193.5083205470205
1913.651,196.8978559166676
1915.2776,205.69481797052777
1916.9034,179.79946523636363
1918.5285,189.1620541849902
1920.1528,184.7328394892288
1921.7764,184.91207393028253
1923.3992,181.40000844202723
1925.0213,161.6468921092178
1926.6427,157.752972202612
1928.2633,139.46849437649553
1929.8832,196.24370270762938
1931.5023,169.12883987809164
1933.1207,147.97414660752474
1934.7383,172.62986192428298
1936.3552,163.89622337698074
1937.9714,150.1734667879373
1939.5868,151.8618263405092
1941.2015,142.96153471631942
1942.8154,145.82282307837204
1944.4286,155.39592116006088
1946.041,135.58105723655035
1947.6528,138.0784580290483
1949.2637,146.48834890295439
1950.8739,137.21095384288537
1952.4834,151.14649536857814
1954.0921,157.44519462765993
1955.7001,144.00727125629373
1957.3074,145.082943316193
1958.9139,145.07242742899962
1960.5197,127.7259387655281
1962.1247,143.1936910458703
1963.729,128.72589671286096
1965.3325,114.22276677739956
1966.9353,139.38451096312747
1968.5374,129.71133785145912
1970.1387,121.05345462996593
1971.7393,115.66106718910805
1973.3392,124.03438020881276
1974.9383,91.57359721239618
1976.5366,94.92892048283238
1978.1342,99.25055138736025
1979.7311,116.3886903439311
1981.3273,113.39353677799318
1982.9227,107.91528895110969
1984.5173,112.95414399090714
1986.1112,114.2102979458632
1987.7044,99.3339457349125
1989.2968,96.22528113488988
1990.8885,100.68449692929289
1992.4795,113.06178493936432
1994.0697,115.45733597950402
1995.6592,111.97133973349582
1997.2479,96.15398473055211
1998.8359,98.70545838017415
2000.4232,80.72594713032504
2002.0097,90.71563644191474
2003.5955,87.72471096859272
2005.1805,99.25335445685323
2006.7648,112.45174977594615
2008.3484,99.7200788025898
2009.9312,104.3085222889863
2011.5133,108.91725999013624
2013.0946,99.0464706179564
2014.6752,102.54633179519033
2016.2551,101.96702015411984
2017.8342,97.45871130156456
2019.4126,98.07157982467515
2020.9902,71.85579933601866
2022.5672,94.11154246744582
2024.1433,90.33898113225223
2025.7188,93.28828630261887
2027.2935,102.05962804733826
2028.8674,94.3531755023223
2030.4406,89.66909678288766
2032.0131,87.0075590608194
2033.5849,85.96872861121346
2035.1559,102.80277083909186
2036.7261,102.45985028979112
2038.2957,98.69013048062061
2039.8645,90.39377390429354
2041.4325,117.87094206662368
2042.9998,91.92179556948713
2044.5664,85.74649383605447
2046.1323,88.99519537027709
2047.6974,93.56805781864477
2049.2617,88.16523793769329
2050.8254,96.98689154828162
2052.3883,103.58317358961449
2053.9504,99.20423803103085
2055.5118,92.60023780603979
2057.0725,92.97132485610791
2058.6325,87.6676501967022
2060.1917,94.78936391357774
2061.7502,87.1366152158148
2063.3079,87.45955236460122
2064.8649,83.15832274975719
2066.4212,86.08307288651076
2067.9767,94.18394845850617
2069.5315,91.16109428855953
2071.0856,79.96465425764791
2072.6389,75.94477133513783
2074.1915,84.25158769075188
2075.7433,67.635244734764
2077.2945,90.74588303493647
2078.8448,77.03364248267872
2080.3945,78.04866206194447
2081.9434,81.59107998635136
2083.4916,73.6610336890335
2085.039,67.15865978721376
2086.5857,80.98409416150525
2088.1317,73.7874720209361
2089.677,69.71892776469531
2091.2215,83.62859505410006
2092.7652,73.21660685327743
2094.3083,76.23309529007156
2095.8506,85.47819176016083
2097.3921,73.30202689689395
2098.933,78.70473047884207
2100.4731,83.9364315515586
2102.0124,74.89725837355081
2103.5511,91.58733836396277
2105.089,80.45679819296765
2106.6261,89.20576361486428
2108.1626,83.53435957938746
2109.6983,80.84271014421256
2111.2332,100.93093853167284
2112.7675,87.99916715567679
2114.301,83.5475174208218
2115.8337,97.42610985171677
2117.3657,87.93506413749674
2118.897,104.12449899303647
2120.4276,84.64453225386069
2121.9575,86.49528071425038
2123.4866,95.32686032204174
2125.0149,93.88938616011865
2126.5426,92.7829723580985
2128.0695,90.55773210670532
2129.5956,84.41377766883443
2131.1211,94.30122040180368
2132.6458,84.32017081879576
2134.1698,94.12073848997943
2135.693,83.50303214232417
2137.2155,85.76715956159387
2138.7373,97.46322769852259
2140.2584,89.64134264617314
2141.7787,95.55160952297683
2143.2983,84.34413255095478
2144.8171,79.01901499661062
2146.3353,78.82635928300897
2147.8527,81.3162670430238
2149.3693,83.73883912126848
2150.8853,83.74417554919273
2152.4005,83.73237552085993
2153.9149,86.20353739289385
2155.4287,76.65775868459514
2156.9417,86.89513605322963
2158.454,83.21576538948466
2159.9655,79.06974171510001
2161.4764,84.30715921965702
2162.9865,70.57811130204209
2164.4958,75.23269051806983
2166.0045,80.0209887177748
2167.5124,81.1430969988653
2169.0195,80.04910565884325
2170.526,90.33910418377855
2172.0317,92.11318125925118
2173.5367,73.72142466745072
2175.0409,85.86392126943497
2176.5445,100.79075718904937
2178.0473,72.40201769149962
2179.5494,81.3977870340866
2181.0507,83.32814875009171
2182.5513,85.04318555881991
2184.0512,82.69297934629367
2185.5504,71.5276111481055
2187.0488,84.04716117291855
2188.5465,76.25170891412085
2190.0435,83.59133302462874
2191.5397,69.26611139484316
2193.0353,75.97612107925465
2194.5301,68.57143843969152
2196.0241,73.65213907822226
2197.5175,75.66829791120131
2199.0101,71.56998911846472
2200.502,77.0572861231667
2201.9931,60.130261632762995
2203.4835,64.43898758413843
2204.9733,76.78353531287416
2206.4622,74.36397551016171
2207.9505,62.88037809935804
2209.438,71.13281226018125
2210.9248,56.22134654354659
2212.4109,52.24604878904256
2213.8962,49.20698627404386
2215.3809,65.40422575346588
2216.8648,59.98783349015389
2218.3479,69.65787509291204
2219.8304,64.91441557066582
2221.3121,45.157519235763175
2222.7931,63.88724975140781
2224.2733,58.75367032923009
2225.7529,48.55684354198911
2227.2317,49.39683137490829
2228.7098,72.22369532764219
2230.1872,57.28749640587853
2231.6638,57.98829489307013
2233.1397,48.32615049979586
2234.6149,58.701122356752876
2236.0894,51.66326911137662
2237.5632,45.66264882409314
2239.0362,53.74931903869606
2240.5085,42.67333684235268
2241.9801,48.83475878473905
2243.4509,48.633640988798106
2244.921,26.57003908912702
2246.3904,47.844008233986415
2247.8591,34.705603305938894
2249.3271,38.45487870910779
2250.7943,40.641888500560526
2252.2608,34.51668635281635
2253.7266,38.02932553197434
2255.1917,31.129858958967816
2256.656,35.218339174437915
2258.1197,28.744818407727507
2259.5826,25.15934853599606
2261.0447,47.761981148955556
2262.5062,40.052767584725416
2263.9669,39.031758703805735
2265.4269,39.29900496616847
2266.8862,30.504556441469504
2268.3448,42.448462806374664
2269.8026,45.23077343250543
2271.2598,41.8015372669995
2272.7162,32.11080280468809
2274.1719,41.708618122388316
2275.6268,39.59503097580978
2277.0811,56.020088703577585
2278.5346,46.93383824836906
2279.9874,47.48632599266057
2281.4395,50.57759784959126
2282.8908,46.15769925743757
2284.3414,46.22667514870136
2285.7914,56.53456999430796
2287.2406,39.881427802918324
2288.689,43.91729201784665
2290.1368,36.14220568359406
2291.5838,47.00621140548833
2293.0302,46.40935142743592
2294.4758,45.70166752328214
2295.9206,42.58320100277933
2297.3648,51.45399271866404
2298.8082,49.964083097841694
2300.251,47.563512052678334
2301.693,47.052318995899896
2303.1343,52.63054286459783
2304.5748,56.74822212534127
2306.0147,42.25539471839397
2307.4538,48.70209801653937
2308.8922,51.63836897000556
2310.3299,59.814244042001064
2311.7669,40.979759179351504
2313.2031,44.43494973074212
2314.6387,48.079850635059756
2316.0735,34.36449638684235
2317.5076,53.53892099983
2318.941,46.90315814411838
2320.3737,47.057240954415875
2321.8056,55.45120209640049
2323.2369,47.73507376517841
2324.6674,50.95888760134608
2326.0972,39.672674768148454
2327.5263,42.57646591924254
2328.9547,42.07029131155787
2330.3823,41.25418077626114
2331.8092,43.82816372381649
2333.2355,36.79226915214599
2334.661,40.746525620892044
2336.0858,37.5909613217741
2337.5098,45.07560403904745
2338.9332,60.30048118105833
2340.3558,56.165619705398285
2341.7778,55.221045966653264
2343.199,47.36678575775227
2344.6195,56.402864319415585
2346.0393,59.02930641869557
2347.4583,68.19613625861871
2348.8767,67.00337745191882
2350.2943,60.351052929369416
2351.7113,69.18918495171033
2353.1275,56.46779517617256
2354.543,46.18690456809509
2355.9578,61.99653352813971
2357.3718,48.24670199509865
2358.7852,54.88742928780016
2360.1978,61.768734242606115
2361.6098,53.94063514700588
2363.021,58.4531496707998
2364.4315,62.706294944383444
2365.8413,54.80008751362175
2367.2504,58.434543297317305
2368.6587,48.90967766627432
2370.0664,56.575505406952516
2371.4733,55.58204081671511
2372.8795,54.12929762716976
2374.285,54.06728901410338
2375.6899,57.29602761201204
2377.0939,37.015525514720366
2378.4973,41.87579424309433
2379.9,51.726844947848804
2381.3019,56.56868836094077
2382.7032,50.251334697060656
2384.1037,43.47479360521379
2385.5035,53.23907423189098
2386.9027,49.04418528883821
2388.3011,51.04013495541085
2389.6987,51.72693092052259
2391.0957,50.60458036268801
2392.492,55.92308994315317
2393.8876,41.982465817118964
2395.2824,34.882713580556356
2396.6765,53.17383840961338
2398.07,41.15584513160775
2399.4627,44.97873804212031
2400.8547,44.74252102517153
2402.246,37.04719751499442
2403.6366,48.24277049839384
2405.0265,43.02924259170413
2406.4156,39.356615928833435
2407.8041,46.12489221339638
2409.1918,38.73407275544264
2410.5789,47.4841584037697
2411.9652,47.87514961983857
2413.3508,34.357046390269716
2414.7358,36.279848222931605
2416.12,37.89355428212525
2417.5035,42.44816336935219
2418.8863,47.3936739071778
2420.2684,38.68008389368674
2421.6497,46.457390853026936
2423.0304,38.025591922546255
2424.4104,46.08468377501913
2425.7896,46.73466270296444
2427.1682,43.97552453805497
2428.546,37.80726464461782
2429.9232,38.029877947225714
2431.2996,48.993358992378944
2432.6753,43.097701946279585
2434.0503,45.84290048519688
2435.4246,41.77894785442436
2436.7982,40.40583684082594
2438.1711,49.473559813478005
2439.5433,44.03210873739704
2440.9148,37.531475082866336
2442.2856,45.371649879848746
2443.6557,42.002623782992714
2445.025,42.67438699323134
2446.3937,43.43692929147164
2447.7617,35.14024003187819
2449.1289,52.33430813424707
2450.4955,47.16912216697119
2451.8613,40.2446701751021
2453.2265,45.710939731999815
2454.5909,49.76791800857836
2455.9546,48.66559171864401
2457.3177,46.4539470783227
2458.68,42.232969817086996
2460.0416,45.50264519986854
2461.4025,49.36295806927001
2462.7627,54.56389281286806
2464.1222,50.555433324608885
2465.4811,49.487562952801
2466.8392,53.960264540198295
2468.1966,50.52352043467954
2469.5533,61.877312444521294
2470.9093,48.92162187276517
2472.2645,60.20642940368077
2473.6191,59.18171523232138
2474.973,63.84745895167703
2476.3262,68.85363956292065
2477.6787,60.70023542875151
2479.0305,55.78722422333283
2480.3816,60.06458301382702
2481.7319,65.83228830952442
2483.0816,59.14031601907038
2484.4306,60.68864139278742
2485.7789,53.127239089595946
2487.1264,51.85608316153082
2488.4733,63.12514712935467
2489.8195,60.93440399527071
2491.165,53.63382613023043
2492.5097,57.42338529584151
2493.8538,61.85305271737502
2495.1972,57.12279904586717
2496.5398,57.83259431382555
2497.8818,49.682407982528844
2499.2231,59.37220893493043
2500.5637,49.151965557159656
2501.9035,51.67164564162533
2503.2427,51.48121648921676
2504.5812,54.430644884107096
2505.919,52.019897095658166
2507.256,64.89893884892558
2508.5924,63.917735348766314
2509.9281,50.67625115104886
2511.2631,68.67445017246439
2512.5974,68.81229582294225
2513.9309,64.43975082566737
2515.2638,52.9567772157028
2516.596,73.11333638371434
2517.9275,57.009389190800675
2519.2583,53.64489576692745
2520.5884,53.01981567196651
2521.9178,61.48410792934135
2523.2465,57.93773103227818
2524.5745,49.33064285916305
2525.9018,49.112800709005455
2527.2284,61.884161387508584
2528.5543,62.694681209248756
2529.8796,51.74431586996093
2531.2041,59.6830204384338
2532.5279,64.56074946601336
2533.851,67.82745690721617
2535.1735,63.733096070952
2536.4952,69.27761958785504
2537.8163,72.61097945122947
2539.1366,64.68312696160308
2540.4562,57.194012693393574
2541.7752,78.29358657418834
2543.0935,64.08179795963451
2544.411,74.40859542244345
2545.7279,64.62392689450928
2547.0441,71.97773956364051
2548.3596,87.8699799714069
2549.6744,74.15059393960098
2550.9885,75.56952641131545
2552.3019,73.72672158813793
2553.6146,71.87212291596154
2554.9266,73.95567310341164
2556.2379,79.92731414039292
2557.5485,78.3369872772538
2558.8585,73.13463296506927
2560.1677,81.37019087154522
2561.4762,81.09359993304179
2562.7841,83.55479827221768
2564.0913,82.00372320079623
2565.3977,82.24031119495248
2566.7035,81.31449791082571
2568.0086,90.37621818215143
2569.313,87.67540602952022
2570.6167,91.26199456976121
2571.9197,92.8359160429493
2573.222,91.79710177653976
2574.5236,89.84548216962901
2575.8246,93.78098670334248
2577.1248,96.90354396035139
2578.4244,95.96308158551778
2579.7232,100.45952625466896
2581.0214,91.94280368400143
2582.3189,108.0628385851171
2583.6157,105.26955475018951
2584.9118,100.76287489076446
2586.2072,105.54272066569206
2587.5019,111.50901272619433
2588.7959,105.36167066806547
2590.0893,119.55061297201053
2591.3819,113.775757065118
2592.6739,112.5370191789707
2593.9652,117.9843144073941
2595.2557,126.11755671884373
2596.5456,119.18665890193199
2597.8348,122.04153248409614
2599.1234,123.48208780090681
2600.4112,121.7582339675198
2601.6983,136.16987886427103
2602.9848,124.11692915391393
2604.2705,117.99929013750386
2605.5556,136.21686587492718
2606.84,129.01955924607716
2608.1237,129.40727176867915
2609.4067,124.92990367026323
2610.689,124.28735388428743
2611.9707,117.7295200949111
2613.2516,117.80629874342037
2614.5319,113.3675850938065
2615.8115,117.06327323199866
2617.0903,125.64325611025026
2618.3685,113.75742551018288
2619.6461,118.70567195698584
2620.9229,113.08788483827482
2622.199,122.1539523546088
2623.4745,123.25376157566791
2624.7493,120.63719834959284
2626.0234,122.20414729198751
2627.2968,116.95449181208403
2628.5695,120.08811409707255
2629.8415,120.70489516459907
2631.1128,119.40471483142892
2632.3835,111.53745170727825
2633.6535,123.45298320781637
2634.9228,125.00118563333842
2636.1914,120.78193404960962
2637.4593,116.74510227238443
2638.7265,118.1405629095982
2639.9931,117.71818740173558
2641.259,121.07784600787659
2642.5242,123.16940780991933
2643.7887,114.14274067898452
2645.0525,115.09771125449925
2646.3156,118.8341850344633
2647.5781,117.8520263659002
2648.8398,112.85109840749135
2650.1009,110.6312631393987
2651.3613,116.4923814132735
2652.6211,120.8843129744547
2653.8801,122.05691640335749
2655.1385,118.96004907155418
2656.3961,112.69356713004788
2657.6531,119.10732554024196
2658.9094,124.1511781366039
2660.1651,118.17497756252885
2661.42,117.67857521990038
2662.6743,124.26182132885276
2663.9279,129.77456493273496
2665.1808,127.46665383227798
2666.433,132.98793453046767
2667.6846,127.38825225562425
2668.9354,134.4174509061885
2670.1856,134.7253731067193
2671.4351,135.46186013760075
2672.6839,133.5767519319644
2673.9321,144.96988706832337
2675.1795,149.29110278942335
2676.4263,144.64023488831208
2677.6724,157.3171176651266
2678.9179,142.9715839736017
2680.1626,157.8034650943016
2681.4067,155.9125908780759
2682.6501,152.5987895977388
2683.8928,149.11188796697968
2685.1348,151.6017111735007
2686.3761,137.56808291388484
2687.6168,141.7108253686987
2688.8568,138.97975934282783
2690.0961,138.2747042240502
2691.3348,130.4954780103467
2692.5727,126.79189731695124
2693.81,132.36377745414336
2695.0466,123.86093246428322
2696.2826,125.33317506609353
2697.5178,126.23031673968705
2698.7524,131.8521677118456
2699.9863,127.89853694704777
2701.2195,135.3692320912512
2702.452,129.464059511428
2703.6839,133.232824220858
2704.9151,140.1253299381808
2706.1456,147.24137904970803
2707.3755,153.43077254049854
2708.6046,158.34330992319758
2709.8331,164.82878917614278
2711.0609,176.83700669423877
2712.2881,182.81775722410237
2713.5145,186.72083374398153
2714.7403,200.5460274039467
2715.9654,200.34312748686045
2717.1899,208.01192127012564
2718.4136,231.90219402771356
2719.6367,236.7137289534768
2720.8591,251.6963069222462
2722.0809,260.29970644171556
2723.3019,269.72370350261565
2724.5223,280.1680714926805
2725.7421,286.0325811024078
2726.9611,286.417000220615
2728.1795,271.12109387579414
2729.3972,263.7446242322676
2730.6142,262.1373507431465
2731.8306,246.94903022409608
2733.0462,235.87941686940871
2734.2612,214.6782624038865
2735.4756,192.54531619353816
2736.6892,177.28032545758992
2737.9022,163.03303548981535
2739.1145,158.553189811185
2740.3262,144.290530312339
2741.5372,125.49479729838583
2742.7475,118.26572963152898
2743.9571,110.10306491902463
2745.1661,93.4565395854712
2746.3744,84.8758889544373
2747.582,73.71084741492643
2748.7889,66.96114850718334
2749.9952,67.67652503434465
2751.2008,51.906709129935734
2752.4057,49.30143225071731
2753.61,52.260425334382944
2754.8136,39.63341882561235
2756.0165,40.27014264648176
2757.2188,34.620326322733376
2758.4204,39.8836989774079
2759.6213,23.20998938734317
2760.8215,32.69892593054067
2762.0211,30.550236752901583
2763.22,31.513649673338705
2764.4182,23.73889220526246
2765.6158,14.875691546947564
2766.8127,14.823774659279593
2768.009,18.532868354387915
2769.2045,17.752699296164792
2770.3994,0.33299396317386254
2771.5936,-1.726521343547347
2772.7872,-3.676123649571423
2773.9801,-5.516072732522844
2775.1723,-10.19659164555128
2776.3639,-10.417848336239558
2777.5548,-16.47990888822062
2778.745,-10.582735310823068
2779.9346,-20.026124979086035
2781.1235,-16.05976954652317
2782.3117,-17.483160605660146
2783.4992,-4.795629311924586
2784.6861,-16.496332163969555
2785.8723,-7.184377752112141
2787.0579,-12.35870986831128
2788.2428,-3.7682005325916634
2789.427,1.7384016985336075
2790.6106,-0.48761408712653065
2791.7935,15.8050411808548
2792.9757,11.667661444167948
2794.1573,21.80154048645329
2795.3382,33.35797197467616
2796.5184,38.288249357785276
2797.698,55.19366575114998
2798.8769,69.47551388725685
2800.0551,73.03508594665709
2801.2327,85.82367341514555
2802.4096,99.9925670481681
2803.5859,112.39305674293303
2804.7615,124.47643139672334
2805.9364,154.09397878289224
2807.1106,168.79698543002837
2808.2842,190.88673632578104
2809.4572,224.66451476982968
2810.6294,256.2816021529868
2811.801,285.0892776194205
2812.972,315.888817750483
2814.1423,360.28149627663424
2815.3119,395.31858376944626
2816.4808,449.15134719767616
2817.6491,487.88104957689643
2818.8167,545.1589494311662
2819.9837,586.4363004057338
2821.15,636.7643506942595
2822.3157,684.0443426260398
2823.4807,728.8275121627289
2824.645,791.1150884255369
2825.8086,833.5582932473993
2826.9716,890.1083405501004
2828.134,927.566435919842
2829.2957,962.8337760417428
2830.4567,991.961548325257
2831.617,1027.0509305515025
2832.7767,1024.8530905819816
2833.9358,1026.8191860076881
2835.0941,1009.5003641710849
2836.2519,1009.0477621464439
2837.4089,974.6125069130335
2838.5653,969.7957153596445
2839.7211,964.748494628943
2840.8761,953.8219421656388
2842.0306,988.0171457669564
2843.1843,1002.2351836919019
2844.3374,1031.6771243193098
2845.4899,1087.0440260056632
2846.6417,1145.0369367906733
2847.7928,1211.5568938436113
2848.9433,1276.25492288338
2850.0931,1346.2820375133135
2851.2422,1408.5392385741961
2852.3907,1480.0775134439932
2853.5385,1529.3978354152773
2854.6857,1573.9511629798458
2855.8323,1631.93843933552
2856.9781,1682.5605919406075
2858.1233,1726.1685319340334
2859.2679,1771.313153629116
2860.4118,1808.0953340774884
2861.555,1865.3159326176542
2862.6976,1894.7757905071624
2863.8395,1928.0757303504038
2864.9808,1957.8165558040105
2866.1214,1977.1990512438592
2867.2614,1996.12398146766
2868.4007,1998.2420915011337
2869.5393,2012.2541064087604
2870.6773,2035.9107312726019
2871.8146,2037.4126510521774
2872.9513,2032.6105303479003
2874.0874,2027.405013386057
2875.2227,2021.6467240668296
2876.3574,1995.6362660163497
2877.4915,1973.224222644283
2878.6249,1943.8611574039305
2879.7577,1921.847614016354
2880.8898,1903.684116764003
2882.0212,1883.6711707108502
2883.152,1878.5092618840288
2884.2821,1855.3488574739597
2885.4116,1849.0904058859724
2886.5405,1865.1843369719081
2887.6686,1868.7310620927046
2888.7962,1876.930973957457
2889.923,1870.3844465879488
2891.0493,1893.191835236656
2892.1748,1903.4034764522094
2893.2997,1910.4196878513217
2894.424,1928.340768016672
2895.5476,1928.366996426742
2896.6706,1948.2986332766068
2897.7929,1989.5859194776722
2898.9145,2009.5790764583567
2900.0355,2041.778305751221
2901.1559,2074.0837887930356
2902.2756,2108.1956866027876
2903.3946,2130.3641394586266
2904.513,2169.3392665567458
2905.6308,2201.3211657896977
2906.7479,2223.6099133566427
2907.8643,2241.0555634435295
2908.9801,2240.5581480002093
2910.0953,2252.217676565975
2911.2098,2262.6341362745407
2912.3236,2258.857491737444
2913.4368,2244.087684939881
2914.5494,2229.924635278474
2915.6613,2206.4682397089678
2916.7725,2178.1183728878623
2917.8831,2161.174887406974
2918.9931,2125.587614076937
2920.1024,2098.5563620966354
2921.211,2078.8809194090786
2922.319,2050.611052971711
2923.4264,2048.196508953169
2924.5331,2030.5870130159792
2925.6391,2015.1322703407031
2926.7445,2015.6319658020316
2927.8493,2013.3357641233356
2928.9534,2016.0933098716632
2930.0569,2028.4042274807089
2931.1597,2015.7181212232304
2932.2619,2018.7345750879467
2933.3634,2011.8531529063944
2934.4643,1998.9233983227646
2935.5645,2004.4948348627174
2936.6641,1978.716966062678
2937.763,1952.7892754141253
2938.8613,1919.111226621369
2939.959,1866.282263860825
2941.056,1816.3518121177997
2942.1523,1725.519277714774
2943.248,1644.3840488107132
2944.3431,1561.4954963093896
2945.4375,1471.0529746707343
2946.5313,1359.955822739725
2947.6244,1257.5533646508097
2948.7169,1157.2949109388787
2949.8087,1075.6797595632888
2950.8999,991.3571969104485
2951.9904,921.9764986099678
2953.0803,850.8869303778858
2954.1696,778.0877487104765
2955.2582,739.3782015951451
2956.3462,683.2075292384193
2957.4335,654.3249644530451
2958.5202,621.6797332196938
2959.6062,608.4210549757865
2960.6916,579.5981429419485
2961.7764,564.1602042545937
2962.8605,549.506440254155
2963.9439,535.6360466394631
2965.0267,529.7482136142851
2966.1089,528.2421260260273
2967.1905,531.4169634246155
2968.2714,525.3219000775525
2969.3516,532.656104938173
2970.4312,532.7187417065925
2971.5102,549.458968756366
2972.5885,554.4259391338608
2973.6662,550.6688003908553
2974.7432,545.6866945348688
2975.8196,540.9287580667326
2976.8954,544.4441220304113
2977.9705,537.0319120605819
2979.045,533.641248347481
2980.1188,520.9212457110266
2981.192,501.671013634724
2982.2645,489.78965639286685
2983.3364,461.67627324303817
2984.4077,445.02995854492485
2985.4783,419.29980204145136
2986.5483,396.0848890252428
2987.6177,363.23430059592613
2988.6864,334.3471138922803
2989.7545,295.22240242074145
2990.8219,268.80923634427575
2991.8887,248.40668287362485
2992.9548,214.66380653143847
2994.0204,184.97966935629972
2995.0852,169.25333124015424
2996.1495,145.63385022515126
2997.2131,120.37028266090692
2998.276,96.16168344069922
2999.3383,83.90710625410327
3000.4,76.70560382907775
3001.4611,53.90622805451096
3002.5215,44.70803005223502
3003.5812,34.06006040501978
3004.6404,24.661369248555047
3005.6989,18.46100637793046
3006.7567,11.758021341622339
3007.8139,-1.5485364965030612
3008.8705,-0.10961789015971135
3009.9264,-4.62615812318171
3010.9818,-10.74909247830692
3012.0364,-9.779310022953496
3013.0905,-10.617592441106012
3014.1439,-10.71462372144174
3015.1966,-9.620981782889885
3016.2487,-12.637137505288877
3017.3002,-8.36346565486906
3018.3511,-7.700214752857562
3019.4013,-0.9975497694591127
3020.4509,4.394441250266368
3021.4998,0.07568022678128727
3022.5481,10.196089036603325
3023.5958,8.90558955549352
3024.6428,9.954103557251926
3025.6892,11.441552726623172
3026.735,16.06785864881067
3027.7802,24.132942794602116
3028.8247,22.786726474107013
3029.8685,26.679130756105565
3030.9118,41.760076481510964
3031.9544,40.579484224444855
3032.9963,50.98727414142883
3034.0376,57.333365983189935
3035.0783,63.16767899058249
3036.1184,71.64013183112735
3037.1578,74.15064254066868
3038.1966,84.6491284386496
3039.2348,89.23550610300657
3040.2723,91.25969126518555
3041.3092,95.92159876427729
3042.3455,90.47114252677574
3043.3811,99.40823551995919
3044.4161,90.1827898063948
3045.4505,91.04471645456744
3046.4842,91.7439256311344
3047.5173,94.23032659230608
3048.5498,91.90382767685355
3049.5816,91.86433628124485
3050.6128,95.66175888290996
3051.6434,90.74600104063569
3052.6734,89.71696735659145
3053.7027,84.57456152548679
3054.7314,90.61868634486183
3055.7594,83.89924376651118
3056.7868,86.21613483604284
3057.8136,83.36925976007245
3058.8398,89.50851788305437
3059.8653,86.23380771575086
3060.8902,85.89502687383896
3061.9145,88.79207211065784
3062.9381,83.22483932059674
3063.9612,84.09322351012406
3064.9835,80.59711885346036
3066.0053,74.68641868389375
3067.0264,78.16101552874159
3068.0469,76.27080116845713
3069.0668,71.56566660188378
3070.086,67.74550206515698
3071.1046,67.36019707875573
3072.1226,60.9096404857043
3073.1399,52.29372045542476
3074.1567,56.11232454824329
3075.1727,49.51533980154875
3076.1882,42.50265269160684
3077.203,36.42414919953006
3078.2173,33.62971488140437
3079.2308,27.81923492907444
3080.2438,26.742594198087858
3081.2561,20.549677265799943
3082.2678,16.34036844214023
3083.2789,12.014551831541723
3084.2893,17.022111375033802
3085.2991,8.012930893500595
3086.3083,15.78689403760518
3087.3169,3.843884377881409
3088.3248,9.583785326994587
3089.3321,7.506480259171184
3090.3388,4.56185245279994
3091.3449,-4.200214888794989
3092.3503,-5.229838607907851
3093.3551,3.1729064133137967
3094.3593,0.15799753880992284
3095.3629,-0.42458789920840445
3096.3658,-4.874874146925521
3097.3681,5.207118791107234
3098.3698,0.22141961033116786
3099.3708,-0.8819430458833892
3100.3713,-1.3029427461482896
3101.3711,-3.091544248464288
3102.3702,2.552300705565898
3103.3688,-0.6213287411336239
3104.3667,-1.7623534711614184
3105.364,-3.1206881600419933
3106.3607,-1.4962298773889415
3107.3568,7.211155482858857
3108.3522,1.7516169740989085
3109.347,0.4753035776171828
3110.3412,3.682364257183707
3111.3348,4.222943228285743
3112.3277,0.6471846695869772
3113.32,6.1552327175218124
3114.3117,2.6472315020528185
3115.3028,8.6733250915903
3116.2932,9.033657528072325
3117.2831,4.42837276670366
3118.2723,2.5076146723526165
3119.2608,11.171527065603783
3120.2488,13.87025374196574
3121.2361,13.65393838523184
3122.2229,7.172724540492879
3123.209,12.826755616300403
3124.1944,13.466174949478699
3125.1793,15.091125748584517
3126.1635,17.751751087512844
3127.1471,17.94819388924759
3128.1301,14.33059689925517
3129.1125,15.949102683520124
3130.0942,15.55385366472126
3131.0753,18.9449921060463
3132.0558,22.722660115144606
3133.0357,21.886999610215582
3134.015,22.0881522822322
3134.9936,30.976259603297493
3135.9716,22.751462824632966
3136.949,26.41390288769763
3137.9258,27.71372050643579
3138.902,26.10105613065292
3139.8775,26.126049933017356
3140.8524,25.68884182518684
3141.8267,30.98957145755871
3142.8004,29.478378223641897
3143.7735,32.10540120704967
3144.7459,36.57077919661157
3145.7178,35.174650660103254
3146.689,40.367153699592635
3147.6596,41.3984260654011
3148.6295,36.468605104178664
3149.5989,40.22782774859118
3150.5676,40.07623056661842
3151.5357,42.71394972396202
3152.5032,39.291120985561335
3153.4701,45.007879689216296
3154.4364,47.464360779815564
3155.402,46.01069875216909
3156.367,45.19702762644323
3157.3315,42.62348096269744
3158.2952,45.69019186902091
3159.2584,44.097293027268066
3160.221,49.8949166623915
3161.1829,53.43319455837086
3162.1442,53.4622580002366
3163.105,51.13223773868733
3164.065,55.443263989799064
3165.0245,48.845466458325504
3165.9834,56.73897429458774
3166.9416,58.07391616045213
3167.8993,54.95042015039538
3168.8563,62.16861377815501
3169.8127,54.92862400796441
3170.7684,62.68057718237082
3171.7236,61.424599094635305
3172.6782,63.860814911213126
3173.6321,63.439349184313585
3174.5854,64.06032582753784
3175.5381,66.02386812009357
3176.4902,65.53009870058526
3177.4417,70.72913954737864
3178.3926,68.62111198353851
3179.3428,66.75613662483829
3180.2924,69.58433340084031
3181.2415,72.45582157354548
3182.1899,72.47071970911149
3183.1377,75.02914564913777
3184.0848,74.68121651051658
3185.0314,74.87704865984871
3185.9773,75.9667577169228
3186.9227,75.400458552757
3187.8674,76.17826527870191
3188.8115,78.15029125210353
3189.755,80.01664906852525
3190.6979,81.32745054202749
3191.6402,78.98280668650423
3192.5818,81.93282770257498
3193.5229,84.57762300103113
3194.4633,88.56730117333585
3195.4031,84.90196996517604
3196.3423,89.0817362365656
3197.2809,88.75670599849876
3198.2189,86.82698437115232
3199.1563,89.24267558713612
3200.0931,91.50388301079003
3201.0292,91.01070911402728
3201.9648,90.66325545372219
3202.8997,90.16162267664203
3203.834,93.50591052292148
3204.7677,95.39621783107904
3205.7008,99.23264250457407
3206.6333,96.61528149290376
3207.5652,100.49423075323884
3208.4964,101.56958527659728
3209.4271,100.34143904905466
3210.3571,105.05988504099076
3211.2865,103.12501521937094
3212.2154,104.58692050056169
3213.1436,107.74569076967933
3214.0712,107.90141486597099
3214.9982,109.55418055122686
3215.9246,111.40407450822298
3216.8503,112.25118232419354
3217.7755,110.195588472332
3218.7001,113.08737630331993
3219.624,110.876628065883
3220.5473,110.96342487787307
3221.4701,114.29784674837569
3222.3922,112.87997257684218
3223.3137,117.95988011974535
3224.2346,118.43764600475828
3225.1549,121.31334567995515
3226.0746,123.38705340903368
3226.9937,118.50884224255812
3227.9121,123.07878399722213
3228.83,124.946949304631
3229.7473,123.21340756560213
3230.6639,127.62822693148334
3231.5799,124.49147432148844
3232.4954,126.70321537854895
3233.4102,125.96351450068153
3234.3244,125.9724348188708
3235.238,126.58003820446619
3236.151,134.48638526909275
3237.0634,133.34153535857516
3237.9752,136.24554647387419
3238.8864,133.8984752825353
3239.797,135.20037708964844
3240.7069,136.05130586131878
3241.6163,136.90131421164764
3242.5251,140.15045339422332
3243.4332,141.49877329362084
3244.3408,138.8463223929108
3245.2477,140.09314776017587
3246.154,140.13929507503553
3247.0598,142.58480861617778
3247.9649,143.87973126089753
3248.8694,142.97410446064166
3249.7733,145.4679682280595
3250.6766,147.96136114605943
3251.5793,146.10432034286995
3252.4814,149.346881467106
3253.3829,148.9390787063392
3254.2838,151.13094475467233
3255.1841,150.12251081681737
3256.0838,153.86380658617668
3256.9829,152.6548602549276
3257.8814,152.34569847660921
3258.7792,154.18634637821205
3259.6765,151.12682756326956
3260.5731,154.91716409345156
3261.4692,154.95737651915962
3262.3647,155.24748384162365
3263.2595,153.88750351249976
3264.1538,159.77745143096922
3265.0474,161.16734195733818
3265.9404,160.10718785413823
3266.8329,156.8470002722276
3267.7247,159.4367887613925
3268.616,161.9265613029491
3269.5066,157.31632428384555
3270.3966,159.60608247176447
3271.286,159.84583906122498
