RamanShift,CorrectedData
30.1047,1752.6795971486347
32.3739,1632.4666141022965
34.6426,1511.0036135291618
36.9109,1393.590561577769
39.1787,1273.0774092866195
41.4461,1152.7640937583085
43.7131,1036.0505393646572
45.9796,918.6866589498451
48.2456,795.9723549975452
50.5112,679.3075208045632
52.7764,561.2420417079818
55.0411,443.42579625180724
57.3054,324.25865736762563
59.5692,208.69049355276485
61.8326,89.97117006196606
64.0955,-27.299449936934508
66.3579,-139.9215041758123
68.6199,-243.49485766503796
70.8815,-331.6179775991554
73.1426,-382.0368986590811
75.4032,-293.5443426621352
77.6634,102.42078512297974
79.9231,1204.5725119355434
82.1824,3772.1748639906277
84.4412,8457.09185545758
86.6995,15028.387462784003
88.9574,21374.67557784657
91.2148,25757.969942238098
93.4717,27690.63408380464
95.7282,28077.88127281255
97.9842,27864.274502621833
100.2398,27245.6764858137
102.4949,26485.099656326613
104.7495,25607.60617564226
107.0036,24699.157940391346
109.2573,23792.46659112851
111.5105,22997.843521416802
113.7632,22195.599886894634
116.0154,21447.446613221957
118.2672,20884.69440410274
120.5185,20354.50374876648
122.7693,19895.334927595737
125.0197,19477.298017428035
127.2696,19101.352896147546
129.519,18838.809246865465
131.7679,18511.126561679463
134.0163,18221.914144299124
136.2642,17920.281113322755
138.5117,17577.686405129538
140.7587,17197.83877689584
143.0052,16883.94681002117
145.2512,16488.418913926653
147.4967,16157.763329193935
149.7417,15964.388131520485
151.9863,15657.051235026138
154.2304,15491.910394186845
156.4739,15243.373206908058
158.717,15031.947116176121
160.9596,14789.089412543652
163.2017,14473.75723624379
165.4433,14061.907579618795
167.6844,13595.297290273355
169.925,13209.18307519307
172.1651,12699.421505410588
174.4047,12341.669019866711
176.6439,11959.83193050804
178.8825,11605.166425864481
181.1206,11372.028574867634
183.3582,11096.774330397428
185.5954,10906.609531613507
187.832,10743.789906707776
190.0681,10605.671074806049
192.3037,10502.708547596245
194.5388,10413.057730709572
196.7734,10310.02392475016
199.0075,10323.462326191562
201.2411,10359.978028407091
203.4742,10343.42602153544
205.7068,10406.111192115535
207.9389,10388.838323252043
210.1704,10490.06209398851
212.4015,10491.93707948012
214.632,10572.767749981429
216.862,10649.108470827623
219.0915,10738.313501626224
221.3205,10858.78699549366
223.549,11001.08299816324
225.777,11175.405446780396
228.0044,11425.458168479743
230.2314,11762.844878641832
232.4578,12043.869178392644
234.6837,12282.48455122971
236.909,12383.944360211877
239.1339,12258.25184557315
241.3582,12015.210123708102
243.582,11591.52218842878
245.8053,11208.490913395144
248.0281,10847.769056351934
250.2503,10551.159262958983
252.472,10303.664070398434
254.6932,10229.285910340855
256.9139,10081.377111420177
259.134,10053.689899977473
261.3536,9976.676401540053
263.5727,10006.888641098327
265.7912,9886.778543875953
268.0092,9905.847935027696
270.2267,9815.598540840534
272.4436,9736.581988542986
274.6601,9598.19980720758
276.8759,9434.153428541022
279.0913,9273.74418826804
281.3061,9145.273327771827
283.5204,9113.091995698138
285.7341,9089.101249240011
287.9473,9177.55205445955
290.16,9326.64528652787
292.3721,9558.63172884056
294.5837,9868.862071526777
296.7947,10090.586909129357
299.0052,10228.056737502515
301.2152,10029.871951594601
303.4246,9673.882844073409
305.6334,9059.439607308006
307.8418,8513.992336928659
310.0495,8019.491037971235
312.2568,7638.435630331682
314.4635,7334.725953711049
316.6696,7130.261771426036
318.8752,6994.092773446082
321.0802,6968.568578438026
323.2847,6997.638735127779
325.4887,6979.952722555567
327.692,6861.959949785232
329.8949,6751.759756081101
332.0972,6402.251412087893
334.2989,6104.83412093275
336.5001,5743.007021720297
338.7007,5492.269192506823
340.9008,5308.119653918549
343.1003,5128.107371659022
345.2992,5022.381258350582
347.4976,4905.890175334514
349.6955,4844.63293372829
351.8927,4882.758295590484
354.0895,4759.364974533348
356.2856,4768.251635341567
358.4812,4688.56689520617
360.6763,4683.209323635681
362.8707,4567.427443252973
365.0646,4617.419729848822
367.258,4554.134613539754
369.4508,4470.170478268095
371.643,4569.875662434833
373.8346,4479.848459739245
376.0257,4434.887118181869
378.2162,4320.689840964747
380.4062,4252.30478694106
382.5956,4004.6800717570986
384.7844,3884.6637685361184
386.9726,3691.603910354588
389.1603,3603.248491442351
391.3474,3504.295469113209
393.5339,3486.842764648485
395.7199,3371.388264286552
397.9052,3329.929819397361
400.09,3299.5152476369767
402.2743,3337.442333362189
404.4579,3393.458827934628
406.641,3540.4624493415013
408.8235,3691.6008816354333
411.0054,3928.8217734644404
413.1868,4318.222736560518
415.3675,4539.451343367466
417.5477,4673.205123146854
419.7273,4684.131559765745
421.9064,4522.128090359161
424.0848,4403.892105220815
426.2627,4120.870949423133
428.4399,3825.361923999637
430.6166,3445.562288775147
432.7928,3040.7692653208796
434.9683,2681.330040752435
437.1432,2406.441771777734
439.3176,2236.1015882913907
441.4914,2055.8065961236116
443.6645,1996.1538787435875
445.8371,1919.9904990624527
448.0091,1807.5635000298025
450.1806,1773.8699053953314
452.3514,1649.4567208331136
454.5216,1631.2709342785165
456.6913,1522.6595171723548
458.8603,1541.6194246427258
461.0288,1582.5975965911366
463.1967,1578.1909575029076
465.3639,1647.996416037391
467.5306,1690.860865072029
469.6967,1823.2811810043095
471.8622,1939.4042233231248
474.0271,2063.776833284559
476.1914,2090.74583275067
478.3551,2023.5080229457544
480.5182,2000.4601841866515
482.6807,2007.0990765551396
484.8426,2113.871440128396
487.0039,2375.4739949126215
489.1647,2706.1534397753003
491.3248,3131.506449829203
493.4843,3286.329673125565
495.6432,3267.21972640057
497.8015,3098.2231935271084
499.9592,3105.8866257058908
502.1163,3023.3565431553816
504.2728,2759.129435035218
506.4287,2471.8517602714455
508.5839,2062.419950198848
510.7386,1730.5804114336806
512.8927,1533.1295299680205
515.0461,1408.3636744881405
517.199,1383.4291983490148
519.3512,1373.4724408219918
521.5029,1431.0397273441376
523.6539,1534.5273696177828
525.8043,1591.681665034881
527.9541,1566.4488956421155
530.1033,1503.2253275693474
532.2519,1483.0572112819755
534.3999,1591.5407822131565
536.5472,1813.622260965476
538.694,2239.647852226124
540.8401,2751.8637425460656
542.9856,3218.666096079807
545.1305,3346.0010494632334
547.2748,3230.4147071455627
549.4185,2881.0031401160195
551.5615,2563.51238705968
553.704,2394.9884578515994
555.8458,2331.227336731725
557.987,2380.0249839901044
560.1276,2388.477336604534
562.2675,2484.7803077525678
564.4069,2564.929786726996
566.5456,2631.1216379728066
568.6837,2572.4517002857137
570.8212,2277.8657861502106
572.958,1894.8096823262822
575.0942,1548.5291527952795
577.2299,1330.669942590459
579.3648,1214.7277812597858
581.4992,1277.8483850445373
583.6329,1444.127458038718
585.766,1638.210691557848
587.8985,1787.043762476198
590.0304,1758.0223312859089
592.1616,1719.4420406087047
594.2922,1604.8485154860828
596.4222,1417.8373637651312
598.5515,1244.8541772444478
600.6802,1083.8445335442884
602.8083,917.2039978363464
604.9358,852.5781244538994
607.0626,817.6124585581747
609.1888,789.9525367846327
611.3144,764.4938875926382
613.4393,666.032031542014
615.5636,604.0124815476811
617.6873,550.230743864242
619.8103,460.7823187061949
621.9327,377.6627007857205
624.0544,322.9673802071957
626.1756,263.44184329836935
628.2961,226.88157315734134
630.4159,166.03205024779527
632.5351,121.63875276460021
634.6537,47.99715724232374
636.7716,39.40273899913154
638.8889,56.75097287323297
641.0056,98.13733330881223
643.1216,73.55729418254123
645.237,110.00632838973979
647.3518,89.87990809016628
649.4659,143.92350434350737
651.5793,140.382587310698
653.6922,104.852625713429
655.8043,94.62908686958326
657.9159,119.45743704852066
660.0268,45.88314157331479
662.137,4.051664572474692
664.2466,-12.991530284303735
666.3556,-63.851019803460076
668.4639,-79.8312510060423
670.5716,3.8639669585791125
672.6786,68.68162245521307
674.785,60.468665247641184
676.8907,140.97204441282156
678.9958,194.68870842303295
681.1002,170.11560434084822
683.204,207.8996772819446
685.3072,124.48787066085788
687.4097,103.77712581313608
689.5115,89.76438282944582
691.6127,9.246580762697704
693.7132,-43.57934223182747
695.8131,-25.816540372197778
697.9123,-49.66773251885752
700.0109,-75.88537962503324
702.1089,-86.02144646329907
704.2061,-52.727139711307245
706.3028,-21.602806692455488
708.3987,44.40173201397192
710.4941,153.23687164072908
712.5887,304.9030069765431
714.6827,520.5505312778005
716.7761,817.7298347518736
718.8688,1194.541302400623
720.9608,1406.3853110486125
723.0522,1474.012225575003
725.1429,1331.3723967951046
727.233,1106.5161607841037
729.3224,915.5438403034677
731.4112,679.1057470495216
733.4993,454.902183563132
735.5867,284.5334455941229
737.6735,192.1998243433045
739.7596,130.55160816615899
741.845,79.68908349617413
743.9298,66.16253546131338
746.014,55.47224839267801
748.0974,58.66850595972937
750.1802,43.00159127722145
752.2624,102.27178687323249
754.3439,108.52937484584254
756.4247,193.2746362704238
758.5048,291.55785113705497
760.5843,551.1792975030803
762.6631,840.8392505102747
764.7413,1324.737979788646
766.8188,1915.5757465597926
768.8956,2373.5527987979476
770.9718,2707.419365321606
773.0473,2561.475651213732
775.1221,2288.2218344831163
777.1962,1921.0580675238016
779.2697,1731.434479847605
781.3426,1775.0511817557854
783.4147,2015.9582662352477
785.4862,2327.0558085224184
787.557,2275.5938636941355
789.6271,1958.5724635566912
791.6966,1473.6916171604607
793.7654,870.7013139700903
795.8335,608.1515287133079
797.901,392.29222741086414
799.9678,327.0733700019846
802.0339,301.8449125029838
804.0993,369.0068076594507
806.1641,351.7590051985353
808.2282,283.9514511573361
810.2916,224.53408805536674
812.3544,181.25685557265388
814.4164,98.81969114388994
816.4778,111.52253039120114
818.5385,97.16530794852588
820.5986,198.8979573345896
822.658,357.17041109644197
824.7166,481.33259979217473
826.7747,780.0844504081906
828.832,1030.8758851175553
830.8886,1176.206818292525
832.9446,1377.4771539965805
834.9999,1337.0367845311594
837.0545,1312.2355884229291
839.1085,1276.0734308281935
841.1618,1213.150163780927
843.2143,1134.4656265543636
845.2662,1067.4196462902619
847.3175,1016.0620387857198
849.368,913.592609163632
851.4179,825.3111523862972
853.467,680.6674542800902
855.5155,571.5112924182758
857.5633,512.4424375674753
859.6105,442.46065477918455
861.6569,374.61570398050026
863.7027,331.7073406739182
865.7478,305.435316615778
867.7922,326.84938024533767
869.8359,394.14927694751896
871.8789,485.9347488387684
873.9212,654.3555340940329
875.9629,793.9613660289324
878.0039,998.6519714155365
880.0441,1121.2770690863
882.0837,1158.4863678871552
884.1226,1084.1795654512862
886.1609,1026.056347827005
888.1984,991.7663902208515
890.2352,1029.8593575787963
892.2714,1011.7849049291581
894.3069,996.6926770016689
896.3416,914.0823084082149
898.3757,847.2534237937653
900.4091,866.6556386624834
902.4418,922.6385600459871
904.4739,896.0517863093555
906.5052,917.7449065912733
908.5358,851.8175010699306
910.5658,685.2691407460698
912.595,528.8493881022696
914.6236,412.00779876840534
916.6515,360.3439230858785
918.6786,326.1073072759973
920.7051,435.7974939566375
922.7309,575.6640224846087
924.756,636.2564278587488
926.7804,734.5242393212611
928.8041,653.3169797517876
930.8272,719.2341646847235
932.8495,660.0253031213142
934.8711,597.5898968704787
936.892,519.6774411408878
938.9123,391.93742516532075
940.9318,329.8193329797941
942.9506,202.57264470094015
944.9688,149.1968371472285
946.9862,125.69138511140045
949.003,21.455761894249008
951.019,24.639439539667364
953.0344,22.141889876998903
955.0491,53.462584489207075
957.063,141.40099473782539
959.0763,306.60659144979945
961.0888,341.82884403806383
963.1007,450.46721884948784
965.1119,510.4711788126406
967.1223,545.8901823514389
969.1321,555.5236827850822
971.1412,611.5711279738643
973.1495,627.6319602228577
975.1572,676.6056157214298
977.1641,737.3915243826414
979.1704,698.8391093535101
981.1759,724.3977864071385
983.1808,763.7169643282577
985.1849,833.0460446576144
987.1884,1008.8844212988115
989.1911,1147.7814798249674
991.1932,1298.036595720383
993.1945,1353.4491329915545
995.1951,1294.7684426646156
997.1951,1301.7438622312184
999.1943,1243.3247162353364
1001.1928,1186.8603162035215
1003.1906,1186.3999612290972
1005.1877,1288.1929385367912
1007.1841,1246.7885234873465
1009.1798,1224.135978559585
1011.1748,1073.7345537644542
1013.1691,900.4834868715625
1015.1627,674.7820049131733
1017.1556,457.8793259167105
1019.1477,389.1746611617855
1021.1392,276.86721734922685
1023.1299,271.8561972881107
1025.12,282.3408010188432
1027.1093,323.77022586327803
1029.0979,425.4936663198787
1031.0859,534.3603136494166
1033.0731,524.5193548577372
1035.0596,453.76997160709834
1037.0454,328.36134031457186
1039.0304,225.64263285952438
1041.0148,109.71301783773742
1042.9985,35.87166158856053
1044.9814,14.117729354218682
1046.9636,-39.74961398175947
1048.9452,-63.93120367701704
1050.926,-29.627477890568116
1052.9061,-25.28823610870677
1054.8855,-33.26298183923427
1056.8642,75.14903403952667
1058.8421,112.9988929464198
1060.8194,155.03767554880687
1062.7959,199.91646138407486
1064.7717,265.73632843924497
1066.7469,287.4483527021839
1068.7213,297.05360750340515
1070.695,318.90316329894085
1072.6679,256.7980875743033
1074.6402,255.8394446259863
1076.6117,256.528296182496
1078.5826,242.5157014139586
1080.5527,206.80271692522183
1082.5221,282.5903968959792
1084.4908,469.1297934379145
1086.4587,633.3219558368146
1088.426,780.5679286871728
1090.3925,806.1687502502755
1092.3584,807.1254509817481
1094.3235,646.7890532755191
1096.2879,609.7605714542806
1098.2515,638.8910133728277
1100.2145,749.781380788354
1102.1767,833.0326690691618
1104.1382,996.1958660857381
1106.099,1257.1719513782482
1108.0591,1490.4118945249102
1110.0185,1590.3166525322358
1111.9771,1681.3371675026137
1113.9351,1500.2243656353057
1115.8923,1208.529156316199
1117.8488,969.8524339289506
1119.8045,689.795080771939
1121.7596,619.6579694450211
1123.7139,547.4419656501213
1125.6675,598.647928892593
1127.6204,633.0267132033714
1129.5726,616.3291666269379
1131.524,643.3561308775043
1133.4748,619.4084415060152
1135.4248,556.1369276298428
1137.3741,549.4924121722997
1139.3226,491.27571249532957
1141.2705,480.0876404659575
1143.2176,380.0290030384749
1145.164,417.80060236628196
1147.1097,437.0532368025015
1149.0546,418.23770052226064
1150.9989,360.204783330164
1152.9424,256.05527084843743
1154.8852,109.73994509726253
1156.8272,50.659585536266604
1158.7686,32.264970527699916
1160.7092,-3.293122072776896
1162.6491,-11.613914732135527
1164.5883,75.35340298093433
1166.5267,177.20975752074082
1168.4644,361.906074588067
1170.4014,542.4432781115956
1172.3377,812.6722884009523
1174.2732,1071.194020341345
1176.2081,1381.8093806912675
1178.1421,1631.469265497286
1180.0755,1899.3245569878636
1182.0082,2032.026121076804
1183.9401,2122.4748046846507
1185.8713,1985.1214344117034
1187.8017,1733.566815633516
1189.7315,1506.91173387444
1191.6605,1218.7569573231558
1193.5888,1017.9532390992481
1195.5163,919.1013201347287
1197.4432,796.5019311820815
1199.3693,799.4557938027792
1201.2947,776.8136215932918
1203.2193,768.3261201555415
1205.1432,820.3439873233165
1207.0664,805.967913247152
1208.9889,834.1485798741487
1210.9106,870.6866610917386
1212.8316,921.882822445863
1214.7519,1005.0377207756155
1216.6715,1030.8020037012666
1218.5903,1013.5263087927106
1220.5084,998.761263311837
1222.4257,1065.8574843852784
1224.3424,1000.2655791520647
1226.2583,1103.6861440926587
1228.1735,1229.919765684872
1230.0879,1277.617019369658
1232.0016,1427.5784682887843
1233.9146,1477.6046628078548
1235.8269,1422.2461390166973
1237.7384,1360.1534182291089
1239.6492,1192.8270075364162
1241.5592,1118.6674004284323
1243.4686,1047.1750784667038
1245.3772,1078.950512026111
1247.285,1100.7441610097903
1249.1922,1086.056474531384
1251.0986,1132.7378906970898
1253.0042,1119.73883675256
1254.9092,1226.6097286160548
1256.8134,1305.2009710084694
1258.7169,1431.9629563846065
1260.6196,1620.0460641472728
1262.5216,1871.250659379657
1264.4229,2024.177090964482
1266.3234,2209.875689071987
1268.2232,2289.4467636306326
1270.1223,2348.1406024701373
1272.0207,2368.907470525759
1273.9183,2352.747609251357
1275.8151,2311.7112364117384
1277.7113,2238.348546244233
1279.6067,2141.9597098690756
1281.5014,2114.4948760230254
1283.3953,2154.2041720232573
1285.2885,2254.787704041999
1287.181,2367.595556709446
1289.0727,2494.7777921079287
1290.9637,2664.8844486438265
1292.854,2818.9655397757597
1294.7435,2956.3210523135185
1296.6323,3100.9009448772304
1298.5204,3280.9051465238317
1300.4077,3472.3835553012377
1302.2943,3596.4860364483284
1304.1802,3574.462420480153
1306.0653,3442.3125019469044
1307.9497,3239.086039654165
1309.8333,3058.432757984401
1311.7162,2965.4023489292267
1313.5984,2979.5944738959315
1315.4798,3006.208764637806
1317.3605,3088.594823112184
1319.2405,3147.5022212143267
1321.1197,3094.430499953545
1322.9982,2962.229168864129
1324.876,2894.4477065360716
1326.753,2784.2855619370985
1328.6293,2775.1921550904462
1330.5048,2778.466878176492
1332.3796,2722.3090956237065
1334.2537,2704.918144075873
1336.127,2672.9433329537005
1337.9996,2677.583944628719
1339.8714,2669.039234743039
1341.7426,2621.408432162927
1343.6129,2660.9407390642646
1345.4826,2604.285331408848
1347.3515,2640.6413585490736
1349.2196,2632.707943794494
1351.087,2638.7341840482623
1352.9537,2707.11914988645
1354.8197,2885.7118854978016
1356.6849,3040.6114079998697
1358.5493,3170.5667056531
1360.4131,3248.5267363118273
1362.276,3250.490426124723
1364.1383,3112.056668755191
1365.9998,2954.374325361752
1367.8606,2670.5922259823474
1369.7206,2371.309171111203
1371.5799,2129.123934536621
1373.4384,1951.5852663338137
1375.2962,1815.3918952867734
1377.1533,1562.5425306636353
1379.0096,1278.1358635786273
1380.8652,1028.7205695205503
1382.7201,766.9453111968705
1384.5742,546.3587410278378
1386.4275,386.3095037642579
1388.2802,300.7462386933621
1390.132,150.16758123928594
1391.9832,176.37216381871804
1393.8336,67.40861734666396
1395.6832,54.32557097442441
1397.5322,7.371653179226996
1399.3803,0.4954918950352294
1401.2278,-30.354285017896473
1403.0745,6.320950295736111
1404.9204,10.17012893053834
1406.7656,55.79218191792097
1408.6101,67.28604018758779
1410.4538,91.00063411134033
1412.2968,136.63489338811814
1414.139,198.68774680686693
1415.9805,324.9581217901832
1417.8213,419.24494377380506
1419.6613,534.2471349438947
1421.5006,736.7136132941741
1423.3391,983.9932914758865
1425.1769,1268.485074773147
1427.0139,1759.4378586301427
1428.8502,2352.6005258062196
1430.6858,2956.9719414663523
1432.5206,3366.7509472495076
1434.3547,3648.8363552249375
1436.188,3700.8269437943927
1438.0206,3643.2214548712655
1439.8524,3477.868593360674
1441.6835,3414.667027735539
1443.5139,3333.7153916900916
1445.3435,3253.3122847718987
1447.1724,3268.0562731913833
1449.0005,3219.3958906258486
1450.8279,3165.4796380720436
1452.6545,3151.0059843327726
1454.4804,3210.373366556043
1456.3056,3210.030190379808
1458.13,3138.224829338298
1459.9536,2986.905624865447
1461.7766,2666.270887012952
1463.5987,2291.0188959634506
1465.4202,1931.597905236882
1467.2409,1603.756145443007
1469.0608,1382.4418278756075
1470.88,1135.8531477909037
1472.6984,945.0882866207048
1474.5161,740.6954144382908
1476.3331,631.2726918660701
1478.1493,512.9182721195139
1479.9648,465.93030210138386
1481.7795,363.1569235852585
1483.5935,313.7962736854097
1485.4067,300.59648588455457
1487.2192,277.4056905274465
1489.031,264.6220149528817
1490.842,238.64358372560855
1492.6522,255.26851876416185
1494.4618,200.54493960063883
1496.2705,190.07096321446988
1498.0785,193.14470457963034
1499.8858,191.9142767694084
1501.6924,162.72779092564997
1503.4981,177.23335627105917
1505.3032,176.87908040106595
1507.1075,146.11306913877343
1508.911,171.6834265385096
1510.7138,109.98825519346065
1512.5159,99.3256559800011
1514.3172,93.34372867461934
1516.1178,67.54057206055222
1517.9176,48.21428398760327
1519.7166,28.162961630185237
1521.515,11.584701680569196
1523.3126,20.57760054940809
1525.1094,17.889754531512153
1526.9055,1.1192597159279103
1528.7008,-2.535787987199001
1530.4954,-40.327292678904996
1532.2893,-30.45713312771295
1534.0824,-60.576785232487964
1535.8747,-17.037420625352752
1537.6663,-36.18960577634061
1539.4572,-24.833736951663013
1541.2473,14.680151116623165
1543.0367,9.652271785484118
1544.8253,4.432838265085593
1546.6132,42.022063669081035
1548.4003,67.37016106679948
1550.1867,125.82734310735032
1551.9723,173.19382176615363
1553.7572,242.01980776035634
1555.5414,327.2555100751706
1557.3247,393.0511352756257
1559.1074,484.10688665419366
1560.8893,593.1229635728505
1562.6705,685.5495605524939
1564.4509,772.7868661827961
1566.2305,847.9350621979374
1568.0094,959.5443226042426
1569.7876,1010.014812928679
1571.565,1021.0966891027783
1573.3417,1049.3400969579252
1575.1176,1071.9451721145451
1576.8928,1072.6620396996623
1578.6672,980.6908141208551
1580.4409,949.7315990590869
1582.2138,833.7344883884143
1583.986,794.9495664855858
1585.7575,784.6769093900057
1587.5282,748.7165851915852
1589.2981,748.0686541334708
1591.0673,767.9331689716382
1592.8358,808.0101749813948
1594.6035,852.4997097587093
1596.3704,888.2518028194681
1598.1366,946.6664751545613
1599.9021,1034.8937388723662
1601.6668,1085.9835966146074
1603.4308,1202.3860406740714
1605.194,1326.1010524837147
1606.9564,1449.4786014526471
1608.7182,1652.2686437289667
1610.4791,1843.021120965992
1612.2394,2063.4859582943554
1613.9988,2244.063062414487
1615.7576,2479.952319391956
1617.5156,2725.353592851705
1619.2728,2919.1167216191534
1621.0293,3020.5915172661917
1622.785,3043.7277621735484
1624.54,2942.3252085160366
1626.2942,2798.933578031212
1628.0477,2551.352563033368
1629.8005,2343.081827847469
1631.5525,2155.0710112849556
1633.3037,1964.4197287264506
1635.0542,1860.2775740018678
1636.804,1767.8941212969294
1638.553,1684.3689261945838
1640.3013,1699.3515265988444
1642.0488,1711.3914435700372
1643.7955,1757.0881811749714
1645.5416,1789.841226366554
1647.2868,1934.6000485268123
1649.0313,2046.7140991393717
1650.7751,2225.832810341857
1652.5181,2384.105593804754
1654.2604,2571.731838940226
1656.0019,2854.9109113193845
1657.7427,3190.3421507960265
1659.4828,3489.824868674841
1661.222,3668.858344357095
1662.9606,3684.641822345815
1664.6984,3504.374510455449
1666.4354,3160.5555796540175
1668.1717,2639.1841658657922
1669.9072,2160.709373409498
1671.642,1743.330280212018
1673.3761,1415.145942593157
1675.1094,1142.505399439412
1676.8419,935.8076754858312
1678.5737,735.4517840424069
1680.3048,629.0367290610648
1682.0351,541.9615071392145
1683.7646,470.8251085839047
1685.4934,412.12651828257185
1687.2215,357.26471641441003
1688.9488,299.5886790373452
1690.6754,241.1973786366616
1692.4012,248.58978470176226
1694.1263,215.5148643100747
1695.8506,203.37158205314154
1697.5742,195.00890036735655
1699.297,182.92577965540386
1701.0191,149.82117836987982
1702.7404,119.44405313413154
1704.461,105.0433590732955
1706.1808,107.51805011807573
1707.8999,92.86707914874478
1709.6182,88.83939797039966
1711.3358,87.23395745946709
1713.0527,48.19970760397882
1714.7688,28.885597519640214
1716.4841,14.79057584016391
1718.1987,26.313590910410312
1719.9126,43.90359092733706
1721.6257,47.75952382477317
1723.338,50.68033709751671
1725.0496,3.9149777627726507
1726.7605,43.962392330947296
1728.4706,27.671527273299034
1730.18,-1.008671378539475
1731.8886,5.420742130355393
1733.5964,-9.341276368471881
1735.3036,-20.945771097675788
1737.0099,37.40630703943225
1738.7156,9.464216387792476
1740.4204,-12.472785081709844
1742.1246,-4.905439492831647
1743.8279,6.015635633798411
1745.5306,1.7898717828893496
1747.2325,-18.53329962099906
1748.9336,5.895552828795189
1750.634,-20.07395431340865
1752.3336,-31.64220455223949
1754.0325,-13.509380853530274
1755.7307,-20.42535007749484
1757.4281,8.110155874368502
1759.1247,5.597609149802338
1760.8206,24.987481815453975
1762.5158,25.330245881998962
1764.2102,17.32637311023518
1765.9039,18.526335007663874
1767.5968,10.230602908522997
1769.289,6.239647961798255
1770.9804,17.053941214167025
1772.6711,23.17395364991171
1774.361,30.70015608277572
1776.0502,42.833019094765405
1777.7386,48.023012960884444
1779.4263,39.32060752780944
1781.1132,60.7762721619938
1782.7994,72.84047583668416
1784.4849,75.91368691737262
1786.1696,65.39637304114513
1787.8535,92.38900108595408
1789.5367,57.54203727579079
1791.2192,80.2059469107653
1792.9009,56.93119471556474
1794.5818,72.5182446128174
1796.2621,82.91755995584572
1797.9415,81.82960337279292
1799.6202,73.30483666262808
1801.2982,73.19372080602625
1802.9755,96.14671605061903
1804.6519,102.96428191209907
1806.3277,102.74687694468957
1808.0027,102.6449586729841
1809.6769,87.30898359409275
1811.3504,94.5894071786879
1813.0231,106.4366840243556
1814.6951,128.20126778279518
1816.3664,152.28361104134
1818.0369,158.93416510531006
1819.7067,141.85337975718994
1821.3757,133.59170319012537
1823.044,144.04958217873263
1824.7115,160.77746216172
1826.3783,151.62578713729908
1828.0443,139.99499949591154
1829.7096,156.88554011174438
1831.3741,157.04784845903578
1833.0379,163.8323624431696
1834.701,168.23951839905294
1836.3633,156.56975102327306
1838.0248,168.87349333002385
1839.6856,158.80117676780628
1841.3457,185.20323109638503
1843.005,179.1800844875179
1844.6636,199.5821632609368
1846.3214,171.85989194457034
1847.9785,228.61369307053428
1849.6349,207.29398745234812
1851.2904,202.60119361739726
1852.9453,212.03572802012877
1854.5994,206.34800508898752
1856.2528,223.88843713206006
1857.9054,225.6074343939581
1859.5572,245.95540488041297
1861.2083,248.63275434108164
1862.8587,276.439886066074
1864.5084,255.67720085917244
1866.1572,245.74509675976515
1867.8054,243.54396925046967
1869.4528,253.37421135645127
1871.0994,233.38621366744155
1872.7453,263.18036423942976
1874.3905,243.5570487945488
1876.0349,230.31665042313034
1877.6786,259.9595497799419
1879.3215,293.2861252165867
1880.9637,276.79675248507374
1882.6051,268.691804404556
1884.2458,287.3716510262184
1885.8858,286.68665971433165
1887.525,289.9871949594517
1889.1634,286.4736183852747
1890.8011,265.54628871562545
1892.4381,278.2555618095985
1894.0743,281.3017908708289
1895.7098,287.78532632039787
1897.3446,285.45651576637465
1898.9786,289.91570393897473
1900.6118,286.21323271385154
1902.2443,276.04944106750827
1903.8761,275.0746651143136
1905.5071,282.88923820814307
1907.1374,274.9934909521253
1908.7669,276.3877511205019
1910.3957,305.8223437375791
1912.0237,271.44759106379206
1913.651,243.41381230134903
1915.2776,274.921323937986
1916.9034,265.9704400273067
1918.5285,245.11147187370443
1920.1528,262.1447281218698
1921.7764,267.2205149653755
1923.3992,264.4391359763513
1925.0213,236.20089205472686
1926.6427,227.40608145604256
1928.2633,192.00500007383653
1929.8832,250.44794152758823
1931.5023,234.63519751673084
1933.1207,225.91705723621544
1934.7383,219.64380753464957
1936.3552,214.16573300146956
1937.9714,221.53311602967642
1939.5868,217.89623687061885
1941.2015,202.80537356031346
1942.8154,202.11080195581962
1944.4286,200.21279588614289
1946.041,201.86162715918454
1947.6528,169.10756558072262
1949.2637,193.75087893791897
1950.8739,183.8418333268619
1952.4834,164.58069290613093
1954.0921,192.61771999589473
1955.7001,177.0531752705092
1957.3074,165.93731747815764
1958.9139,161.32040359649545
1960.5197,164.60268894380533
1962.1247,164.88442722517084
1963.729,143.8658704996542
1965.3325,139.14726917747612
1966.9353,154.9288722302008
1968.5374,143.76092723791862
1970.1387,148.04368023143616
1971.7393,159.4273758039526
1973.3392,157.11225706823188
1974.9383,132.1485655427632
1976.5366,141.43654117492042
1978.1342,126.32642259058775
1979.7311,134.81844700129022
1981.3273,142.1128503552909
1982.9227,134.60986725266594
1984.5173,132.70973087237053
1986.1112,112.96267304725916
1987.7044,112.56892428309311
1989.2968,123.5787139560125
1990.8885,111.0422703164686
1992.4795,97.609820379128
1994.0697,114.48159004823992
1995.6592,117.30780425195644
1997.2479,108.38868677361461
1998.8359,115.47446022348231
2000.4232,110.16534612793748
2002.0097,92.86156485862011
2003.5955,108.56333568551509
2005.1805,116.67087694999827
2006.7648,99.83440590780901
2008.3484,113.60413864798102
2009.9312,140.8802902612024
2011.5133,111.91307470212632
2013.0946,115.80270451660363
2014.6752,124.99939113134951
2016.2551,121.45334481505961
2017.8342,101.41477458643476
2019.4126,101.38388824964204
2020.9902,111.46089259470318
2022.5672,104.74599339780707
2024.1433,105.48939532053373
2025.7188,108.5913019770087
2027.2935,93.55191592646497
2028.8674,90.62143864222071
2030.4406,111.70007066207882
2032.0131,80.68801161762622
2033.5849,84.28546002345138
2035.1559,98.34261358726553
2036.7261,101.25966917392816
2038.2957,90.23682266487322
2039.8645,94.02426892893845
2041.4325,118.42220193259845
2042.9998,95.43081470208563
2044.5664,93.80029907941343
2046.1323,102.03084595228938
2047.6974,105.42264527041971
2049.2617,104.1258859632062
2050.8254,103.74075590582424
2052.3883,125.6674419321921
2053.9504,116.70612983881938
2055.5118,126.6070041655471
2057.0725,96.62024828515405
2058.6325,103.1960443043522
2060.1917,114.93457336365009
2061.7502,122.78601557160073
2063.3079,104.70054988741413
2064.8649,94.77835404244524
2066.4212,114.76960472104292
2067.9767,104.8744776597755
2069.5315,89.64314744751482
2071.0856,87.87578762439216
2072.6389,95.62257083410577
2074.1915,88.83366884159796
2075.7433,72.70925245558874
2077.2945,97.74949159646258
2078.8448,69.9045554575132
2080.3945,73.32461225454108
2081.9434,73.50982950430216
2083.4916,68.41037399030847
2085.039,54.87641176097577
2086.5857,69.15810818061527
2088.1317,76.65562806477737
2089.677,83.31913553743152
2091.2215,72.34879395599319
2092.7652,86.29476584469012
2094.3083,63.70721300426385
2095.8506,76.5862963725117
2097.3921,80.98217625015832
2098.933,89.39501217206725
2100.4731,85.97496286328533
2102.0124,96.37218615490883
2103.5511,101.48683901828736
2105.089,93.21907746104989
2106.6261,112.36905647595859
2108.1626,78.13693012358681
2109.6983,119.87285134081776
2111.2332,96.47697228316565
2112.7675,92.09944390741612
2114.301,96.94041620559074
2115.8337,99.30003824871437
2117.3657,92.52845813841031
2118.897,112.97582298330508
2120.4276,84.14227896674038
2121.9575,93.17797114230052
2123.4866,86.53304372215007
2125.0149,108.60763998667426
2126.5426,91.90190235092996
2128.0695,88.26597214389949
2129.5956,91.4999897755456
2131.1211,97.20409477317298
2132.6458,92.628425749087
2134.1698,92.72312034355673
2135.693,109.28831527056673
2137.2155,105.37414631687398
2138.7373,116.28074817635297
2140.2584,92.40825448913893
2141.7787,85.45679773256143
2143.2983,114.17650945986907
2144.8171,79.06752036974376
2146.3353,96.12996001910415
2147.8527,76.76395717419518
2149.3693,101.31963963996623
2150.8853,98.697134453726
2152.4005,82.74656763959138
2153.9149,113.31806423470834
2155.4287,96.16174844875923
2156.9417,102.27774335824643
2158.454,90.5161710780526
2159.9655,93.97715270028357
2161.4764,100.71080841188359
2162.9865,108.61725746002548
2164.4958,98.59661808477813
2166.0045,99.99900744003753
2167.5124,104.42454169373514
2169.0195,106.02333601381497
2170.526,93.54550452397598
2172.0317,100.0911602876854
2173.5367,89.61041543295823
2175.0409,98.35338108689666
2176.5445,106.67016748050128
2178.0473,98.81088386123884
2179.5494,96.47563840987823
2181.0507,87.31453831908038
2182.5513,100.92768981675181
2184.0512,104.46519825765563
2185.5504,98.67716798728134
2187.0488,89.61370230646708
2188.5465,89.92490352927962
2190.0435,93.9108730736516
2191.5397,96.22171145826815
2193.0353,93.90751826270707
2194.5301,78.76839210433036
2196.0241,75.65443066142643
2197.5175,67.46573082460372
2199.0101,87.75238872792761
2200.502,66.76449983080693
2201.9931,83.30215871512883
2203.4835,80.91545929513723
2204.9733,63.204494652054564
2206.4622,77.46935705794795
2207.9505,66.66013815284259
2209.438,63.27692880206996
2210.9248,68.21981920436247
2212.4109,68.88889892568568
2213.8962,59.984256849807025
2215.3809,80.95598117160853
2216.8648,77.6541594861319
2218.3479,72.27887857886117
2219.8304,57.980224458740395
2221.3121,69.95828241192658
2222.7931,47.113137144775465
2224.2733,55.894872664059676
2225.7529,49.85357250542347
2227.2317,55.0893196455645
2228.7098,69.55219656264535
2230.1872,63.24228518393829
2231.6638,53.95966674119518
2233.1397,52.0044218337448
2234.6149,48.97663052132111
2236.0894,56.126372343618186
2237.5632,55.003726350562374
2239.0362,51.10877103082021
2240.5085,47.99158432302056
2241.9801,34.75224365470831
2243.4509,52.09082597351426
2244.921,33.457407879546736
2246.3904,30.90206545200681
2247.8591,63.77487443552445
2249.3271,59.22591026571308
2250.7943,31.50524774043788
2252.2608,38.812961065306354
2253.7266,37.849124130873406
2255.1917,30.36381043956817
2256.656,32.75709311532728
2258.1197,19.729044978452748
2259.5826,32.62973852167579
2261.0447,35.6092460404393
2262.5062,40.76763950388931
2263.9669,39.20499052507694
2265.4269,59.02137030938002
2266.8862,44.86684967012707
2268.3448,43.64149883043274
2269.8026,53.845387564746034
2271.2598,43.528585211102836
2272.7162,49.391160569085514
2274.1719,48.63318200299227
2275.6268,44.204717383210664
2277.0811,44.705834093796966
2278.5346,46.28659907675956
2279.9874,48.89707882704852
2281.4395,53.93733937674915
2282.8908,52.407446268975036
2284.3414,77.65746450747292
2285.7914,54.287458571911884
2287.2406,51.9974921653893
2288.689,49.88762844812891
2290.1368,49.20793006038002
2291.5838,56.60845914351876
2293.0302,58.189277346840754
2294.4758,40.70044575355814
2295.9206,54.04202486499298
2297.3648,48.06407477546509
2298.8082,64.51665503887352
2300.251,50.94982472847914
2301.693,43.21364227237564
2303.1343,60.558165589160126
2304.5748,59.23345216529651
2306.0147,53.0395588816632
2307.4538,56.77654202680742
2308.8922,50.994457358884574
2310.3299,52.29336006828362
2311.7669,54.07330483545002
2313.2031,63.584345817896065
2314.6387,56.876536632402804
2316.0735,48.34993025991116
2317.5076,51.55457911259691
2318.941,52.19053511913853
2320.3737,51.207849692671516
2321.8056,50.006573724424925
2323.2369,46.43675759355119
2324.6674,54.54845117914101
2326.0972,37.84170389591645
2327.5263,50.36656461311895
2328.9547,51.62308182157176
2330.3823,56.31130350843523
2331.8092,59.93127714463844
2333.2355,58.28304963799974
2334.661,77.4666672970261
2336.0858,60.4821758473945
2337.5098,50.979620240115764
2338.9332,58.00904482138321
2340.3558,51.07049342759319
2341.7778,53.21400931505377
2343.199,57.789635229370106
2344.6195,68.64741338400881
2346.0393,56.83738541454113
2347.4583,65.65959227006442
2348.8767,71.21407433130344
2350.2943,80.5508713223835
2351.7113,77.47002225529377
2353.1275,66.9215653365145
2354.543,57.55553799782547
2355.9578,71.42197700179167
2357.3718,68.17091853542524
2358.7852,72.00239807152002
2360.1978,74.41645040116032
2361.6098,61.463109595407786
2363.021,57.29240898115813
2364.4315,71.70438127067655
2365.8413,73.7490586033075
2367.2504,65.17647240135148
2368.6587,61.686653349618155
2370.0664,63.42963148115291
2371.4733,51.45543621213574
2372.8795,58.41409632445152
2374.285,53.455640085431014
2375.6899,52.38009517826572
2377.0939,63.13748875159149
2378.4973,52.32784743024445
2379.9,50.80119720768607
2381.3019,57.7575635541009
2382.7032,60.04697143166186
2384.1037,66.0194452249657
2385.5035,57.0250087181405
2386.9027,55.31368503511885
2388.3011,48.235496729585975
2389.6987,53.09046580208883
2391.0957,46.22861377081972
2392.492,45.2999616230677
2393.8876,43.85452988383145
2395.2824,49.342338625110415
2396.6765,56.81340748035973
2398.07,46.86775558961085
2399.4627,49.65540152476274
2400.8547,58.22636338903658
2402.246,40.58065878910156
2403.6366,42.168304749361596
2405.0265,43.38931788841364
2406.4156,43.39371440317427
2407.8041,38.431510056668685
2409.1918,46.752720177984884
2410.5789,47.50735971189624
2411.9652,38.74544313565116
2413.3508,32.51698445142483
2414.7358,30.321997273939132
2416.12,46.06049489274733
2417.5035,53.48249029418275
2418.8863,53.58799600397742
2420.2684,43.47702401303695
2421.6497,41.14958577638481
2423.0304,22.105692314276894
2424.4104,44.445354235471314
2425.7896,25.36858192767022
2427.1682,31.975385334124894
2428.546,38.51577414439498
2429.9232,46.68975772828844
2431.2996,31.147345070455003
2432.6753,29.638544688647926
2434.0503,43.36336478914723
2435.4246,34.52181328184747
2436.7982,27.063897643009796
2438.1711,36.93962500367775
2439.5433,34.199002224256674
2440.9148,35.64203579575633
2442.2856,36.96873186719745
2443.6557,28.729096231181302
2445.025,30.373134310622618
2446.3937,37.9508512411478
2447.7617,34.51225185465091
2449.1289,37.357340603518196
2450.4955,35.38612159501349
2451.8613,34.948598562828465
2453.2265,40.34477488679295
2454.5909,43.274653597251245
2455.9546,52.98823732110077
2457.3177,45.435528252493214
2458.68,49.96652805569897
2460.0416,60.73123794063372
2461.4025,63.02965861754933
2462.7627,41.91179018938669
2464.1222,50.87763212879031
2465.4811,50.42718348928793
2466.8392,50.26044281563168
2468.1966,45.22740814830286
2469.5533,56.27807702518089
2470.9093,58.412446531870955
2472.2645,53.580513191198634
2473.6191,69.53227294186581
2474.973,55.817721186770314
2476.3262,55.88685263348907
2477.6787,67.43966143142302
2479.0305,59.02614117110488
2480.3816,59.14628476867256
2481.7319,62.800084550002566
2483.0816,47.33753224950783
2484.4306,64.1586189736031
2485.7789,42.41333535532658
2487.1264,42.85167138613156
2488.4733,48.42361663333759
2489.8195,57.57916023574944
2491.165,43.218290847935805
2492.5097,46.94099654867455
2493.8538,55.64726498456139
2495.1972,43.637083332782595
2496.5398,46.260438214051874
2497.8818,48.91731581271324
2499.2231,44.15770185050792
2500.5637,47.131581560004406
2501.9035,49.83893973219392
2503.2427,60.02976068675389
2504.5812,49.85402824497237
2505.919,52.81172562784104
2507.256,61.35283555781234
2508.5924,62.32734022922227
2509.9281,47.53522122287836
2511.2631,59.07645949631569
2512.5974,55.301035531717844
2513.9309,51.658929220504206
2515.2638,48.6501199010836
2516.596,64.47458639527713
2517.9275,46.132307038403724
2519.2583,51.323259521038835
2520.5884,52.19742107243587
2521.9178,47.904768408616064
2523.2465,51.94527772362744
2524.5745,51.36892473247144
2525.9018,60.475684630698424
2527.2284,57.61553210016905
2528.5543,61.738441217988566
2529.8796,52.344385485107296
2531.2041,55.133337785091044
2532.5279,55.05527047806345
2533.851,63.91015537281373
2535.1735,50.04796372758051
2536.4952,67.0686661615
2537.8163,67.77223279323039
2539.1366,64.60863307074351
2540.4562,63.27783576428942
2541.7752,70.87980899803279
2543.0935,75.56452026335978
2544.411,70.73193634286008
2545.7279,61.782023263478095
2547.0441,78.2147463448398
2548.3596,85.88007028875177
2549.6744,82.07795901487248
2550.9885,81.05837558406074
2552.3019,83.07128223639666
2553.6146,77.91664040137721
2554.9266,82.39441067778876
2556.2379,80.90455288524981
2557.5485,84.94702601943686
2558.8585,82.32178826697987
2560.1677,83.27879696503987
2561.4762,94.76800862756181
2562.7841,91.53937893570242
2564.0913,84.79286262293977
2565.3977,87.77841350735798
2566.7035,89.89598455911346
2568.0086,88.49552787057905
2569.313,85.1269946351672
2570.6167,72.84033516133718
2571.9197,96.58549890627705
2573.222,109.76243459877264
2574.5236,104.77109000175597
2575.8246,97.36141178053549
2577.1248,104.28334555270771
2578.4244,103.98683596225646
2579.7232,108.37182661033262
2581.0214,106.78826005821861
2582.3189,111.0860777834805
2583.6157,118.31522019580234
2584.9118,110.92562659400778
2586.2072,110.6172350937693
2587.5019,117.6899827015036
2588.7959,117.64380531745542
2590.0893,121.82863766496962
2591.3819,122.0944132909533
2592.6739,118.19106452402798
2593.9652,116.71852247187212
2595.2557,132.2267170602545
2596.5456,130.0155770477595
2597.8348,125.63502987070524
2599.1234,130.2850016652551
2600.4112,140.91541731122288
2601.6983,129.77620038557234
2602.9848,142.66727305611494
2604.2705,128.78855619289925
2605.5556,134.33996923930317
2606.84,137.07143035081822
2608.1237,139.2328563395372
2609.4067,132.62416264683884
2610.689,139.49526332177402
2611.9707,138.29607108715277
2613.2516,135.6264972708325
2614.5319,132.68645181771035
2615.8115,129.7258433164186
2617.0903,115.29457902872605
2618.3685,125.8925649191442
2619.6461,123.21970579923845
2620.9229,120.37590522164828
2622.199,129.96106550681816
2623.4745,124.02508777143225
2624.7493,126.01787183256499
2626.0234,113.03931626704116
2627.2968,121.98931839150589
2628.5695,128.41777439221255
2629.8415,137.57457923552124
2631.1128,129.3596266036143
2632.3835,128.92280880292913
2633.6535,121.81401684630737
2634.9228,128.63314045736217
2636.1914,134.4300681415673
2637.4593,133.85468711806493
2638.7265,128.55688326169673
2639.9931,130.73654110875793
2641.259,142.79354390997594
2642.5242,129.52777360871266
2643.7887,119.3391107203953
2645.0525,137.92743446517306
2646.3156,138.69262286980552
2647.5781,131.0845525817773
2648.8398,127.85309886164703
2650.1009,115.34813565912918
2651.3613,128.41953564540802
2652.6211,122.11717033818604
2653.8801,130.6909099709717
2655.1385,123.0406235561021
2656.3961,123.6661787990065
2657.6531,135.81744217470782
2658.9094,131.59427892156657
2660.1651,130.94655291976972
2661.42,128.3241267335618
2662.6743,134.92686161772087
2663.9279,141.1546175437852
2665.1808,145.10725313402543
2666.433,145.73462559916584
2667.6846,134.03659069885862
2668.9354,137.86300273541144
2670.1856,146.21371467076563
2671.4351,146.1885780882327
2672.6839,145.58744310898874
2673.9321,150.8101583923235
2675.1795,155.50657114165267
2676.4263,148.87652705229095
2677.6724,162.8698702644873
2678.9179,175.2864434297261
2680.1626,164.82608757079402
2681.4067,169.63864195761334
2682.6501,162.2239442118463
2683.8928,164.48183025876926
2685.1348,154.76213440141953
2686.3761,155.11468929801595
2687.6168,159.13932605915716
2688.8568,156.08587424429447
2690.0961,142.55416182148645
2691.3348,139.84401519793357
2692.5727,139.85525935529495
2693.81,136.0877178767895
2695.0466,131.6912129470851
2696.2826,129.9155653899727
2697.5178,128.5105947123318
2698.7524,132.5761191218868
2699.9863,138.76195554125616
2701.2195,144.01791956729699
2702.452,143.3938254092477
2703.6839,147.989485836168
2704.9151,147.55471218317916
2706.1456,152.93931430550936
2707.3755,157.04310058284034
2708.6046,169.0658778654614
2709.8331,173.25745143323184
2711.0609,175.06762487535252
2712.2881,180.34620004845067
2713.5145,191.84297705847746
2714.7403,203.50775420792218
2715.9654,208.54032788084533
2717.1899,222.09049242622916
2718.4136,233.85804010765457
2719.6367,241.49276096779693
2720.8591,252.24444271075197
2722.0809,272.6628706256879
2723.3019,259.8478274793298
2724.5223,273.74909331177355
2725.7421,289.91644556463723
2726.9611,281.4496589420494
2728.1795,279.34850524897354
2729.3972,285.76275347587705
2730.6142,266.64216981974266
2731.8306,241.98651761992596
2733.0462,231.09555754936127
2734.2612,214.01904786111766
2735.4756,199.5067444973098
2736.6892,190.20840125986206
2737.9022,157.87376995563181
2739.1145,149.8026004893925
2740.3262,140.29464118717965
2741.5372,134.6496388770032
2742.7475,116.467338983927
2743.9571,113.44748558651975
2745.1661,110.43982159867664
2746.3744,82.54408879981861
2747.582,80.61002786496886
2748.7889,68.68737864371008
2749.9952,71.97588017952557
2751.2008,55.725270829025476
2752.4057,56.13528822906062
2753.61,50.05566945922999
2754.8136,48.986151037780246
2756.0165,52.076468982401025
2757.2188,37.476358820921405
2758.4204,36.085555560405396
2759.6213,34.75379383315487
2760.8215,31.180807910616522
2762.0211,34.51633171669948
2763.22,33.91009886350582
2764.4182,22.761842617974594
2765.6158,22.821295907944545
2766.8127,19.288191433635802
2768.009,10.562261667055964
2769.2045,8.593238887330813
2770.3994,4.8308552679640115
2771.5936,3.724842896527207
2772.7872,-4.975066187716379
2773.9801,-16.96913998275147
2775.1723,-9.10759678565239
2776.3639,-2.7904853717858487
2777.5548,-13.86776353162702
2778.745,-15.089361178702347
2779.9346,-25.105069687581363
2781.1235,-11.814529690115023
2782.3117,-3.067131018508462
2783.4992,-18.612145477815375
2784.6861,-9.048814232451264
2785.8723,-9.276192511498266
2787.0579,-12.593245146384788
2788.2428,-7.498844299375946
2789.427,4.20826367378163
2790.6106,10.079407330795107
2791.7935,15.415915187290125
2792.9757,22.41911565809812
2794.1573,35.69033700389207
2795.3382,37.48090726115322
2796.5184,51.142154109460535
2797.698,58.175404853583814
2798.8769,85.63198628687132
2800.0551,82.86322462091732
2801.2327,99.62044521099574
2802.4096,113.60497258374733
2803.5859,127.3181302696106
2804.7615,144.66124066297323
2805.9364,170.03562488504167
2807.1106,189.59260261040947
2808.2842,206.18349181331428
2809.4572,239.3596085720676
2810.6294,271.02226690314694
2811.801,310.2727784294335
2812.972,344.51245206358703
2814.1423,394.34259361553916
2815.3119,434.16450545009775
2816.4808,467.07948598864573
2817.6491,515.7888293109207
2818.8167,573.0438248258664
2819.9837,598.095756784538
2821.15,664.295903707554
2822.3157,714.5455381345748
2823.4807,761.4459259623035
2824.645,789.2983259419871
2825.8086,836.7539892104146
2826.9716,870.614159011393
2828.134,914.3800702211895
2829.2957,967.2529490099301
2830.4567,989.0340124039413
2831.617,1001.6244677570204
2832.7767,1016.7755125326247
2833.9358,1016.7883341779676
2835.0941,1005.464109972508
2836.2519,994.3040070278214
2837.4089,987.4591824008429
2838.5653,977.030783205468
2839.7211,968.6699466810012
2840.8761,973.7278002964395
2842.0306,997.7554618340808
2843.1843,1016.604039338946
2844.3374,1070.2246308785016
2845.4899,1112.3683243541736
2846.6417,1174.136196965142
2847.7928,1246.4793147869038
2848.9433,1315.6487321535965
2850.0931,1386.8454909345633
2851.2422,1470.8206198426615
2852.3907,1533.9251337222931
2853.5385,1572.8100327096547
2854.6857,1613.0763016016922
2855.8323,1680.474909467251
2856.9781,1738.806809244415
2858.1233,1776.6229370665176
2859.2679,1821.4742116788248
2860.4118,1875.2615340603747
2861.555,1909.585786975463
2862.6976,1951.4478344357697
2863.8395,1972.198521357119
2864.9808,2003.1386731408566
2866.1214,2019.6690954663427
2867.2614,2033.840573981552
2868.4007,2049.3038741377695
2869.5393,2041.8097410478722
2870.6773,2048.6088993317017
2871.8146,2077.5520531910006
2872.9513,2076.9898863414232
2874.0874,2074.873061723104
2875.2227,2044.8522215062776
2876.3574,2027.8279871124498
2877.4915,2011.950959514604
2878.6249,1986.671719407444
2879.7577,1971.8408273661644
2880.8898,1931.2088240992439
2882.0212,1926.0762305967535
2883.152,1904.0435485366752
2884.2821,1909.8112603362301
2885.4116,1901.5798293722046
2886.5405,1892.9996999232724
2887.6686,1892.021297252309
2888.7962,1898.8950276921937
2889.923,1895.1712786555931
2891.0493,1925.9504185662247
2892.1748,1921.4827968960926
2893.2997,1939.818743857698
2894.424,1962.0085704487146
2895.5476,1984.55256826863
2896.6706,2006.1510092968442
2897.7929,2023.2541456672343
2898.9145,2062.862209452166
2900.0355,2087.425412491465
2901.1559,2114.3439459963347
2902.2756,2148.9179803037246
2903.3946,2191.297664607145
2904.513,2205.6331266109273
2905.6308,2225.774472106426
2906.7479,2246.9217848286635
2907.8643,2266.075126254921
2908.9801,2295.834535393259
2910.0953,2305.150028590991
2911.2098,2301.0715992370824
2912.3236,2310.449217669
2913.4368,2279.332831213495
2914.5494,2283.972364092828
2915.6613,2254.31771773593
2916.7725,2215.4687707320095
2917.8831,2199.7253791270978
2918.9931,2163.287376812541
2920.1024,2130.904575682429
2921.211,2119.0767659979792
2922.319,2096.453716711364
2923.4264,2080.085175583987
2924.5331,2074.6708694127187
2925.6391,2057.510504193575
2926.7445,2053.203765175864
2927.8493,2058.2503170337914
2928.9534,2044.999803909523
2930.0569,2046.0018493627229
2931.1597,2060.706056503057
2932.2619,2047.6620079801714
2933.3634,2044.1692658366546
2934.4643,2028.127371638473
2935.5645,2023.4858465099014
2936.6641,1991.3441912939409
2937.763,1954.6518865987348
2938.8613,1913.8083931189842
2939.959,1859.8631520028725
2941.056,1797.8655852604998
2942.1523,1716.6650963033333
2943.248,1635.8110705641864
2944.3431,1543.1528763092206
2945.4375,1458.9898654464882
2946.5313,1362.8213744525121
2947.6244,1250.6967252139157
2948.7169,1154.2152259891102
2949.8087,1068.6761725295396
2950.8999,985.8788490444957
2951.9904,908.6225290565081
2953.0803,834.4064762293192
2954.1696,776.2299451404457
2955.2582,719.2421820233409
2956.3462,682.8924253491573
2957.4335,645.2799063966279
2958.5202,613.2038496155606
2959.6062,585.0634730029653
2960.6916,574.3579884238143
2961.7764,551.3866018924443
2962.8605,538.9485136796136
2963.9439,527.5929185422142
2965.0267,522.5690058476531
2966.1089,517.8759596874083
2967.1905,524.9129589272683
2968.2714,516.0291772542621
2969.3516,516.7737831062898
2970.4312,523.0959397609605
2971.5102,529.594805328145
2972.5885,537.5695326867551
2973.6662,538.7192694197543
2974.7432,532.793157734412
2975.8196,531.3903344508046
2976.8954,536.3599310610782
2977.9705,521.8510737434757
2979.045,509.2128833126401
2980.1188,502.79447536470514
2981.192,484.3949604036759
2982.2645,474.01344390561314
2983.3364,448.64902650262866
2984.4077,430.8508040866998
2985.4783,407.4678680633142
2986.5483,370.6993055294513
2987.6177,348.8441995074121
2988.6864,307.2516293125052
2989.7545,278.37067077159725
2990.8219,249.80039663903835
2991.8887,235.48987688547209
2992.9548,201.88817898353886
2994.0204,167.2443680509806
2995.0852,152.00750718665768
2996.1495,129.77665781698715
2997.2131,103.80087984831084
2998.276,91.52923188920431
2999.3383,69.7107715102344
3000.4,46.44455536667533
3001.4611,45.629639416694545
3002.5215,33.465079154013665
3003.5812,16.94992961605817
3004.6404,18.033245505602736
3005.6989,13.064081355922099
3006.7567,3.6414915199592315
3007.8139,-4.235469779984214
3008.8705,-5.217748358021026
3009.9264,-2.6562477159213813
3010.9818,-14.001819230149636
3012.0364,-7.055287741255597
3013.0905,-6.71733821161456
3014.1439,-13.53858512127772
3015.1966,-10.319575844087922
3016.2487,-15.860722503422153
3017.3002,-3.712334130095769
3018.3511,-1.774561306306623
3019.4013,4.652482471964845
3020.4509,7.9687014366058975
3021.4998,2.8239997729789366
3022.5481,13.568281586759667
3023.5958,14.051450955383643
3024.6428,20.27341182060428
3025.6892,26.08406798366076
3026.735,25.183323043057612
3027.7802,32.92108033645968
3028.8247,40.74724294969849
3029.8685,38.56171363939518
3030.9118,51.81439475469915
3031.9544,60.0051882591431
3032.9963,65.73399559811571
3034.0376,70.70071761695448
3035.0783,79.75525450365694
3036.1184,78.39750573921407
3037.1578,88.02737000706452
3038.1966,91.09474520667152
3039.2348,111.39952835722488
3040.2723,100.59161556696745
3041.3092,115.47090183014632
3042.3455,117.48728113509333
3043.3811,107.74064631543177
3044.4161,106.63088902991194
3045.4505,114.40789985987846
3046.4842,110.62156832036663
3047.5173,107.67178278233348
3048.5498,106.70843051052003
3049.5816,98.08139769294996
3050.6128,102.54056945056305
3051.6434,102.085829923485
3052.6734,90.51706222643628
3053.7027,101.6341484532793
3054.7314,98.63696979270605
3055.7594,92.37540641706721
3056.7868,97.19933751234379
3057.8136,88.95864134076248
3058.8398,98.30319519255693
3059.8653,87.03287546837441
3060.8902,87.79755758583042
3061.9145,90.44711609221207
3062.9381,93.48142465683071
3063.9612,81.10035604452708
3064.9835,87.5537820853279
3066.0053,80.99157379825664
3067.0264,80.81360132679936
3068.0469,78.36973400452655
3069.0668,80.65984035687285
3070.086,64.78378812557548
3071.1046,65.29144424577373
3072.1226,67.18267500476878
3073.1399,57.25734603694747
3074.1567,53.56532230486994
3075.1727,46.30646819852291
3076.1882,49.38064757223981
3077.203,39.38772381728967
3078.2173,33.27755983113508
3079.2308,31.600018117361685
3080.2438,25.604960846779363
3081.2561,22.79224987419815
3082.2678,14.11174679837859
3083.2789,11.913312990159
3084.2893,9.496809679260252
3085.2991,17.512097976270354
3086.3083,10.959038896809261
3087.3169,9.087493281376055
3088.3248,1.5973218608794468
3089.3321,2.788385275353619
3090.3388,5.760544148859708
3091.3449,3.9636590775749596
3092.3503,1.4475906000715781
3093.3551,2.2621992152850794
3094.3593,-2.5926545923247204
3095.3629,-2.017110360919787
3096.3658,0.6387182719570035
3097.3681,-2.125262180304645
3098.3698,-5.109151585110737
3099.3708,1.0869714215017439
3100.3713,-6.036920756079752
3101.3711,-4.330855724337681
3102.3702,-4.144800780916256
3103.3688,1.0213200417889823
3104.3667,-3.0823758820580167
3105.364,-2.8057813812804113
3106.3607,2.901241508233568
3107.3568,2.9888587803515065
3108.3522,5.157236399928621
3109.347,8.30654030193159
3110.3412,4.536936369754926
3111.3348,4.348590403727741
3112.3277,4.191668158809961
3113.32,8.166335346475648
3114.3117,6.272757636282506
3115.3028,9.611100616124787
3116.2932,9.631529811169514
3117.2831,12.634210650472852
3118.2723,10.669308466775732
3119.2608,12.336988466477095
3120.2488,15.637415749282809
3121.2361,15.070755291528968
3122.2229,17.637171913177667
3123.209,17.886830283483533
3124.1944,15.419894895329435
3125.1793,23.536530062730066
3126.1635,22.036899945501062
3127.1471,24.771168468093094
3128.1301,20.13949933458767
3129.1125,19.692056001354842
3130.0942,24.729001723369777
3131.0753,27.70049955868734
3132.0558,26.356712318072653
3133.0357,30.547802535286053
3134.015,31.423932480520705
3134.9936,34.78526411849202
3135.9716,33.53195909967613
3136.949,33.21417872669656
3137.9258,33.63208396685735
3138.902,38.68583545532081
3139.8775,36.77559349092871
3140.8524,34.40151798566441
3141.8267,44.26376848375534
3142.8004,41.812504185413914
3143.7735,39.04788384821475
3144.7459,42.020065811607466
3145.7178,43.229208024562894
3146.689,40.67546801585135
3147.6596,45.30900288195103
3148.6295,41.27996931258558
3149.5989,50.63852354438865
3150.5676,45.284821401194364
3151.5357,52.71901820045157
3152.5032,54.14126880676103
3153.4701,53.651727557533434
3154.4364,51.70054824876682
3155.402,53.687884139942
3156.367,58.21388797353438
3157.3315,55.22871195514054
3158.2952,57.83250770821829
3159.2584,55.125426303938326
3160.221,58.20761823514637
3161.1829,57.2292334434339
3162.1442,63.340421288316335
3163.105,62.49133055701668
3164.065,63.0321094033538
3165.0245,62.76290535623329
3165.9834,66.33386531423963
3166.9416,63.64513554832844
3167.8993,64.54686166611663
3168.8563,65.93918863876979
3169.8127,70.42226079198502
3170.7684,70.3462217920675
3171.7236,74.46121460109977
3172.6782,70.96738147770225
3173.6321,77.11486393588328
3174.5854,76.10380277997734
3175.5381,73.63433804317035
3176.4902,78.4066089976102
3177.4417,77.47075417910142
3178.3926,80.17691133938246
3179.3428,80.97521745548423
3180.2924,84.61580870266852
3181.2415,81.84882044644502
3182.1899,85.9243872061653
3183.1377,83.34264268269277
3184.0848,87.05371971764697
3185.0314,84.95775031922109
3185.9773,89.75486562507106
3186.9227,92.4951959232754
3187.8674,89.57887060436397
3188.8115,92.60601813391472
3189.755,89.7767660817168
3190.6979,91.0912410914993
3191.6402,92.19956890922363
3192.5818,96.90187436993878
3193.5229,102.5482813866981
3194.4633,98.03891290353614
3195.4031,100.8238908390047
3196.3423,102.10333613126646
3197.2809,97.42736871024518
3198.2189,99.24610748483128
3199.1563,104.3596703896415
3200.0931,104.56817436683151
3201.0292,105.07173531496029
3201.9648,104.62046808690508
3202.8997,108.2144864848257
3203.834,109.5539032646774
3204.7677,109.08883010027048
3205.7008,113.41937756987623
3206.6333,112.99565516087767
3207.5652,112.71777122646402
3208.4964,114.83583298986797
3209.4271,115.69994654714448
3210.3571,117.61021684599017
3211.2865,113.51674767710219
3212.2154,120.01964165507549
3213.1436,120.66900025933761
3214.0712,117.01492376911959
3214.9982,125.55751125696253
3215.9246,125.99686062525824
3216.8503,127.43306852082344
3217.7755,126.46623033050624
3218.7001,129.14644016682405
3219.624,130.17379087763194
3220.5473,126.89837401932066
3221.4701,129.32027984654292
3222.3922,134.38959734496774
3223.3137,133.20641420706133
3224.2346,129.6208167813939
3225.1549,134.38289008447148
3226.0746,137.3427178365919
3226.9937,140.45038241422407
3227.9121,136.25596482040976
3228.83,137.3095446536868
3229.7473,140.56120015003341
3230.6639,141.91100817233234
3231.5799,140.50904417785432
3232.4954,144.70538220475993
3233.4102,147.00009488611929
3234.3244,147.64325340794872
3235.238,147.13492748626354
3236.151,146.02518536064642
3237.0634,147.91409379933086
3237.9752,151.85171811029838
3238.8864,153.5381221223896
3239.797,151.22336814592794
3240.7069,150.2075169558555
3241.6163,153.9406278148807
3242.5251,152.6727584836368
3243.4332,158.35396518335082
3244.3408,161.13430260852198
3245.2477,157.91382387010992
3246.154,160.1425804677313
3247.0598,161.1706223218644
3247.9649,161.84799775156165
3248.8694,164.3747534641692
3249.7733,161.7509345485533
3250.6766,162.02658444983257
3251.5793,165.55174499561625
3252.4814,164.32645639324772
3253.3829,169.300757194553
3254.2838,168.0746843080934
3255.1841,171.4982729494227
3256.0838,168.7215566533477
3256.9829,170.89456723969255
3257.8814,173.11733484106577
3258.7792,175.78988788113014
3259.6765,173.462253052375
3260.5731,177.83445528939086
3261.4692,171.7065177921457
3262.3647,175.72846198226273
3263.2595,180.80030756430017
3264.1538,178.1720724855315
3265.0474,178.84377288522697
3265.9404,184.6654231209361
3266.8329,176.28703576177085
3267.7247,180.55862153018865
3268.616,178.4301893857767
3269.5066,177.90174648253588
3270.3966,179.22329819016522
3271.286,179.8448480993461
