RamanShift,CorrectedData
30.1047,1744.1064588402373
32.3739,1619.638719768684
34.6426,1503.1209632560656
36.9109,1382.953155664931
39.1787,1264.585248326618
41.4461,1145.1171787429332
43.7131,1029.1488717698298
45.9796,905.1802408120892
48.2456,792.6111889830028
50.5112,673.8416103440588
52.7764,556.971391030634
55.0411,441.20041043968797
57.3054,325.72854239846674
59.5692,202.80565632221158
61.8326,86.53161836887865
64.0955,-26.543707331632675
66.3579,-133.0704575147392
68.6199,-240.2485037442213
70.8815,-329.0763882099894
73.1426,-376.95025301940126
75.4032,-287.5129528066969
77.6634,95.69642352691153
79.9231,1185.391659334609
82.1824,3715.8365370126176
84.4412,8358.844827103241
86.6995,14766.980262990422
88.9574,21030.956494469654
91.2148,25289.63702366663
93.4717,27219.385142397467
95.7282,27592.963889581937
97.9842,27402.886031945938
100.2398,26797.514060285743
102.4949,26152.210191368762
104.7495,25312.836373987266
107.0036,24407.154295411427
109.2573,23546.825389783047
111.5105,22714.110847172393
113.7632,21881.92162218148
116.0154,21149.668442271206
118.2672,20556.56181608327
120.5185,19942.01204076268
122.7693,19476.82920788882
125.0197,19083.923209620963
127.2696,18689.803743350105
129.519,18453.130315627983
131.7679,18161.962246108324
134.0163,17902.308669913535
136.2642,17629.678540546418
138.5117,17326.080632486683
140.7587,16999.47354391726
143.0052,16702.565699760267
145.2512,16352.565354943108
147.4967,16032.680597367515
149.7417,15791.269351409563
151.9863,15543.739381118536
154.2304,15428.248292631022
156.4739,15156.603536646213
158.717,14989.61240958083
160.9596,14734.632056285562
163.2017,14355.719471714961
165.4433,13961.581503477275
167.6844,13529.174855623556
169.925,13131.556092589042
172.1651,12632.231643517222
174.4047,12262.257806236024
176.6439,11898.090752251068
178.8825,11571.986530445394
181.1206,11270.051070721143
183.3582,11000.140187260587
185.5954,10835.459581545492
187.832,10601.614845056218
190.0681,10506.011460918538
192.3037,10394.15480624209
194.5388,10285.500153076377
196.7734,10224.402669529374
199.0075,10214.467420854056
201.2411,10288.19937005937
203.4742,10218.45337800959
205.7068,10293.084202687001
207.9389,10314.596499889365
210.1704,10401.694822483609
212.4015,10407.633620190674
214.632,10479.567238714588
216.862,10621.49991968302
219.0915,10667.485799927988
221.3205,10810.078910066497
223.549,10967.183174040716
225.777,11213.502407692013
228.0044,11488.240317189935
230.2314,11881.600496569012
232.4578,12210.836424981357
234.6837,12516.401462763091
236.909,12651.798848141982
239.1339,12529.98169418178
241.3582,12243.402987428255
243.582,11780.76558912737
245.8053,11312.87223809105
248.0281,10910.075555323572
250.2503,10570.978048700505
252.472,10318.082116996655
254.6932,10189.090053277057
256.9139,9979.00404742594
259.134,9857.276187436637
261.3536,9723.508461512429
263.5727,9703.50275928386
265.7912,9578.610873146372
268.0092,9532.634498460397
270.2267,9328.525234800247
272.4436,9231.384586413913
274.6601,9118.313964264122
276.8759,8969.614686999761
279.0913,8883.33798208659
281.3061,8787.234987294223
283.5204,8830.456751558904
285.7341,8806.754235944534
287.9473,8883.778313210441
290.16,9052.07976804843
292.3721,9294.259296312523
294.5837,9675.517503335945
296.7947,9958.404901509351
299.0052,10060.521906468206
301.2152,9862.118834263934
303.4246,9485.645900342748
305.6334,8832.953221529671
307.8418,8272.740819793291
310.0495,7788.008628772659
312.2568,7403.356499379428
314.4635,7107.484204645163
316.6696,6988.491443567884
318.8752,6870.177844070769
321.0802,6903.84296419209
323.2847,6882.336293268343
325.4887,6922.307251597596
327.692,6756.255190654565
329.8949,6635.179392690887
332.0972,6293.229072395658
334.2989,5975.7033781061855
336.5001,5579.851395227497
338.7007,5339.172149407585
340.9008,5189.864610495926
343.1003,5025.227694950299
345.2992,4881.61026732983
347.4976,4831.661141941371
349.6955,4707.979084275687
351.8927,4769.162811506929
354.0895,4708.210993729463
356.2856,4722.072253346043
358.4812,4644.8951656773115
360.6763,4643.228258823201
362.8707,4550.3700144347
365.0646,4522.818867730524
367.258,4485.823208425696
369.4508,4458.9313810070635
371.643,4467.091685103242
373.8346,4415.752375753524
376.0257,4364.261663326313
378.2162,4195.717714032471
380.4062,4087.7186504402507
382.5956,3838.7125531607453
384.7844,3741.2474619278637
386.9726,3597.671378088413
389.1603,3472.5822655767224
391.3474,3371.3780523504265
393.5339,3332.456631641324
395.7199,3220.315862967451
397.9052,3238.153572522273
400.09,3180.417554296104
402.2743,3213.4055698977336
404.4579,3247.165349131774
406.641,3366.594589668788
408.8235,3526.940956707682
411.0054,3846.302081781432
413.1868,4215.375561153607
415.3675,4528.408952624755
417.5477,4691.449771841686
419.7273,4717.245489167115
421.9064,4547.293528049273
424.0848,4369.6912647639365
426.2627,4094.2860301139626
428.4399,3786.9251112052807
430.6166,3414.305754200992
432.7928,3003.725167394954
434.9683,2631.1805249379704
437.1432,2392.06897094361
439.3176,2176.7376232136266
441.4914,2017.3835756291046
443.6645,1993.9039003037396
445.8371,1885.3456491774105
448.0091,1775.8058542509461
450.1806,1704.4315286717338
452.3514,1629.8696678291126
454.5216,1592.7672500680965
456.6913,1489.8212374350187
458.8603,1495.9285760485345
461.0288,1541.5361971290913
463.1967,1531.2410169378563
465.3639,1646.139936320642
467.5306,1714.4298408108534
469.6967,1826.857599480505
471.8622,1963.970064257317
474.0271,2102.9640688004565
476.1914,2177.186427129387
478.3551,2100.1839322339474
480.5182,2072.603355332116
482.6807,2049.191446640045
484.8426,2145.8449356478523
487.0039,2384.4605313537613
489.1647,2772.184921297543
491.3248,3164.914769174389
493.4843,3348.5467109576402
495.6432,3304.777350971497
497.8015,3222.70326005471
499.9592,3217.8709759982594
502.1163,3156.8770043660916
504.2728,2886.11781854346
506.4287,2575.239860346852
508.5839,2136.939542731583
510.7386,1775.513252900586
512.8927,1592.857356687393
515.0461,1467.7182021704102
517.199,1387.0421214994822
519.3512,1332.5754321472668
521.5029,1411.614437716009
523.6539,1464.405428482205
525.8043,1491.8446806062166
527.9541,1490.0784556043473
530.1033,1445.8530000744577
532.2519,1476.8645457136518
534.3999,1596.1593097605073
536.5472,1908.933494684963
538.694,2336.783286995378
540.8401,2953.704854110765
542.9856,3448.0443400823387
545.1305,3551.7478594242675
547.2748,3476.3614921702756
549.4185,3060.2812828366295
551.5615,2688.003241175971
553.704,2524.9233463381497
555.8458,2470.8375505929907
557.987,2472.7417809610706
560.1276,2436.1319397546213
562.2675,2420.553904558452
564.4069,2395.403528596071
566.5456,2358.5766408854543
568.6837,2268.8690464905485
570.8212,2022.8765268895404
572.958,1680.1448408719407
575.0942,1409.5197269985074
577.2299,1217.1469070285566
579.3648,1213.8220886262134
581.4992,1268.8409672841299
583.6329,1449.1992263567627
585.766,1704.3425365101539
587.8985,1830.7165539183552
590.0304,1819.2169177119977
592.1616,1762.3892487145567
594.2922,1659.6791495573343
596.4222,1490.3322052477524
598.5515,1317.8939841964493
600.6802,1167.510039910736
602.8083,929.8759127190096
604.9358,926.7871312745629
607.0626,828.089214931937
609.1888,781.67767377782
611.3144,700.7480096180007
613.4393,630.8457164415267
615.5636,522.5662812299634
617.6873,380.55518465643763
619.8103,367.1579021684265
621.9327,253.66990540785991
624.0544,242.48666234509074
626.1756,210.75363841378567
628.2961,173.81629662275736
630.4159,96.27009787329371
632.5351,88.71050132852542
634.6537,49.38296518887364
636.7716,6.182946767672547
638.8889,19.055902884440002
641.0056,69.99722859101166
643.1216,85.05212857078732
645.237,151.11580680716725
647.3518,100.28346643305485
649.4659,158.25030907019027
651.5793,141.91153533750912
653.6922,75.51234427143572
655.8043,125.24793348928142
657.9159,114.96349985324923
660.0268,20.25423897305518
662.137,-23.134654691217293
664.2466,-86.15818901934108
666.3556,-57.17114077590304
668.4639,-51.32742600518759
670.5716,33.36961038821755
672.6786,100.26713626069613
674.785,127.41231913493539
676.8907,175.35232553094465
678.9958,287.3343206946229
681.1002,242.4054681183443
683.204,235.01292842116527
685.3072,208.8538597980696
687.4097,157.77541809393006
689.5115,124.97475706509067
691.6127,88.24902889014265
693.7132,0.995384497953637
695.8131,-34.589026065092185
697.9123,-47.757062696517096
700.0109,-93.06123974945876
702.1089,-95.4535944840245
704.2061,-58.58523447854532
706.3028,-33.856313729960675
708.3987,29.083599031280755
710.4941,137.43527329931385
712.5887,323.44947827740907
714.6827,608.8769817945249
716.7761,963.6685484451045
718.8688,1354.5749367348471
720.9608,1575.9968955327531
723.0522,1625.4351601620947
725.1429,1406.490450186193
727.233,1149.3634689140163
729.3224,896.054905589659
731.4112,619.3154379635635
733.4993,376.0957348256561
735.5867,225.6964587726943
737.6735,143.06826864048708
739.7596,104.51182100788719
741.845,73.12777102306791
743.9298,45.666772789078095
746.014,61.42947967771033
748.0974,44.21654460409263
750.1802,93.37861986906864
752.2624,73.8163573313359
754.3439,96.73040791582025
756.4247,151.92142180929295
758.5048,279.74004823120777
760.5843,489.236934881832
762.6631,770.6627266640317
764.7413,1224.3180635883182
766.8188,1805.303577958588
768.8956,2256.8198898355586
770.9718,2578.017601226933
773.0473,2441.8972915721897
775.1221,2071.809514530669
777.1962,1742.0547993427317
779.2697,1553.5836545306483
781.3426,1615.1465711961646
783.4147,1884.5940249051891
785.4862,2177.6764750721813
787.557,2212.7443622656574
789.6271,1890.4981052773837
791.6966,1393.4881007716867
793.7654,853.9647265079184
795.8335,581.228346310545
797.901,388.7293154644067
799.9678,317.2179834420749
802.0339,407.3446958288223
804.0993,418.70979503775743
806.1641,390.0136194085462
808.2282,328.2065030937774
810.2916,272.13877634589517
812.3544,176.96076613529658
814.4164,132.12279671099532
816.4778,140.17519055241428
818.5385,118.91826881774978
820.5986,212.45235126346597
822.658,346.0277564568314
824.7166,419.74480084060997
826.7747,676.7037973973056
828.832,840.7050549119558
830.8886,958.9488754025842
832.9446,1099.7855524801635
834.9999,1129.5153701661802
837.0545,1189.8886014843047
839.1085,1212.5055081630344
841.1618,1211.916340032025
843.2143,1193.721334795875
845.2662,1134.2207180400292
847.3175,1084.9647034127083
849.368,960.8534932199436
851.4179,903.6372789181223
853.467,703.9662423550872
855.5155,616.5405563423374
857.5633,505.7603866516947
859.6105,419.92589288959425
861.6569,390.18722960487867
863.7027,335.0445471471394
865.7478,365.1979919641126
867.7922,377.5977071530906
869.8359,427.3938321594105
871.8789,541.0865026524261
873.9212,749.975850027582
875.9629,916.4120002694508
878.0039,1130.7950718628417
880.0441,1246.575174128462
882.0837,1254.4524050790715
884.1226,1174.0768502616884
886.1609,1074.7985826788135
888.1984,980.6176635921765
890.2352,1037.0841435155453
892.2714,954.3480631564998
894.3069,981.8094528517868
896.3416,881.1683333946894
898.3757,906.4247157603932
900.4091,902.4286021124244
902.4418,909.9799855500532
904.4739,940.9288501482843
906.5052,948.275170882338
908.5358,875.5189133181557
910.5658,723.2100335389441
912.595,563.1984788727277
914.6236,413.5341894154408
916.6515,445.8670996310393
918.6786,391.0971398481379
920.7051,503.72423593669373
922.7309,658.6983098556921
924.756,695.6692785268897
926.7804,805.2370522850724
928.8041,746.151534508339
930.8272,791.1626205224384
932.8495,718.2701981915889
934.8711,697.5741474684255
936.892,519.1243411228716
938.9123,408.5706449491299
940.9318,301.5129195501613
942.9506,183.85102144323173
944.9688,94.23480413047946
946.9862,51.56411927552472
949.003,-21.261182400343387
951.019,6.258749308526603
953.0344,46.92397700700167
955.0491,65.78450077502566
957.063,211.34032022331667
959.0763,373.24143430475306
961.0888,401.83783985882474
963.1007,455.529529992622
965.1119,544.9664937948583
967.1223,588.1487157989541
969.1321,638.626175088677
971.1412,682.1488448663113
973.1495,703.1666919478885
975.1572,742.0796763279577
977.1641,798.1377509694248
979.1704,776.1408614143984
981.1759,778.1889452236173
983.1808,853.1819321964249
985.1849,974.3197443502831
987.1884,1125.3022951708444
989.1911,1340.779488400567
991.1932,1458.6012165289103
993.1945,1489.6173586375298
995.1951,1446.4777792220775
997.1951,1470.4823278820586
999.1943,1383.1308397521861
1001.1928,1336.9231352623538
1003.1906,1335.959021011171
1005.1877,1393.9882902280042
1007.1841,1357.460722782631
1009.1798,1268.3260846049452
1011.1748,1092.134128050242
1013.1691,920.8845927905495
1015.1627,680.0772075765744
1017.1556,521.3116919501736
1019.1477,417.28775865244825
1021.1392,332.1051152113869
1023.1299,306.2134649821164
1025.12,339.9125079987207
1027.1093,400.2519412331385
1029.0979,506.98145825821484
1031.0859,571.4507486442817
1033.0731,578.8594968918478
1035.0596,497.307381786959
1037.0454,332.54407632703806
1039.0304,236.3192485364707
1041.0148,144.18256311419464
1042.9985,42.383682395957294
1044.9814,63.922267275684135
1046.9636,9.847978223479004
1048.9452,-27.13952492979297
1050.926,-4.890680734570196
1052.9061,-43.205656617432396
1054.8855,-21.88457114706398
1056.8642,57.572888732331194
1058.8421,154.41725470342135
1060.8194,187.24905787317402
1062.7959,207.16882780439119
1064.7717,228.82709218739546
1066.7469,253.124376640837
1068.7213,286.6612044951071
1070.695,292.4880965493576
1072.6679,206.20557073613963
1074.6402,171.76414206313348
1076.6117,193.5143234759671
1078.5826,187.95662620262738
1080.5527,207.84155953598383
1082.5221,353.71963088933626
1084.4908,528.4913455975766
1086.4587,715.507205458398
1088.426,876.9177069846082
1090.3925,881.1733395339361
1092.3584,852.9245836949485
1094.3235,705.3219112444931
1096.2879,648.6157854301746
1098.2515,656.0566624464009
1100.2145,733.9449920014195
1102.1767,814.93121724292
1104.1382,973.5657739791641
1106.099,1212.4990898690921
1108.0591,1431.4815828360042
1110.0185,1547.9136586782042
1111.9771,1626.5457088792027
1113.9351,1383.8781094433834
1115.8923,1113.0112201096745
1117.8488,826.295386778238
1119.8045,581.1809442191225
1121.7596,477.0182189394109
1123.7139,438.4575316344126
1125.6675,402.6991982292566
1127.6204,521.1935302645034
1129.5726,474.1908352537321
1131.524,492.0914154985876
1133.4748,514.4455685588146
1135.4248,556.1535870732623
1137.3741,548.8657585363289
1139.3226,521.2323648809033
1141.2705,520.1036825512128
1143.2176,440.72998277917213
1145.164,464.0615315956675
1147.1097,501.2485906242873
1149.0546,487.1914168480107
1150.9989,457.9902622373411
1152.9424,309.2953738908618
1154.8852,167.1069943272705
1156.8272,53.57536297231127
1158.7686,43.50071758067497
1160.7092,-14.26670462869879
1162.6491,-23.57666687186611
1164.5883,98.87121015949742
1166.5267,195.72754130461908
1168.4644,340.3429404140079
1170.4014,529.7180193809181
1172.3377,809.3033866951646
1174.2732,1031.3996455493889
1176.2081,1262.607391043215
1178.1421,1525.4772079622744
1180.0755,1775.70966846613
1182.0082,1829.0553294595811
1183.9401,1838.1147300903522
1185.8713,1686.9383912156154
1187.8017,1490.176815311399
1189.7315,1267.9804879843578
1191.6605,987.6498799393994
1193.5888,770.0854492016151
1195.5163,665.8876439196174
1197.4432,608.8069045411776
1199.3693,555.5936648551979
1201.2947,527.9483525625219
1203.2193,507.17138980807067
1205.1432,552.2131934572863
1207.0664,582.9741753039125
1208.9889,644.3047416195477
1210.9106,696.8552928460667
1212.8316,751.4262229823089
1214.7519,805.2679190585604
1216.6715,859.5307605908547
1218.5903,846.3151190425597
1220.5084,846.1713572817225
1222.4257,856.3498297132592
1224.3424,829.9008822803626
1226.2583,874.0248523627397
1228.1735,974.4220690410839
1230.0879,1108.9428526558404
1232.0016,1236.93751380323
1233.9146,1315.506351990074
1235.8269,1193.0496543538138
1237.7384,1112.417694876849
1239.6492,958.4607356110901
1241.5592,827.1790274842715
1243.4686,767.4728118395306
1245.3772,779.1923217482126
1247.285,728.9877826069423
1249.1922,729.6094120204325
1251.0986,758.7574203035201
1253.0042,738.0820104749564
1254.9092,772.3333779659351
1256.8134,900.7617108268314
1258.7169,1090.2671893846964
1260.6196,1192.0999849589607
1262.5216,1436.8602579664093
1264.4229,1602.2981569028289
1266.3234,1790.9138158954083
1268.2232,1859.5073530483678
1270.1223,1860.9288685567844
1272.0207,1893.8784440206819
1273.9183,1859.7561424307896
1275.8151,1805.2620078390682
1277.7113,1755.096065699914
1279.6067,1623.3583234151265
1281.5014,1532.7487708355548
1283.3953,1494.1673815784707
1285.2885,1502.8641139336578
1287.181,1565.8889112492434
1289.0727,1644.2417018447304
1290.9637,1741.9223983807387
1292.854,1895.6808970754828
1294.7435,2035.1170767279564
1296.6323,2258.7307971803566
1298.5204,2538.0218979237106
1300.4077,2806.9401958617455
1302.2943,2959.8354825179704
1304.1802,3036.707521346496
1306.0653,2931.256046203107
1307.9497,2785.4307605765152
1309.8333,2671.281338642879
1311.7162,2616.857426724051
1313.5984,2630.658644429077
1315.4798,2706.734585198443
1317.3605,2849.0848161660433
1319.2405,2910.1588773984367
1321.1197,2882.656280471352
1322.9982,2784.776507858918
1324.876,2778.369013208714
1326.753,2694.9832223205576
1328.6293,2710.3685332105815
1330.5048,2725.724316945092
1332.3796,2689.849917486712
1334.2537,2664.0946515408214
1336.127,2636.4078089143077
1337.9996,2651.4886527731232
1339.8714,2613.686419919137
1341.7426,2580.5503206393514
1343.6129,2589.2295390839136
1345.4826,2557.173233597481
1347.3515,2572.030536632421
1349.2196,2546.450555069383
1351.087,2570.0323700687186
1352.9537,2607.12503732627
1354.8197,2733.477586837562
1356.6849,2938.8390225268668
1358.5493,3056.608320983676
1360.4131,3102.584429409095
1362.276,3097.61626443816
1364.1383,2945.6027116800724
1365.9998,2716.342625767893
1367.8606,2444.984831878668
1369.7206,2158.6281280260173
1371.5799,1985.6712877737136
1373.4384,1855.8630630992593
1375.2962,1748.0021861234545
1377.1533,1515.587370408486
1379.0096,1201.6673120365158
1380.8652,936.6406919338369
1382.7201,721.0561790100837
1384.5742,502.8124328084814
1386.4275,355.35810566170403
1388.2802,239.79184487430393
1390.132,144.26229419726405
1391.9832,114.46809498365656
1393.8336,56.80788714393384
1395.6832,22.98030944387756
1397.5322,18.834000081184058
1399.3803,6.967597023758572
1401.2278,12.87973805116053
1403.0745,14.069060873287526
1404.9204,-34.01579692875566
1406.7656,22.523802085461284
1408.6101,45.986835174167936
1410.4538,73.97227937035677
1412.2968,118.72911124716666
1414.139,162.40630663800948
1415.9805,247.40284018901002
1417.8213,348.41768492222764
1419.6613,519.6498113857033
1421.5006,716.0981866432903
1423.3391,942.0117725623713
1425.1769,1282.9895238493355
1427.0139,1778.6803857904688
1428.8502,2373.8832908421737
1430.6858,3029.097153674058
1432.5206,3400.0708652168923
1434.3547,3677.9032861104934
1436.188,3708.443242993968
1438.0206,3676.2895257274013
1439.8524,3522.69088708645
1441.6835,3455.1960430838735
1443.5139,3421.6536745055346
1445.3435,3348.4624275853384
1447.1724,3309.0709143406675
1449.0005,3249.7277133042826
1450.8279,3190.2313699182396
1452.6545,3164.430397127333
1454.4804,3220.523275974034
1456.3056,3261.3084558565224
1458.13,3169.2843539677506
1459.9536,3014.649354887586
1461.7766,2685.5018115030616
1463.5987,2291.4900465547253
1465.4202,1923.4123559281034
1467.2409,1594.0670125938323
1469.0608,1378.402270288423
1470.88,1115.316366807725
1472.6984,900.9575261635655
1474.5161,732.2239612146132
1476.3331,617.3638758099787
1478.1493,511.4754664765278
1479.9648,441.8069235674957
1481.7795,354.4564323213708
1483.5935,310.37217355857683
1485.4067,255.95232455498626
1487.2192,256.5450594827562
1489.031,227.9485499545226
1490.842,220.36096501747852
1492.6522,211.93047143934018
1494.4618,177.15523378421676
1496.2705,218.7334144969209
1498.0785,179.9631742507081
1499.8858,160.7926715315116
1501.6924,182.32006302563605
1503.4981,187.8935038114705
1505.3032,169.011147144216
1507.1075,158.47114440013684
1508.911,123.821645265396
1510.7138,124.21079784144422
1512.5159,117.53674899152611
1514.3172,90.59764433677265
1516.1178,38.54162832295333
1517.9176,52.016844489864525
1519.7166,42.82143599190749
1521.515,16.853545463305636
1523.3126,37.11131511008898
1525.1094,21.992886969745086
1526.9055,11.546402708661844
1528.7008,-18.0799962267065
1530.4954,-41.98816850535877
1532.2893,-21.779792177139825
1534.0824,-48.856125830088786
1535.8747,-15.468210472132341
1537.6663,-34.4165990385045
1539.4572,-6.3516899370169995
1541.2473,0.7764622463273554
1543.0367,16.217866378910912
1544.8253,6.37253132035039
1546.6132,83.6904657680916
1548.4003,56.47167835586333
1550.1867,112.1161768804941
1551.9723,159.2239685741024
1553.7572,202.89505954764718
1555.5414,227.27945431985427
1557.3247,326.0271553805069
1559.1074,380.3381629465948
1560.8893,461.46247397485786
1562.6705,543.3500816186461
1564.4509,614.2509744167055
1566.2305,725.0651354742786
1568.0094,839.692541754117
1569.7876,896.2831629683078
1571.565,941.2869604320313
1573.3417,986.2538864976432
1575.1176,986.9338841046374
1576.8928,964.5768863299654
1578.6672,921.5828163812494
1580.4409,850.9515878203456
1582.2138,739.9331049932862
1583.986,632.3272637365862
1585.7575,602.0339524874471
1587.5282,564.7030533598008
1589.2981,536.1844424472347
1591.0673,516.6779901963073
1592.8358,571.4335616917324
1594.6035,559.4510168514444
1596.3704,608.8802098790438
1598.1366,658.2209893836243
1599.9021,718.5731978854765
1601.6668,771.6866713226846
1603.4308,853.3612384476182
1605.194,969.4967202957796
1606.9564,1097.5429293690577
1608.7182,1250.0496684743812
1610.4791,1431.0667294432515
1612.2394,1588.3938916066709
1613.9988,1761.5309199849871
1615.7576,1995.3775637146082
1617.5156,2212.583554316634
1619.2728,2454.548603358391
1621.0293,2605.9724002813728
1622.785,2653.7046099815925
1624.54,2599.594871295336
1626.2942,2473.5927965218525
1628.0477,2248.497971964438
1629.8005,2030.8599591904658
1631.5525,1829.1782972823385
1633.3037,1689.502505013861
1635.0542,1580.6820828670643
1636.804,1484.566514428947
1638.553,1428.2552674797098
1640.3013,1419.097794953881
1642.0488,1399.4435355034457
1643.7955,1438.5419135894135
1645.5416,1508.34233967836
1647.2868,1621.4942098514457
1649.0313,1706.846905106413
1650.7751,1873.3997902260671
1652.5181,2069.50221292475
1654.2604,2262.903502182802
1656.0019,2537.6529662855573
1657.7427,2884.249890889314
1659.4828,3226.843536273842
1661.222,3443.783133876419
1662.9606,3463.9178828658896
1664.6984,3258.9969479732717
1666.4354,2929.4694592904143
1668.1717,2467.584514319202
1669.9072,1937.59118126682
1671.642,1569.1385036646116
1673.3761,1271.2255056680242
1675.1094,1009.101195741121
1676.8419,830.7145696357056
1678.5737,678.7646130125759
1680.3048,568.2003032253888
1682.0351,456.6706108401577
1683.7646,391.0745007409041
1685.4934,372.21093324493813
1687.2215,309.12886475883715
1688.9488,265.97724796706825
1690.6754,251.10503246281223
1692.4012,213.1611651794883
1694.1263,183.09459053946557
1695.8506,169.00425083351
1697.5742,179.58908652144055
1699.297,165.4980363730392
1701.0191,116.88003736219798
1702.7404,89.18402480783425
1704.461,73.95893286006867
1706.1808,75.25369477718141
1707.8999,67.41724307787445
1709.6182,56.8985095283133
1711.3358,84.99642522049908
1713.0527,41.559920677447735
1714.7688,18.687925572216045
1716.4841,12.829369162261173
1718.1987,43.13318051816623
1719.9126,44.248288582218265
1721.6257,26.5736218653783
1723.338,46.058108436137445
1725.0496,-1.3993239027531672
1726.7605,12.750252190881838
1728.4706,13.855778038458084
1730.18,-10.283805166110142
1731.8886,21.030443632536844
1733.5964,1.3475682249718375
1735.3036,31.416612191464083
1737.0099,31.086619098812662
1738.7156,18.056632199663
1740.4204,-21.174305564206406
1742.1246,-31.557151431571583
1743.8279,26.807348890098183
1745.5306,-7.7312350507263545
1747.2325,-6.92333397364564
1748.9336,-17.61930136322644
1750.634,-20.869421539930045
1752.3336,-2.023802807399079
1754.0325,-18.632344983763687
1755.7307,-3.444927669365825
1757.4281,30.138755672576735
1759.1247,-15.580954006329193
1760.8206,31.54628394413703
1762.5158,42.020965827927284
1764.2102,33.943587633530115
1765.9039,31.51464492923151
1767.5968,24.83463294388821
1769.289,35.55404659120995
1770.9804,43.473380536565855
1772.6711,57.893129089789
1774.361,41.563786125984734
1776.0502,20.935844941333926
1777.7386,32.60979841638073
1779.4263,53.18613922231634
1781.1132,66.46535970423884
1782.7994,56.44795167538723
1784.4849,83.68440628435565
1786.1696,75.17521411525468
1787.8535,81.87086491536047
1789.5367,103.17184768020252
1791.2192,62.428650586607546
1792.9009,58.79176077969805
1794.5818,80.061664780309
1796.2621,104.98884852135325
1797.9415,96.77379713513074
1799.6202,119.26699470404856
1801.2982,103.26892434278034
1802.9755,123.78006797332728
1804.6519,129.60090648500227
1806.3277,103.48191952932211
1808.0027,105.77358546179494
1809.6769,98.27638160311108
1811.3504,106.1907842162318
1813.0231,131.26726858135316
1814.6951,115.85630891676738
1816.3664,150.70837812809623
1818.0369,160.37394796240278
1819.7067,150.60348865966807
1821.3757,135.84746885613913
1823.044,154.20635568202943
1824.7115,161.0306149090875
1826.3783,141.12071076699613
1828.0443,146.92710587513466
1829.7096,129.8502614416775
1831.3741,162.1906372055364
1833.0379,165.89869160711987
1834.701,153.42488146493451
1836.3633,167.11966193849912
1838.0248,162.9334866530935
1839.6856,198.26680756280166
1841.3457,215.5200749923779
1843.005,202.4937372839113
1844.6636,210.1882406242894
1846.3214,204.50402917546216
1847.9785,215.69154499749766
1849.6349,206.15122810542562
1851.2904,208.23351635736253
1852.9453,243.83884554991528
1854.5994,229.06764939735876
1856.2528,251.1203591755775
1857.9054,237.34740386978865
1859.5572,235.79920995400244
1861.2083,243.32620152875916
1862.8587,296.8288003366106
1864.5084,278.8074256868513
1866.1572,263.46249392048776
1867.8054,255.944418590454
1869.4528,253.90361061506155
1871.0994,246.8404783531787
1872.7453,273.20542762464083
1874.3905,256.19886178087745
1876.0349,261.5211814412669
1877.6786,282.3727846631982
1879.3215,308.0540668888516
1880.9637,301.46542073668024
1882.6051,298.45723574460044
1884.2458,305.3798984358764
1885.8858,295.1337923492056
1887.525,302.06929796948225
1889.1634,293.5367928302694
1890.8011,296.9366514444373
1892.4381,289.3192453894935
1894.0743,298.9349432735771
1895.7098,283.03411081164086
1897.3446,292.7671107292872
1898.9786,286.8843029217842
1900.6118,315.0360443567324
1902.2443,297.82268913289136
1903.8761,292.3945881986647
1905.5071,282.60208952423363
1907.1374,293.79553815583677
1908.7669,276.42527631369285
1910.3957,311.54164328006664
1912.0237,268.494975572974
1913.651,274.53560659501454
1915.2776,283.16386706383673
1916.9034,277.2300849517387
1918.5285,266.484585399382
1920.1528,266.9276907751282
1921.7764,267.2097207824945
1923.3992,255.98099245572848
1925.0213,244.24182015697534
1926.6427,227.34251568858235
1928.2633,243.38338841047698
1929.8832,276.61474540916697
1931.5023,249.6368913373226
1933.1207,243.15012808147185
1934.7383,255.10475503177167
1936.3552,241.40106914688295
1937.9714,230.6893648344194
1939.5868,215.51993408798353
1941.2015,225.2930665942922
1942.8154,206.70904988486018
1944.4286,207.26816923827664
1946.041,189.470707866044
1947.6528,195.86694690698732
1949.2637,197.3071656052307
1950.8739,186.89164124622494
1952.4834,186.32064914235798
1954.0921,198.3944627371029
1955.7001,184.41335361072834
1957.3074,159.67759135956294
1958.9139,172.23744373580394
1960.5197,185.14317689487416
1962.1247,166.6450552698252
1963.729,151.44334144228014
1965.3325,167.28829632741326
1966.9353,154.08017932597068
1968.5374,147.26924816581777
1970.1387,116.5557590340195
1971.7393,119.28996664494935
1973.3392,129.07212454742694
1974.9383,132.20248509737667
1976.5366,137.18129935999968
1978.1342,136.2588170784793
1979.7311,132.18528662418703
1981.3273,150.36095500591
1982.9227,139.13606791058646
1984.5173,124.66086952154637
1986.1112,116.9856026307616
1987.7044,135.06050878359565
1989.2968,139.18582835555935
1990.8885,117.61180037155827
1992.4795,138.88866246464295
1994.0697,138.11665109174737
1995.6592,113.39600132092073
1997.2479,113.82694683905356
1998.8359,127.40972019907531
2000.4232,134.14455281565097
2002.0097,130.28167482935078
2003.5955,105.67131503929704
2005.1805,124.3637009417971
2006.7648,106.05905897645061
2008.3484,112.05761433921543
2009.9312,128.65959116546037
2011.5133,135.81521246998273
2013.0946,122.42469998098477
2014.6752,118.68827406851688
2016.2551,124.45615387839007
2017.8342,108.82855736953206
2019.4126,112.25570125631202
2020.9902,107.98780116481703
2022.5672,99.37507159857887
2024.1433,94.21772598125153
2025.7188,99.46597674274108
2027.2935,114.0700353707789
2028.8674,114.68011235843642
2030.4406,123.84641705808644
2032.0131,95.31915767530609
2033.5849,91.04854117720606
2035.1559,96.33477357771335
2036.7261,106.27805998026633
2038.2957,117.67860452495916
2039.8645,93.4866102891092
2041.4325,107.85227917325028
2042.9998,111.47581214304591
2044.5664,116.10740908564276
2046.1323,96.997268773428
2047.6974,87.24558881771918
2049.2617,96.9525658598659
2050.8254,112.31839566876351
2052.3883,117.24327304378221
2053.9504,117.47739166111069
2055.5118,97.52094402450575
2057.0725,99.87412146294992
2058.6325,99.23711433021936
2060.1917,106.56011198134911
2061.7502,120.99330277900845
2063.3079,92.73687402026599
2064.8649,116.34101179225854
2066.4212,103.15590125475592
2067.9767,109.28172640412049
2069.5315,92.51867020516102
2071.0856,98.11691452986952
2072.6389,69.97664032505463
2074.1915,78.19802755636056
2075.7433,83.48125548966664
2077.2945,78.87650260887312
2078.8448,72.583946563067
2080.3945,74.4537642125706
2081.9434,69.38613169186965
2083.4916,78.63122439091649
2085.039,56.3892170058034
2086.5857,70.86028344631359
2088.1317,73.9945970583376
2089.677,75.59233047916541
2091.2215,58.403655606144184
2092.7652,65.27874358069812
2094.3083,75.61776496021866
2095.8506,78.920889649311
2097.3921,105.53828679640492
2098.933,91.12012476072505
2100.4731,89.36657084611534
2102.0124,104.22779144522156
2103.5511,93.8039520570228
2105.089,93.64521713822523
2106.6261,102.80175020749357
2108.1626,108.07371384704402
2109.6983,86.01126961107639
2111.2332,94.46457797305266
2112.7675,91.33379854632494
2114.301,84.41908999959696
2115.8337,107.97061008823539
2117.3657,98.03851572341864
2118.897,113.97296273661868
2120.4276,95.52410597892595
2121.9575,91.44209916170348
2123.4866,107.42709504107643
2125.0149,101.0292454587493
2126.5426,90.99870118215676
2128.0695,113.28561196844157
2129.5956,109.09012666475974
2131.1211,110.01239298541532
2132.6458,98.50255755381068
2134.1698,90.81076589322765
2135.693,101.58716254192313
2137.2155,101.88189113005046
2138.7373,111.79509427189032
2140.2584,100.62691356290634
2141.7787,104.67748948061262
2143.2983,87.64696149625843
2144.8171,102.98546803432009
2146.3353,94.14314664280755
2147.8527,97.27013383987696
2149.3693,102.11656520225824
2150.8853,115.98257533397782
2152.4005,80.86829781790038
2153.9149,101.07386507706542
2155.4287,92.54940872582938
2156.9417,93.04505936781106
2158.454,96.66094668113692
2159.9655,109.59719941348112
2161.4764,108.1539453459095
2162.9865,97.08131116351797
2164.4958,96.22942246986531
2166.0045,81.44840389769797
2167.5124,97.18837911746914
2169.0195,87.29947098515277
2170.526,92.33180138483658
2172.0317,91.98549132762037
2173.5367,99.0106609012837
2175.0409,101.75742927375632
2176.5445,115.47591462286073
2178.0473,100.1162341088484
2179.5494,114.72850373721303
2181.0507,82.61283851228563
2182.5513,89.81935229111559
2184.0512,102.24815810462314
2185.5504,105.59936808553903
2187.0488,98.57309334411275
2188.5465,89.31944393459935
2190.0435,97.98852892552486
2191.5397,90.33045649222458
2193.0353,90.44533383014596
2194.5301,80.93326723143537
2196.0241,81.09436208378611
2197.5175,96.12872296556225
2199.0101,83.7364536441869
2200.502,85.41765692579793
2201.9931,74.52243477917364
2203.4835,74.20088831891826
2204.9733,75.95311791441418
2206.4622,75.8292231930368
2207.9505,60.42930302262903
2209.438,73.4534555127425
2210.9248,78.80177816863852
2212.4109,64.02436776104287
2213.8962,70.2713202726668
2215.3809,73.04273104597814
2216.8648,64.58869472073548
2218.3479,55.859305206271074
2219.8304,54.05465576603183
2221.3121,51.97483910487381
2222.7931,65.969947387106
2224.2733,56.24007225729383
2225.7529,67.33530470029973
2227.2317,45.85573513858981
2228.7098,50.55145332127677
2230.1872,60.82254853892027
2231.6638,64.36910957656391
2233.1397,47.94122461102734
2234.6149,50.288981175442586
2236.0894,45.8624663235305
2237.5632,52.96176660612264
2239.0362,51.93696811542986
2240.5085,66.08815641404226
2241.9801,64.86541654518305
2243.4509,39.91883289119323
2244.921,42.69848918576372
2246.3904,42.404468763397745
2247.8591,49.686854531615154
2249.3271,32.74572897389362
2250.7943,37.831174076844036
2252.2608,36.043271499621824
2253.7266,34.83210252307299
2255.1917,41.84774806761379
2256.656,26.690288705342937
2258.1197,29.85980458988115
2259.5826,21.55637560794912
2261.0447,53.730081347669966
2262.5062,38.73100118160801
2263.9669,38.659213945028114
2265.4269,38.914798085887014
2266.8862,49.34783166555144
2268.3448,49.60839235624326
2269.8026,46.796557336705064
2271.2598,55.11240328959957
2272.7162,49.95600642962381
2274.1719,53.82744242035278
2275.6268,52.576786425801856
2277.0811,55.904113071713255
2278.5346,54.90949645806495
2279.9874,56.693010125795354
2281.4395,63.05472706675073
2282.8908,58.44471970584709
2284.3414,71.61305983745615
2285.7914,58.059818671501944
2287.2406,58.13506670177958
2288.689,64.88887384148575
2290.1368,61.9713094224694
2291.5838,59.28244212769005
2293.0302,66.57234002039468
2294.4758,57.44107057100791
2295.9206,46.188700584230446
2297.3648,67.21529629035467
2298.8082,67.57092345778301
2300.251,57.655647182770736
2301.693,59.0695318858634
2303.1343,65.61264141104948
2304.5748,62.78503901162412
2306.0147,53.13678728475952
2307.4538,58.86794819977695
2308.8922,53.47858319463057
2310.3299,58.26875311859567
2311.7669,63.93851828616289
2313.2031,62.73793842913892
2314.6387,60.467072639943126
2316.0735,55.12597938361705
2317.5076,45.96471652053151
2318.941,37.83334135979703
2320.3737,48.03191075088034
2321.8056,48.41048116491402
2323.2369,55.46910859271293
2324.6674,59.55784854099102
2326.0972,52.32675596177478
2327.5263,52.275885211510285
2328.9547,59.955290123377836
2330.3823,58.86502400779955
2331.8092,64.25513957564681
2333.2355,45.725688949141386
2334.661,57.02672360795805
2336.0858,58.90829457451355
2337.5098,57.270452300963825
2338.9332,69.51324665038373
2340.3558,67.18672691314714
2341.7778,71.84094168449792
2343.199,73.7759388878153
2344.6195,72.04176572807228
2346.0393,68.9884686724804
2347.4583,75.36609346783462
2348.8767,64.92468517104453
2350.2943,79.06428808535838
2351.7113,82.33494586477673
2353.1275,80.73670137266072
2354.543,75.16959664902242
2355.9578,78.13367292650992
2357.3718,56.87897068607572
2358.7852,76.90552962734046
2360.1978,65.8133888811335
2361.6098,66.90258680922943
2363.021,64.6731611152727
2364.4315,74.1251488338853
2365.8413,72.40858635295808
2367.2504,67.72350931913297
2368.6587,61.169952654968256
2370.0664,75.99795060578344
2371.4733,68.75753680519983
2372.8795,65.79874412685876
2374.285,59.82160475682849
2375.6899,64.67615022319069
2377.0939,63.16241145581307
2378.4973,67.73041873780312
2379.9,66.83020172064471
2381.3019,48.31178937852428
2382.7032,51.175210017324844
2384.1037,64.92049145981173
2385.5035,56.247661017000155
2386.9027,44.35674535069711
2388.3011,50.54777056023272
2389.6987,54.070762301373406
2391.0957,53.375745724409626
2392.492,40.962745438924
2393.8876,53.93178552074528
2395.2824,50.23288963607433
2396.6765,59.5660809117951
2398.07,49.53138197246244
2399.4627,58.27881484697082
2400.8547,54.80840106889991
2402.246,42.12016158904248
2403.6366,40.764116810109954
2405.0265,52.94028671361366
2406.4156,49.098690873424175
2407.8041,58.839348334007354
2409.1918,50.11227764884143
2410.5789,35.96749678300421
2411.9652,41.0550232004548
2413.3508,39.57487400548371
2414.7358,39.12706589183267
2416.12,44.66161515749491
2417.5035,47.02853770919046
2418.8863,39.32784900702268
2420.2684,44.00956404081103
2421.6497,28.073697407098507
2423.0304,30.720263262332764
2424.4104,46.79927548222577
2425.7896,32.76074763528709
2427.1682,34.30469282203512
2428.546,23.28112381538085
2429.9232,38.59005304518996
2431.2996,61.481492708517635
2432.6753,42.70545461652023
2434.0503,45.41194996553918
2435.4246,37.300989524862416
2436.7982,49.422583609659114
2438.1711,46.476742162088385
2439.5433,41.563474630086375
2440.9148,38.08278999682011
2442.2856,36.03469682982404
2443.6557,46.01920331580436
2445.025,41.88631728112091
2446.3937,40.886046091942035
2447.7617,42.26839669557285
2449.1289,39.933375630459295
2450.4955,46.48098901236335
2451.8613,53.36124255771483
2453.2265,48.82414151813464
2454.5909,43.36969061163336
2455.9546,47.64789406798104
2457.3177,54.608755683252184
2458.68,42.902278777042966
2460.0416,49.578466122863574
2461.4025,51.937320065202584
2462.7627,43.62884245276473
2464.1222,52.153034614881335
2465.4811,56.459897444596436
2466.8392,59.3494313134247
2468.1966,56.02163602828159
2469.5533,68.8265108025887
2470.9093,70.41405428955318
2472.2645,64.03426445411856
2473.6191,61.38713855708784
2474.973,56.072673218921864
2476.3262,59.14086444621125
2477.6787,58.69170768482036
2479.0305,60.37519778920523
2480.3816,57.99132902690667
2481.7319,69.0900950617131
2483.0816,61.1214889775008
2484.4306,70.0855031672454
2485.7789,52.68212941270872
2487.1264,64.46135879479789
2488.4733,54.07318186759949
2489.8195,51.31758854058717
2491.165,55.09456818250396
2492.5097,50.40410964891612
2493.8538,47.94620124444509
2495.1972,50.82083076967206
2496.5398,54.37798554571759
2497.8818,41.567652385494966
2499.2231,44.2398175581377
2500.5637,48.59446691710309
2501.9035,57.431585873451695
2503.2427,47.25115935230065
2504.5812,49.6031717044516
2505.919,58.18760680819514
2507.256,50.054448045791105
2508.5924,56.10367821762452
2509.9281,48.385279623535325
2511.2631,49.34923400232924
2512.5974,57.345522608958845
2513.9309,53.07412620488503
2515.2638,50.38502497811487
2516.596,65.17819858591383
2517.9275,53.20362618169884
2519.2583,52.91128626710383
2520.5884,54.95115681172865
2521.9178,52.073215256059484
2523.2465,55.277438491072644
2524.5745,51.46380288701266
2525.9018,59.032284261350014
2527.2284,60.18285791691869
2528.5543,56.96549856623142
2529.8796,55.23018031997208
2531.2041,62.176876719171105
2532.5279,55.705560752557176
2533.851,67.01620478709151
2535.1735,57.15878063268019
2536.4952,67.33325942906822
2537.8163,73.63961174441374
2539.1366,67.42780747354368
2540.4562,64.14781577488861
2541.7752,71.94960513260162
2543.0935,70.58314338935838
2544.411,72.7983976683372
2545.7279,80.24533438688832
2547.0441,76.6739192343764
2548.3596,82.8341170977153
2549.6744,81.37589209707949
2550.9885,88.64920752430362
2552.3019,77.50402585746224
2553.6146,83.54030868814107
2554.9266,81.05801683288428
2556.2379,81.30711027283382
2557.5485,83.98754817855342
2558.8585,74.39928890753413
2560.1677,87.89228997739315
2561.4762,78.66650816175479
2562.7841,71.9218993553211
2564.0913,90.2584186661295
2565.3977,94.37602048300005
2566.7035,77.62465829216785
2568.0086,86.20428463611006
2569.313,97.36485128105642
2570.6167,86.55630913119626
2571.9197,88.22860811707051
2573.222,92.08169730365694
2574.5236,94.91552487364856
2575.8246,102.13003808892267
2577.1248,112.92518326220124
2578.4244,109.60090568490682
2579.7232,113.85714951921136
2581.0214,112.54385783127714
2582.3189,106.66097254869578
2583.6157,106.30843447362031
2584.9118,112.43618334159578
2586.2072,123.89415782508149
2587.5019,122.78229547217757
2588.7959,117.80053259204215
2590.0893,135.89880426601144
2591.3819,126.22704439741551
2592.6739,135.68518553059835
2593.9652,134.62315894763356
2595.2557,140.2908945737438
2596.5456,124.63832098792045
2597.8348,141.86536536624726
2599.1234,133.22195363842548
2600.4112,135.8580103155025
2601.6983,136.3734585763068
2602.9848,135.31822024108715
2604.2705,134.24221576635819
2605.5556,145.14536425545316
2606.84,143.9275834692819
2608.1237,144.18878971730305
2609.4067,136.97889786969859
2610.689,143.9478213547634
2611.9707,131.74547223100376
2613.2516,137.87176111744816
2614.5319,132.57659731567037
2615.8115,122.35988874852865
2617.0903,132.57154201311437
2618.3685,126.51146248292184
2619.6461,130.22955420572907
2620.9229,130.1257199642016
2622.199,135.24986123870826
2623.4745,130.40187820836218
2624.7493,143.3316696997772
2626.0234,125.53913323555025
2627.2968,134.92416490496112
2628.5695,138.4866595418987
2629.8415,138.22651063101125
2631.1128,133.7936102720812
2632.3835,130.08784918262654
2633.6535,127.90911674223003
2634.9228,139.20730102959715
2636.1914,134.78228884434202
2637.4593,136.1839655940065
2638.7265,137.41221533831003
2639.9931,139.7169207751333
2641.259,134.99796322823454
2642.5242,132.55522262420482
2643.7887,135.48857753965547
2645.0525,135.74790522564706
2646.3156,130.38308157835422
2647.5781,126.69398113647378
2648.8398,133.98047713487233
2650.1009,133.54244154147625
2651.3613,134.3297449844083
2652.6211,129.592256756368
2653.8801,128.92984480675796
2655.1385,131.99237578905866
2656.3961,121.02971506745291
2657.6531,129.29172668620004
2658.9094,136.32827347926286
2660.1651,134.3892169876882
2661.42,130.97441738923942
2662.6743,140.5337335177884
2663.9279,134.8170228974633
2665.1808,135.37414164705513
2666.433,144.3049445371854
2667.6846,136.90928498473386
2668.9354,144.83701496353137
2670.1856,158.58798507831648
2671.4351,152.4120444854583
2672.6839,157.60904075544602
2673.9321,151.17881993464914
2675.1795,155.5212264933475
2676.4263,157.68610339003305
2677.6724,154.4732920279862
2678.9179,154.53263223362637
2680.1626,167.1139622886401
2681.4067,160.6171189293898
2682.6501,156.84193722109785
2683.8928,158.1882506228162
2685.1348,156.8558910251785
2686.3761,159.44468873693563
2687.6168,153.70447249828032
2688.8568,151.13506945495874
2690.0961,144.78630521567266
2691.3348,142.30800387777413
2692.5727,144.7999880907514
2693.81,144.06207908101374
2695.0466,143.69409662697012
2696.2826,135.09585906640984
2697.5178,136.26718330018218
2698.7524,133.45788487817742
2699.9863,134.617777987615
2701.2195,143.44667548113546
2702.452,144.04438886520336
2703.6839,145.06072821181624
2704.9151,152.74550215252805
2706.1456,154.74851786828606
2707.3755,165.86958101258256
2708.6046,164.90849569142574
2709.8331,177.7650643521282
2711.0609,176.7390877929181
2712.2881,186.48036503437356
2713.5145,205.03869332968122
2714.7403,194.66386806722574
2715.9654,217.15568258500355
2717.1899,216.86392827437453
2718.4136,225.038394355141
2719.6367,237.42886787846646
2720.8591,255.08513364513124
2722.0809,263.40697408162725
2723.3019,280.4441690635954
2724.5223,290.2464958326077
2725.7421,290.6637288257948
2726.9611,280.94563957782316
2728.1795,285.1419967167226
2729.3972,288.6025660610669
2730.6142,269.47711057801064
2731.8306,249.16539034868276
2733.0462,235.71716275944152
2734.2612,215.58218270499162
2735.4756,201.6602027228671
2736.6892,184.60097319478007
2737.9022,170.95424248584197
2739.1145,151.26975711515445
2740.3262,138.69726189227765
2741.5372,129.73650011407483
2742.7475,113.23721369043699
2743.9571,110.1991432338906
2745.1661,104.72202822459008
2746.3744,94.15560704069924
2747.582,84.9996170131617
2748.7889,63.90379453136552
2749.9952,68.01787513470276
2751.2008,52.29159372352774
2752.4057,52.4746845180166
2753.61,46.61688121543011
2754.8136,47.667916988282286
2756.0165,31.87752454291865
2757.2188,32.29543610900612
2758.4204,35.22138359743667
2759.6213,39.65509859614815
2760.8215,38.94631234086478
2762.0211,27.894755670759878
2763.22,15.750159035544584
2764.4182,25.61225260598303
2765.6158,26.580766395338628
2766.8127,21.355430160752803
2768.009,5.985973393559107
2769.2045,10.572125371537595
2770.3994,2.8636153126085446
2771.5936,1.0101723289710662
2772.7872,-7.738474495811147
2773.9801,-11.682596088276114
2775.1723,-7.672386067601337
2776.3639,-16.057921343830344
2777.5548,-18.1392021798697
2778.745,-26.81606841999246
2779.9346,-11.938178697841863
2781.1235,-18.6549237545388
2782.3117,0.08442493120082872
2783.4992,-4.019217756651074
2784.6861,-17.864936934966522
2785.8723,-15.30177756863202
2787.0579,-6.178606151813824
2788.2428,3.8058636860787374
2789.427,9.052980039911404
2790.6106,5.46409096649154
2791.7935,23.990544432097295
2792.9757,20.133688348365922
2794.1573,28.144870387030664
2795.3382,50.875438018488126
2796.5184,47.12673843168545
2797.698,73.95011830681642
2798.8769,88.19692385280507
2800.0551,104.76850053907503
2801.2327,100.56619295308076
2802.4096,118.14134463459152
2803.5859,136.79529811771397
2804.7615,152.77939475514097
2805.9364,167.29497453161184
2807.1106,204.543375904071
2808.2842,232.37593565651378
2809.4572,246.44398852750157
2810.6294,280.09886693183626
2811.801,328.74190081988
2812.972,363.42441734100646
2814.1423,399.5977403571709
2815.3119,448.41319009608435
2816.4808,486.6220827894816
2817.6491,535.6257301849647
2818.8167,584.5754391639161
2819.9837,626.8725112514605
2821.15,664.2682421269699
2822.3157,710.1639212010904
2823.4807,756.6108312417869
2824.645,801.6602479153848
2825.8086,843.7134393221015
2826.9716,879.8216655455519
2828.134,930.8861782322181
2829.2957,953.3082202303648
2830.4567,995.0390250793957
2831.617,1011.5798167856336
2832.7767,1017.3818094050102
2833.9358,1022.2962068776613
2835.0941,1003.9742029699039
2836.2519,1008.7669812250944
2837.4089,981.7757151468469
2838.5653,972.8015681511065
2839.7211,975.1456938360611
2840.8761,976.2092360718834
2842.0306,1006.8933289772899
2843.1843,1037.8990969089054
2844.3374,1069.8776541544216
2845.4899,1134.580104622539
2846.6417,1198.7075415231834
2847.7928,1277.3110467204785
2848.9433,1348.4916900914736
2850.0931,1430.1005287401072
2851.2422,1487.038606285402
2852.3907,1569.3569520453757
2853.5385,1616.3065804676592
2854.6857,1671.138490306316
2855.8323,1727.2036641523432
2856.9781,1776.3030678853543
2858.1233,1830.7876501129253
2859.2679,1875.1583416796018
2860.4118,1925.1660551220543
2861.555,1957.7116842253704
2862.6976,1986.8461035229768
2863.8395,2012.8701679711853
2864.9808,2024.8347126578462
2866.1214,2037.7405525421088
2867.2614,2054.5384823347767
2868.4007,2066.329276369248
2869.5393,2061.9136884335358
2870.6773,2080.992451652362
2871.8146,2110.316278531312
2872.9513,2099.985860766047
2874.0874,2094.401868949066
2875.2227,2082.9149526730102
2876.3574,2067.5257405865023
2877.4915,2030.9348405090172
2878.6249,2016.4928395847724
2879.7577,1999.600304648638
2880.8898,1976.6077823705555
2882.0212,1960.9157994244656
2883.152,1944.42486271823
2884.2821,1928.8854595505554
2885.4116,1933.1980577758993
2886.5405,1928.513105959865
2887.6686,1936.2810333360758
2888.7962,1940.952249853026
2889.923,1951.5771460963983
2891.0493,1950.806093242354
2892.1748,1956.9894429512826
2893.2997,1988.9775273755138
2894.424,1995.470659097483
2895.5476,2011.3191308098499
2896.6706,2039.0732152505684
2897.7929,2063.183165044403
2898.9145,2083.8492124253853
2900.0355,2122.921568995717
2901.1559,2150.5004255191075
2902.2756,2179.485951530052
2903.3946,2233.72829505804
2904.513,2243.027582337704
2905.6308,2277.2339172663937
2906.7479,2312.9473813111817
2907.8643,2326.0680331668045
2908.9801,2346.595908398523
2910.0953,2361.2810193109176
2911.2098,2354.4233547426115
2912.3236,2340.1228799194178
2913.4368,2331.4295365229154
2914.5494,2322.993242833455
2915.6613,2282.613893817094
2916.7725,2262.9413612099565
2917.8831,2238.8254939220305
2918.9931,2210.566118233888
2920.1024,2175.1630380378497
2921.211,2169.5160351205723
2922.319,2139.6748695170836
2923.4264,2116.38927956725
2924.5331,2108.7089822141916
2925.6391,2109.633673237135
2926.7445,2101.8130273282177
2927.8493,2083.4466980832403
2928.9534,2079.9843180798753
2930.0569,2077.7254990613255
2931.1597,2059.919831970953
2932.2619,2077.616886974864
2933.3634,2063.616213639967
2934.4643,2074.017340757002
2935.5645,2042.369776480547
2936.6641,2000.1230082250083
2937.763,1974.3765029810925
2938.8613,1918.529707738278
2939.959,1864.7320497422784
2941.056,1792.5329370535105
2942.1523,1734.6317590850722
2943.248,1639.4278873247306
2944.3431,1551.2206759139372
2945.4375,1457.6094625998635
2946.5313,1350.343569617476
2947.6244,1255.5723046256471
2948.7169,1150.0949617798115
2949.8087,1076.5608226796835
2950.8999,966.4191574240276
2951.9904,897.9692253460004
2953.0803,830.7602761145675
2954.1696,767.7915504190029
2955.2582,712.3622806409776
2956.3462,683.2216914842483
2957.4335,639.8690005289491
2958.5202,618.6534185229983
2959.6062,583.0241498156234
2960.6916,565.2803925695193
2961.7764,549.9213391171394
2962.8605,539.3961761381335
2963.9439,523.1040848129389
2965.0267,525.1442409280311
2966.1089,524.5158150388459
2967.1905,525.4179724493774
2968.2714,512.6498732184617
2969.3516,502.160672150756
2970.4312,520.5995189244184
2971.5102,531.4655581960005
2972.5885,527.6079294160585
2973.6662,537.1257667204934
2974.7432,526.2681989691272
2975.8196,532.3343496505247
2976.8954,522.6733369905685
2977.9705,512.8342738917979
2979.045,508.61626803002
2980.1188,497.1184219526983
2981.192,479.78983312113496
2982.2645,447.479594025448
2983.3364,445.23679235785676
2984.4077,412.3605113357853
2985.4783,388.89982972429016
2986.5483,360.80382216482315
2987.6177,334.57155940983796
2988.6864,297.45210860375084
2989.7545,272.09453354526295
2990.8219,238.19789505855476
2991.8887,216.86125124686203
2992.9548,181.13365783144172
2994.0204,164.4641683649386
2995.0852,132.15183458866125
2996.1495,127.29570659927685
2997.2131,97.74483317193437
2998.276,81.44826180882637
2999.3383,57.305039034697415
3000.4,49.96421055980966
3001.4611,40.07482152137527
3002.5215,19.885916556964276
3003.5812,9.746539903399025
3004.6404,9.705735598642946
3005.6989,6.212547583194464
3006.7567,2.6160197004953716
3007.8139,-18.584804268138328
3008.8705,-7.290880567549834
3009.9264,-2.6529797803885913
3010.9818,-9.071799653406856
3012.0364,-12.998011430089491
3013.0905,-8.782195726643295
3014.1439,-8.324803309140975
3015.1966,-1.7761972095202054
3016.2487,-7.986657294934616
3017.3002,-2.15644568832829
3018.3511,-2.9857447259385026
3019.4013,-0.4247152011109847
3020.4509,2.5265119203990025
3021.4998,18.067809915740668
3022.5481,15.89905203679848
3023.5958,17.620111354779283
3024.6428,21.280860781899378
3025.6892,28.68117305417445
3026.735,37.220920694811184
3027.7802,41.69997594020498
3028.8247,45.26821065454186
3029.8685,52.82549628500817
3030.9118,58.57170382610872
3031.9544,67.35670374409312
3032.9963,76.33036591949536
3034.0376,86.34255955928148
3035.0783,89.79315310711405
3036.1184,93.03201414323053
3037.1578,104.50900934993723
3038.1966,105.82400447922026
3039.2348,111.67686423797619
3040.2723,116.16745227486183
3041.3092,124.39563112176563
3042.3455,117.21126214890177
3043.3811,123.16420548252825
3044.4161,122.75432007679092
3045.4505,118.38146365419362
3046.4842,125.54549270969704
3047.5173,119.7962625544476
3048.5498,121.7336272441371
3049.5816,112.45743963649488
3050.6128,111.26755137191401
3051.6434,111.713812966214
3052.6734,108.39607382253854
3053.7027,106.9141822268939
3054.7314,113.11798538132564
3055.7594,92.10732941873744
3056.7868,105.18205934085341
3057.8136,97.39201922832456
3058.8398,95.43705210998161
3059.8653,97.96700004073534
3060.8902,90.5317041211261
3061.9145,93.73100447202461
3062.9381,90.51474030898459
3063.9612,91.03274991024989
3064.9835,90.48487064891725
3066.0053,83.57093898775634
3067.0264,83.090790484688
3068.0469,78.34425986192417
3069.0668,72.38118101076901
3070.086,71.15138703908411
3071.1046,65.10471033091926
3072.1226,65.44098255881062
3073.1399,57.96003474424725
3074.1567,48.61169725430835
3075.1727,45.84579987647322
3076.1882,37.01217191210452
3077.203,33.71064220410682
3078.2173,38.74103922526314
3079.2308,31.553191111250158
3080.2438,24.84692561033438
3081.2561,20.922070155250367
3082.2678,15.778451930263714
3083.2789,14.815897910419665
3084.2893,11.08423491297907
3085.2991,10.93328960704389
3086.3083,9.662888550873902
3087.3169,3.372858193396155
3088.3248,5.613024886908875
3089.3321,-3.5167850500179725
3090.3388,1.3832546450554446
3091.3449,0.513005367251651
3092.3503,1.4223284978607467
3093.3551,-2.388919706750812
3094.3593,-2.120883004439577
3095.3629,-1.9736812877544025
3096.3658,-2.3974132616233135
3097.3681,-6.2921579138980235
3098.3698,-0.2079702822721856
3099.3708,0.20515745421809584
3100.3713,-2.602764805840451
3101.3711,-2.1317292133841477
3102.3702,-0.9817019177290547
3103.3688,-5.202627772216459
3104.3667,-5.044441822985846
3105.364,1.2929728580747337
3106.3607,4.359783593050935
3107.3568,0.456157691098781
3108.3522,2.8322624177766613
3109.347,-0.9617395183724113
3110.3412,3.8243145628720185
3111.3348,-0.30940305049199424
3112.3277,3.937279891290558
3113.32,5.264538728911077
3114.3117,10.172548763688383
3115.3028,11.461485244295744
3116.2932,10.931523317681325
3117.2831,14.282838016178374
3118.2723,15.415604262805118
3119.2608,16.179996837751617
3120.2488,19.52619036705201
3121.2361,20.65435931494065
3122.2229,16.11467795038996
3123.209,18.157320335828842
3124.1944,20.432460372539367
3125.1793,17.790271780230455
3126.1635,20.28092807428669
3127.1471,23.954602592189758
3128.1301,26.111468468612088
3129.1125,29.101698598680372
3130.0942,26.675465616406626
3131.0753,30.482941864786028
3132.0558,29.574299420059106
3133.0357,32.199710053637006
3134.015,33.5093452411879
3134.9936,33.303376136382866
3135.9716,34.73197355779945
3136.949,35.44530799098163
3137.9258,34.19354957415359
3138.902,38.42686809108653
3139.8775,37.34543298361618
3140.8524,41.049413309309614
3141.8267,45.38897775227973
3142.8004,41.614294586145235
3143.7735,42.7755316306351
3144.7459,52.27285628933548
3145.7178,46.65643553807709
3146.689,53.02643582996218
3147.6596,44.88302315152875
3148.6295,48.526362959050445
3149.5989,52.25662025997086
3150.5676,51.1739595764699
3151.5357,54.22854490816145
3152.5032,51.77053974291974
3153.4701,56.2001070263336
3154.4364,58.01740918628657
3155.402,63.822608088661084
3156.367,60.46586501916556
3157.3315,59.59734062528224
3158.2952,60.06719494983483
3159.2584,59.27558743967357
3160.221,61.872676940976945
3161.1829,64.90862170716746
3162.1442,64.28357937294092
3163.105,65.64770692390697
3164.065,63.90116070283942
3165.0245,68.39409639603514
3165.9834,65.92666905077931
3166.9416,68.19903303041613
3167.8993,75.91134203902328
3168.8563,75.963749098688
3169.8127,76.20640647238415
3170.7684,74.23946566344813
3171.7236,78.86307741315233
3172.6782,75.77739172037442
3173.6321,77.73255779536144
3174.5854,80.77872409058642
3175.5381,77.76603828119698
3176.4902,80.04464723455344
3177.4417,83.66469704035578
3178.3926,88.7763329878575
3179.3428,87.62969952966523
3180.2924,85.77494023062224
3181.2415,85.41219777927476
3182.1899,91.79161400641974
3183.1377,89.56332988873211
3184.0848,89.87748548497066
3185.0314,89.3842199582609
3185.9773,95.93367157295354
3186.9227,94.67597769955705
3187.8674,93.66127474924326
3188.8115,96.08969818642422
3189.755,96.4613825388992
3190.6979,100.42646137357053
3191.6402,99.08506729272675
3192.5818,99.98733189439176
3193.5229,103.6333857857388
3194.4633,105.17335857406779
3195.4031,106.55737883034486
3196.3423,103.5855740738025
3197.2809,108.35807075809944
3198.2189,108.92499430103868
3199.1563,111.4864690368425
3200.0931,112.29261821048324
3201.0292,110.49356395206858
3201.9648,115.28942726878002
3202.8997,113.98032806286338
3203.834,111.26638508367027
3204.7677,112.84771594074897
3205.7008,118.1744371309839
3206.6333,116.09666402278236
3207.5652,119.96451080280721
3208.4964,121.67809049675472
3209.4271,121.187514930676
3210.3571,123.69289471384123
3211.2865,123.54433924364545
3212.2154,125.69195668055477
3213.1436,127.38585394959183
3214.0712,125.67613671885972
3214.9982,132.462909382603
3215.9246,131.74627507830476
3216.8503,130.5263356188192
3217.7755,136.6031914995375
3218.7001,134.07694191058764
3219.624,135.19768467606562
3220.5473,136.265516279298
3221.4701,142.7305318516344
3222.3922,138.29282516176937
3223.3137,140.0524885510921
3224.2346,135.60961297806352
3225.1549,142.86428800061964
3226.0746,147.11660182060038
3226.9937,146.0166412112027
3227.9121,146.5644914744576
3228.83,150.1102364522296
3229.7473,148.90395852073829
3230.6639,150.6457385551008
3231.5799,151.33565594139475
3232.4954,151.5737885592403
3233.4102,153.76021277490105
3234.3244,150.04500343890265
3235.238,155.62823386416864
3236.151,157.00997586317243
3237.0634,156.9902996921051
3237.9752,157.5192740370578
3238.8864,159.64696601421878
3239.797,156.4234411645834
3240.7069,161.79876343267736
3241.6163,166.47299519879198
3242.5251,165.84619722523087
3243.4332,166.21842860956772
3244.3408,165.33974679091415
3245.2477,171.01020754619753
3246.154,166.32986499894767
3247.0598,165.74877156259214
3247.9649,171.71697798725984
3248.8694,172.38453336559203
3249.7733,173.00148507306
3250.6766,173.0678787612897
3251.5793,174.13375835189223
3252.4814,173.49916603579987
3253.3829,174.61414226260717
3254.2838,178.3787257469171
3255.1841,177.39295345719103
3256.0838,177.95686057810303
3256.9829,181.52048052039757
3257.8814,182.18384491525052
3258.7792,186.4469835786328
3259.6765,178.90992450467695
3260.5731,179.12269382304572
3261.4692,185.83531587430235
3262.3647,183.0978132077833
3263.2595,187.6602065144716
3264.1538,184.27251465437223
3265.0474,187.9347546108878
3265.9404,189.64694152469596
3266.8329,188.40908865712655
3267.7247,188.87120737303997
3268.616,190.43330715320585
3269.5066,192.2453955896815
3270.3966,187.45747837019127
3271.286,189.06955926000546
