RamanShift,CorrectedData
30.1047,124.07108174271806
32.3739,112.44881295133393
34.6426,102.77654291923896
36.9109,94.15426928123422
39.1787,85.53198864435531
41.4461,75.30969667409512
43.7131,67.28738818062662
45.9796,57.01505722102576
48.2456,46.792697179494596
50.5112,38.620300870084534
52.7764,31.79786063892002
55.0411,23.12536844592246
57.3054,12.302815933034655
59.5692,3.2301945109457026
61.8326,-6.342504532683451
64.0955,-15.415289942493818
66.3579,-21.938107101506134
68.6199,-25.86074739399463
70.8815,-31.832783042543596
73.1426,-30.30352792087092
75.4032,-7.621977893191897
77.6634,52.91317390852204
79.9231,211.75331049585867
82.1824,539.6498143512738
84.4412,1101.0040658396908
86.6995,1808.267439929534
88.9574,2466.191300579188
91.2148,2921.4269936643623
93.4717,3101.2758403988546
95.7282,3107.439132782191
97.9842,3072.4681318011408
100.2398,2994.364067368081
102.4949,2926.7781386707093
104.7495,2886.961514953079
107.0036,2826.5653361914665
109.2573,2734.1907134925304
111.5105,2604.7887296972763
113.7632,2503.010440304804
116.0154,2388.206874766324
118.2672,2262.779037502945
120.5185,2125.9779090537045
122.7693,2026.454447329852
125.0197,1922.6095889828566
127.2696,1840.8442503996444
129.519,1788.4593287410444
131.7679,1753.2557027594441
134.0163,1716.3842333226385
136.2642,1703.1957637658643
138.5117,1654.091120260517
140.7587,1622.4211119460342
143.0052,1564.036531420943
145.2512,1499.4881550595587
147.4967,1428.7267435958315
149.7417,1381.1030427688308
151.9863,1349.5177840303581
154.2304,1316.0716850211852
156.4739,1305.715449886905
158.717,1305.7997696123957
160.9596,1317.1253221253799
163.2017,1317.6927722955832
165.4433,1320.7027718214786
167.6844,1295.405959224611
169.925,1256.3029598194983
172.1651,1188.8943859665987
174.4047,1117.680837463342
176.6439,1068.2129022182125
178.8825,1042.3911569628876
181.1206,1019.1161677469163
183.3582,988.2384901959354
185.5954,975.458669744421
187.832,962.0772419444643
190.0681,949.4447325935708
192.3037,951.5616578684736
194.5388,942.4285244514587
196.7734,952.7958295091963
199.0075,948.9140607840714
201.2411,974.233696490511
203.4742,982.3552053538015
205.7068,997.2290463568935
207.9389,1009.6556686591848
210.1704,1019.2855114477837
212.4015,1014.8690038132421
214.632,1017.5565646532574
216.862,1022.5986027168371
219.0915,1015.8955165774239
221.3205,1014.2476945824742
223.549,1007.3555149204905
225.777,1006.6193456374982
228.0044,990.9395447059685
230.2314,973.8664600321792
232.4578,942.5504296130134
234.6837,923.5917817066888
236.909,901.0908351459202
239.1339,873.4478995275041
241.3582,866.7632754373291
243.582,835.8872547268049
245.8053,864.720120579709
248.0281,868.0121478209468
250.2503,857.9636026282226
252.472,856.1247424991191
254.6932,858.1458163515834
256.9139,859.1770645423161
259.134,864.6187188465591
261.3536,882.9210024477849
263.5727,936.9341298832784
265.7912,972.5583068611155
268.0092,1017.6937297200313
270.2267,1070.1405850731776
272.4436,1109.7490493567707
274.6601,1130.2692883056206
276.8759,1145.4514565570478
279.0913,1163.1456974456798
281.3061,1169.1021428516306
283.5204,1192.8709130235568
285.7341,1201.202116519094
287.9473,1217.79584996717
290.16,1211.7021979846907
292.3721,1170.2712330106044
294.5837,1120.0530153668392
296.7947,1108.4475936726103
299.0052,1088.1050053466033
301.2152,1059.1252767230285
303.4246,1040.9084232550463
305.6334,999.9544498045645
307.8418,983.0133508244073
310.0495,955.3851107678548
312.2568,905.3197042580532
314.4635,841.2670963642992
316.6696,790.6772431026922
318.8752,731.800092076661
321.0802,709.4855829828638
323.2847,702.4336481999569
325.4887,699.9942130117425
327.692,710.1671956776862
329.8949,751.4025074573116
332.0972,785.6500525084699
334.2989,798.509727474988
336.5001,785.9314211441917
338.7007,746.5150143183106
340.9008,706.0603799402605
343.1003,641.2173834878076
345.2992,585.3858833781144
347.4976,538.9657316161706
349.6955,503.2067743531072
351.8927,476.30885235039773
354.0895,455.1718013374501
356.2856,445.54545228058294
358.4812,427.42963159439773
360.6763,417.7741612380413
362.8707,420.62885889636505
365.0646,426.44353807647826
367.258,428.66800807920276
369.4508,441.6520739409257
371.643,467.7955364113542
373.8346,480.0981918236748
376.0257,523.1098318331194
378.2162,522.0302432939377
380.4062,533.8092078292818
382.5956,504.3465018420022
384.7844,475.7418963968569
386.9726,431.7451575151392
389.1603,390.9560464607241
391.3474,371.1743201800357
393.5339,376.84973170993885
395.7199,380.63203037555536
397.9052,407.2209617335109
400.09,445.61626753410997
402.2743,489.7176854554493
404.4579,531.3749487194627
406.641,567.9377856509079
408.8235,605.6059192607934
411.0054,656.4790668807507
413.1868,712.0569397863517
415.3675,750.0892426883793
417.5477,743.9756731770476
419.7273,681.0159213416784
421.9064,594.2596698318378
424.0848,544.6565944869326
426.2627,483.9563652037732
428.4399,414.0086464326041
430.6166,344.5630977841063
432.7928,286.91937472887525
434.9683,258.57712929187414
437.1432,238.5860106288742
439.3176,203.39566530987577
441.4914,190.10573751901825
443.6645,188.06586940648617
445.8371,182.02570122140628
448.0091,185.88487133224749
450.1806,183.4930162872222
452.3514,166.44977077569433
454.5216,172.80476765209846
456.6913,168.0076381063734
458.8603,161.20801160041015
461.0288,171.10551591602416
463.1967,161.29977722295212
465.3639,171.89041997987488
467.5306,161.677067032477
469.6967,162.35933950753906
471.8622,141.8868569150709
474.0271,136.5092371414903
476.1914,145.07609665434734
478.3551,131.43705055610053
480.5182,132.29171249844717
482.6807,140.189694818715
484.8426,150.03060853131547
487.0039,205.9140632487631
489.1647,254.6396670832671
491.3248,305.70702608789634
493.4843,316.31574376932394
495.6432,308.1154205771529
497.8015,261.1056537978293
499.9592,229.88603763664514
502.1163,170.85616368783485
504.2728,129.76562124677434
506.4287,102.11399790027735
508.5839,87.2508799375023
510.7386,75.92585262646799
512.8927,81.63850036268445
515.0461,94.18840678240349
517.199,118.42515470549188
519.3512,156.49832600993363
521.5029,222.65750138946214
523.6539,273.60225997282873
525.8043,283.2821786622094
527.9541,225.5468316237584
530.1033,160.14579019080884
532.2519,115.02862344122605
534.3999,90.79489885141788
536.5472,81.39418274750574
538.694,86.17604054766298
540.8401,104.14003685612033
542.9856,108.43573541534988
545.1305,129.5626989264233
547.2748,145.52048900605564
549.4185,151.00866597533468
551.5615,161.6267887001452
553.704,181.22441453628403
555.8458,196.65109922328134
557.987,221.20639668842364
560.1276,253.63985889248625
562.2675,302.4510355841808
564.4069,370.88947397582047
566.5456,409.5547182552084
568.6837,400.9463089012547
570.8212,328.6137822973212
572.958,253.3566708173082
575.0942,197.77450354897837
577.2299,151.46680704652817
579.3648,134.1831058864102
581.4992,119.92292313040889
583.6329,134.58578049847824
585.766,165.92119851134294
587.8985,208.37869634386993
590.0304,249.85779151171596
592.1616,282.3579994467502
594.2922,269.57883308226474
596.4222,227.76980252797193
598.5515,175.28041519779708
600.6802,117.76017622796712
602.8083,92.0585890019056
604.9358,71.37515572543407
607.0626,64.2593776837889
609.1888,80.76075544845548
611.3144,115.27878894832634
613.4393,150.96297730468723
615.5636,202.36281848603585
617.6873,254.82780895124188
619.8103,276.1074431355478
621.9327,272.00121292591825
624.0544,241.758607448244
626.1756,193.77911310840364
628.2961,143.66221389468978
630.4159,117.95739185760544
632.5351,107.91412761103197
634.6537,105.28190058927726
636.7716,93.76018914750762
638.8889,81.14847058807186
641.0056,97.59622127571652
643.1216,108.25291676370284
645.237,107.1680316293307
647.3518,83.6910393673711
649.4659,66.42141240091519
651.5793,47.20862231614433
653.6922,41.30214003502556
655.8043,36.001436007440816
657.9159,24.555980270250984
660.0268,16.71524250030211
662.137,17.42869212888195
664.2466,15.14579842012563
666.3556,11.366030463881543
668.4639,6.738857198540927
670.5716,6.513747448835147
672.6786,1.0901699721077875
674.785,1.6175934605651037
676.8907,-6.204524284383979
678.9958,-11.526741621090082
681.1002,-5.8995549247065355
683.204,-10.323345418239228
685.3072,-5.548435388141229
687.4097,-3.675043990645463
689.5115,-0.4533349531159274
691.6127,-9.683435289228669
693.7132,-4.115467483844441
695.8131,-10.349457284305913
697.9123,7.4646106755647
700.0109,9.426855153022643
702.1089,19.787394830677613
704.2061,45.0963482968707
706.3028,58.303833942070355
708.3987,83.60996970578174
710.4941,96.96487294447161
712.5887,109.16866017850771
714.6827,99.17144695860918
716.7761,88.72334774380795
718.8688,96.52447600142409
720.9608,98.17494431154319
723.0522,115.37486428900695
725.1429,144.57434656690793
727.233,185.82350062458954
729.3224,251.6224344956538
731.4112,309.3712543554676
733.4993,314.6700638631746
735.5867,260.81896358420613
737.6735,176.41805093729226
739.7596,124.11742073297444
741.845,99.71716601761284
743.9298,94.61737859639516
746.014,93.41814927733708
748.0974,119.41956792228098
750.1802,116.27172345888812
752.2624,110.47470362062506
754.3439,106.72859497824163
756.4247,94.93348299774095
758.5048,99.68945207784134
760.5843,125.39658566792593
762.6631,173.00496622048365
764.7413,223.66467493403843
766.8188,316.7257912770641
768.8956,395.08839248138804
770.9718,447.2525526115819
773.0473,445.1683417813333
775.1221,413.28582563180476
777.1962,406.25506535247564
779.2697,471.576117999967
781.3426,559.9990365683498
783.4147,623.473869335934
785.4862,599.4506589810399
787.557,512.3294419472497
789.6271,394.81024868364
791.6966,269.0431045159928
793.7654,178.17803082198907
795.8335,116.36504628887963
797.901,102.50416782213506
799.9678,84.89541116357714
802.0339,81.93879102998574
804.0993,87.48432128918785
806.1641,80.78201498962267
808.2282,67.13188430488663
810.2916,36.733940600756455
812.3544,40.338194571691474
814.4164,35.64465654481137
816.4778,36.05333644385473
818.5385,46.16424383611411
820.5986,86.92738792834916
822.658,151.89277746567757
824.7166,207.7604203239432
826.7747,302.8303228600631
828.832,393.90248935335023
830.8886,452.8269210548151
832.9446,461.5536152764432
834.9999,440.2825648019515
837.0545,368.41375779952057
839.1085,274.1971780345066
841.1618,201.03280558812799
843.2143,158.1706177996324
845.2662,124.11058999793954
847.3175,96.05269593026401
849.368,88.24690810271386
851.4179,91.74319806087112
853.467,87.99153646784976
855.5155,95.94189306933117
857.5633,103.94423673108236
859.6105,91.59853535945172
861.6569,75.60475582134586
863.7027,79.96286406768729
865.7478,59.37282529335096
867.7922,56.18460389358427
869.8359,64.04816366990633
871.8789,47.9134678619904
873.9212,61.230479069029
875.9629,68.7491594110802
878.0039,74.16947039589706
880.0441,101.94137284374222
882.0837,108.46482683318436
884.1226,133.33979142337796
886.1609,190.26622458883037
888.1984,225.9440829706508
890.2352,274.7733213072869
892.2714,281.2038920777453
894.3069,259.6857450133
896.3416,211.41882703318686
898.3757,170.95308245978367
900.4091,146.9884535012808
902.4418,144.42488065633825
904.4739,164.91230295373157
906.5052,189.45065797798748
908.5358,168.18988166451015
910.5658,144.07990805419718
912.595,122.12066950604844
914.6236,80.51209693826445
916.6515,57.20412004783975
918.6786,37.696667726648684
920.7051,34.28966829452486
922.7309,38.93304969433541
924.756,44.27673952605119
926.7804,49.07066500031283
928.8041,69.864752884994
930.8272,78.05892945726202
932.8495,88.85312029563727
934.8711,93.69725019805082
936.892,111.29124307390293
938.9123,135.28502189562198
940.9318,154.32850852272418
942.9506,172.22162346187645
944.9688,163.41428567646096
946.9862,151.50641240764435
949.003,111.94791926245023
951.019,85.08872033283842
953.0344,70.77872859128979
955.0491,56.917856159398866
957.063,56.15601445097309
959.0763,58.14311431064243
961.0888,53.779066021476865
963.1007,61.513779285115675
965.1119,57.04716326540745
967.1223,48.7291265110631
969.1321,46.65957700032209
971.1412,44.93842222413355
973.1495,37.91556920685127
975.1572,39.240924523445415
977.1641,40.06439436973062
979.1704,47.7358845491126
981.1759,40.705300464353854
983.1808,30.422547040858376
985.1849,29.93752879697786
987.1884,34.45014994683902
989.1911,41.36031440519446
991.1932,58.117925742294574
993.1945,45.32288711478736
995.1951,49.27510109814193
997.1951,53.174469814598865
999.1943,49.67089489364787
1001.1928,50.464277433034454
1003.1906,71.50451803379542
1005.1877,86.39151679232543
1007.1841,101.72517308997476
1009.1798,121.05538544417846
1011.1748,117.58205135512071
1013.1691,89.65506711243222
1015.1627,62.32432782992339
1017.1556,28.339727724854583
1019.1477,20.901160391243366
1021.1392,10.758519139710074
1023.1299,2.111697071863432
1025.12,6.810587181727328
1027.1093,18.705082442209232
1029.0979,39.34507575811131
1031.0859,51.08045984718524
1033.0731,74.26112703373246
1035.0596,70.18696913125075
1037.0454,57.45787721062595
1039.0304,44.273741640874505
1041.0148,32.58445221643444
1042.9985,17.98989828900642
1044.9814,0.2399688844471939
1046.9636,2.7845528487144975
1048.9452,15.523539025366972
1050.926,31.35681623011851
1052.9061,45.084273123447474
1054.8855,44.905798052263776
1056.8642,54.921278912635785
1058.8421,56.98060315157363
1060.8194,50.083657666874956
1062.7959,59.38032878653223
1064.7717,57.32050233770178
1066.7469,57.9040635537375
1068.7213,62.48089709478768
1070.695,81.75088704196116
1072.6679,111.713916851558
1074.6402,127.46986916236995
1076.6117,127.31862549605023
1078.5826,103.4100660995532
1080.5527,64.74406994664741
1082.5221,44.120514977001335
1084.4908,21.439278482842724
1086.4587,8.30023731519509
1088.426,-1.8467318893100355
1090.3925,-3.151752577043453
1092.3584,7.735051824091897
1094.3235,20.013589372201636
1096.2879,48.98376804804127
1098.2515,70.04549563223122
1100.2145,100.34867941555387
1102.1767,132.49322598833703
1104.1382,168.77904093742234
1106.099,237.30602852471884
1108.0591,273.9740913243461
1110.0185,307.88312953736295
1111.9771,351.18304062508787
1113.9351,402.32371897000814
1115.8923,469.40505544278074
1117.8488,475.32693689082646
1119.8045,428.33924546751575
1121.7596,339.4918585729496
1123.7139,243.28464932383758
1125.6675,199.2674874419713
1127.6204,201.09024021629534
1129.5726,213.70277294308005
1131.524,212.05494890769353
1133.4748,170.19662925847638
1135.4248,119.17767302322045
1137.3741,72.59793752775226
1139.3226,60.35727890612168
1141.2705,41.95555256639955
1143.2176,55.14261331308364
1145.164,70.71831553111713
1147.1097,69.63251305401764
1149.0546,48.685059008119765
1150.9989,16.375805823433666
1152.9424,0.6546054431190669
1154.8852,-18.57869035342253
1156.8272,-11.174229793335257
1158.7686,-15.83197550264731
1160.7092,-9.101778476831214
1162.6491,-2.6333315499249466
1164.5883,10.873763370800248
1166.5267,25.21993068505492
1168.4644,49.75559468381266
1170.4014,95.08117940584839
1172.3377,122.24710839238128
1174.2732,184.05380423381985
1176.2081,270.95168829810063
1178.1421,394.8411801126231
1180.0755,513.3226964952696
1182.0082,552.4466503155114
1183.9401,531.963449309593
1185.8713,434.87349568929244
1187.8017,315.22718634675357
1189.7315,220.5249138253854
1191.6605,128.01706751632662
1193.5888,101.5040346054675
1195.5163,82.98620099852826
1197.4432,60.71395158618884
1199.3693,39.28767042926779
1201.2947,28.757740981444158
1203.2193,19.62454630352022
1205.1432,13.038469168721349
1207.0664,21.69989215402677
1208.9889,12.459197706032114
1210.9106,21.06676805433358
1212.8316,19.772985303935684
1214.7519,49.97823134917644
1216.6715,56.23288788666366
1218.5903,74.38733611322357
1220.5084,82.39195666335365
1222.4257,101.74712942767826
1224.3424,112.65323347290234
1226.2583,128.4606468482599
1228.1735,154.91974647645304
1230.0879,192.68090799557717
1232.0016,242.5945054945305
1233.9146,289.2109111354024
1235.8269,299.7304946543378
1237.7384,300.6036228953727
1239.6492,314.2306597052386
1241.5592,327.9619659246317
1243.4686,380.24789925194204
1245.3772,444.63881410594
1247.285,549.2350611029179
1249.1922,623.1869864127806
1251.0986,695.694930713082
1253.0042,759.509228449507
1254.9092,841.7802071107913
1256.8134,920.658186590579
1258.7169,995.7434783647117
1260.6196,1023.5363847024493
1262.5216,1017.0371979156178
1264.4229,1009.7962000806788
1266.3234,966.7636631037226
1268.2232,910.5898487928782
1270.1223,875.3250092886381
1272.0207,846.9193876255966
1273.9183,825.9232180850981
1275.8151,838.5367264792941
1277.7113,875.3101303611039
1279.6067,966.3436388980798
1281.5014,1110.5874525046734
1283.3953,1281.2917619319
1285.2885,1450.9067468249004
1287.181,1554.4325740158988
1289.0727,1609.1693958280503
1290.9637,1564.067349040186
1292.854,1488.2765543394426
1294.7435,1405.6971167722845
1296.6323,1305.3791265024101
1298.5204,1209.8726596365473
1300.4077,1139.8777792276333
1302.2943,1090.7445362298781
1304.1802,1066.7229701987153
1306.0653,1026.213109782132
1307.9497,990.1149729608868
1309.8333,951.3285674536077
1311.7162,921.703891077773
1313.5984,881.5909321375761
1315.4798,854.5896697201716
1317.3605,853.4000740968048
1319.2405,838.9721069928254
1321.1197,804.4057215995823
1322.9982,752.6508627187036
1324.876,692.757467107761
1326.753,594.4754639978178
1328.6293,516.6047756923626
1330.5048,434.8953185501307
1332.3796,379.04700376380924
1334.2537,324.15973817713234
1336.127,296.53342484336474
1337.9996,272.7179635741737
1339.8714,244.9132512158933
1341.7426,225.01918188767786
1343.6129,222.73564725955032
1345.4826,215.2125367513413
1347.3515,192.2497375555257
1349.2196,178.64713471245307
1351.087,179.00461133997555
1352.9537,190.02204876947485
1354.8197,188.84932654228658
1356.6849,192.6363222995261
1358.5493,218.83291179381592
1360.4131,234.43896885141555
1362.276,273.70436511025525
1364.1383,314.3289698638765
1365.9998,327.61264966877764
1367.8606,313.95526793816737
1369.7206,302.65668480912836
1371.5799,291.5667572791908
1373.4384,295.3853393193183
1375.2962,262.5122819848068
1377.1533,217.24743337709958
1379.0096,171.14063897251697
1380.8652,152.64174207490532
1382.7201,117.85058427670435
1384.5742,99.26700564393695
1386.4275,87.44084506412048
1388.2802,67.12194043210195
1390.132,56.66012876832053
1391.9832,37.20524642199655
1393.8336,38.907129175749105
1395.6832,28.3156124401454
1397.5322,28.280531236681668
1399.3803,19.50172030369822
1401.2278,15.929014096729702
1403.0745,3.462246876294671
1404.9204,6.101252743621103
1406.7656,3.8958657653157616
1408.6101,-3.404080053027542
1410.4538,-6.698750744773179
1412.2968,-8.938278336526423
1414.139,-2.122727934372847
1415.9805,12.447924649002516
1417.8213,27.37372480696581
1419.6613,39.75471780840439
1421.5006,74.14094864846834
1423.3391,106.1324619247606
1425.1769,154.3293014934752
1427.0139,232.7815101494814
1428.8502,327.5391291443559
1430.6858,386.60219740186085
1432.5206,423.0207505703671
1434.3547,398.24482043222406
1436.188,383.074434539574
1438.0206,370.6096164621107
1439.8524,363.4003859387843
1441.6835,357.7467590024486
1443.5139,366.89874805195404
1445.3435,375.5063619086835
1447.1724,375.61960572503307
1449.0005,373.28848089833525
1450.8279,372.8129850697268
1452.6545,366.3931121474599
1454.4804,373.97885231165696
1456.3056,355.8701920785093
1458.13,345.6671142244203
1459.9536,326.61959796709084
1461.7766,286.1776190675519
1463.5987,249.14115002063778
1465.4202,230.5601604594077
1467.2409,188.98461752550958
1469.0608,150.11448605498992
1470.88,123.14972899404995
1472.6984,100.94030778774606
1474.5161,77.08618264963741
1476.3331,68.13731278388076
1478.1493,68.5436566237712
1479.9648,62.70517192123094
1481.7795,64.02181574274573
1483.5935,68.89354452774961
1485.4067,70.92031407545903
1487.2192,74.3520794961546
1489.031,66.13879519091438
1490.842,71.43041481729648
1492.6522,68.32689137147094
1494.4618,72.77817713530402
1496.2705,65.8342237073935
1498.0785,60.494981958555115
1499.8858,57.310402101262866
1501.6924,50.78043374304076
1503.4981,54.05502591830907
1505.3032,48.6841271536839
1507.1075,43.96768543523143
1508.911,37.005648262176464
1510.7138,34.89796269406742
1512.5159,32.694575420396404
1514.3172,22.145432781676448
1516.1178,25.800480791474854
1517.9176,12.059665241904838
1519.7166,14.722931667074647
1521.515,7.290225480496304
1523.3126,5.761491948452544
1525.1094,6.236676264324217
1526.9055,6.915723563877464
1528.7008,2.098578920511727
1530.4954,3.935187338469575
1532.2893,8.075493801007894
1534.0824,9.91944325203167
1535.8747,5.166980554691179
1537.6663,6.318050472942559
1539.4572,-0.5274022809276175
1541.2473,11.430566942187284
1543.0367,13.241908060142464
1544.8253,16.456570876487945
1546.6132,25.874505062354785
1548.4003,27.745660124308472
1550.1867,40.21998531016976
1551.9723,52.64742959030298
1553.7572,73.97794153287265
1555.5414,89.3114691795692
1557.3247,119.547959832304
1559.1074,150.88735989987373
1560.8893,199.92961459559552
1562.6705,228.6746676239133
1564.4509,251.6224606899748
1566.2305,263.6229332121808
1568.0094,272.77602209270793
1569.7876,260.0316615975037
1571.565,264.98978326475543
1573.3417,265.30031603233425
1575.1176,271.8631861882135
1576.8928,291.07831736736335
1578.6672,311.5956304861222
1580.4409,332.41504355004565
1582.2138,368.28647144873315
1583.986,405.1098257476337
1585.7575,436.1350143293318
1587.5282,471.8119410253142
1589.2981,483.79050530571726
1591.0673,514.0206019225587
1592.8358,528.552120789951
1594.6035,530.6349466818008
1596.3704,520.4689590864932
1598.1366,497.85403218606467
1599.9021,494.54003495786213
1601.6668,470.1268314006918
1603.4308,464.01428056796027
1605.194,478.7522368118056
1606.9564,508.7905498442233
1608.7182,570.1290645896867
1610.4791,640.5176208847633
1612.2394,734.9560528647307
1613.9988,818.44418825969
1615.7576,877.7818474501819
1617.5156,902.1188426323059
1619.2728,874.9049772243425
1621.0293,782.540045623384
1622.785,682.3238334774737
1624.54,577.0061186092537
1626.2942,473.58667201812824
1628.0477,380.86525893344003
1629.8005,316.89163984866553
1631.5525,258.4155714486286
1633.3037,223.33680724923704
1635.0542,182.5050981822431
1636.804,150.52019294603116
1638.553,131.2818384139348
1640.3013,121.2897799540857
1642.0488,100.04376162179744
1643.7955,93.44352625948562
1645.5416,81.38881570912855
1647.2868,78.92937087826908
1649.0313,74.51493186056257
1650.7751,69.59523796037041
1652.5181,64.52002773690486
1654.2604,65.38903905342607
1656.0019,76.05200912799393
1657.7427,89.30867452477816
1659.4828,112.80877104742854
1661.222,147.05203360650836
1662.9606,175.8381959844932
1664.6984,197.8169904933386
1666.4354,199.33814768661824
1668.1717,174.0513961397358
1669.9072,139.9564624347139
1671.642,102.30307141306122
1673.3761,72.59094651672223
1675.1094,54.26981016461065
1676.8419,34.58938404973088
1678.5737,23.449389322389322
1680.3048,24.149546786998656
1682.0351,17.83957701347748
1683.7646,11.969200330249379
1685.4934,3.9881368873420513
1687.2215,5.096106715091338
1688.9488,2.8428298039517017
1690.6754,-1.6219739065835768
1692.4012,0.3014154945506391
1694.1263,-0.437265878061595
1695.8506,-0.2382819128500273
1697.5742,0.6981078700415821
1699.297,3.2716463309056394
1701.0191,1.7320763230534908
1702.7404,-1.4708593329199289
1704.461,-3.9874178337403805
1706.1808,-1.9678416822490021
1707.8999,-2.312333546983041
1709.6182,-6.8710764377413796
1711.3358,-4.094230264110848
1713.0527,1.7681137063751464
1714.7688,-3.834094892456676
1716.4841,4.299093555539429
1718.1987,-1.382333030882819
1719.9126,-1.0283867759607404
1721.6257,9.010934005575194
1723.338,-3.9143587274216145
1725.0496,-0.50425310620696
1726.7605,4.091301842406892
1728.4706,2.9223621290960864
1730.18,-3.611016276376205
1731.8886,3.341222566529666
1733.5964,2.0791706724058088
1735.3036,6.4529200224320675
1737.0099,7.512562576996714
1738.7156,3.608190231959128
1740.4204,4.489894808053009
1742.1246,10.357768089930346
1743.8279,4.36190181734429
1745.5306,10.602387626470204
1747.2325,9.029317109864593
1748.9336,9.44278175405995
1750.634,11.492872955295951
1752.3336,7.9796820153843555
1754.0325,9.953300121208343
1755.7307,16.463818379854274
1757.4281,14.011327798875499
1759.1247,14.495919221187307
1760.8206,15.817683349591789
1762.5158,18.926710741932027
1764.2102,13.773091797874287
1765.9039,13.406916727817787
1767.5968,12.878275604430996
1769.289,12.98725836631317
1770.9804,20.833954823281033
1772.6711,19.818454655278714
1774.361,20.74084733391092
1776.0502,23.95122213259785
1777.7386,20.999668117351433
1779.4263,20.73627411467146
1781.1132,21.31112874106128
1782.7994,23.37432040566145
1784.4849,17.57593730450145
1786.1696,24.716067399867597
1787.8535,26.39479847828696
1789.5367,27.512218079125915
1791.2192,21.268413477802994
1792.9009,22.71347167461471
1794.5818,24.09747945717345
1796.2621,27.220523385956994
1797.9415,24.43268978046831
1799.6202,23.48406468800522
1801.2982,26.724733911538635
1802.9755,25.454783019198942
1804.6519,25.374297311869242
1806.3277,24.183361835884796
1808.0027,24.2320613838379
1809.6769,22.070480506487428
1811.3504,27.74870351227173
1813.0231,32.41681448892439
1814.6951,30.62489724669203
1816.3664,29.673035271653248
1818.0369,34.8113117436379
1819.7067,32.189809545745334
1821.3757,28.008611212962023
1823.044,26.21779895837639
1824.7115,28.267454714990805
1826.3783,32.50766015362973
1828.0443,29.638496662443174
1829.7096,28.96004530450466
1831.3741,34.07238684650284
1833.0379,28.675601765525812
1834.701,33.66977019793799
1836.3633,30.904971993347772
1838.0248,31.581286664665868
1839.6856,37.69879341575344
1841.3457,32.257571134658804
1843.005,33.20769833244236
1844.6636,38.79925319758894
1846.3214,35.08231358650636
1847.9785,35.60695696761002
1849.6349,30.473260458492234
1851.2904,39.73130082067581
1852.9453,37.63115451095106
1854.5994,36.772897588795274
1856.2528,38.85660573737431
1857.9054,40.632354272125184
1859.5572,34.900218119918804
1861.2083,37.26027180130265
1862.8587,36.012589487822055
1864.5084,35.65724497841978
1866.1572,36.044311711912854
1867.8054,37.37386277054571
1869.4528,36.79597087611987
1871.0994,38.96070837669811
1872.7453,41.86814725238372
1874.3905,41.968359093672746
1876.0349,34.161415072379995
1877.6786,36.047385940636616
1879.3215,38.47634210895964
1880.9637,38.19835362739224
1882.6051,38.66349016121423
1884.2458,36.17182099372194
1885.8858,40.22341502157683
1887.525,36.218340779722226
1889.1634,36.90666640086731
1890.8011,34.53845965553789
1892.4381,32.36378794519317
1894.0743,34.282718325907794
1895.7098,39.045317530118595
1897.3446,41.3516519474352
1898.9786,36.85178757701415
1900.6118,38.69579000449545
1902.2443,35.083724447001345
1903.8761,44.06565573469605
1905.5071,37.89164834690669
1907.1374,42.46176632230379
1908.7669,38.92607332064142
1910.3957,37.53463257705597
1912.0237,36.337506937423186
1913.651,40.134758872272485
1915.2776,35.67645048875832
1916.9034,39.31264349268774
1918.5285,35.44339923310329
1920.1528,33.518778665921275
1921.7764,38.03884239262402
1923.3992,35.153650679506086
1925.0213,36.8132634124737
1926.6427,38.817740125896734
1928.2633,41.51713998601234
1929.8832,34.8615217708804
1931.5023,32.40094384338937
1933.1207,38.03546421781249
1934.7383,34.965140584413675
1936.3552,39.64003025310211
1937.9714,38.76019018413558
1939.5868,30.77567694137167
1941.2015,35.536546701066044
1942.8154,35.89285533171778
1944.4286,36.84465834646046
1946.041,34.7920108994993
1947.6528,34.78496777659285
1949.2637,37.073583415579634
1950.8739,34.45791190644859
1952.4834,35.13800696845291
1954.0921,32.36392197626677
1955.7001,34.23570995318437
1957.3074,34.05342359886072
1958.9139,38.167115270593825
1960.5197,37.126836985147634
1962.1247,34.28264037761495
1963.729,35.8845767118202
1965.3325,27.682696908761486
1966.9353,30.477051530591183
1968.5374,32.26769086263475
1970.1387,29.554664885447252
1971.7393,30.138023256906806
1973.3392,31.767815339344878
1974.9383,33.64409019371277
1976.5366,32.81689656328365
1978.1342,33.436282854889896
1979.7311,32.70229714719498
1981.3273,32.41498718449962
1982.9227,27.8244003840816
1984.5173,30.93058383906886
1986.1112,30.683584364345435
1987.7044,33.533448465489585
1989.2968,30.980222341243675
1990.8885,34.523951855015696
1992.4795,31.21468256041146
1994.0697,31.402459665797366
1995.6592,31.687328067392983
1997.2479,31.11933234739334
1998.8359,27.348516771120245
2000.4232,31.47492529270218
2002.0097,32.8986015927826
2003.5955,26.9695890372557
2005.1805,29.63793066302965
2006.7648,33.90366923731685
2008.3484,26.16684723095038
2009.9312,32.27750677572668
2011.5133,33.43568974177377
2013.0946,27.841437676444684
2014.6752,31.99479179273561
2016.2551,31.49579302522838
2017.8342,26.394481988557033
2019.4126,30.290898982397692
2020.9902,31.385084042481722
2022.5672,29.27707690163146
2024.1433,33.7669169788185
2025.7188,34.50464340024374
2027.2935,31.59029495443896
2028.8674,30.623910084889587
2030.4406,29.25552691917804
2032.0131,29.485183278647725
2033.5849,29.612916692086813
2035.1559,28.688764393431626
2036.7261,26.612763320489208
2038.2957,36.38495012417911
2039.8645,29.85536118929332
2041.4325,30.0240325367744
2042.9998,32.790999889011246
2044.5664,32.256298668152525
2046.1323,35.16996396843696
2047.6974,24.03203056154031
2049.2617,25.84253286743879
2050.8254,25.65150506578837
2052.3883,28.608981077819763
2053.9504,28.514994568248653
2055.5118,30.619578915700927
2057.0725,30.87276721365265
2058.6325,29.974592249384102
2060.1917,28.32508650144797
2061.7502,27.424282148651102
2063.3079,29.722211086549493
2064.8649,26.768904936456323
2066.4212,27.764395022462637
2067.9767,28.708712400970512
2069.5315,29.651887850737978
2071.0856,30.79395186343602
2072.6389,30.434934634216773
2074.1915,28.224866050292917
2075.7433,26.91377569452787
2077.2945,27.40169286753637
2078.8448,24.288646600795573
2080.3945,29.02466565176576
2081.9434,25.759778535020786
2083.4916,30.794013474887947
2085.039,27.327398438096864
2086.5857,29.209961083437037
2088.1317,24.94172879642403
2089.677,28.322728670473865
2091.2215,20.5029875495853
2092.7652,29.18253199452991
2094.3083,29.161388361049433
2095.8506,25.33958271306028
2097.3921,28.617140822865125
2098.933,30.894088209370878
2100.4731,26.27045010531303
2102.0124,28.99625143448621
2103.5511,26.521516857980586
2105.089,22.796270746923867
2106.6261,29.620537207228637
2108.1626,27.79434011684485
2109.6983,26.51770305751721
2111.2332,27.290649333046943
2112.7675,26.26320198205825
2114.301,28.185383770268942
2115.8337,28.007217200764757
2117.3657,27.82872449477773
2118.897,27.59992759346784
2120.4276,28.620848159707805
2121.9575,25.54150758037116
2123.4866,29.411926956122997
2125.0149,26.532127132213418
2126.5426,28.102128659773257
2128.0695,21.72195182461219
2129.5956,28.291616631518636
2131.1211,20.56114286806151
2132.6458,28.780550038893622
2134.1698,24.899857443056433
2135.693,27.66908409178592
2137.2155,24.08824874731954
2138.7373,28.85736989520396
2140.2584,26.126465780103416
2141.7787,26.09555435810846
2143.2983,23.014653324045128
2144.8171,19.633780111783906
2146.3353,23.102951925048885
2147.8527,30.97218577122642
2149.3693,22.94149842667342
2150.8853,25.260906358024926
2152.4005,25.68042580250105
2153.9149,28.55007274471278
2155.4287,29.169862912466968
2156.9417,27.98981174806977
2158.454,21.909934402128812
2159.9655,20.480245745353642
2161.4764,24.050760429354497
2162.9865,23.571492900939276
2164.4958,28.24245736640829
2166.0045,23.563667796346905
2167.5124,24.535137878916032
2169.0195,24.55688106664003
2170.526,22.82891056669193
2172.0317,21.201239340675997
2173.5367,25.373880121907447
2175.0409,21.596845431689147
2176.5445,21.620147537585197
2178.0473,24.143798491191205
2179.5494,21.567810127901353
2181.0507,26.74219404167188
2182.5513,24.46696161078097
2184.0512,24.892123946084865
2185.5504,23.817691913770133
2187.0488,22.293676131102202
2188.5465,17.87008697716962
2190.0435,15.896934608124184
2191.5397,23.774229001416927
2193.0353,20.70197997552947
2194.5301,20.63019711120127
2196.0241,23.10888978215192
2197.5175,21.888067155799064
2199.0101,21.167738168471573
2200.502,24.047911537617594
2201.9931,17.67859576900794
2203.4835,19.25979912793437
2204.9733,23.391529702902616
2206.4622,20.07379538982046
2207.9505,18.456603850680494
2209.438,22.839962546737368
2210.9248,21.173878754679706
2212.4109,22.008359522796567
2213.8962,17.243411687638243
2215.3809,18.67904186567158
2216.8648,19.11525650092939
2218.3479,17.802061850654084
2219.8304,19.589463980935534
2221.3121,17.277468779843048
2222.7931,14.566081939551395
2224.2733,21.00530897946068
2225.7529,14.59515527331034
2227.2317,14.935625984786725
2228.7098,16.57672613162471
2230.1872,15.668460582202911
2231.6638,17.260834039132817
2233.1397,15.303851048341357
2234.6149,15.59751598314709
2236.0894,14.641833063830106
2237.5632,13.736806354695489
2239.0362,13.382439773629997
2240.5085,17.32873710115237
2241.9801,13.675701983957026
2243.4509,13.923337895451098
2244.921,19.021648172284785
2246.3904,15.420636011875004
2247.8591,16.57030442142225
2249.3271,14.32065625392066
2250.7943,13.82169419666134
2252.2608,14.473420793728835
2253.7266,15.675838450990796
2255.1917,12.728949429580737
2256.656,13.482755833873753
2258.1197,12.337259640955537
2259.5826,15.492462693084121
2261.0447,12.748366709145031
2262.5062,10.704973253099254
2263.9669,16.312283761424055
2265.4269,9.520299563547141
2266.8862,11.179021825773432
2268.3448,13.788451619204864
2269.8026,13.698589903153191
2271.2598,11.009437499045774
2272.7162,8.570995091324207
2274.1719,8.53326325433575
2275.6268,15.446242476717785
2277.0811,11.50993316177508
2278.5346,10.57433555835
2279.9874,14.439449800185614
2281.4395,13.05527591528164
2282.8908,10.421813787243366
2284.3414,14.389063169123375
2285.7914,12.807023709756166
2287.2406,16.625694914085713
2288.689,12.24507615898591
2290.1368,13.06516665507371
2291.5838,10.085965490515335
2293.0302,13.757471622825477
2294.4758,11.929683908659243
2295.9206,13.352601067096984
2297.3648,12.976221697922327
2298.8082,7.650544267392874
2300.251,5.87556711200412
2301.693,12.90128849174613
2303.1343,15.627706607853355
2304.5748,14.504819532547444
2306.0147,10.632625181773065
2307.4538,12.211121326426522
2308.8922,13.490305631077945
2310.3299,11.57017563818627
2311.7669,13.150728755307412
2313.2031,10.381962274295674
2314.6387,11.01387335549802
2316.0735,9.24645905544169
2317.5076,9.279716320515263
2318.941,13.013642004642819
2320.3737,12.048232868951288
2321.8056,7.233485544431176
2323.2369,12.76939654159068
2324.6674,14.305962298603205
2326.0972,15.493179125948288
2327.5263,21.73104319104587
2328.9547,18.719550506384124
2330.3823,20.05869686714084
2331.8092,17.148477881298305
2333.2355,10.538888956251895
2334.661,12.02992532791221
2336.0858,9.271582126801036
2337.5098,7.963854363140953
2338.9332,10.15673695443877
2340.3558,9.400224738562713
2341.7778,7.94431245181373
2343.199,9.938994736490457
2344.6195,6.634266155448557
2346.0393,9.680121172153676
2347.4583,7.676554183728953
2348.8767,9.223559490496328
2350.2943,6.721131316012247
2351.7113,9.719263791597541
2353.1275,7.767950981361821
2354.543,8.667186852222073
2355.9578,8.966965293415797
2357.3718,9.617280107508662
2358.7852,7.168125007396725
2360.1978,7.069493609803246
2361.6098,7.321379459770313
2363.021,5.973776031645116
2364.4315,12.52667672656105
2365.8413,8.430074885913811
2367.2504,11.88396372583243
2368.6587,9.638336378145226
2370.0664,7.043185855840946
2371.4733,3.348505075524997
2372.8795,4.804286883370963
2374.285,11.860524092067465
2375.6899,10.01720946626024
2377.0939,5.974335651989847
2378.4973,5.031895195124804
2379.9,6.289880581790257
2381.3019,10.248284247792498
2382.7032,5.9070985660389965
2384.1037,10.316315806954364
2385.5035,9.325928181892337
2386.9027,5.335927799043446
2388.3011,5.946306673338995
2389.6987,9.707056766350988
2391.0957,8.168169980188424
2392.492,8.679638119889745
2393.8876,4.691452908811726
2395.2824,7.353605983514811
2396.6765,4.666088933644957
2398.07,6.528893275312072
2399.4627,6.7420104779652235
2400.8547,3.8054319457645676
2402.246,1.6191490154502475
2403.6366,5.6331529857080795
2405.0265,2.147435139032467
2406.4156,6.761986701586281
2407.8041,6.826798878058071
2409.1918,5.6918628055165925
2410.5789,9.807169552762574
2411.9652,5.172710131678215
2413.3508,3.0384754560740816
2414.7358,1.9544563880336199
2416.12,6.620643759255557
2417.5035,7.637028381894126
2418.8863,6.6536010018971155
2420.2684,9.120352288842113
2421.6497,2.637272845770724
2423.0304,7.8543531845210595
2424.4104,8.471583790558569
2425.7896,1.7389550708051615
2427.1682,6.90645734746694
2428.546,5.3240809253605335
2429.9232,4.491816040237964
2431.2996,5.459652874610526
2432.6753,1.6275815660713704
2434.0503,5.79559219761714
2435.4246,7.113674835968709
2436.7982,4.1818194898909695
2438.1711,10.850016097012158
2439.5433,7.818254553142324
2440.9148,0.48652464559137343
2442.2856,2.5548160834866707
2443.6557,-0.9768814289095644
2445.025,5.1414217871167125
2446.3937,3.7097251693250684
2447.7617,2.0780281040607917
2449.1289,3.6463299405720164
2450.4955,6.8646300073266815
2451.8613,6.332927596329355
2453.2265,5.101221930938465
2454.5909,2.9195121711831575
2455.9546,4.237797426080363
2457.3177,4.956076775451905
2458.68,8.674349256741664
2460.0416,5.242613857832751
2461.4025,6.310869479864891
2462.7627,5.37911497155163
2464.1222,1.5473491184978627
2465.4811,4.415570652517388
2466.8392,3.8837782899505697
2468.1966,4.701970702982038
2469.5533,6.07014652495873
2470.9093,4.538304342207866
2472.2645,5.206442680355259
2473.6191,3.374560019643667
2474.973,5.042654788251461
2476.3262,3.5607253806114656
2477.6787,9.628770140729927
2479.0305,10.046787377005955
2480.3816,4.764775301550941
2481.7319,7.382732026008412
2483.0816,1.7506556143741747
2484.4306,5.118544056816717
2485.7789,3.336395325998012
2487.1264,5.604207343394634
2488.4733,6.021977997119215
2489.8195,5.289705119242406
2491.165,6.157386481615056
2492.5097,6.875019803191016
2493.8538,7.392602741350281
2495.1972,6.910132884722692
2496.5398,4.527607748012045
2497.8818,4.845024776820864
2499.2231,8.16238137147559
2500.5637,8.279674883852465
2501.9035,5.946902584203997
2503.2427,6.6140616599859
2504.5812,4.73114923918493
2505.919,3.3981623836472608
2507.256,3.9150981079076246
2508.5924,4.3319533925191465
2509.9281,8.048725178883998
2511.2631,4.165410365084838
2512.5974,9.032005768717148
2513.9309,3.8985081657222906
2515.2638,3.3649142417215927
2516.596,7.131220643351341
2517.9275,2.697423983598675
2519.2583,5.7635208041385795
2520.5884,4.379507619671806
2521.9178,3.695380887263944
2523.2465,4.9611370201855465
2524.5745,2.1267723947533597
2525.9018,4.692283337672784
2527.2284,6.907666154381538
2528.5543,2.2729171033945335
2529.8796,9.838032374150053
2531.2041,5.953008133357258
2532.5279,2.167840449344972
2533.851,6.2325253309119475
2535.1735,3.5470587651785834
2536.4952,6.861436676940045
2537.8163,4.075654955520939
2539.1366,7.889709421631551
2540.4562,7.453595855225636
2541.7752,3.317309957359896
2543.0935,2.730847354555081
2544.411,4.3442036401589235
2545.7279,2.607374380210665
2547.0441,8.820355097307527
2548.3596,9.133141287973032
2549.6744,3.7957283605271783
2550.9885,4.758111631958592
2552.3019,4.070286381298651
2553.6146,2.5322478399975736
2554.9266,7.143991198802759
2556.2379,5.255511623139192
2557.5485,8.116804206992022
2558.8585,4.027863991791314
2560.1677,3.7886859377991087
2561.4762,4.8992649649988635
2562.7841,7.459595955487245
2564.0913,5.9696737423682364
2565.3977,3.6294930841498925
2566.7035,5.2390486796435525
2568.0086,5.548335191365652
2569.313,7.507347229442189
2570.6167,7.416079348515829
2571.9197,5.524526028155812
2573.222,7.082681673770566
2574.5236,6.040540635523307
2575.8246,4.598097192750387
2577.1248,4.855345564382851
2578.4244,7.162279923370754
2579.7232,7.918894394110758
2581.0214,5.525183029376699
2582.3189,7.031139802753536
2583.6157,10.336758632574387
2584.9118,8.04203336686102
2586.2072,8.046957750267573
2587.5019,8.801525447027942
2588.7959,6.055730040906418
2590.0893,11.609565027652089
2591.3819,7.513023842456761
2592.6739,9.266099804416612
2593.9652,8.86878615749761
2595.2557,8.271076053004741
2596.5456,6.92296255355518
2597.8348,9.724438639055371
2599.1234,7.575497220182136
2600.4112,11.626131110367936
2601.6983,11.726333047290254
2602.9848,12.226095652365295
2604.2705,9.375411429745917
2605.5556,7.874272761324086
2606.84,10.022671935237646
2608.1237,11.220601160881742
2609.4067,8.618052547424838
2610.689,10.315018091829408
2611.9707,8.011489704877391
2613.2516,8.057459194200597
2614.5319,9.352918287315951
2615.8115,5.297858631165816
2617.0903,10.042271779163364
2618.3685,9.736149231743227
2619.6461,6.579482388917349
2620.9229,8.2222625533362
2622.199,8.264480961855476
2623.4745,9.456128769108275
2624.7493,6.347197047082908
2626.0234,10.987676773206424
2627.2968,6.827558861433971
2628.5695,7.216834115843945
2629.8415,7.655493272239184
2631.1128,9.193526994254185
2632.3835,10.130925868968546
2633.6535,6.867680391526584
2634.9228,9.653780955763395
2636.1914,8.5392178868373
2637.4593,7.72398141336879
2638.7265,7.808061678586235
2639.9931,8.041448748478174
2641.259,10.474132610952552
2642.5242,7.906103173502856
2643.7887,10.837350238881271
2645.0525,4.3678635307789975
2646.3156,9.047632664513735
2647.5781,8.026647211724551
2648.8398,9.054896653574218
2650.1009,8.832370390959078
2651.3613,7.6090577342264964
2652.6211,6.634947905400175
2653.8801,4.760030050413242
2655.1385,5.234293248849362
2656.3961,6.057726532691909
2657.6531,5.380318881581381
2658.9094,6.002059214580996
2660.1651,10.172936396950817
2661.42,5.792939233930348
2662.6743,5.062056429029745
2663.9279,8.180276627829741
2665.1808,6.24758842529058
2666.433,5.563980334569713
2667.6846,2.1294408063487396
2668.9354,9.193958235669491
2670.1856,10.0575209962794
2671.4351,9.370117369986346
2672.6839,7.181735538023013
2673.9321,8.342363587920978
2675.1795,12.001989535394458
2676.4263,9.610601312734083
2677.6724,7.26818673221058
2678.9179,9.574733509988683
2680.1626,13.680229289551264
2681.4067,6.9346616186339105
2682.6501,8.988017908169923
2683.8928,5.690285499745983
2685.1348,6.741451645068615
2686.3761,9.791503538941562
2687.6168,6.2904283087540165
2688.8568,10.188212983980193
2690.0961,6.634844531190048
2691.3348,4.430309815071418
2692.5727,7.324595633963696
2693.81,5.3676887419032155
2695.0466,9.559575819680369
2696.2826,9.85024349440868
2697.5178,9.48967829760597
2698.7524,7.5278666622876
2699.9863,8.164794926572199
2701.2195,8.600449353299723
2702.452,7.43481612366223
2703.6839,8.567881332847293
2704.9151,11.099631001694299
2706.1456,7.880051065363894
2707.3755,12.859127348020422
2708.6046,12.13684559502773
2709.8331,8.713191423158392
2711.0609,12.588150327816564
2712.2881,12.311707717274494
2713.5145,11.23384887392291
2714.7403,13.10455895703548
2715.9654,12.923823013547398
2717.1899,15.341625959348306
2718.4136,17.95795258108962
2719.6367,19.922787512006494
2720.8591,13.786115205754584
2722.0809,19.8979199167617
2723.3019,18.708185761594493
2724.5223,16.716896657840422
2725.7421,19.324036336005136
2726.9611,16.829588359425316
2728.1795,16.933536098197315
2729.3972,19.88586275412159
2730.6142,15.936551359663262
2731.8306,15.33558474842885
2733.0462,15.082945594659378
2734.2612,14.378616419240032
2735.4756,15.172579592226548
2736.6892,6.7648173398885305
2737.9022,8.555311736769774
2739.1145,9.844044789765924
2740.3262,10.130998420219505
2741.5372,12.116154451032642
2742.7475,8.249494603797508
2743.9571,7.7810004789447405
2745.1661,6.860653594410039
2746.3744,4.488435390319104
2747.582,4.914327238191142
2748.7889,4.588310464660964
2749.9952,5.8603663472201575
2751.2008,3.4304761174772125
2752.4057,4.698620948436968
2753.61,4.164781978799525
2754.8136,3.6789403002787466
2756.0165,4.391076962940716
2757.2188,3.0011729800621367
2758.4204,1.6592093210089303
2759.6213,-0.08483307486464042
2760.8215,5.519026715203601
2762.0211,4.070770461458245
2763.22,3.620379878953621
2764.4182,6.317836642036426
2765.6158,6.963122388849534
2766.8127,2.80621869435749
2768.009,1.2471070638936226
2769.2045,4.185768974729086
2770.3994,0.9721858916639619
2771.5936,4.45633923764067
2772.7872,3.688210425879774
2773.9801,-0.6322191749615342
2775.1723,2.195031766891816
2776.3639,1.2699508990844564
2777.5548,2.442525847310705
2778.745,-1.537255775434609
2779.9346,2.0305936194180916
2781.1235,-0.30392302237645197
2782.3117,-0.9408027753694057
2783.4992,2.7199603220790323
2784.6861,1.428381630228344
2785.8723,-0.1655235178615655
2787.0579,-1.4117398034145907
2788.2428,0.8397497459253032
2789.427,4.838976205794779
2790.6106,1.2359706434330064
2791.7935,-0.369235922310601
2792.9757,1.2733875150536775
2794.1573,-2.3361243493175508
2795.3382,3.152263166998459
2796.5184,1.2886080843067234
2797.698,0.222968391389621
2798.8769,-1.1945979358565282
2800.0551,2.4359670762349523
2801.2327,-0.4852666646359012
2802.4096,-0.20822927512869427
2803.5859,-0.2828460240891175
2804.7615,6.59095989984764
2805.9364,1.913268133678102
2807.1106,2.5841582484892243
2808.2842,4.7037097962352945
2809.4572,5.272002303029055
2810.6294,7.389115247946172
2811.801,5.555128057342323
2812.972,8.370120083682089
2814.1423,11.78417062387878
2815.3119,14.447358891144525
2816.4808,15.959763980849722
2817.6491,19.471464843891198
2818.8167,20.482540271568134
2819.9837,26.493068860465165
2821.15,28.40312900234146
2822.3157,37.01279882402555
2823.4807,36.272156168314716
2824.645,46.43127850787824
2825.8086,50.64024295266388
2826.9716,56.349126148306645
2828.134,71.20800423403914
2829.2957,75.61695278560273
2830.4567,75.47604666665879
2831.617,85.1353599846991
2832.7767,84.89496609245506
2833.9358,87.15493749130454
2835.0941,85.41534583367567
2836.2519,84.17626190044726
2837.4089,80.08775561834469
2838.5653,74.94989607233077
2839.7211,65.61275154649081
2840.8761,69.92638957541112
2842.0306,66.09087703755056
2843.1843,66.60628011210409
2844.3374,67.87266431735793
2845.4899,66.69009450553551
2846.6417,76.00863485013362
2847.7928,73.02834885774811
2848.9433,73.79929927488857
2850.0931,74.12154811778103
2851.2422,76.09515666465863
2852.3907,79.820185452539
2853.5385,74.94669425748816
2854.6857,81.07474205737039
2855.8323,82.35438708058297
2856.9781,80.68568674477578
2858.1233,91.41869764405487
2859.2679,91.05347556566947
2860.4118,90.89007538268177
2861.555,94.32855105761939
2862.6976,98.56895564410908
2863.8395,98.91134125249215
2864.9808,102.15575900742033
2866.1214,99.15225904443207
2867.2614,107.10089047750813
2868.4007,104.55170142910676
2869.5393,103.35473895067729
2870.6773,107.56004904815208
2871.8146,113.26767669391614
2872.9513,116.62766578475393
2874.0874,111.09005908477323
2875.2227,113.95489819180514
2876.3574,111.22222359278022
2877.4915,113.2920746350801
2878.6249,118.81448955386406
2879.7577,118.88950545137081
2880.8898,125.46715824169414
2882.0212,123.44748265003273
2883.152,124.83051214691378
2884.2821,125.91627896838978
2885.4116,129.50481410220794
2886.5405,129.8961472769529
2887.6686,134.840306926161
2888.7962,133.3873201844073
2889.923,132.38721283786364
2891.0493,131.74000933882883
2892.1748,125.89573281572947
2893.2997,138.25440507959212
2894.424,129.7160466824859
2895.5476,129.3306767939361
2896.6706,136.89831328630743
2897.7929,130.66897273865786
2898.9145,135.94267036106228
2900.0355,132.2694200569059
2901.1559,136.0992343701471
2902.2756,135.1821245220503
2903.3946,131.41810037288735
2904.513,130.5071704311091
2905.6308,134.84934189098524
2906.7479,130.69462064171393
2907.8643,132.94301122399975
2908.9801,128.29451687160125
2910.0953,134.59913948884682
2911.2098,135.70687969711972
2912.3236,133.9177367718118
2913.4368,130.88170863124617
2914.5494,127.09879185456862
2915.6613,128.11898171210774
2916.7725,128.7422722032044
2917.8831,125.56865604600952
2918.9931,117.64812467125141
2920.1024,117.8306682539718
2921.211,112.7662757927312
2922.319,114.0049351077835
2923.4264,114.09663289171979
2924.5331,115.84135469708187
2925.6391,108.03908493544517
2926.7445,112.93980685997164
2927.8493,112.24350264343235
2928.9534,115.45015332920039
2930.0569,116.15973883821383
2931.1597,117.02223793690915
2932.2619,119.83762823012556
2933.3634,116.4058861524799
2934.4643,125.17698694021274
2935.5645,122.1009046655058
2936.6641,120.42761214877089
2937.763,124.1070809894109
2938.8613,125.2892815825525
2939.959,121.22418308225167
2941.056,119.5117533896715
2942.1523,114.40195919373329
2943.248,105.14476598824086
2944.3431,95.29013812297846
2945.4375,94.23803889628267
2946.5313,84.33843065358869
2947.6244,78.0912747979514
2948.7169,74.74653188904136
2949.8087,63.15416170561643
2950.8999,67.86412327896912
2951.9904,56.37637500885033
2953.0803,50.240874616369794
2954.1696,46.60757925887347
2955.2582,45.02644559129858
2956.3462,45.2474298025066
2957.4335,43.07048763109453
2958.5202,45.94557436318513
2959.6062,43.37264485419629
2960.6916,42.50165350009014
2961.7764,41.08255426310244
2962.8605,41.665300680452376
2963.9439,44.5498458785337
2965.0267,42.38614256708713
2966.1089,42.47414301035493
2967.1905,41.313799048718025
2968.2714,42.15506209781588
2969.3516,41.247883160150046
2970.4312,40.242212816671405
2971.5102,39.688001235852084
2972.5885,40.485198183742085
2973.6662,39.83375302951138
2974.7432,42.88361473747802
2975.8196,43.5347318736225
2976.8954,44.38705257508925
2977.9705,42.54052454367535
2979.045,44.09509503730739
2980.1188,42.80071088850675
2981.192,44.35731848884387
2982.2645,41.61486380188207
2983.3364,42.37329234761153
2984.4077,32.782549229873815
2985.4783,36.39257912877757
2986.5483,33.553326396605996
2987.6177,34.11473502171651
2988.6864,31.026748656933265
2989.7545,28.339310613933122
2990.8219,30.852363894125453
2991.8887,26.115851215526533
2992.9548,24.92971498762901
2994.0204,21.493897358767
2995.0852,17.608340227977504
2996.1495,16.622985279358538
2997.2131,14.887774020924738
2998.276,10.902647794460925
2999.3383,7.867547792874166
3000.4,8.332415100045047
3001.4611,11.497190721178697
3002.5215,5.6118155781561185
3003.5812,2.726230477886457
3004.6404,5.090376171160692
3005.6989,5.7541933815075055
3006.7567,3.717622781551853
3007.8139,3.6306049863767527
3008.8705,6.0430805738889894
3009.9264,1.5549900856893473
3010.9818,5.316274002947772
3012.0364,0.17687279128435662
3013.0905,-1.3632731368435493
3014.1439,0.4957766292526884
3015.1966,1.3539761193603326
3016.2487,0.9612793583088717
3017.3002,1.2176403573880634
3018.3511,0.5730131182748757
3019.4013,-3.1226483695300935
3020.4509,3.480609877743614
3021.4998,1.0327730391236756
3022.5481,-0.8161737411683347
3023.5958,-0.11624532923854503
3024.6428,0.18255156238258508
3025.6892,1.5802113824554134
3026.735,-0.07327142208518822
3027.7802,2.372097579893545
3028.8247,1.466313551505884
3029.8685,0.15937163214511685
3030.9118,2.0012669465414277
3031.9544,1.841994617831297
3032.9963,-0.4184502508614649
3034.0376,-0.9300725748329874
3035.0783,1.4571269109385945
3036.1184,2.0431567629001783
3037.1578,7.178025522927388
3038.1966,2.5617417124643147
3039.2348,1.5943137811747903
3040.2723,3.8757501531052228
3041.3092,4.75605923635889
3042.3455,4.135249400281584
3043.3811,0.6633289666584972
3044.4161,3.240306215922356
3045.4505,1.0661894218726005
3046.4842,4.040986825905616
3047.5173,5.114706658755903
3048.5498,4.187357110748096
3049.5816,5.108946321059761
3050.6128,7.129482386994919
3051.6434,3.2489733547681254
3052.6734,7.867427199299144
3053.7027,4.034851863017991
3054.7314,6.101255209680431
3055.7594,6.916645062693718
3056.7868,8.33102918445255
3057.8136,9.644415268185181
3058.8398,9.306810923809572
3059.8653,6.568223664799554
3060.8902,10.728660911560862
3061.9145,7.338130018816997
3062.9381,12.596638234004853
3063.9612,6.504192731180037
3064.9835,10.16080055843178
3066.0053,12.316468698807398
3067.0264,8.37120403374621
3068.0469,10.725013321522855
3069.0668,10.277903236699938
3070.086,8.92988034658995
3071.1046,9.180951115726359
3072.1226,11.481121919343824
3073.1399,11.53039904086753
3074.1567,11.678788648911436
3075.1727,8.226296796785517
3076.1882,9.97292942101188
3077.203,8.268692375849659
3078.2173,6.913591415828705
3079.2308,7.357632212791952
3080.2438,7.400820369446425
3081.2561,4.243161414922831
3082.2678,4.234660804343685
3083.2789,3.875323950399892
3084.2893,7.665156223435758
3085.2991,4.154162955042368
3086.3083,5.942349400159241
3087.3169,5.129720772184287
3088.3248,7.066282225091918
3089.3321,5.052038861559346
3090.3388,2.886995713600964
3091.3449,4.321157762710776
3092.3503,5.054529961512834
3093.3551,4.687117219419621
3094.3593,4.768924395298326
3095.3629,5.699956301144965
3096.3658,3.78021770126632
3097.3681,6.959713302969622
3098.3698,1.9384477757599168
3099.3708,6.766425719545129
3100.3713,5.693651714848718
3101.3711,6.070130274529886
3102.3702,-0.05413414548867124
3103.3688,8.52086285001445
3104.3667,2.9451261970607536
3105.364,4.618660746463123
3106.3607,2.1414713195831805
3107.3568,4.613562691595956
3108.3522,6.184939616261769
3109.347,3.0556068012053146
3110.3412,-0.024431107798095653
3111.3348,2.49483050447078
3112.3277,5.863396497297943
3113.32,1.0312717050210907
3114.3117,3.598460903343957
3115.3028,4.66496885765757
3116.2932,3.880800297368353
3117.2831,1.8959599052330454
3118.2723,3.210452325200391
3119.2608,3.0242821822595367
3120.2488,1.2874540692951193
3121.2361,4.649972548948959
3122.2229,1.8118421709883386
3123.209,5.173067438680821
3124.1944,3.5336528371755573
3125.1793,3.043602799891019
3126.1635,2.602921724909155
3127.1471,4.311613979875887
3128.1301,2.5196839064079146
3129.1125,7.027135803005811
3130.0942,3.333973942973305
3131.0753,2.8402025293427737
3132.0558,2.3458257318068565
3133.0357,2.6508476916561676
3134.015,2.10527252672307
3134.9936,4.659104328331447
3135.9716,3.5623471667524678
3136.949,5.215005065666255
3137.9258,2.3170820131294683
3138.902,2.3685819450487156
3139.8775,2.069508774159792
3140.8524,2.469866389512678
3141.8267,2.9696586594622687
3142.8004,6.168889427664796
3143.7735,6.067562508079911
3144.7459,3.765681652978368
3145.7178,4.163250553955299
3146.689,-0.3397271350509765
3147.6596,3.3067521982653645
3148.6295,0.052695560084221604
3149.5989,4.948109923517972
3150.5676,3.843002261152037
3151.5357,5.487379496090748
3152.5032,3.431248513008411
3153.4701,0.9246161417055427
3154.4364,2.4174891776701726
3155.402,1.1598744071441685
3156.367,5.6017785921945125
3157.3315,1.1432084832894454
3158.2952,7.0841707748794285
3159.2584,3.674672149982838
3160.221,0.6147192207763412
3161.1829,3.254318562689889
3162.1442,5.743476745006244
3163.105,2.8322003044649797
3164.065,3.6704957203709077
3165.0245,1.6583694437068361
3165.9834,3.145827888750623
3166.9416,2.3328774531964287
3167.8993,3.8195245032801433
3168.8563,1.8557753819088854
3169.8127,2.591636393794526
3170.7684,4.92711382509119
3171.7236,3.2122139360366386
3172.6782,3.696942937597502
3173.6321,5.6313070086182675
3174.5854,4.515312290974004
3175.5381,3.798964870226709
3176.4902,2.132270786785266
3177.4417,3.5652360430689085
3178.3926,1.3978666201741676
3179.3428,2.230168463545213
3180.2924,5.912147504647543
3181.2415,2.5438096526449825
3182.1899,2.025160757579876
3183.1377,1.7562066440564719
3184.0848,4.1869531164274125
3185.0314,6.96740596148327
3185.9773,3.147570924145089
3186.9227,4.327453679659855
3187.8674,2.8070598717988506
3188.8115,6.386395101058824
3189.755,4.815464939865928
3190.6979,5.144274896782368
3191.6402,2.9728304322157
3192.5818,5.201136955130736
3193.5229,6.379199844763985
3194.4633,5.107024428340582
3195.4031,7.384615969293678
3196.3423,3.511979679986182
3197.2809,4.58912069893484
3198.2189,4.366044129536604
3199.1563,5.442755029297221
3200.0931,5.519258412061994
3201.0292,3.195559237248681
3201.9648,4.871662409082454
3202.8997,6.3475727998328955
3203.834,5.4232952330529605
3204.7677,6.14883446881988
3205.7008,5.1241952129779325
3206.6333,5.799382109883053
3207.5652,5.2243997526492265
3208.4964,6.599252676396614
3209.4271,5.6239453640013854
3210.3571,6.8984822323471775
3211.2865,4.972867642078177
3212.2154,3.897105884853749
3213.1436,2.871201202604583
3214.0712,5.745157798290306
3214.9982,4.268979846158536
3215.9246,6.742671463005313
3216.8503,6.066236722936878
3217.7755,4.589679632632761
3218.7001,6.26300413811012
3219.624,6.736214139489319
3220.5473,7.509313474260683
3221.4701,7.332305912552393
3222.3922,8.005195149399494
3223.3137,6.027984806513977
3224.2346,7.000678425555878
3225.1549,5.323279487905385
3226.0746,6.645791404935901
3226.9937,6.318217534788036
3227.9121,7.040561169144485
3228.83,6.912825536505768
3229.7473,6.735013794966791
3230.6639,8.807129033494208
3231.5799,8.629174273704532
3232.4954,7.151152449142987
3233.4102,4.223066407063053
3234.3244,5.844918923206684
3235.238,6.366712731085173
3236.151,4.78845050576062
3237.0634,4.860134858627999
3237.9752,7.081768353197779
3238.8864,7.753353504379076
3239.797,4.974892756263328
3240.7069,1.9963884754084327
3241.6163,5.817842978623364
3242.5251,5.139258562753209
3243.4332,5.410637466464624
3244.3408,8.68198187703168
3245.2477,4.503293927622069
3246.154,8.57457566458367
3247.0598,6.545829089231417
3247.9649,6.867056117134487
3248.8694,6.488258598403765
3249.7733,5.109438314479574
3250.6766,4.430596981919653
3251.5793,7.751736266187351
3252.4814,7.9228577884400515
3253.3829,5.393963092317772
3254.2838,5.215053642231953
3255.1841,7.436130848654402
3256.0838,8.357196069906387
3256.9829,7.328250589947865
3257.8814,5.149295609166838
3258.7792,5.2203322546687945
3259.6765,9.19136160206627
3260.5731,7.062384674768474
3261.4692,9.683402404271002
3262.3647,7.7544156514456
3263.2595,6.075425180329988
3264.1538,7.046431677417729
3265.0474,6.417435768448129
3265.9404,6.788438008696177
3266.8329,7.909438889262503
3267.7247,6.730438833363355
3268.616,9.051438185120588
3269.5066,8.222437221351676
3270.3966,7.893436128359706
3271.286,2.514435010223384
