RamanShift,CorrectedData
30.1047,1105.9715023888289
32.3739,1019.967923227026
34.6426,939.5143330055078
36.9109,861.8607104648802
39.1787,783.0070249506053
41.4461,702.9532371895383
43.7131,627.5993000784634
45.9796,552.3951594846324
48.2456,468.5407549993033
50.5112,393.33602068978234
52.7764,315.080885937968
55.0411,237.62527619239845
57.3054,156.01911375080277
59.5692,81.96231853465731
61.8326,5.954808905247177
64.0955,-68.50349759576567
66.3579,-137.36268348626743
68.6199,-216.67214693420328
70.8815,-263.4799138543105
73.1426,-274.181845606579
75.4032,-173.62117138665883
77.6634,214.661618686437
79.9231,1234.677768969197
82.1824,3533.0885216714937
84.4412,7728.655106656423
86.6995,13534.938718456195
88.9574,19234.10047431647
91.2148,23114.201356133522
93.4717,24842.002153462625
95.7282,25091.513424717028
97.9842,24796.09547988997
100.2398,24152.65837805955
102.4949,23359.76193034292
104.7495,22502.515706330643
107.0036,21576.67904201567
109.2573,20712.861048365783
111.5105,19850.02062058199
113.7632,19045.066446736673
116.0154,18356.90701640203
118.2672,17805.15062869957
120.5185,17244.005399181755
122.7693,16772.429265349525
125.0197,16407.479992263787
127.2696,16031.665177261137
129.519,15743.94225360338
131.7679,15414.718494235673
134.0163,15173.901014663748
136.2642,14847.746776246155
138.5117,14512.962588602435
140.7587,14135.20511287467
143.0052,13853.280865075309
145.2512,13491.646219864753
147.4967,13168.557413370596
149.7417,12920.820546803972
151.9863,12685.891589690438
154.2304,12543.876382347353
156.4739,12288.180638233152
158.717,12138.859945367527
160.9596,11909.969768888346
163.2017,11576.015452544885
165.4433,11196.702220986734
167.6844,10789.88518310331
169.925,10382.969335817028
172.1651,9918.05956815144
174.4047,9568.46066530041
176.6439,9237.077313277212
178.8825,8921.514102410503
181.1206,8676.175530658187
183.3582,8436.71600676301
185.5954,8252.089852705982
187.832,8097.701306100933
190.0681,7968.454522040814
192.3037,7904.703574641557
194.5388,7797.652458334556
196.7734,7785.855088504165
199.0075,7772.165302558221
201.2411,7844.236860046007
203.4742,7815.173442795156
205.7068,7855.728654190939
207.9389,7885.606019466894
210.1704,7997.908985299276
212.4015,8060.9909195082755
214.632,8172.505109935002
216.862,8259.104763810654
219.0915,8339.093006641382
221.3205,8477.672881342296
223.549,8599.047347437572
225.777,8796.119279674656
228.0044,9054.041466810537
230.2314,9410.616609640998
232.4578,9665.147318421416
234.6837,9890.086109301
236.909,10052.535401777495
239.1339,9939.047516447787
241.3582,9685.774673383408
243.582,9323.86899326542
245.8053,8983.032499917143
248.0281,8634.667123923206
250.2503,8369.924706037917
252.472,8187.307000668918
254.6932,8124.615678524605
256.9139,7996.852328440312
259.134,7990.76845800522
261.3536,7974.465494839989
263.5727,8035.044786657595
265.7912,7996.957601426362
268.0092,8036.805126764166
270.2267,8010.83847031931
272.4436,7919.65865937205
274.6601,7813.816641094263
276.8759,7665.16328346123
279.0913,7551.349376310085
281.3061,7417.975632826323
283.5204,7377.7426906819555
285.7341,7406.051113369234
287.9473,7473.2513906029935
290.16,7603.193938037559
292.3721,7807.679096594747
294.5837,8153.507131164434
296.7947,8427.178228559718
299.0052,8585.592494058623
301.2152,8447.84994866739
303.4246,8057.500527536336
305.6334,7500.34408133729
307.8418,6923.430380167081
310.0495,6456.0091191191
312.2568,6041.329924052434
314.4635,5736.192356266089
316.6696,5592.495916645775
318.8752,5474.49004871528
321.0802,5437.77414007344
323.2847,5480.397523574192
325.4887,5482.259477693737
327.692,5379.6092261042995
329.8949,5249.19593765551
332.0972,4969.368727400912
334.2989,4640.376657902096
336.5001,4329.56874202697
338.7007,4098.093946239671
340.9008,3936.8511937086587
343.1003,3738.9393666214546
345.2992,3642.6573077970716
347.4976,3552.453822665135
349.6955,3486.027680228697
351.8927,3512.2776139662747
354.0895,3438.852322496119
356.2856,3439.450469313706
358.4812,3351.4206835259865
360.6763,3355.7615598454195
362.8707,3292.321659470261
365.0646,3322.3995100411557
367.258,3289.493606275546
369.4508,3284.802409666874
371.643,3330.274348813651
373.8346,3311.207819466368
376.0257,3300.8511840727733
378.2162,3182.302771968536
380.4062,3074.6108794808188
382.5956,2921.4737711137623
384.7844,2792.9396806254044
386.9726,2654.506812559055
389.1603,2569.8233435286347
391.3474,2460.837423602996
393.5339,2432.597177152764
395.7199,2333.950703940185
397.9052,2351.6960794015467
400.09,2330.6313556336245
402.2743,2390.404561216237
404.4579,2469.8637014229007
406.641,2634.95675762308
408.8235,2834.8316864876015
411.0054,3086.086418337738
413.1868,3421.3188551464427
415.3675,3679.92686802581
417.5477,3843.6082938747513
419.7273,3804.660932792911
421.9064,3693.582546443855
424.0848,3542.670858444546
426.2627,3325.9235554761217
428.4399,3019.4382887930096
430.6166,2613.8626763904194
432.7928,2252.2943060691814
434.9683,1909.480739491506
437.1432,1672.5195157966646
439.3176,1496.9581550291186
441.4914,1375.6941605081465
443.6645,1331.1750205834433
445.8371,1268.298209847755
448.0091,1199.961189582098
450.1806,1123.7114083844972
452.3514,1084.2463028533766
454.5216,1052.5132983500407
456.6913,1016.7098093933437
458.8603,1013.3832399769981
461.0288,1051.2809839276215
463.1967,1059.700424938008
465.3639,1135.2389361881396
467.5306,1217.4438802610002
469.6967,1306.9126083871906
471.8622,1422.9924596228702
474.0271,1520.9807599550895
476.1914,1590.3748211409802
478.3551,1583.4719397278604
480.5182,1555.7193963593127
482.6807,1530.7644558442098
484.8426,1678.1543674342265
487.0039,1915.5363650734052
489.1647,2328.6076659242462
491.3248,2683.1154679938936
493.4843,2876.1569460034225
495.6432,2873.029247842758
497.8015,2742.7794926402603
499.9592,2694.5547707940004
502.1163,2606.352145274259
504.2728,2324.6186521057753
506.4287,2035.8513012497715
508.5839,1630.1470794212837
510.7386,1309.8529529768457
512.8927,1121.2158719715208
515.0461,1025.782773361845
517.199,996.7505828921967
519.3512,1020.3662160491349
521.5029,1136.4265783517112
523.6539,1246.4285651153205
525.8043,1290.6190602910901
527.9541,1267.3449353658725
530.1033,1199.1030489203276
532.2519,1193.0902468616732
534.3999,1304.0033631061106
536.5472,1516.2892196389403
538.694,1916.4446254054346
540.8401,2407.4663741879704
542.9856,2841.601240604492
545.1305,2998.795975198287
547.2748,2845.4973000966293
549.4185,2517.9519074388463
551.5615,2214.256460909286
553.704,2099.457599012794
555.8458,2066.9519381116424
557.987,2126.786073573532
560.1276,2165.306580096658
562.2675,2214.8100111113563
564.4069,2395.4928983948976
566.5456,2489.201751576462
568.6837,2456.133056330307
570.8212,2184.3332734386768
572.958,1740.848839122491
575.0942,1391.82616775934
577.2299,1152.76165631834
579.3648,1084.151687850339
581.4992,1151.342633878572
583.6329,1310.130855084768
585.766,1534.6127006372299
587.8985,1656.5845066029542
590.0304,1654.992593702811
592.1616,1619.8832660918342
594.2922,1498.5028113751232
596.4222,1350.047500958959
598.5515,1151.0135912645928
600.6802,983.2973252128013
602.8083,854.8949342142405
604.9358,796.3026398465918
607.0626,777.7166551385853
609.1888,758.8831851559407
611.3144,765.3984271872141
613.4393,701.4085709321371
615.5636,628.259798436462
617.6873,597.4482847318686
619.8103,539.2201985674437
621.9327,432.57170271778887
624.0544,346.89895456531667
626.1756,288.94810716671964
628.2961,238.76531010971485
630.4159,187.34671009253725
632.5351,153.58845142577775
634.6537,72.3866765465591
636.7716,94.13752635612582
638.8889,99.08714103185412
641.0056,101.78165980974518
643.1216,115.76722093493481
645.237,103.13996163474985
647.3518,82.29601797884789
649.4659,108.93152500549513
651.5793,106.14261693000844
653.6922,93.27542687840287
655.8043,92.97608691526148
657.9159,74.99072817241904
660.0268,-3.734519148043546
662.137,-22.7035255939536
664.2466,-8.870124405284514
666.3556,-25.98792201379365
668.4639,-65.4104362387061
670.5716,-17.740925279898875
672.6786,36.51800611300132
674.785,73.61393042219788
676.8907,123.094419764735
678.9958,197.45704552152347
681.1002,212.59937784253452
683.204,164.51898490317217
685.3072,143.96343275286017
687.4097,94.6802857958246
689.5115,77.367106996664
691.6127,43.971458373174755
693.7132,-10.609098830507719
695.8131,-17.177003809967573
697.9123,-58.63458977589471
700.0109,-64.73401834071774
702.1089,-58.42686535730718
704.2061,-50.06405998570699
706.3028,-20.995947701567275
708.3987,38.227626159412466
710.4941,123.15702601104022
712.5887,286.59261588485424
714.6827,554.68475858083
716.7761,835.1838140330219
718.8688,1160.64013662863
720.9608,1338.35407240303
723.0522,1419.7259557851976
725.1429,1302.1561078205705
727.233,1095.894835357347
729.3224,925.6924322221457
731.4112,709.7991812826585
733.4993,551.965356149647
735.5867,390.941223335878
737.6735,266.07704383448436
739.7596,160.92307472918583
741.845,90.42957044293325
743.9298,97.19678378945173
746.014,70.4249666781725
748.0974,92.11437004656909
750.1802,106.86524412785911
752.2624,108.9278382341272
754.3439,161.50240060880787
756.4247,266.3391784060659
758.5048,424.58841716503775
760.5843,644.7003597614785
762.6631,981.1252448252562
764.7413,1493.6633045392464
766.8188,2121.2147612750723
768.8956,2597.7798224677317
770.9718,2920.0086743400825
773.0473,2795.6014771371865
775.1221,2461.408361904023
777.1962,2151.3794317295524
779.2697,1961.0647650886694
781.3426,2015.2644189424682
783.4147,2254.3284306414007
785.4862,2522.4068173832875
787.557,2501.9495738226615
789.6271,2150.9566693899997
791.6966,1590.7780484962823
793.7654,1057.263634042929
795.8335,713.0133330235876
797.901,476.4770418592725
799.9678,417.7546498408683
802.0339,433.7960414944937
804.0993,459.4010971687203
806.1641,439.81969287416905
808.2282,399.00170002745836
810.2916,307.64698564700666
812.3544,213.5054127612275
814.4164,160.7768413220674
816.4778,160.31112914642654
818.5385,191.80813244344063
820.5986,306.7177058191319
822.658,452.7397019614509
824.7166,612.9739704911735
826.7747,956.0203565016836
828.832,1186.22869895662
830.8886,1384.7988272594303
832.9446,1543.8805589512776
834.9999,1536.0736977253455
837.0545,1487.1280318360077
839.1085,1401.2433341769083
841.1618,1318.919362770408
843.2143,1208.0558616264461
845.2662,1128.2025615657767
847.3175,1046.9591813285952
849.368,962.7254283730726
851.4179,881.6009996877947
853.467,714.2855826340874
855.5155,642.8288557572796
857.5633,590.3304904598463
859.6105,507.240151715976
861.6569,466.3074985965559
863.7027,375.93218510007864
865.7478,363.61386056195806
867.7922,359.6021705582898
869.8359,403.7467570290373
871.8789,513.8472583181501
873.9212,637.3533087321048
875.9629,792.9145374389173
878.0039,972.5805672330753
880.0441,1084.4010129799226
882.0837,1111.2254798189988
884.1226,1058.9535620458391
886.1609,970.1848428437279
888.1984,940.5688948064162
890.2352,977.4052808258057
892.2714,967.043554388114
894.3069,960.3832592055096
896.3416,852.1239293197286
898.3757,805.9650891686833
900.4091,794.4062546690548
902.4418,825.8469336778726
904.4739,825.3366261081046
906.5052,872.3748236142583
908.5358,770.4610095974731
910.5658,623.0446587351471
912.595,465.3252380000722
914.6236,324.80220813459346
916.6515,240.52502522780924
918.6786,229.74314212079116
920.7051,296.2060092493757
922.7309,405.5630747519699
924.756,449.1137838049199
926.7804,548.3075775289562
928.8041,557.5438925536655
930.8272,585.1721600255732
932.8495,565.5418055157661
934.8711,533.4522487436116
936.892,416.70290377306264
938.9123,302.84317933355123
940.9318,220.12247998748353
942.9506,135.79020726883755
944.9688,73.44576051035983
946.9862,-4.0114623130957625
949.003,-23.282063961132735
951.019,-51.5166071188487
953.0344,-28.91542188351923
955.0491,-11.728323701525369
957.063,58.445160845816645
959.0763,195.10562234313875
961.0888,221.15365079062212
963.1007,307.5398342373901
965.1119,372.71475852104777
967.1223,400.07900640380103
969.1321,417.0331569207119
971.1412,474.92778510605785
973.1495,464.01346182378256
975.1572,516.0407531885539
977.1641,554.2102206749187
979.1704,524.3224205970073
981.1759,531.0779037268585
983.1808,572.4272155932849
985.1849,662.4708964143283
987.1884,829.8094806837671
989.1911,970.7434962706684
991.1932,1080.3734627460108
993.1945,1139.3498899733477
995.1951,1135.5732770124941
997.1951,1101.644111529784
999.1943,1034.7628698358185
1001.1928,1008.5800172247655
1003.1906,1040.0460086431667
1005.1877,1138.9612889517666
1007.1841,1150.8762926108502
1009.1798,1106.0914426910913
1011.1748,939.0571507544028
1013.1691,789.573817301789
1015.1627,592.2418334436843
1017.1556,397.8115823947901
1019.1477,307.2334414474026
1021.1392,233.7577839156893
1023.1299,234.18498004151843
1025.12,261.8153977291695
1027.1093,342.8494025410928
1029.0979,452.2873574215773
1031.0859,523.8796218864281
1033.0731,548.0765509285811
1035.0596,503.27849430217975
1037.0454,369.3357962806076
1039.0304,274.8987961044604
1041.0148,146.61782932097958
1042.9985,63.29322872843659
1044.9814,27.575325658914153
1046.9636,-7.83554918842492
1048.9452,-18.039065390175892
1050.926,42.715185754206686
1052.9061,48.9277931555207
1054.8855,47.54934529742059
1056.8642,95.08043017427917
1058.8421,146.471635304988
1060.8194,199.0735472576289
1062.7959,224.5867511355791
1064.7717,291.9618300514776
1066.7469,333.5993648720996
1068.7213,366.0999335446104
1070.695,385.0141106801857
1072.6679,340.04246722900825
1074.6402,337.18557029112526
1076.6117,300.3939835661604
1078.5826,304.1682673818905
1080.5527,249.30897906214523
1082.5221,330.31667288908284
1084.4908,493.1419006517699
1086.4587,645.8352108361105
1088.426,737.1471469965945
1090.3925,784.3282462293555
1092.3584,747.0790382590621
1094.3235,679.8000449671017
1096.2879,641.6917807640712
1098.2515,668.1547532625682
1100.2145,797.5394636582805
1102.1767,904.9964064653523
1104.1382,1067.4260682225358
1106.099,1307.4289264186245
1108.0591,1556.6054478681544
1110.0185,1720.806086311386
1111.9771,1748.5312799225212
1113.9351,1595.1314496677187
1115.8923,1361.156999027824
1117.8488,1082.2583155323755
1119.8045,856.3857730993495
1121.7596,750.5897348241378
1123.7139,676.1705552382809
1125.6675,661.6285813674222
1127.6204,744.7141534755101
1129.5726,711.6276052102148
1131.524,720.269262772068
1133.4748,666.9394452453307
1135.4248,619.0384645115682
1137.3741,583.5666257829598
1139.3226,547.7242280813025
1141.2705,517.7115645927315
1143.2176,417.72892302614673
1145.164,421.4765859133313
1147.1097,419.70483160878393
1149.0546,419.66393425224305
1150.9989,334.4541637864022
1152.9424,219.47578595731648
1154.8852,67.57906316650588
1156.8272,8.31425562073855
1158.7686,-29.668377149007938
1160.7092,-40.6185756948953
1162.6491,-27.535784182000498
1164.5883,63.88095900416374
1166.5267,185.98289056057365
1168.4644,338.47124654538675
1170.4014,529.5972611569341
1172.3377,773.5621652088421
1174.2732,1015.4171842187607
1176.2081,1329.863535968725
1178.1421,1624.3024280866066
1180.0755,1949.7850549016512
1182.0082,2125.2125945000807
1183.9401,2197.9862054702753
1185.8713,2053.557025148497
1187.8017,1829.8261688911434
1189.7315,1554.0447315190531
1191.6605,1305.9137895547983
1193.5888,1084.6344039805108
1195.5163,963.2076227191837
1197.4432,866.0344828474699
1199.3693,858.4160118099471
1201.2947,841.9532283908547
1203.2193,861.9971427902747
1205.1432,888.1487567887634
1207.0664,877.5590635469143
1208.9889,919.0290473438308
1210.9106,958.4096836830395
1212.8316,988.701938877778
1214.7519,1081.2567696571869
1216.6715,1112.675122863392
1218.5903,1134.807934525952
1220.5084,1128.456129547677
1222.4257,1151.0706214833035
1224.3424,1141.252312603012
1226.2583,1216.952093666283
1228.1735,1325.070844020076
1230.0879,1452.4094308418298
1232.0016,1577.7187080582898
1233.9146,1650.649515072104
1235.8269,1625.4026755087407
1237.7384,1535.2789964871808
1239.6492,1370.9292688723854
1241.5592,1271.5542681765255
1243.4686,1236.1047562024842
1245.3772,1281.1814820376057
1247.285,1332.2351824081925
1249.1922,1353.9165812287301
1251.0986,1381.576389091355
1253.0042,1402.6153030490404
1254.9092,1462.2340063389984
1256.8134,1568.5831681722948
1258.7169,1718.363443137664
1260.6196,1902.6254701380203
1262.5216,2134.569870892643
1264.4229,2318.247248094567
1266.3234,2516.608183091128
1268.2232,2610.453234047194
1270.1223,2625.9829339615562
1272.0207,2665.9977897284753
1273.9183,2631.448281982387
1275.8151,2567.2348646977352
1277.7113,2519.6079655344984
1279.6067,2483.667986480311
1281.5014,2440.3153043267275
1283.3953,2516.000271028628
1285.2885,2649.4232141377415
1287.181,2808.884436045798
1289.0727,2984.084212650293
1290.9637,3104.1727917598864
1292.854,3275.3003913423945
1294.7435,3372.267198323907
1296.6323,3545.1733668775123
1298.5204,3710.1690174536243
1300.4077,3824.704235050929
1302.2943,3909.2290675664235
1304.1802,3903.343524650064
1306.0653,3710.1475768595146
1307.9497,3505.3911557190113
1309.8333,3273.7741556513083
1311.7162,3133.5964360252683
1313.5984,3111.6078234720117
1315.4798,3161.1581132867013
1317.3605,3184.447069648427
1319.2405,3245.574425124698
1321.1197,3178.689880438562
1322.9982,3009.0431038573297
1324.876,2920.1837318614125
1326.753,2782.761370840796
1328.6293,2770.475597983631
1330.5048,2738.6259626504607
1332.3796,2685.8619864970715
1334.2537,2647.733163793
1336.127,2615.9889619491696
1337.9996,2624.9288218991715
1339.8714,2605.85215841671
1341.7426,2576.6583600262056
1343.6129,2602.5467891935523
1345.4826,2593.1167826180726
1347.3515,2588.9176509736253
1349.2196,2581.2986790029017
1351.087,2578.8091255594263
1352.9537,2683.4982236837404
1354.8197,2818.865180628305
1356.6849,2990.3591768105953
1358.5493,3134.429364459442
1360.4131,3193.474865900087
1362.276,3215.3947721134837
1364.1383,3137.6381421458345
1365.9998,2917.5540028894065
1367.8606,2617.791349860089
1369.7206,2329.9491493982277
1371.5799,2094.6263416662605
1373.4384,1928.5718435271438
1375.2962,1753.4845508975723
1377.1533,1501.813340408522
1379.0096,1219.7070711561337
1380.8652,949.6645872184154
1382.7201,694.5847204763068
1384.5742,487.2662933141064
1386.4275,351.70812117026435
1388.2802,247.65901461057092
1390.132,158.96778068373897
1391.9832,106.83322396189124
1393.8336,55.654147427475436
1395.6832,40.27935299461842
1397.5322,25.45764202090595
1399.3803,11.287815461136233
1401.2278,-16.23132598446864
1403.0745,26.499018271444584
1404.9204,30.52781096716899
1406.7656,76.30401457601147
1408.6101,133.02659126599792
1410.4538,184.44450244212294
1412.2968,222.70670817911287
1414.139,283.0121667072508
1415.9805,401.75983402975544
1417.8213,487.64866331972917
1419.6613,634.9776037326756
1421.5006,842.4955995476166
1423.3391,1095.2515886938
1425.1769,1417.494500675526
1427.0139,1896.9232540445737
1428.8502,2485.2367531777854
1430.6858,3062.183883482772
1432.5206,3491.963505514782
1434.3547,3746.1744492072276
1436.188,3782.465509573888
1438.0206,3713.7354441668012
1439.8524,3557.8829727133525
1441.6835,3477.906777803575
1443.5139,3397.2055064486694
1445.3435,3347.627770880773
1447.1724,3338.922149359969
1449.0005,3271.5871866700672
1450.8279,3215.0713942056636
1452.6545,3199.8232506454824
1454.4804,3272.4912025175363
1456.3056,3280.223664351608
1458.13,3211.2690179525725
1459.9536,3027.775612323064
1461.7766,2706.5417643530363
1463.5987,2355.9657606546834
1465.4202,1977.8458607747898
1467.2409,1672.2303007004848
1469.0608,1409.667296640444
1470.88,1164.4550480810485
1472.6984,965.3417404120082
1474.5161,763.6755473784851
1476.3331,644.0046330722289
1478.1493,558.6271539482341
1479.9648,458.4412600214573
1481.7795,404.8450957205823
1483.5935,349.98680088988567
1485.4067,327.0645113251958
1487.2192,274.62635932247304
1489.031,248.22047390703847
1490.842,241.59498135795184
1492.6522,229.29800547207196
1494.4618,214.3776676303105
1496.2705,207.68208692060944
1498.0785,191.00938028713063
1499.8858,183.75766259721968
1501.6924,161.32504680812963
1503.4981,161.75964403954185
1505.3032,139.30956379788495
1507.1075,127.17291397199278
1508.911,101.64780105760656
1510.7138,88.48233027874176
1512.5159,65.3746058429324
1514.3172,31.372731072895476
1516.1178,15.5248086376032
1517.9176,22.428940892302307
1519.7166,2.0332300369937
1521.515,-11.114221952608204
1523.3126,-9.165313121113286
1525.1094,-12.871830482055884
1526.9055,-36.835469487493356
1528.7008,-21.607796999891434
1530.4954,-51.34001189538412
1532.2893,-31.68309718821729
1534.0824,-36.237523005918774
1535.8747,-7.5034429618735885
1537.6663,-33.73064865661763
1539.4572,-18.81885673128727
1541.2473,10.432553142155484
1543.0367,30.374389292121123
1544.8253,15.20745994270601
1546.6132,67.83257301425965
1548.4003,76.60053627506022
1550.1867,124.01215681506801
1551.9723,165.06824095823958
1553.7572,250.8195937884102
1555.5414,341.067018738735
1557.3247,434.71131673417676
1559.1074,547.6032852890257
1560.8893,673.4937175704545
1562.6705,764.3834012696152
1564.4509,870.8731173427159
1566.2305,937.413639102132
1568.0094,1029.3557311515133
1569.7876,1071.5001487203708
1571.565,1093.547636744659
1573.3417,1118.29892944534
1575.1176,1107.954750107896
1576.8928,1102.1658108348256
1578.6672,1048.132812649087
1580.4409,1003.6564455519792
1582.2138,935.1373890634732
1583.986,889.1763126669803
1585.7575,859.8738764945429
1587.5282,865.3807317864421
1589.2981,886.8475211842206
1591.0673,885.1748786756152
1592.8358,937.1134293798905
1594.6035,987.0137895645657
1596.3704,1037.926566126027
1598.1366,1120.8523560905196
1599.9021,1208.3917461050305
1601.6668,1270.1453116080238
1603.4308,1404.5136159540489
1605.194,1547.7972097962001
1606.9564,1707.1466297424458
1608.7182,1891.4123969227776
1610.4791,2080.3950153957267
1612.2394,2309.044970305704
1613.9988,2543.2627259931696
1615.7576,2772.6987237081385
1617.5156,2990.403379268002
1619.2728,3188.7270807631658
1621.0293,3268.320186380003
1622.785,3258.383022417621
1624.54,3132.8658824919257
1626.2942,2966.9690276349947
1628.0477,2713.742687550255
1629.8005,2502.9870622714407
1631.5525,2285.202324694864
1633.3037,2087.0886226869707
1635.0542,1975.4960812621803
1636.804,1863.47480456403
1638.553,1810.9748769810985
1640.3013,1814.096364267215
1642.0488,1833.0393140664655
1643.7955,1877.353755881969
1645.5416,1933.589700886454
1647.2868,2051.5471414791155
1649.0313,2172.726050723255
1650.7751,2337.9263811667006
1652.5181,2516.248063630027
1654.2604,2723.8910055545384
1656.0019,3000.205089219069
1657.7427,3302.990169663539
1659.4828,3594.29607192582
1661.222,3773.722588013886
1662.9606,3775.0694739927494
1664.6984,3564.9364481901976
1666.4354,3186.8731911833265
1668.1717,2678.0293478998674
1669.9072,2149.154531398821
1671.642,1750.0983279588972
1673.3761,1407.4603023672612
1675.1094,1130.9900019101015
1676.8419,907.3869597990038
1678.5737,757.5506979356555
1680.3048,638.3307291478782
1682.0351,539.8765586879854
1683.7646,483.0876854249859
1685.4934,405.21360282912565
1687.2215,351.35379953976917
1688.9488,330.8077601441537
1690.6754,267.3249657159772
1692.4012,244.35489402086296
1694.1263,225.0970201511891
1695.8506,213.65081675578313
1697.5742,209.2657542325078
1699.297,185.29130084272037
1701.0191,177.9769227551251
1702.7404,153.3220842855112
1704.461,136.4762479699025
1706.1808,103.83887481110241
1707.8999,101.80942444715402
1709.6182,90.3873554777133
1711.3358,87.22212548434254
1713.0527,86.16319114473845
1714.7688,65.11000826437567
1716.4841,64.96203178709948
1718.1987,68.06871600565592
1719.9126,63.22951456316969
1721.6257,51.893880422082475
1723.338,58.61126591254242
1725.0496,36.631122845760274
1726.7605,48.752902446839016
1728.4706,42.37605557457027
1730.18,45.2500326002164
1731.8886,43.22428347128289
1733.5964,42.54825768277533
1735.3036,51.57140429745823
1737.0099,32.04317195261592
1738.7156,28.3130087698205
1740.4204,8.780362550214704
1742.1246,9.894680811813942
1743.8279,19.705410984830905
1745.5306,14.812000400535453
1747.2325,-1.286103806855408
1748.9336,1.8605453487562045
1750.634,-16.548592298358017
1752.3336,-9.114056932527546
1754.0325,-11.186223417647852
1755.7307,-13.115375568187119
1757.4281,13.048314551757812
1759.1247,-15.695194099309902
1760.8206,-11.545942693368488
1762.5158,4.74618439258802
1764.2102,14.531418125534856
1765.9039,10.659989424983905
1767.5968,0.3321290651365416
1769.289,5.148067713596447
1770.9804,9.008036034646466
1772.6711,8.86226464109086
1774.361,16.710984055656354
1776.0502,-2.995575287550764
1777.7386,-3.557183121534308
1779.4263,24.926420746496206
1781.1132,36.35553204559028
1782.7994,22.480446255535753
1784.4849,27.251458492566144
1786.1696,11.018863648111164
1787.8535,42.58295634108663
1789.5367,39.694031080222885
1791.2192,22.2023819484225
1792.9009,23.758302631650622
1794.5818,38.21208659385093
1796.2621,42.46402706138588
1797.9415,38.81441687849747
1799.6202,33.6635484647868
1801.2982,57.71171385171374
1802.9755,59.70920473410388
1804.6519,60.5563122296694
1806.3277,37.55332685903022
1808.0027,47.95053853724403
1809.6769,50.54823680383288
1811.3504,64.49671071881494
1813.0231,76.54624883672659
1814.6951,76.6471390671386
1816.3664,79.09966855416178
1818.0369,85.55412367543568
1819.7067,72.610790017608
1821.3757,80.6199523117848
1823.044,84.73189456296632
1824.7115,86.69689996995385
1826.3783,75.61525088423332
1828.0443,78.33722879032211
1829.7096,70.76311441658663
1831.3741,77.54318770802365
1833.0379,78.77772790200015
1834.701,87.41701346045465
1836.3633,85.51132205754902
1838.0248,90.76093049327619
1839.6856,85.16611471251963
1841.3457,101.4271497525524
1843.005,113.59430979899025
1844.6636,109.46786802317638
1846.3214,107.29809646051217
1847.9785,119.18526605172065
1849.6349,123.32964666454927
1851.2904,112.28150697489173
1852.9453,127.14111442535022
1854.5994,114.70873533571103
1856.2528,131.33463475435292
1857.9054,121.36907658256723
1859.5572,133.26232340830302
1861.2083,135.9146366058194
1862.8587,154.32627621675374
1864.5084,150.047500923597
1866.1572,138.5785678655784
1867.8054,150.4697326814544
1869.4528,154.0712496241972
1871.0994,135.18337144208272
1872.7453,154.756349342676
1874.3905,141.69043318170998
1876.0349,143.53587126735647
1877.6786,153.64291049088342
1879.3215,167.26179630819934
1880.9637,168.0927726387863
1882.6051,145.6860817295078
1884.2458,158.7919641463036
1885.8858,161.01065899825107
1887.525,157.2924038065098
1889.1634,158.93743448213536
1890.8011,148.39598536325957
1892.4381,147.26828919864238
1894.0743,158.2045772530846
1895.7098,163.25507931870698
1897.3446,175.4700236055828
1898.9786,157.84963669123863
1900.6118,165.84414339850173
1902.2443,166.85376697170568
1903.8761,163.27872899674185
1905.5071,145.46924939096425
1907.1374,152.37554643893827
1908.7669,163.0978369705408
1910.3957,156.9863362918918
1912.0237,163.2912580781349
1913.651,155.6628144345509
1915.2776,165.25121583350983
1916.9034,156.35667119075606
1918.5285,149.52938776952305
1920.1528,137.91957126947727
1921.7764,149.92742589499585
1923.3992,143.6531544712593
1925.0213,133.146958324176
1926.6427,122.15903734312587
1928.2633,98.98959008602014
1929.8832,165.0388138891799
1931.5023,126.85690509903043
1933.1207,137.4940584116116
1934.7383,135.80046725439252
1936.3552,140.97632367990673
1937.9714,141.52181838268461
1939.5868,121.13714064749365
1941.2015,126.02247834388345
1942.8154,128.07801813003334
1944.4286,118.95394540389998
1946.041,108.05044428266228
1947.6528,105.5176976939606
1949.2637,117.30588748493165
1950.8739,119.56519444753758
1952.4834,117.14579820068138
1954.0921,121.34787716761639
1955.7001,110.67160860014155
1957.3074,112.26716853657672
1958.9139,100.68473190852728
1960.5197,108.2744725249263
1962.1247,103.4365631878627
1963.729,101.87117561668083
1965.3325,99.67848049635995
1966.9353,88.00864749317043
1968.5374,90.66184527659834
1970.1387,96.08824163604095
1971.7393,98.38800345428217
1973.3392,94.21129665322223
1974.9383,89.25828617088291
1976.5366,76.77913600317561
1978.1342,80.37400925342718
1979.7311,90.14306825717586
1981.3273,91.6864745462185
1982.9227,93.75438875092323
1984.5173,93.99697058479342
1986.1112,86.91437882378887
1987.7044,87.55677130390222
1989.2968,88.87430499198172
1990.8885,85.06713597930957
1992.4795,94.28541946842643
1994.0697,82.12930981120326
1995.6592,75.29896041665916
1997.2479,79.29452387251968
1998.8359,88.36615201352288
2000.4232,69.71399588146323
2002.0097,78.73820563447543
2003.5955,68.83893073355603
2005.1805,84.71631985231852
2006.7648,82.42052097599117
2008.3484,84.551681242639
2009.9312,77.30994696612152
2011.5133,93.84546361478215
2013.0946,90.40837588386512
2014.6752,81.84882753016245
2016.2551,85.76696140638114
2017.8342,76.71291954674098
2019.4126,66.33684312779405
2020.9902,67.33887255896366
2022.5672,71.41914758630605
2024.1433,84.57780728249145
2025.7188,81.71499000599943
2027.2935,87.83083326953238
2028.8674,70.72547376864463
2030.4406,67.59904732058385
2032.0131,65.7016890353425
2033.5849,71.83353334692492
2035.1559,75.89471403231937
2036.7261,77.43536415017957
2038.2957,84.35561600021197
2039.8645,93.35560110777055
2041.4325,85.43545015465361
2042.9998,71.8952928891033
2044.5664,76.88525820500945
2046.1323,75.90547427730849
2047.6974,84.75606851208568
2049.2617,73.38716755637188
2050.8254,84.54889720963911
2052.3883,103.24138253748811
2053.9504,79.21474776003242
2055.5118,73.91911606497206
2057.0725,82.40460984786091
2058.6325,84.97135076506356
2060.1917,81.1194596488981
2061.7502,84.64905648196964
2063.3079,88.71026043569054
2064.8649,84.00318983498437
2066.4212,83.42796211767177
2067.9767,78.63469388154431
2069.5315,78.07350089011425
2071.0856,78.99449812054922
2072.6389,72.14779976928162
2074.1915,73.83351924280169
2075.7433,71.95176922612382
2077.2945,65.10266166592851
2078.8448,73.23630778937854
2080.3945,54.25281817261089
2081.9434,59.402302659400675
2083.4916,58.58487055099545
2085.039,67.85063055462047
2086.5857,51.29969079165289
2088.1317,58.53215870496524
2089.677,61.59814122443413
2091.2215,55.497744694615676
2092.7652,62.23107484408547
2094.3083,58.64823684644284
2095.8506,71.09933525297674
2097.3921,72.38447402849238
2098.933,60.35375642680401
2100.4731,63.757284977880545
2102.0124,70.59516160815542
2103.5511,69.21748760648916
2105.089,73.62436355579234
2106.6261,76.06588934680053
2108.1626,73.19216413400864
2109.6983,60.603286311252305
2111.2332,65.34935354044637
2112.7675,68.23046287747388
2114.301,71.74671072472552
2115.8337,70.29819280228935
2117.3657,56.135004112785964
2118.897,66.60723895585534
2120.4276,67.9649910697899
2121.9575,62.75835352680929
2123.4866,74.6374187194856
2125.0149,78.40227841280762
2126.5426,70.40302362539137
2128.0695,70.33974459183082
2129.5956,59.71253084269051
2131.1211,58.421471205138914
2132.6458,68.16665390922117
2134.1698,75.74816660076772
2135.693,76.96609624394273
2137.2155,67.22052904542966
2138.7373,81.96155044225202
2140.2584,66.28924519922748
2141.7787,64.95369726155946
2143.2983,74.75498991155928
2144.8171,69.3932057820025
2146.3353,60.61842675811454
2147.8527,66.2807340311897
2149.3693,69.88020818633822
2150.8853,78.6169291458632
2152.4005,61.14097613326612
2153.9149,71.90242758587965
2155.4287,76.95136132962693
2156.9417,69.83785447140713
2158.454,67.96198334860628
2159.9655,60.42382360023271
2161.4764,68.62345018567521
2162.9865,66.06093746008582
2164.4958,66.48635909238305
2166.0045,65.19978809087638
2167.5124,61.60129679901229
2169.0195,66.49095690824038
2170.526,68.21883949399762
2172.0317,65.18501496681256
2173.5367,59.0895530550265
2175.0409,76.38252283513089
2176.5445,73.3139927927225
2178.0473,68.78403064957365
2179.5494,59.29270339431696
2181.0507,66.14007732774598
2182.5513,67.72621815772823
2184.0512,69.40119093073122
2185.5504,67.66506001596053
2187.0488,66.51788908860976
2188.5465,68.25974114722317
2190.0435,67.990678525166
2191.5397,65.71076287320761
2193.0353,68.32005516221102
2194.5301,59.16861570593255
2196.0241,56.106504134927036
2197.5175,57.88377948806624
2199.0101,55.0005002431551
2200.502,48.106724299162806
2201.9931,49.252509005053525
2203.4835,49.13791122872453
2204.9733,56.7629873455503
2206.4622,52.977793239526136
2207.9505,43.98238422701911
2209.438,52.276815094618314
2210.9248,47.761140189091066
2212.4109,56.235413334436316
2213.8962,51.24968787704324
2215.3809,62.15401660094676
2216.8648,47.34845177768557
2218.3479,43.783045057259415
2219.8304,46.30784761618315
2221.3121,56.622910193143525
2222.7931,64.37828306374786
2224.2733,49.824015937376544
2225.7529,38.31015787962565
2227.2317,39.83675745785217
2228.7098,41.85386285631216
2230.1872,41.61152186089453
2231.6638,48.95978183894999
2233.1397,51.09868974171445
2234.6149,43.77829203082683
2236.0894,46.498634656939885
2237.5632,43.10976313292417
2239.0362,40.01172250666514
2240.5085,39.30455739495096
2241.9801,33.38831201445464
2243.4509,41.71303018880326
2244.921,26.978755407740664
2246.3904,41.33553074388146
2247.8591,44.38339900005303
2249.3271,24.12240256572818
2250.7943,33.402583386545984
2252.2608,31.073983166922517
2253.7266,25.486643277247367
2255.1917,37.09060477717185
2256.656,26.485908471481025
2258.1197,27.622594794054976
2259.5826,38.050703913914504
2261.0447,34.97027572385491
2262.5062,29.281349736164657
2263.9669,28.533965113430668
2265.4269,41.42816072542632
2266.8862,34.663975156587185
2268.3448,28.641446577067427
2269.8026,40.560612810381826
2271.2598,34.77151139363218
2272.7162,28.774179458313256
2274.1719,39.96865378820621
2275.6268,31.304970879350776
2277.0811,40.133166828101594
2278.5346,45.95327741776305
2279.9874,39.665338030307566
2281.4395,46.31938358817524
2282.8908,33.46544861715438
2284.3414,37.95356717984055
2285.7914,38.833773004174645
2287.2406,46.106099438562296
2288.689,42.07057944307189
2290.1368,31.077245516711855
2291.5838,42.976129737784504
2293.0302,41.0672638738215
2294.4758,43.950679262593894
2295.9206,48.32640683120189
2297.3648,46.99447706723845
2298.8082,38.404919975033636
2300.251,44.2577650889732
2301.693,41.80304155939484
2303.1343,48.8907780940599
2304.5748,50.57100298269938
2306.0147,36.69374402613721
2307.4538,44.60902851948845
2308.8922,45.31688339093216
2310.3299,48.56733512255755
2311.7669,38.86040974328489
2313.2031,43.84613279636278
2314.6387,40.47452943643498
2316.0735,47.64562437968493
2317.5076,42.609441937551765
2318.941,35.56600594501879
2320.3737,37.51533981097441
2321.8056,36.15746658864782
2323.2369,43.39240895611465
2324.6674,37.720189229876496
2326.0972,40.94082929251135
2327.5263,47.45435064939534
2328.9547,45.01077439649657
2330.3823,52.06012115524163
2331.8092,39.952411096948936
2333.2355,34.087663872336634
2334.661,40.465898732599044
2336.0858,44.63713458805387
2337.5098,38.05138994436106
2338.9332,44.358682860809495
2340.3558,41.759031016175186
2341.7778,42.10245164564776
2343.199,42.238961566827356
2344.6195,43.168577176288636
2346.0393,49.291314448217236
2347.4583,54.857188925113405
2348.8767,52.466215656565055
2350.2943,50.36840914358868
2351.7113,50.21378336253861
2353.1275,65.55235178608586
2354.543,44.78412738476277
2355.9578,52.50912247357974
2357.3718,50.127348919705355
2358.7852,46.93881806521722
2360.1978,59.24354075092015
2361.6098,58.54152734822992
2363.021,47.13278763612743
2364.4315,50.4673308081783
2365.8413,43.045165586621124
2367.2504,54.416300189022195
2368.6587,52.78074240249589
2370.0664,54.93849946999535
2371.4733,53.38957810666625
2372.8795,51.0339844782701
2374.285,57.17172421667351
2375.6899,54.252802443402175
2377.0939,42.27722370826609
2378.4973,40.99499201854701
2379.9,45.706110958755175
2381.3019,38.91058370344945
2382.7032,56.8084129701283
2384.1037,47.599601087184396
2385.5035,53.28414981492574
2386.9027,50.46206043766472
2388.3011,38.73333370687078
2389.6987,51.44796986939309
2391.0957,47.1059687847453
2392.492,49.85732979796285
2393.8876,37.852051783020215
2395.2824,39.69013311532103
2396.6765,48.171571791748875
2398.07,44.246365412285286
2399.4627,43.96451109519751
2400.8547,33.376005516287364
2402.246,39.530844911712165
2403.6366,42.07902518386925
2405.0265,40.77054183985092
2406.4156,36.255389965960035
2407.8041,39.33356424079409
2409.1918,37.55505898039769
2410.5789,43.86986810748135
2411.9652,37.4279851692047
2413.3508,42.22940327402853
2414.7358,37.57411515613478
2416.12,38.262113127411794
2417.5035,38.94338912400815
2418.8863,48.41793469945071
2420.2684,36.235741017831856
2421.6497,34.4967987590652
2423.0304,41.85109824070787
2424.4104,47.948629435350085
2425.7896,47.23938189706962
2427.1682,48.17334470045898
2428.546,35.950506447717885
2429.9232,45.52085525931466
2431.2996,42.83437889621348
2432.6753,42.041064664170676
2434.0503,37.74089944059904
2435.4246,38.48386968250145
2436.7982,38.51996146947272
2438.1711,32.79916049626934
2439.5433,41.87145207244839
2440.9148,38.33682117957687
2442.2856,37.99525238050728
2443.6557,45.19672985472414
2445.025,48.24123740175958
2446.3937,43.62875836917874
2447.7617,37.05927562213458
2449.1289,44.18277158949331
2450.4955,37.89922832952891
2451.8613,47.70862745868851
2453.2265,46.76095021442666
2454.5909,46.70617735711255
2455.9546,40.0442891795052
2457.3177,44.92526550730281
2458.68,53.69908576576097
2460.0416,36.81572893088355
2461.4025,63.52517344168348
2462.7627,52.87739736901676
2464.1222,63.522378148488315
2465.4811,47.9600926869291
2466.8392,55.69051725594716
2468.1966,62.313627647549424
2469.5533,58.72939909683805
2470.9093,61.18780621577912
2472.2645,56.18882302904535
2473.6191,62.882422949431884
2474.973,54.51857882784543
2476.3262,60.24726288636907
2477.6787,57.01844680189993
2479.0305,66.83210164886327
2480.3816,60.23819793150085
2481.7319,52.68670548573323
2483.0816,56.127593545099785
2484.4306,53.46083081627296
2485.7789,58.88638544464982
2487.1264,55.05422504101921
2488.4733,57.6643166273069
2489.8195,47.46662667489659
2491.165,62.86112107852966
2492.5097,53.99776525828133
2493.8538,53.92652400561565
2495.1972,50.94736157201942
2496.5398,54.61024166971379
2497.8818,55.86512750144709
2499.2231,55.211981723865506
2500.5637,59.70076643496395
2501.9035,52.931443180619
2503.2427,54.853972909699564
2504.5812,58.718316041761
2505.919,58.12443244781923
2507.256,65.67228141170744
2508.5924,57.011821636014815
2509.9281,67.94301116660813
2511.2631,52.16580747923638
2512.5974,65.2801673702188
2513.9309,63.886047114216126
2515.2638,58.433402333088566
2516.596,63.522188009835645
2517.9275,62.95235854312318
2519.2583,62.87386769639579
2520.5884,67.03666860357441
2521.9178,68.39071376984214
2523.2465,59.33595503001504
2524.5745,58.57234353500303
2525.9018,64.0998298423566
2527.2284,64.8183639239029
2528.5543,61.47789511047131
2529.8796,60.62837208470785
2531.2041,67.71974291448021
2532.5279,64.25195506137254
2533.851,68.32495530977224
2535.1735,68.08868980154682
2536.4952,72.79310399531505
2537.8163,73.23814266880856
2539.1366,70.02374987182873
2540.4562,69.74986892179584
2541.7752,72.41644243589315
2543.0935,80.52341233380537
2544.411,80.37071981105339
2545.7279,75.75830525792344
2547.0441,83.23610826099548
2548.3596,71.2040676492669
2549.6744,79.91212141937388
2550.9885,78.31020685591261
2552.3019,69.34826044435817
2553.6146,72.57621788708434
2554.9266,74.44401419298254
2556.2379,68.30158364518206
2557.5485,68.64885978237294
2558.8585,77.48577546022909
2560.1677,76.11226284793611
2561.4762,86.97825333982234
2562.7841,76.1836775690931
2564.0913,77.72846529917194
2565.3977,85.91254553164549
2566.7035,79.48584649081636
2568.0086,81.29829554186176
2569.313,87.4998192551011
2570.6167,86.3903433878703
2571.9197,88.41979282250816
2573.222,89.63809157744913
2574.5236,88.24516278693125
2575.8246,86.1909286888116
2577.1248,86.62531063849576
2578.4244,93.49822912948059
2579.7232,97.95960378900998
2581.0214,97.20935330934594
2582.3189,91.6973954031547
2583.6157,96.72364681100953
2584.9118,103.08802335650978
2586.2072,94.04043989601837
2587.5019,100.13081025501879
2588.7959,99.65904731859041
2590.0893,114.52506297050456
2591.3819,107.82876809794232
2592.6739,108.47007244283475
2593.9652,115.69888466882571
2595.2557,112.41511235485859
2596.5456,121.21866192288826
2597.8348,114.10943867071865
2599.1234,118.28734668396783
2600.4112,125.25228890715914
2601.6983,125.35416710194261
2602.9848,123.24288177744563
2604.2705,118.01833218925412
2605.5556,129.93041636052567
2606.84,126.62903113423454
2608.1237,116.66407205405119
2609.4067,124.48543339735556
2610.689,117.89300827488717
2611.9707,121.4866885525314
2613.2516,121.81636491724419
2614.5319,114.78192684111377
2615.8115,113.38326257806602
2617.0903,116.5202592342074
2618.3685,114.39280278181207
2619.6461,123.30077802795176
2620.9229,118.44406863577058
2622.199,125.57255703540523
2623.4745,118.53612447255114
2624.7493,118.18465093717862
2626.0234,121.71801523389661
2627.2968,123.03609498546814
2628.5695,125.03876659747596
2629.8415,123.52590524514244
2631.1128,123.69738485330231
2632.3835,119.05307811153159
2633.6535,117.84285647243291
2634.9228,124.11659019807814
2636.1914,125.87414837211077
2637.4593,125.36539883700868
2638.7265,124.44020817650835
2639.9931,122.79844172069204
2641.259,125.78996355524043
2642.5242,113.8146365378501
2643.7887,127.7223222683175
2645.0525,119.71288120829331
2646.3156,119.23617254220505
2647.5781,113.34205425735183
2648.8398,113.8303831486711
2650.1009,113.45101487767988
2651.3613,112.65380396759167
2652.6211,110.88860380710969
2653.8801,116.10526665839984
2655.1385,110.60364367474165
2656.3961,113.78358484836258
2657.6531,118.14493906545408
2658.9094,113.28755407437154
2660.1651,115.8612764420219
2661.42,126.16595160243662
2662.6743,116.85142383103494
2663.9279,122.11753614157664
2665.1808,136.7141303793078
2666.433,125.6410471682994
2667.6846,128.54812576548102
2668.9354,131.1352041713725
2670.1856,137.50211910101262
2671.4351,142.74870595808875
2672.6839,142.67479877126698
2673.9321,148.13023014172632
2675.1795,144.2648312438984
2676.4263,152.5284317709124
2677.6724,149.57085997324958
2678.9179,153.7919425761072
2680.1626,154.99150480897407
2681.4067,151.01937036342014
2682.6501,156.1253613811005
2683.8928,146.65929849347663
2685.1348,142.62100077075672
2686.3761,142.7102858165568
2687.6168,139.5769698082825
2688.8568,140.02086749623732
2690.0961,144.99179223495491
2691.3348,140.8895559787606
2692.5727,134.6639692320615
2693.81,121.36484109036962
2695.0466,124.79197930255782
2696.2826,131.49519040385024
2697.5178,126.72427968155165
2698.7524,127.82905110801516
2699.9863,133.40930738835118
2701.2195,137.5148499493797
2702.452,141.2454788838279
2703.6839,136.60099290927457
2704.9151,143.38118933084428
2706.1456,148.4358640876519
2707.3755,159.91481168500036
2708.6046,164.06782514383445
2709.8331,168.94469588595098
2711.0609,176.24521369246833
2712.2881,183.56916665505872
2713.5145,196.51634110294236
2714.7403,207.88652152964812
2715.9654,206.62949046354157
2717.1899,214.0450283541237
2718.4136,223.6329135846002
2719.6367,240.69292239772716
2720.8591,249.5248287999314
2722.0809,257.3784043907113
2723.3019,268.6534182743167
2724.5223,278.8496369812144
2725.7421,277.5668243553364
2726.9611,281.55474145211883
2728.1795,274.16314655132976
2729.3972,267.89179511719004
2730.6142,256.6904398722897
2731.8306,246.15883086030146
2733.0462,241.7467155579934
2734.2612,217.80383898054617
2735.4756,201.3799437256729
2736.6892,177.67477021304865
2737.9022,161.338056848549
2739.1145,153.76954026130215
2740.3262,138.96895546705582
2741.5372,130.63603594386262
2742.7475,111.57051378008566
2743.9571,111.72211975772848
2745.1661,93.79058354308933
2746.3744,89.0256336852454
2747.582,78.62699779536865
2748.7889,75.69440259437499
2749.9952,64.7775740169107
2751.2008,55.02623724067831
2752.4057,52.99011679560476
2753.61,43.66893666135496
2754.8136,41.51242028769309
2756.0165,36.470290687693875
2757.2188,35.192270459308304
2758.4204,45.47808183578445
2759.6213,28.677446698447852
2760.8215,44.09008647384326
2762.0211,28.26572230174139
2763.22,24.554074881012184
2764.4182,22.954864627868574
2765.6158,20.717811712982666
2766.8127,17.192636077478483
2768.009,16.67905745530163
2769.2045,15.426795408472003
2770.3994,7.63556933221912
2771.5936,2.2050984675046266
2772.7872,-6.714898021064869
2773.9801,-2.6747009909337294
2775.1723,-8.024524217715339
2776.3639,-11.314554756760344
2777.5548,-9.744899498422797
2778.745,-22.2655523006552
2779.9346,-16.426409669864256
2781.1235,-17.827145679589535
2782.3117,-13.267270303538112
2783.4992,-20.49611542223215
2784.6861,-12.01288037616348
2785.8723,-9.566559749631324
2787.0579,-4.15602811826011
2788.2428,-3.0300644877427203
2789.427,-2.2374063450516815
2790.6106,7.573239093184952
2791.7935,14.503186962027712
2792.9757,21.803752320805756
2794.1573,33.37625008381576
2795.3382,46.321994947317194
2796.5184,47.0423012738072
2797.698,59.038482962563194
2798.8769,67.76185344243947
2800.0551,90.51372555190619
2801.2327,98.34541145181413
2802.4096,109.7582223978768
2803.5859,125.35346866235363
2804.7615,144.03245941992213
2805.9364,162.59650259172508
2807.1106,184.7469046585818
2808.2842,213.48497047534636
2809.4572,239.7120030494043
2810.6294,276.2793032532916
2811.801,297.1881695624245
2812.972,335.98989768942647
2814.1423,381.0357803750393
2815.3119,420.327107000106
2816.4808,463.16516313511204
2817.6491,513.8012301472713
2818.8167,558.2365847721472
2819.9837,595.6724986072902
2821.15,654.0102376678859
2822.3157,699.1010620123947
2823.4807,742.546225159175
2824.645,791.3969736355758
2825.8086,844.0545465434827
2826.9716,878.8701750708129
2828.134,919.9950819649383
2829.2957,959.7304811845299
2830.4567,988.9775774883074
2831.617,1017.6375660376866
2832.7767,1020.8116321043073
2833.9358,1020.4509507834347
2835.0941,1012.7566869622174
2836.2519,1007.2799953232956
2837.4089,981.7220204217422
2838.5653,957.3338967398311
2839.7211,959.3167489426162
2840.8761,960.7216921218126
2842.0306,981.8498317759684
2843.1843,1018.9022637964152
2844.3374,1052.780074255987
2845.4899,1115.4343390384952
2846.6417,1177.2161234999508
2847.7928,1240.5764818420225
2848.9433,1304.3164564942172
2850.0931,1379.7870774802777
2851.2422,1440.8893617807835
2852.3907,1524.324312578442
2853.5385,1582.592918647068
2854.6857,1604.1461535172336
2855.8323,1674.6849748935822
2856.9781,1724.160324439295
2858.1233,1752.0231270707056
2859.2679,1811.7742904625431
2860.4118,1836.214704769306
2861.555,1883.0952420277508
2862.6976,1931.116755912486
2863.8395,1953.4800812671704
2864.9808,1975.3360336242931
2866.1214,1989.8354089815443
2867.2614,2008.2789835832539
2868.4007,2031.5175137753988
2869.5393,2033.8517358211657
2870.6773,2050.1323656685654
2871.8146,2060.8100989270924
2872.9513,2066.185610704919
2874.0874,2049.359555502116
2875.2227,2045.8325671568978
2876.3574,2018.755259013884
2877.4915,2009.5782239593686
2878.6249,1965.302034692094
2879.7577,1949.8772438150206
2880.8898,1920.3543842780894
2882.0212,1910.3839695324673
2883.152,1897.8664938257796
2884.2821,1892.3524323018107
2885.4116,1871.1422411256813
2886.5405,1881.5863575389858
2887.6686,1889.135200071899
2888.7962,1896.189168438732
2889.923,1904.6486434624433
2891.0493,1914.4639870041008
2892.1748,1937.9355418782868
2893.2997,1919.1136317549435
2894.424,1929.2485609246598
2895.5476,1961.040614486888
2896.6706,1987.1400582485942
2897.7929,2012.59713840634
2898.9145,2039.462081285287
2900.0355,2069.035093084625
2901.1559,2102.5663596089234
2902.2756,2113.106045972401
2903.3946,2153.5542962636137
2904.513,2161.7112334400563
2905.6308,2229.076958923682
2906.7479,2260.001552519331
2907.8643,2254.9350717410766
2908.9801,2278.077551502975
2910.0953,2288.079004169732
2911.2098,2276.9894193252794
2912.3236,2284.158763672759
2913.4368,2275.186981145418
2914.5494,2263.323992834917
2915.6613,2225.3196970810477
2916.7725,2186.0239695903592
2917.8831,2174.536663816207
2918.9931,2148.4576113517055
2920.1024,2111.9366220446036
2921.211,2096.9734842580738
2922.319,2089.9679652359237
2923.4264,2072.319811252227
2924.5331,2058.5287476813764
2925.6391,2052.7944791745686
2926.7445,2038.866689797712
2927.8493,2028.245043088772
2928.9534,2047.2291821970448
2930.0569,2042.168729989379
2931.1597,2029.1632888603294
2932.2619,2030.1124407827642
2933.3634,2030.96574743792
2934.4643,2021.1727502059077
2935.5645,2004.0829701571824
2936.6641,1976.0459081504714
2937.763,1937.0610450036738
2938.8613,1908.5778417742285
2939.959,1852.0457401489655
2941.056,1781.2141627289361
2942.1523,1701.282513594735
2943.248,1630.2001790148142
2944.3431,1542.7165282448036
2945.4375,1440.430914238329
2946.5313,1348.042674521853
2947.6244,1238.7011322175288
2948.7169,1163.2555969670825
2949.8087,1059.1553660252307
2950.8999,982.0497250141336
2951.9904,896.0379489643979
2953.0803,843.3693030861327
2954.1696,768.9930436290691
2955.2582,718.1584184092446
2956.3462,684.6146675527664
2957.4335,650.5610240041584
2958.5202,618.2967138617976
2959.6062,581.5709567184514
2960.6916,570.4829659839204
2961.7764,550.5819492522955
2962.8605,534.317108412838
2963.9439,520.737639848991
2965.0267,519.3927346010253
2966.1089,518.7315785018363
2967.1905,521.7033521903925
2968.2714,513.5072311183465
2969.3516,519.9423855203182
2970.4312,514.6079804958551
2971.5102,524.053175945081
2972.5885,530.0271266220403
2973.6662,531.7289820402459
2974.7432,523.4078864129401
2975.8196,542.9129786360745
2976.8954,521.8433923715234
2977.9705,516.0982558520307
2979.045,515.7766920919073
2980.1188,508.9778189444819
2981.192,488.60074910531637
2982.2645,467.1445901801952
2983.3364,439.00844488889527
2984.4077,430.44141127974785
2985.4783,391.8925830110003
2986.5483,369.46104943648606
2987.6177,349.4458959911127
2988.6864,311.9462044151778
2989.7545,290.51105295451976
2990.8219,250.1895167355152
2991.8887,231.7306679794309
2992.9548,201.78357640563866
2994.0204,173.3473094162042
2995.0852,153.37093239535795
2996.1495,124.15350899385743
2997.2131,110.34410132875155
2998.276,89.39177027555405
2999.3383,76.09557560633783
3000.4,57.60457619925808
3001.4611,49.917830171514595
3002.5215,33.43439506426182
3003.5812,20.1033279194761
3004.6404,15.22368544479059
3005.6989,5.194524146805122
3006.7567,1.2649003798833292
3007.8139,-6.5661295535563795
3008.8705,-4.449509363743914
3009.9264,-6.586117165275255
3010.9818,-12.62678662214779
3012.0364,-6.172285603048806
3013.0905,-15.623255835067312
3014.1439,-2.8802773841592284
3015.1966,-0.5437742399547005
3016.2487,-7.6641416181129784
3017.3002,-6.691769301989211
3018.3511,-10.77697051016338
3019.4013,-1.069991610440411
3020.4509,4.929028691310407
3021.4998,6.269962378435594
3022.5481,6.0026813849921155
3023.5958,7.327057582337034
3024.6428,15.542962781801009
3025.6892,16.45026872144399
3026.735,22.94884698389643
3027.7802,27.088568987286124
3028.8247,32.11930592025243
3029.8685,38.64092870054958
3030.9118,49.90330792473878
3031.9544,53.45631380297192
3032.9963,62.49981604636798
3034.0376,63.33368383148286
3035.0783,71.05778570987428
3036.1184,77.97198959976328
3037.1578,85.87616270879369
3038.1966,91.8201714648892
3039.2348,93.20388143721226
3040.2723,100.87715727672355
3041.3092,109.03986270234515
3042.3455,95.69186042422763
3043.3811,108.5830120621232
3044.4161,108.56317827886551
3045.4505,102.132218651458
3046.4842,109.78999167127296
3047.5173,104.03635480836027
3048.5498,100.87116443487008
3049.5816,94.44427588258918
3050.6128,99.85554347459293
3051.6434,99.10482058951385
3052.6734,96.4419596074294
3053.7027,95.86681191736903
3054.7314,90.07922794394261
3055.7594,88.02905715309197
3056.7868,91.71614810996675
3057.8136,90.14034849942647
3058.8398,92.20150508916896
3059.8653,92.24946374548881
3060.8902,84.78406941266564
3061.9145,89.75516611248463
3062.9381,85.26259701889029
3063.9612,93.50620440827566
3064.9835,85.43582970440787
3066.0053,79.8513133959924
3067.0264,84.00249511737633
3068.0469,77.93921370439392
3069.0668,69.0613071528544
3070.086,65.21861267917495
3071.1046,70.61096680915978
3072.1226,57.43820541642725
3073.1399,59.450163668486226
3074.1567,52.69667615846342
3075.1727,48.42757688498415
3076.1882,38.742699319706816
3077.203,38.29187645001434
3078.2173,32.42494087586269
3079.2308,35.94172481428927
3080.2438,32.24206015808235
3081.2561,25.525778440613152
3082.2678,12.792710872832345
3083.2789,16.692688410432993
3084.2893,14.17554188118126
3085.2991,8.141101945916319
3086.3083,9.889199123722335
3087.3169,11.569663852272441
3088.3248,4.382326470347834
3089.3321,6.827017201032987
3090.3388,0.5035662235893312
3091.3449,-3.138196350991734
3092.3503,-0.04844544234546788
3093.3551,-1.5773246195257684
3094.3593,0.2750230323833591
3095.3629,-3.0915298142291476
3096.3658,-1.777113234454589
3097.3681,-5.181826419001425
3098.3698,-6.455750805217065
3099.3708,3.051083935996928
3100.3713,-3.1612873733105005
3101.3711,-6.592829941601138
3102.3702,-3.9934773960760594
3103.3688,1.936902498434705
3104.3667,2.59848187194018
3105.364,3.7414328350804453
3106.3607,4.015927472510896
3107.3568,4.722137831472651
3108.3522,2.360235919047568
3109.347,1.5303936950962225
3110.3412,3.8827830958768175
3111.3348,7.8175607690145625
3112.3277,11.534883323306843
3113.32,12.584907289375394
3114.3117,6.967789082493368
3115.3028,11.03368499208483
3116.2932,7.5827512378961615
3117.2831,9.515143929336915
3118.2723,15.181019099989243
3119.2608,19.23053268828386
3120.2488,16.463840480841412
3121.2361,16.731098071977257
3122.2229,15.232460891368461
3123.209,19.318084201381126
3124.1944,18.338123112056877
3125.1793,19.692732540256543
3126.1635,24.982067219459736
3127.1471,22.056281686218938
3128.1301,21.065530227265896
3129.1125,27.859966908769763
3130.0942,24.989745586244425
3131.0753,25.55501983660426
3132.0558,31.50594298686626
3133.0357,24.692668108497216
3134.015,31.56534795790465
3134.9936,30.6241350445694
3135.9716,30.86918156231887
3136.949,34.80063939873918
3137.9258,30.26866013272459
3138.902,39.323394995163085
3139.8775,38.164994914256
3140.8524,33.44361042497087
3141.8267,37.95939168062526
3142.8004,36.812488500100656
3143.7735,38.65305032268476
3144.7459,43.13122621954041
3145.7178,45.24716487529997
3146.689,40.60101454328358
3147.6596,41.29292302433979
3148.6295,44.823037713307016
3149.5989,44.241505592094526
3150.5676,47.04847319438124
3151.5357,49.644086611431035
3152.5032,45.728491464023115
3153.4701,53.251832876495826
3154.4364,47.41425551590265
3155.402,54.66590351677881
3156.367,56.20692053951696
3157.3315,49.13744969785077
3158.2952,53.00763354344468
3159.2584,51.76761413658874
3160.221,54.56753300749665
3161.1829,55.80753116870599
3162.1442,60.88774908707904
3163.105,57.90832667140275
3164.065,61.369403221586644
3165.0245,60.921117458456976
3165.9834,62.463607489146
3166.9416,65.64701081157477
3167.8993,66.22146429902833
3168.8563,62.087104168321574
3169.8127,58.594065974054836
3170.7684,66.44248464995735
3171.7236,65.38249454381776
3172.6782,68.56422933899981
3173.6321,70.8878220650424
3174.5854,70.45340506584205
3175.5381,71.71110997641713
3176.4902,73.06106772725195
3177.4417,73.60340853171971
3178.3926,74.98826187258294
3179.3428,73.46575649657012
3180.2924,81.33602040052708
3181.2415,80.4991808466421
3182.1899,78.60536428374328
3183.1377,84.10469635566689
3184.0848,82.39730192019555
3185.0314,82.68330499406491
3185.9773,83.86282877003765
3186.9227,84.03599561404334
3187.8674,86.9529270533833
3188.8115,85.11374377499888
3189.755,87.61856559630215
3190.6979,83.86751148356774
3191.6402,93.36069952688464
3192.5818,90.3482469776667
3193.5229,92.43027015372077
3194.4633,96.40688446937125
3195.4031,97.77820441463982
3196.3423,91.79434351547926
3197.2809,94.20541432006038
3198.2189,96.36152845861045
3199.1563,96.01279661930269
3200.0931,99.7593285266949
3201.0292,97.40123294521699
3201.9648,99.08861764170553
3202.8997,101.62158940898476
3203.834,107.45025404899268
3204.7677,105.82471634745144
3205.7008,109.34508001558058
3206.6333,104.86144770635246
3207.5652,106.82392097928866
3208.4964,112.2826003452962
3209.4271,105.63758524704295
3210.3571,109.1389740043707
3211.2865,110.13686388074542
3212.2154,111.7313510482433
3213.1436,112.22253057757183
3214.0712,113.76049642212503
3214.9982,114.89534141307155
3215.9246,117.92715724397505
3216.8503,118.85603445944577
3217.7755,118.58206242482237
3218.7001,121.90532931688313
3219.624,120.22592212658563
3220.5473,122.74392662583426
3221.4701,122.70942738427401
3222.3922,124.37250774411065
3223.3137,122.78324982045561
3224.2346,124.19173448469525
3225.1549,126.94804138038333
3226.0746,127.85224890915627
3226.9937,126.80443420316999
3227.9121,130.60467311605794
3228.83,129.6030402334092
3229.7473,134.14960883476598
3230.6639,134.1444509036403
3231.5799,132.0376370820478
3232.4954,133.22923667055986
3233.4102,139.86931764937117
3234.3244,137.0079466663842
3235.238,137.49518897080824
3236.151,138.63110844177297
3237.0634,144.1657675834562
3237.9752,142.5992275137246
3238.8864,141.28154790878722
3239.797,143.51278701886076
3240.7069,143.79300168134642
3241.6163,147.7722472985174
3242.5251,147.45057783471694
3243.4332,145.67804577656557
3244.3408,147.1047021361781
3245.2477,148.2805964688888
3246.154,151.35577685898494
3247.0598,150.73028990794776
3247.9649,154.05418070370072
3248.8694,148.77749282686435
3249.7733,152.8002683175173
3250.6766,151.92254772796326
3251.5793,153.64437008250331
3252.4814,155.06577288621293
3253.3829,155.93679210772382
3254.2838,155.70746216500987
3255.1841,158.02781591667707
3256.0838,159.09788466425667
3256.9829,158.8676981290017
3257.8814,164.2872844411864
3258.7792,162.45667014240794
3259.6765,162.02588013139072
3260.5731,165.2949376822923
3261.4692,161.8638644490114
3262.3647,162.8326804324974
3263.2595,165.60140401506084
3264.1538,167.17005195068558
3265.0474,165.28863933734124
3265.9404,167.4071796012969
3266.8329,166.72568451593514
3267.7247,168.69416418056682
3268.616,171.41262702724572
3269.5066,167.08107980108412
3270.3966,167.84952753306777
3271.286,168.1679735833717
