RamanShift,CorrectedData
30.1047,178.53430129044514
32.3739,162.0910793601488
34.6426,150.19785564450942
36.9109,138.55462673727322
39.1787,124.2113877302078
41.4461,114.36813232953445
43.7131,95.07485299936054
45.9796,85.43154106011212
48.2456,73.63818688146657
50.5112,61.09477997878578
52.7764,48.90130913104983
55.0411,36.70776250629089
57.3054,21.0141277835281
59.5692,7.5203922747029015
61.8326,-4.573456918384519
64.0955,-15.217432769137911
66.3579,-24.811502562126428
68.6199,-39.10548155976586
70.8815,-42.69893715756143
73.1426,-42.84104608725764
75.4032,-19.430558518216813
77.6634,57.43420336224909
79.9231,241.45511147810763
82.1824,637.2340371789845
84.4412,1308.272849399954
86.6995,2165.623410703751
88.9574,3009.0375705703805
91.2148,3543.9171568236147
93.4717,3798.1639671968496
95.7282,3819.7297639843105
97.9842,3795.5662714985815
100.2398,3712.7251758549505
102.4949,3646.108125213043
104.7495,3594.3167306052314
107.0036,3516.9525666028085
109.2573,3421.967171833899
111.5105,3310.612049757103
113.7632,3186.738669611347
116.0154,3061.04846752944
118.2672,2922.542847776802
120.5185,2781.5231840083684
122.7693,2655.240820653649
125.0197,2536.1470743269188
127.2696,2412.943235090048
129.519,2358.630567643433
131.7679,2308.7103125580406
134.0163,2265.133686818532
136.2642,2243.201884322464
138.5117,2212.916076316059
140.7587,2166.677411613518
143.0052,2107.737016899883
145.2512,2048.3959971934228
147.4967,1960.9554364350342
149.7417,1885.7163980816551
151.9863,1838.8299259806706
154.2304,1804.2970451222996
156.4739,1761.018762108463
158.717,1771.746065498113
160.9596,1789.9299262400127
163.2017,1805.221297565466
165.4433,1823.0711148064772
167.6844,1807.0802952428387
169.925,1760.5997379236321
172.1651,1680.330323827136
174.4047,1607.1229163256314
176.6439,1545.528361988098
178.8825,1490.8974913122845
181.1206,1458.6811193406577
183.3582,1424.7300462067099
185.5954,1401.1450574571231
187.832,1391.426924391278
190.0681,1392.3264042971073
192.3037,1369.3442405482729
194.5388,1358.3811625951748
196.7734,1359.9378861947705
199.0075,1367.865113520206
201.2411,1395.1135331452501
203.4742,1406.133819965019
205.7068,1414.7266349234947
207.9389,1431.9926249033224
210.1704,1440.282422639881
212.4015,1421.396646548622
214.632,1427.1859006421762
216.862,1421.4507747192063
219.0915,1419.0918443065177
221.3205,1425.5096707164084
223.549,1438.2048010702579
225.777,1425.1777682343518
228.0044,1409.3290906929255
230.2314,1384.6092726784398
232.4578,1351.718804330063
234.6837,1330.5581619408717
236.909,1307.627808286755
239.1339,1268.978192838021
241.3582,1248.8597519886994
243.582,1241.072909443038
245.8053,1237.668076416689
248.0281,1234.1956517145745
250.2503,1226.4060217649373
252.472,1232.9995606540629
254.6932,1225.0766302041775
256.9139,1227.987579907512
259.134,1225.482747005533
261.3536,1253.562456459829
263.5727,1281.727020977164
265.7912,1319.0267407286767
268.0092,1382.611903068237
270.2267,1448.0827821594476
272.4436,1511.4896383397938
274.6601,1526.9327174659334
276.8759,1550.3122502796277
279.0913,1568.4784522533132
281.3061,1557.0315233563024
283.5204,1601.6216478731249
285.7341,1612.5489945179945
287.9473,1640.2137159889107
290.16,1621.2659488583822
292.3721,1570.205813296782
294.5837,1500.0334132618254
296.7947,1457.64883700917
299.0052,1435.4021577941385
301.2152,1392.7934342955673
303.4246,1379.2227108382704
305.6334,1352.9900178191288
307.8418,1343.345371842797
310.0495,1300.6887759840292
312.2568,1254.920219884126
314.4635,1196.2896801775023
316.6696,1107.7471209493708
318.8752,1037.292494322047
321.0802,999.0757413403785
323.2847,983.5967926762869
325.4887,990.3555690109376
327.692,995.3519811895294
329.8949,1047.6859301537038
332.0972,1080.9573068915845
334.2989,1113.0659919144337
336.5001,1118.5618549239427
338.7007,1081.5947544911428
340.9008,1012.6645380014472
343.1003,917.7710420243232
345.2992,860.3640930025929
347.4976,804.6935082013679
349.6955,761.8590962821204
351.8927,743.460657859388
354.0895,691.0979859291178
356.2856,690.1208660526531
358.4812,656.5790768803543
360.6763,659.822390161376
362.8707,634.8505710790814
365.0646,633.013378218611
367.258,623.5105638165994
369.4508,642.5918737795491
371.643,682.8570477788573
373.8346,700.705819060003
376.0257,739.5379140398945
378.2162,768.8030521283822
380.4062,779.2509453399389
382.5956,745.8312980010071
384.7844,693.64380664552
386.9726,643.2381603490978
389.1603,592.1140412509235
391.3474,567.8211250578001
393.5339,571.8590815553914
395.7199,566.4775748511506
397.9052,591.7262633339408
400.09,640.50479972785
402.2743,695.9128308397032
404.4579,727.5999970712799
406.641,781.6659318652314
408.8235,829.4602613882091
411.0054,878.682603990206
413.1868,935.8325697266132
415.3675,986.8097598659972
417.5477,973.7137663185995
419.7273,907.5441711265639
421.9064,823.0005465949
424.0848,748.3324559531725
426.2627,670.3394542009437
428.4399,587.5210888544507
430.6166,507.22690072653495
432.7928,438.40642475482946
434.9683,395.1591908046969
437.1432,368.8347243574374
439.3176,339.0325469427594
441.4914,319.95217640202463
443.6645,313.59312718626984
445.8371,294.75491054701047
448.0091,301.6370345998321
450.1806,298.0390045127706
452.3514,271.56032243749405
454.5216,289.75048754528007
456.6913,275.20899629180553
458.8603,279.98534223524325
461.0288,299.82901618167716
463.1967,290.78950613733855
465.3639,285.3662971101696
467.5306,271.6588712002176
469.6967,257.816707653868
471.8622,250.33928300091725
474.0271,239.07607119299723
476.1914,230.37654367834784
478.3551,236.19016951444837
480.5182,229.56641545501407
482.6807,224.65474589185897
484.8426,254.6546229211342
487.0039,297.96550639244333
489.1647,365.53685360884515
491.3248,417.0181188937438
493.4843,429.05875291517486
495.6432,425.9582021709955
497.8015,389.9659088684741
499.9592,322.8313109552971
502.1163,246.05384247949223
504.2728,207.53293426077425
506.4287,175.918014658321
508.5839,160.95850995598084
510.7386,140.75384467842332
512.8927,154.10344174073225
515.0461,162.45672265045368
517.199,171.66310737409958
519.3512,228.07201425361563
521.5029,319.53285991431903
523.6539,389.19505870080707
525.8043,409.1580217623491
527.9541,337.92115635626556
530.1033,243.28386564829566
532.2519,185.7955494249693
534.3999,150.10560503997795
536.5472,134.36342798905753
538.694,143.46841226688844
540.8401,145.96995052451712
542.9856,182.21743397830664
545.1305,199.76025238492207
547.2748,207.147793678854
549.4185,218.52944379699147
551.5615,222.1045866047457
553.704,251.12260378223505
555.8458,269.93287478853176
557.987,301.63477657148246
560.1276,348.1276833796053
562.2675,405.9609664450711
564.4069,494.83399351877415
566.5456,553.4961282920001
568.6837,523.1467295076948
570.8212,430.48515037384436
572.958,331.1107388669675
575.0942,245.7228386587326
577.2299,193.1207901097016
579.3648,171.5039311232092
581.4992,156.97159767138214
583.6329,160.32312401130935
585.766,195.25784283036228
587.8985,253.3750852126832
590.0304,308.62418028983643
592.1616,361.90445465963626
594.2922,366.86523183365534
596.4222,332.6558317044228
598.5515,245.87557049581665
600.6802,180.62376110515652
602.8083,122.99971397100717
604.9358,105.75273772569562
607.0626,99.98213977155342
609.1888,107.03722645338394
611.3144,151.9673031161717
613.4393,189.1716740345289
615.5636,248.34964196339638
617.6873,320.20050776599965
619.8103,363.8735698220685
621.9327,358.8681233093298
624.0544,328.9834597667732
626.1756,261.3688671447085
628.2961,192.02363010361182
630.4159,156.8970306902711
632.5351,132.63834903123916
634.6537,135.44686368409953
636.7716,132.821851880052
638.8889,129.61258949582952
641.0056,140.96835107994502
643.1216,139.88840988478682
645.237,169.92203775305939
647.3518,134.86850512858382
649.4659,109.32708075596179
651.5793,79.7470320311104
653.6922,72.22762525667622
655.8043,40.2681259378362
657.9159,41.417798857492016
660.0268,17.425908395864326
662.137,25.091718518995776
664.2466,18.764493018671146
666.3556,19.993495435758405
668.4639,18.327989123481302
670.5716,13.617237235129323
672.6786,-3.8894972592870545
674.785,-8.89295152592831
676.8907,-6.743823874878672
678.9958,-3.392723775634977
681.1002,-7.140193326896451
683.204,-7.236740734052546
685.3072,-9.18280287196285
687.4097,-12.928744320447777
689.5115,-5.9748379231277795
691.6127,-8.621227365470304
693.7132,-3.2679966443124613
695.8131,-8.165143630430748
697.9123,10.387366452684546
700.0109,15.139649951327328
702.1089,21.34182310791857
704.2061,41.04400201348267
706.3028,75.44630254562776
708.3987,100.14884017152258
710.4941,113.25172960387181
712.5887,124.0550845538935
714.6827,131.25901760028773
716.7761,127.01364008120436
718.8688,111.71906202220543
720.9608,107.02539217871595
723.0522,135.18273818897092
725.1429,143.89120662095138
727.233,202.60090269081206
729.3224,274.3619301757958
731.4112,359.3243908271388
733.4993,386.68838365245847
735.5867,330.05400406612875
737.6735,234.47134361563963
739.7596,158.34049054794173
741.845,115.71153076527207
743.9298,92.134548586464
746.014,109.05962717323564
748.0974,107.48684876596121
750.1802,121.71629451441822
752.2624,103.24804449351655
754.3439,104.43217756100512
756.4247,101.81877154215249
758.5048,109.1079032179066
760.5843,137.99964835102764
762.6631,173.34408161319698
764.7413,242.8912762961006
766.8188,344.2913039579835
768.8956,463.79423372817837
770.9718,536.9001312931075
773.0473,523.5090577012509
775.1221,471.671068632088
777.1962,455.13621453000746
779.2697,517.6045411226878
781.3426,663.9260895864463
783.4147,757.8008959215545
785.4862,767.8789894890249
787.557,658.1603920718612
789.6271,500.995117774278
791.6966,329.13317411888715
793.7654,202.1245636183503
795.8335,129.41928549399927
797.901,87.91733694592062
799.9678,66.46871388000864
802.0339,90.62341132298639
804.0993,85.28142363688994
806.1641,80.19274427752157
808.2282,69.30736584787064
810.2916,51.82528014899958
812.3544,29.996478288898288
814.4164,17.420950857304206
816.4778,41.39868814399142
818.5385,41.379680264524495
820.5986,93.81391692048237
822.658,156.2013873996475
824.7166,227.59208005166374
826.7747,349.6859816641613
828.832,451.9330767488509
830.8886,537.9333463205835
832.9446,571.93676687488
834.9999,535.7933095279291
837.0545,461.0029396765501
839.1085,341.71561735963223
841.1618,239.53129800603438
843.2143,172.69993362746095
845.2662,135.82147384030372
847.3175,121.04586653395609
849.368,102.323058239597
851.4179,96.35299427794666
853.467,93.23561894649674
855.5155,108.72087557920804
857.5633,120.35870657768692
859.6105,109.09905325633008
861.6569,96.99185572594934
863.7027,88.33705300636689
865.7478,69.28458314748741
867.7922,50.384383315845525
869.8359,41.886389985131245
871.8789,39.09053912518971
873.9212,44.246766287004675
875.9629,63.65500663065336
878.0039,70.86519487374699
880.0441,87.72726509734662
882.0837,113.19115067386315
884.1226,149.00678409843476
886.1609,191.3740967342885
888.1984,265.493018454584
890.2352,319.51347721874095
892.2714,346.03539833124864
894.3069,297.7087039014623
896.3416,242.2333125783839
898.3757,189.10914003392895
900.4091,160.03609951767976
902.4418,161.86410238812823
904.4739,188.09305840340585
906.5052,219.522875703002
908.5358,223.30346054547704
910.5658,199.28471699416264
912.595,155.7165468793571
914.6236,107.8488500385115
916.6515,76.63152475191237
918.6786,52.2144682213584
920.7051,43.99757688233399
922.7309,49.38074664817918
924.756,42.96387299225921
926.7804,57.04685089413192
928.8041,72.92957490371646
930.8272,109.76193900046474
932.8495,112.69383643453352
934.8711,121.9251593584604
936.892,122.0057987978455
938.9123,155.33564455903706
940.9318,197.41458522832727
942.9506,220.44250783865186
944.9688,221.61929744880194
946.9862,180.94483691314417
949.003,153.41900686985173
951.019,107.04168614765035
953.0344,91.31275204107669
955.0491,83.1320807742502
957.063,58.14954765816401
959.0763,56.06502717249214
961.0888,73.62839321541287
963.1007,70.23951912445546
965.1119,53.44827750086483
967.1223,55.15454024349128
969.1321,51.60817871670179
971.1412,47.409063733319954
973.1495,40.05706559008786
975.1572,31.65205410965791
977.1641,47.24389871411199
979.1704,48.13246850901169
981.1759,51.01763212748074
983.1808,41.299257721319464
985.1849,36.377212932151224
987.1884,29.151364988608975
989.1911,46.82158075555367
991.1932,54.08772680633274
993.1945,62.64966924607825
995.1951,58.75727363904571
997.1951,62.06040492299485
999.1943,50.0589274481124
1001.1928,53.252704943980916
1003.1906,68.7916006395958
1005.1877,98.52547723142516
1007.1841,122.05419672802213
1009.1798,161.12762015268595
1011.1748,153.79560730817389
1013.1691,115.20801638596845
1015.1627,81.31470403959565
1017.1556,53.41552577050311
1019.1477,19.76033626699109
1021.1392,6.248989683205082
1023.1299,-5.418660024312658
1025.12,-1.7427589615087982
1027.1093,16.576546819857185
1029.0979,40.78911128545337
1031.0859,52.89478823518448
1033.0731,77.34343106106371
1035.0596,91.98489262615772
1037.0454,79.66902502009862
1039.0304,63.3456794126696
1041.0148,30.71470617696309
1042.9985,8.425955052616246
1044.9814,8.879275472119161
1046.9636,-6.325483216297243
1048.9452,3.5115282468059377
1050.926,28.04015918412415
1052.9061,60.46025888323629
1054.8855,69.821676351321
1056.8642,63.67425999095417
1058.8421,67.46785750649565
1060.8194,62.55231596556291
1062.7959,65.72748176109644
1064.7717,63.79320066051355
1066.7469,61.04931777395791
1068.7213,72.99567757364116
1070.695,91.38212392128185
1072.6679,115.80849994864366
1074.6402,145.87464787366866
1076.6117,156.13040875621596
1078.5826,143.7256221973969
1080.5527,92.71012623702018
1082.5221,54.63375747763871
1084.4908,18.79635159470422
1086.4587,-4.452256282667804
1088.426,4.03776878667486
1090.3925,-3.183738211591617
1092.3584,14.233057667831417
1094.3235,11.837991402080661
1096.2879,30.580897825963575
1098.2515,66.51161165590736
1100.2145,114.42996730253049
1102.1767,147.58579851133675
1104.1382,202.42893788352956
1106.099,264.75921654445665
1108.0591,331.5764635951763
1110.0185,382.0305054891551
1111.9771,429.8211653640951
1113.9351,503.8982625373941
1115.8923,561.3616120282372
1117.8488,636.2610238168281
1119.8045,567.9963022697542
1121.7596,461.2172453909934
1123.7139,315.2736455045616
1125.6675,247.8152903223022
1127.6204,246.84196440332335
1129.5726,266.7034498285809
1131.524,275.299526210611
1133.4748,230.7299704949155
1135.4248,162.19455687400182
1137.3741,88.1930572330782
1139.3226,51.87524183540643
1141.2705,49.59088006231957
1143.2176,54.989740776398094
1145.164,81.42159234431426
1147.1097,94.68620258284454
1149.0546,67.6833384945486
1150.9989,38.51276613512539
1152.9424,15.874250883440709
1154.8852,-14.582442266766975
1156.8272,-15.957548480502055
1158.7686,-21.8011572441701
1160.7092,-17.4131986282689
1162.6491,-10.39338490973546
1164.5883,2.7587455923465996
1166.5267,26.09375838880794
1168.4644,60.61221896289271
1170.4014,97.46469253690668
1172.3377,140.6017437270349
1174.2732,208.87393617481507
1176.2081,312.531832115769
1178.1421,481.27599169667917
1180.0755,635.0569719390094
1182.0082,731.3253250514649
1183.9401,717.4815968921816
1185.8713,596.8263260060422
1187.8017,447.11004376311473
1189.7315,300.2332755652028
1191.6605,186.79654234301086
1193.5888,142.75036202491037
1195.5163,96.99525067130844
1197.4432,61.83172291510823
1199.3693,42.51029241926153
1201.2947,36.73147222840396
1203.2193,17.54577496206764
1205.1432,20.003712872471056
1207.0664,12.255798036375495
1208.9889,12.502542330504866
1210.9106,14.344457509024892
1212.8316,24.18205520107665
1214.7519,37.66584689235708
1216.6715,44.39634382674376
1218.5903,64.87405687145633
1220.5084,91.599496449752
1222.4257,103.9231723361479
1224.3424,113.5955933891671
1226.2583,141.71726742810222
1228.1735,177.68870113628952
1230.0879,216.5603997798928
1232.0016,274.93286684818963
1233.9146,317.6566036648542
1235.8269,344.33210880423167
1237.7384,346.8598776641022
1239.6492,343.3904021989256
1241.5592,364.07417089456305
1243.4686,407.9116688029726
1245.3772,512.5033773353698
1247.285,621.2497738238543
1249.1922,717.9013304754917
1251.0986,804.2585132848506
1253.0042,908.5217810674861
1254.9092,1005.7915845963688
1256.8134,1119.8683655592517
1258.7169,1242.6025555859721
1260.6196,1319.1945751076846
1262.5216,1364.044832129519
1264.4229,1351.0037214646582
1266.3234,1305.971624285839
1268.2232,1252.898908255758
1270.1223,1170.6359279773994
1272.0207,1114.1330255247583
1273.9183,1094.4905312654698
1275.8151,1107.0587644258403
1277.7113,1137.2880332872703
1279.6067,1241.2786350605738
1281.5014,1412.5308555836848
1283.3953,1660.9949682817517
1285.2885,1912.271232454615
1287.181,2122.5098907921665
1289.0727,2191.111166861586
1290.9637,2127.8752630049544
1292.854,1994.402359653242
1294.7435,1832.342615958667
1296.6323,1664.2461711294238
1298.5204,1531.3631460502827
1300.4077,1420.1936449635512
1302.2943,1359.287756797907
1304.1802,1319.345556280091
1306.0653,1254.167104543968
1307.9497,1213.552449529946
1309.8333,1194.3516266367633
1311.7162,1154.514659127633
1313.5984,1112.091558322254
1315.4798,1092.7823239951786
1317.3605,1106.2869448000426
1319.2405,1116.1553984626612
1321.1197,1113.9876516459785
1322.9982,1058.7336598513857
1324.876,971.1933674403986
1326.753,850.0167081871964
1328.6293,752.6036061540251
1330.5048,636.103976902964
1332.3796,531.2677284700562
1334.2537,454.29476253030634
1336.127,395.9849754460413
1337.9996,368.03825903664006
1339.8714,333.25450116163336
1341.7426,294.3335860001682
1343.6129,284.42539439884786
1345.4826,265.12980426093986
1347.3515,252.49669064545765
1349.2196,237.52592596011834
1351.087,236.66738008767106
1352.9537,219.1209205356065
1354.8197,231.63641244474172
1356.6849,242.16371876468588
1358.5493,254.7527001286836
1360.4131,295.8532147483437
1362.276,341.1651182877474
1364.1383,396.1882634524452
1365.9998,411.27249953633634
1367.8606,392.4176718714382
1369.7206,395.07362167704287
1371.5799,399.1901862482674
1373.4384,396.317198929493
1375.2962,367.3544890731996
1377.1533,289.00188206869564
1379.0096,239.9591996317456
1380.8652,191.77626058809494
1382.7201,162.40288136389825
1384.5742,124.93887646754774
1386.4275,103.18405878340764
1388.2802,79.88823994645327
1390.132,58.40123055982019
1391.9832,66.02284042776216
1393.8336,54.85287877051951
1395.6832,51.69115414810574
1397.5322,32.03747457200552
1399.3803,33.89164753679199
1401.2278,9.753480216664343
1403.0745,11.622779446905383
1404.9204,-3.1006480347363095
1406.7656,-5.216995606740397
1408.6101,-9.976425672113237
1410.4538,-7.729048516074613
1412.2968,-0.7248747593525877
1414.139,4.836162190519531
1415.9805,15.504136167507
1417.8213,28.079120957213718
1419.6613,54.16119019020198
1421.5006,89.50041721624359
1423.3391,136.24687484349795
1425.1769,202.25063498512122
1427.0139,300.96176819180073
1428.8502,411.0303429917178
1430.6858,505.2064249034365
1432.5206,545.4400753352179
1434.3547,533.3813506432585
1436.188,506.23030172935546
1438.0206,487.5369741614919
1439.8524,478.50140844534894
1441.6835,485.9736402112378
1443.5139,482.7037003044568
1445.3435,491.59161471056836
1447.1724,503.737404588098
1449.0005,490.2410861796551
1450.8279,477.45267069047475
1452.6545,487.02216442338204
1454.4804,482.59956890667536
1456.3056,472.3348807984328
1458.13,451.3280919307367
1459.9536,412.0791894123205
1461.7766,381.0381558386374
1463.5987,336.7549696843487
1465.4202,299.52960561373493
1467.2409,245.21203492352709
1469.0608,210.5022259151599
1470.88,166.15014443794837
1472.6984,128.80575423618495
1474.5161,103.76901739266054
1476.3331,92.43989470210965
1478.1493,86.91834592157693
1479.9648,77.20432988370908
1481.7795,79.74780455196947
1483.5935,82.24872711777834
1485.4067,81.15705397507804
1487.2192,89.12274069532373
1489.031,91.99574203840109
1490.842,98.77601187296864
1492.6522,97.01350314772787
1494.4618,91.10816782362042
1496.2705,87.25995689145316
1498.0785,89.41882043095188
1499.8858,80.38470764924307
1501.6924,73.45756685926585
1503.4981,71.7373455701121
1505.3032,69.92399055629846
1507.1075,66.86744787496878
1508.911,51.81766288402639
1510.7138,51.324580272701496
1512.5159,47.738144212047814
1514.3172,41.45829835987331
1516.1178,32.434985896605326
1517.9176,29.268149588088363
1519.7166,30.557731875817353
1521.515,16.203674908605876
1523.3126,21.00592052969091
1525.1094,6.664410420273043
1526.9055,10.179086051493755
1528.7008,14.599888827851146
1530.4954,10.226760052052555
1532.2893,11.559640880806342
1534.0824,7.348472368553644
1535.8747,9.393195454138663
1537.6663,12.043751002921681
1539.4572,15.700079786330662
1541.2473,15.712122455356166
1543.0367,20.479819503988324
1544.8253,17.603111269096303
1546.6132,35.23193788275148
1548.4003,23.666239300994334
1550.1867,45.90595512754635
1551.9723,54.201024729466894
1553.7572,72.65138701475564
1555.5414,105.85698034940219
1557.3247,145.41774237288303
1559.1074,184.7836096661049
1560.8893,240.05451735579743
1562.6705,293.6303987208546
1564.4509,332.16118463962493
1566.2305,334.49680305415336
1568.0094,351.4371785848738
1569.7876,347.4822325072522
1571.565,353.131882582383
1573.3417,345.28604309653895
1575.1176,363.0446248046735
1576.8928,386.1575350088808
1578.6672,415.17467738080927
1580.4409,445.44595173053165
1582.2138,496.0712537163748
1583.986,544.950474542206
1585.7575,613.0335004511804
1587.5282,654.3202122369491
1589.2981,688.3604845628277
1591.0673,719.4041855489297
1592.8358,729.7511764317651
1594.6035,728.5513112538016
1596.3704,714.7044367599955
1598.1366,693.6603924097901
1599.9021,651.5190105155849
1601.6668,630.2801164531747
1603.4308,603.6935290831653
1605.194,608.7590609633613
1606.9564,639.0765186146318
1608.7182,707.1957024702562
1610.4791,816.0164065727482
1612.2394,942.388417892665
1613.9988,1087.6115152404004
1615.7576,1207.435468002463
1617.5156,1256.7100346892485
1619.2728,1226.5349617367956
1621.0293,1126.209983014045
1622.785,989.2348201245875
1624.54,825.2591834099126
1626.2942,678.9327733191637
1628.0477,544.1552820488914
1629.8005,451.57639500631933
1631.5525,365.4457921571179
1633.3037,297.0631489511941
1635.0542,250.87813718399667
1636.804,210.84042568034334
1638.553,173.8496807562708
1640.3013,158.25556661941164
1642.0488,145.20774573890208
1643.7955,111.75587900132342
1645.5416,106.39962584117939
1647.2868,99.13864457541541
1649.0313,90.57259245698151
1650.7751,87.40112574744074
1652.5181,88.42389980263135
1654.2604,91.64056910437967
1656.0019,93.90078725027394
1657.7427,106.05420692149613
1659.4828,138.4504798602211
1661.222,182.8892567480816
1662.9606,227.6201868822056
1664.6984,268.14291773082897
1666.4354,287.50709448598593
1668.1717,260.91235965828207
1669.9072,220.4083528832519
1671.642,168.1947111873065
1673.3761,119.12106939277396
1675.1094,82.88706064003503
1676.8419,59.49231687826011
1678.5737,38.83646922774926
1680.3048,36.219148213879805
1682.0351,26.839983973664403
1683.7646,16.09860628192473
1685.4934,17.0446446450826
1687.2215,12.627728408574
1688.9488,3.1974867473885524
1690.6754,-1.4464512897610007
1692.4012,3.3455433138635158
1694.1263,-0.5768859749512103
1695.8506,-0.41409572287369656
1697.5742,9.133563266518195
1699.297,5.615744326462902
1701.0191,-2.367899301137072
1702.7404,-2.217714430536148
1704.461,-5.2340242206752805
1706.1808,-4.067129675528122
1707.8999,-5.217279511166566
1709.6182,-3.4846818130371275
1711.3358,-5.019492545964113
1713.0527,-0.02183286280046559
1714.7688,-2.891773771668852
1716.4841,-1.7793860625817501
1718.1987,-4.5847116367319245
1719.9126,-0.5577746192457766
1721.6257,-4.048553333980124
1723.338,2.342979467375926
1725.0496,0.8668914781811736
1726.7605,0.5732503683645405
1728.4706,-1.0878762008135823
1730.18,-0.9164205738252917
1731.8886,5.5876957727403465
1733.5964,6.074560517335442
1735.3036,-2.00573871746451
1737.0099,3.3968856301703454
1738.7156,4.332541159399625
1740.4204,5.60133543541383
1742.1246,2.1033759800782263
1743.8279,9.588770259244939
1745.5306,12.557625717733004
1747.2325,5.860049704473113
1748.9336,13.496149442819899
1750.634,3.666032097527193
1752.3336,11.369804698387384
1754.0325,12.457574238532857
1755.7307,12.829447597398087
1757.4281,12.485531529841865
1759.1247,16.825932662428727
1760.8206,13.30075749686813
1762.5158,14.060112366610326
1764.2102,16.35410347209813
1765.9039,16.58283687317305
1767.5968,20.196418466135924
1769.289,20.444953981459378
1770.9804,17.42854894765196
1772.6711,15.997308688772648
1774.361,21.65133835459534
1776.0502,28.240742934921116
1777.7386,17.215627203037684
1779.4263,19.72609564982548
1781.1132,26.572252594008717
1782.7994,29.204202157051043
1784.4849,24.622048194693434
1786.1696,28.12589427063523
1787.8535,28.91584370235529
1789.5367,28.841999526073607
1791.2192,30.654464488852057
1792.9009,31.40334104933231
1794.5818,31.738731359611734
1796.2621,35.46073725775477
1797.9415,26.969460264438453
1799.6202,27.215001545732378
1801.2982,32.59746199801191
1802.9755,28.416942245502412
1804.6519,33.923542586454744
1806.3277,33.26736303495028
1808.0027,31.348503265835177
1809.6769,27.16706262128224
1811.3504,35.7231401299793
1813.0231,33.21683454894389
1814.6951,32.1982442779622
1816.3664,34.8674673846524
1818.0369,36.57460161464991
1819.7067,31.71974436491604
1821.3757,34.10299266666618
1823.044,37.024443233918305
1824.7115,35.63419243966064
1826.3783,39.532336286637076
1828.0443,39.868970421249685
1829.7096,29.44419009457698
1831.3741,36.55809015900803
1833.0379,37.61076517249006
1834.701,39.602309327389435
1836.3633,42.08281643996517
1838.0248,35.852379930453054
1839.6856,35.311092798261
1841.3457,41.70904768427309
1843.005,41.196336876262535
1844.6636,42.92305224491241
1846.3214,44.73928524894231
1847.9785,45.34512691784141
1849.6349,37.1906678337063
1851.2904,41.225998125182144
1852.9453,43.60120754900771
1854.5994,41.066385449661766
1856.2528,44.4216207356113
1857.9054,47.26700190465942
1859.5572,37.852617010393374
1861.2083,45.37855363373029
1862.8587,48.14489897706116
1864.5084,51.75173978899173
1866.1572,39.4491623366784
1867.8054,45.037252369760495
1869.4528,49.91609524338574
1871.0994,43.73577586232943
1872.7453,45.5463786322058
1874.3905,41.44798752127167
1876.0349,46.94068604232021
1877.6786,55.82455729366487
1879.3215,50.34968390421227
1880.9637,52.76614794462364
1882.6051,45.8740309820634
1884.2458,45.92341405603449
1885.8858,43.56437774729977
1887.525,44.59700217738791
1889.1634,44.82136703218413
1890.8011,47.53755155160346
1892.4381,42.5956345273475
1894.0743,41.395694275742386
1895.7098,44.03780868715802
1897.3446,44.37205523800736
1898.9786,49.94851096432566
1900.6118,46.917252458427356
1902.2443,47.82835581314208
1903.8761,43.83189665212683
1905.5071,48.27795012075521
1907.1374,43.16659092608188
1908.7669,48.19789329238213
1910.3957,43.57193101226542
1912.0237,48.88877739636223
1913.651,47.1485053195841
1915.2776,40.85118716795472
1916.9034,47.14689485601309
1918.5285,44.985699889786304
1920.1528,46.517673303832765
1921.7764,49.24288568285394
1923.3992,45.111407146374574
1925.0213,41.873307321490586
1926.6427,49.47865538418421
1928.2633,41.777520091704616
1929.8832,45.61996970651447
1931.5023,45.2060720733013
1933.1207,46.335894580553
1934.7383,42.709504164696796
1936.3552,39.426967298801
1937.9714,37.238350028838994
1939.5868,46.143718006514575
1941.2015,44.593136511148174
1942.8154,43.13667036062313
1944.4286,44.22438392689159
1946.041,39.956341150539004
1947.6528,41.33260552990703
1949.2637,40.353240163773904
1950.8739,38.76830773759204
1952.4834,41.32787053328147
1954.0921,45.43199044507918
1955.7001,41.38072895394362
1957.3074,39.12414708651352
1958.9139,43.71230545562051
1960.5197,43.5952642828548
1962.1247,38.673083352683676
1963.729,41.29582201362197
1965.3325,39.563539227453475
1966.9353,35.77629354300399
1968.5374,44.934143113464074
1970.1387,42.63714573426151
1971.7393,33.88535875148281
1973.3392,37.478839084843145
1974.9383,33.61764331520433
1976.5366,35.101827648639755
1978.1342,35.381447955046355
1979.7311,39.50655975330287
1981.3273,35.47721820847366
1982.9227,40.49347809055752
1984.5173,41.65539381478118
1986.1112,38.513019391436615
1987.7044,35.066408414262156
1989.2968,35.96561409186586
1990.8885,33.06068928219187
1992.4795,43.75168648352829
1994.0697,39.238657863556455
1995.6592,38.37165515244101
1997.2479,35.550729687959944
1998.8359,36.22593242417494
2000.4232,35.14731395964046
2002.0097,38.41492453065189
2003.5955,29.778814022031526
2005.1805,35.68903193445257
2006.7648,34.99562747080009
2008.3484,34.1486494770688
2009.9312,39.94814644929744
2011.5133,32.9941665420383
2013.0946,37.836757510362304
2014.6752,32.27596677939883
2016.2551,34.66184139590959
2017.8342,38.29442808389655
2019.4126,36.32377322074336
2020.9902,37.14992280088944
2022.5672,34.52292245553667
2024.1433,33.24281744438778
2025.7188,33.409652681916526
2027.2935,31.823472750168463
2028.8674,35.83432189709285
2030.4406,31.89224405240418
2032.0131,39.79728278747379
2033.5849,28.399481354750662
2035.1559,33.74888260871086
2036.7261,31.09552911983576
2038.2957,38.289463121117876
2039.8645,32.33072653459462
2041.4325,26.719360899408798
2042.9998,29.25540743139615
2044.5664,31.988907079198782
2046.1323,32.21990049890488
2047.6974,34.498428026713555
2049.2617,32.37452967662483
2050.8254,33.34824511765453
2052.3883,37.61961369507324
2053.9504,34.88867442066913
2055.5118,31.105465930034512
2057.0725,33.520026509874924
2058.6325,31.882394135841366
2060.1917,30.042606448384674
2061.7502,35.1507007691319
2063.3079,32.30671411928404
2064.8649,32.51068316853508
2066.4212,32.91264426351205
2067.9767,29.762633425734947
2069.5315,34.76068634759753
2071.0856,28.106838423867032
2072.6389,32.70112470170406
2074.1915,31.7435799472008
2075.7433,35.1842385994384
2077.2945,28.9231347800623
2078.8448,26.81030225887568
2080.3945,34.24577451645041
2081.9434,32.629584765255544
2083.4916,28.611765875302524
2085.039,31.692350390306814
2086.5857,27.77137056786634
2088.1317,28.948858348655506
2089.677,27.874845395635248
2091.2215,27.149363082278143
2092.7652,33.622442503308235
2094.3083,29.694114481955978
2095.8506,29.56440950522756
2097.3921,28.883357763188116
2098.933,31.05098915025897
2100.4731,35.617333272027935
2102.0124,32.88241942357291
2103.5511,31.2462765437985
2105.089,28.90893324278511
2106.6261,29.07041781815056
2108.1626,32.580758278423474
2109.6983,26.289982341428384
2111.2332,36.69811739918222
2112.7675,33.955190580802395
2114.301,31.361228648425197
2115.8337,28.166258024635255
2117.3657,28.12030481840503
2118.897,26.523394857044536
2120.4276,31.22555368666059
2121.9575,29.526806588126107
2123.4866,33.877178530058586
2125.0149,30.476694185807474
2126.5426,25.8753778899503
2128.0695,27.47325367229803
2129.5956,26.52034530390759
2131.1211,25.516676281103685
2132.6458,37.06226983500753
2134.1698,29.707148941573706
2135.693,29.201336206134158
2137.2155,24.34485393694939
2138.7373,30.387724150266706
2140.2584,28.22996861888481
2141.7787,26.72160881172539
2143.2983,30.912665915410543
2144.8171,29.453160849346233
2146.3353,26.89311422381195
2147.8527,30.682546354555626
2149.3693,29.221477288394283
2150.8853,28.709926765319466
2152.4005,27.69791423310815
2153.9149,30.13545885243809
2155.4287,30.822579507008214
2156.9417,26.859294779162724
2158.454,26.445622943020226
2159.9655,27.831582004106224
2161.4764,26.76718970349006
2162.9865,26.502463503925355
2164.4958,29.837420600494056
2166.0045,26.772077923253647
2167.5124,28.856452103887477
2169.0195,24.340559506358204
2170.526,26.124416206064154
2172.0317,28.75803803499818
2173.5367,32.54144056390888
2175.0409,21.624639075964694
2176.5445,27.257648528919475
2178.0473,22.940483664280947
2179.5494,24.473158950980178
2181.0507,25.255688628543624
2182.5513,28.13808669176612
2184.0512,28.57036688288568
2185.5504,24.752542662759453
2187.0488,26.284627206541046
2188.5465,25.366633441858767
2190.0435,21.14857403349461
2191.5397,18.330461392564303
2193.0353,22.31230771869778
2194.5301,22.04412502822035
2196.0241,21.27592511433437
2197.5175,20.607719549801033
2199.0101,24.93951969462222
2200.502,19.271336702722834
2201.9931,21.95318147863256
2203.4835,19.985064734167764
2204.9733,21.16699696161311
2206.4622,27.948988453402706
2207.9505,22.931049290300706
2209.438,21.51318927358139
2210.9248,19.49541797520851
2212.4109,22.777744752014087
2213.8962,22.11017876587593
2215.3809,23.192728950894548
2216.8648,21.625404020068828
2218.3479,18.80821245447038
2219.8304,18.941162518916798
2221.3121,17.2242622901436
2222.7931,15.757519655474596
2224.2733,14.690942329990946
2225.7529,17.874537871198754
2227.2317,16.608313689694654
2228.7098,16.492277017329968
2230.1872,18.476434919872815
2231.6638,13.710794298168679
2233.1397,17.19536186829859
2234.6149,13.63014420923568
2236.0894,15.915147727999425
2237.5632,14.300378695308012
2239.0362,17.385843222728596
2240.5085,21.121547278824295
2241.9801,14.157496658299976
2243.4509,20.743696944644995
2244.921,15.38015357977386
2246.3904,12.416871798164266
2247.8591,13.953856680492436
2249.3271,12.241113183266236
2250.7943,15.17864612345491
2252.2608,12.76646019561673
2253.7266,13.20455994252356
2255.1917,12.192949779283026
2256.656,11.831633988957236
2258.1197,14.820616732678673
2259.5826,14.509902053263716
2261.0447,13.49949384532269
2262.5062,15.0393958583671
2263.9669,15.729611706913403
2265.4269,10.720144855084385
2266.8862,11.260998609706775
2268.3448,12.952176170406034
2269.8026,15.943680624197498
2271.2598,14.885514928574963
2272.7162,13.827681881595367
2274.1719,10.670184132460662
2275.6268,12.413024192096117
2277.0811,7.156204464725221
2278.5346,11.34972723044146
2279.9874,13.093594697776354
2281.4395,9.687808961764148
2282.8908,8.282371986503392
2284.3414,11.777285639214455
2285.7914,9.622551704294267
2287.2406,12.918171848367194
2288.689,18.114147641832005
2290.1368,12.360480525906269
2291.5838,13.157171760666216
2293.0302,11.404222482583492
2294.4758,5.151633696557951
2295.9206,10.899406293447441
2297.3648,7.747541112593439
2298.8082,13.546038884343659
2300.251,5.944900261570297
2301.693,10.094125761685376
2303.1343,13.34371584265179
2304.5748,10.04367086149108
2306.0147,14.993991041787666
2307.4538,11.594676506689353
2308.8922,13.695727229404014
2310.3299,10.847143067192846
2311.7669,10.448923740359845
2313.2031,9.151068860737638
2314.6387,13.803577935669537
2316.0735,9.306450380988252
2317.5076,12.859685474490817
2318.941,7.263282400909844
2320.3737,9.417240216381188
2321.8056,11.62155790440795
2323.2369,8.426234354320982
2324.6674,16.131268339235504
2326.0972,16.83665854800455
2327.5263,14.492403508168437
2328.9547,24.248501578901084
2330.3823,20.55495097445238
2331.8092,17.41174966658724
2333.2355,9.06889542152122
2334.661,11.5263858313524
2336.0858,12.884218397490102
2337.5098,9.392390506079707
2338.9332,11.050899414424478
2340.3558,7.759742285903826
2341.7778,5.318916173388132
2343.199,9.628418052150494
2344.6195,9.288244844274928
2346.0393,6.648393375561341
2347.4583,12.558860378927292
2348.8767,8.219642520806389
2350.2943,8.430736342043687
2351.7113,8.942138301287926
2353.1275,8.15384477288056
2354.543,5.465852041741741
2355.9578,8.078156311253153
2357.3718,7.1907537301380415
2358.7852,4.903640366338166
2360.1978,7.166812215887774
2361.6098,7.180265225784723
2363.021,6.543995271358796
2364.4315,9.657998156137182
2365.8413,10.822269618207159
2367.2504,9.936805299076113
2368.6587,8.751600732028777
2370.0664,9.766651350981846
2371.4733,11.2319525023361
2372.8795,7.997499434825897
2374.285,7.71328728486607
2375.6899,8.129311108896488
2377.0939,3.295565886224196
2378.4973,5.512046514863215
2379.9,7.228747859871987
2381.3019,8.345664731188478
2382.7032,10.862791866463226
2384.1037,1.7801239198900873
2385.5035,1.597655437035101
2386.9027,6.015380945663026
2388.3011,8.133294957562171
2389.6987,8.451391924367087
2391.0957,7.3696662163794855
2392.492,3.488112119387168
2393.8876,4.0567238454814145
2395.2824,1.8754955718723778
2396.6765,4.694421435203026
2398.07,9.413495553361457
2399.4627,8.732711997291531
2400.8547,3.352064743802188
2402.246,6.1215476823753505
2403.6366,0.7411546689723139
2405.0265,5.5108794983389515
2406.4156,6.330715957809602
2407.8041,0.850657779609918
2409.1918,4.870698632658389
2410.5789,2.7908321773670792
2411.9652,5.761052025441117
2413.3508,4.58135176067745
2414.7358,4.401724909262441
2416.12,7.072164951569036
2417.5035,6.392665323953068
2418.8863,3.0632193920487225
2420.2684,3.8338204575636468
2421.6497,4.704461791573351
2423.0304,4.275136626815211
2424.4104,4.295838148982142
2425.7896,6.816559501015703
2427.1682,2.9372937828991326
2428.546,0.5080340264500904
2429.9232,3.078773234113342
2431.2996,4.449504403253357
2432.6753,3.4202205004469874
2434.0503,4.3409144477760435
2435.4246,3.711579133120253
2436.7982,6.982207400950202
2438.1711,4.502792058620756
2439.5433,4.573325843664762
2440.9148,5.49380144858722
2442.2856,1.8642115201598557
2443.6557,5.884548650216502
2445.025,3.4048054119488995
2446.3937,2.924974319703395
2447.7617,-0.5049521462216688
2449.1289,4.3650184652224056
2450.4955,2.4348836495561414
2451.8613,3.404640858649998
2453.2265,3.0242875200255668
2454.5909,3.043821027158174
2455.9546,1.863238743280263
2457.3177,6.482538001186185
2458.68,3.3017161150379053
2460.0416,3.7707703341720986
2461.4025,1.9896978749082876
2462.7627,4.108495915858441
2464.1222,3.377161615737492
2465.4811,6.195692092175534
2466.8392,0.4140844290310923
2468.1966,11.982335648205861
2469.5533,4.650442767460802
2470.9093,6.468402684733476
2472.2645,4.586212251457198
2473.6191,6.753868254381274
2474.973,4.721367434392917
2476.3262,1.8387064648407545
2477.6787,6.305881971859819
2479.0305,5.022890563198104
2480.3816,6.689728783544794
2481.7319,6.056393127360323
2483.0816,1.2728800222077865
2484.4306,4.439185835086533
2485.7789,3.4553069202671054
2487.1264,7.771239587628287
2488.4733,2.4369801124958315
2489.8195,1.0025246924831492
2491.165,7.017869500833953
2492.5097,10.38301070076669
2493.8538,5.747944385321247
2495.1972,8.512666543707425
2496.5398,6.427173107655619
2497.8818,4.241459923769625
2499.2231,7.455522774381535
2500.5637,2.769357399409003
2501.9035,5.032959464214429
2503.2427,5.8963246064666635
2504.5812,7.709448413505044
2505.919,5.1723264137056475
2507.256,6.6849540583501295
2508.5924,2.29732674699693
2509.9281,5.559439812355038
2511.2631,7.521288564160173
2512.5974,4.382868256553678
2513.9309,3.994174068463991
2515.2638,3.1552011349908753
2516.596,6.465944551292367
2517.9275,5.076399380974621
2519.2583,5.736560622984371
2520.5884,6.896423225504364
2521.9178,5.205982079351898
2523.2465,6.965232006380049
2524.5745,2.624167776382123
2525.9018,2.982784089499276
2527.2284,4.441075619630965
2528.5543,2.1490370108489003
2529.8796,5.306662862814065
2531.2041,3.813947753697093
2532.5279,3.620886208602059
2533.851,9.427472714493618
2535.1735,6.233701722127606
2536.4952,6.839567587985201
2537.8163,6.995064606210505
2539.1366,2.5001870025519963
2540.4562,4.404928932807508
2541.7752,10.109284527773028
2543.0935,6.963247874195261
2544.411,7.416812957728112
2545.7279,8.269973694393059
2547.0441,5.2227239260435425
2548.3596,4.625057411833453
2549.6744,3.3769678586894116
2550.9885,3.578448927287539
2552.3019,7.629494244534328
2553.6146,6.830097401551853
2554.9266,8.580251913167345
2556.2379,7.7799512259072685
2557.5485,11.629188700495575
2558.8585,5.927957619856798
2560.1677,5.676251150623543
2561.4762,2.624062400148901
2562.7841,6.671384419023468
2564.0913,5.818210231597334
2565.3977,4.514532795506753
2566.7035,6.910345010205944
2568.0086,7.35563973000383
2569.313,13.150409740105871
2570.6167,3.844647752161194
2571.9197,7.38834634631489
2573.222,8.131498064265571
2574.5236,8.674095373828422
2575.8246,4.816130661503678
2577.1248,7.557596227050638
2578.4244,10.64848432206739
2579.7232,10.98878712257607
2581.0214,6.5784966981139945
2582.3189,9.267605008330747
2583.6157,5.956103947090952
2584.9118,7.743985315583203
2586.2072,6.881240855435095
2587.5019,7.8178622308344075
2588.7959,9.203841037156494
2590.0893,10.68916879159812
2591.3819,9.923836919317708
2592.6739,10.357836738582066
2593.9652,15.091159468419619
2595.2557,12.723796224280463
2596.5456,14.155737970703171
2597.8348,12.136975544988374
2599.1234,9.767499642879343
2600.4112,11.947300838749626
2601.6983,11.826369609297828
2602.9848,13.95469631174953
2604.2705,11.732271185066665
2605.5556,14.859084328664252
2606.84,13.885125724634662
2608.1237,11.660385206479404
2609.4067,12.984852468848871
2610.689,12.558517089789603
2611.9707,11.581368517499612
2613.2516,14.853396074591814
2614.5319,9.274588967865455
2615.8115,8.544936255585839
2617.0903,11.614426903272474
2618.3685,9.433049790995497
2619.6461,9.100793682680802
2620.9229,7.7676472479238186
2622.199,12.033599065312103
2623.4745,10.598637635756702
2624.7493,7.812751339832744
2626.0234,11.625928452129045
2627.2968,8.988157169106884
2628.5695,7.199425570968316
2629.8415,9.559721648033829
2631.1128,8.419033318629701
2632.3835,10.577348405485026
2633.6535,8.88465464713859
2634.9228,12.040939676355777
2636.1914,11.54619103705538
2637.4593,12.250396152746845
2638.7265,10.003542331477732
2639.9931,8.00561675879159
2641.259,11.956606520196644
2642.5242,13.656498621144962
2643.7887,9.505279947522567
2645.0525,8.802937248650565
2646.3156,12.14945717879722
2647.5781,8.294826304201493
2648.8398,9.789031069607788
2650.1009,8.732057836812288
2651.3613,9.873892869720876
2652.6211,11.664522344918872
2653.8801,5.553932340252651
2655.1385,7.942108816923437
2656.3961,8.129037680593171
2657.6531,9.964704757502787
2658.9094,9.049095792602849
2660.1651,13.532196431197
2661.42,9.063992228097888
2662.6743,10.894468602796309
2663.9279,11.673610884143109
2665.1808,8.25140429204454
2666.433,11.527833929670727
2667.6846,8.902884817677808
2668.9354,13.276541861443611
2670.1856,10.148789877317164
2671.4351,11.76961354888212
2672.6839,12.338997458234246
2673.9321,14.656926069773142
2675.1795,13.523383724508548
2676.4263,13.738354616880919
2677.6724,11.551822806096936
2678.9179,12.113772213979807
2680.1626,10.524186646834494
2681.4067,14.433049789828289
2682.6501,11.090345222886633
2683.8928,17.446056381604485
2685.1348,14.800166590673413
2686.3761,12.902659000324412
2687.6168,12.253516612786868
2688.8568,7.75272230126361
2690.0961,11.500258816422317
2691.3348,7.54610883140343
2692.5727,12.040254904344899
2693.81,8.53267951792354
2695.0466,8.573365034413762
2696.2826,5.912293730763153
2697.5178,10.799447798185689
2698.7524,11.534809368772429
2699.9863,14.168360466619966
2701.2195,12.900083000476855
2702.452,13.579958737408099
2703.6839,15.707969315477854
2704.9151,13.18409623695075
2706.1456,16.708320847011706
2707.3755,14.280624359004797
2708.6046,13.65098781919086
2709.8331,17.019392131024546
2711.0609,13.335818061450638
2712.2881,13.950246207220033
2713.5145,18.562657031725507
2714.7403,17.82303085885743
2715.9654,23.931347826879566
2717.1899,19.387587895825426
2718.4136,20.941730786415036
2719.6367,21.69375602549251
2720.8591,25.49364293048474
2722.0809,24.591370601880996
2723.3019,23.43691788523416
2724.5223,28.780263380183392
2725.7421,27.621385451998712
2726.9611,26.010262178147542
2728.1795,24.496871359883492
2729.3972,20.281190538357528
2730.6142,24.613197009751936
2731.8306,15.092867867437157
2733.0462,16.07017995865172
2734.2612,17.845109979705455
2735.4756,15.517634466206445
2736.6892,14.93772977531173
2737.9022,14.055372109001965
2739.1145,11.270537519880605
2740.3262,14.883201919997433
2741.5372,11.593341108696812
2742.7475,12.750930736491163
2743.9571,15.455946337959482
2745.1661,10.258363320171526
2746.3744,9.758156935637594
2747.582,9.205302334284383
2748.7889,6.299774568457082
2749.9952,4.991548598447842
2751.2008,6.080599321551091
2752.4057,6.916901585145844
2753.61,8.400430175805084
2754.8136,3.581159810932867
2756.0165,6.509065123928984
2757.2188,2.8341207123815906
2758.4204,7.406301108788249
2759.6213,5.92558081730531
2760.8215,6.441934268026145
2762.0211,2.9553358317883394
2763.22,6.965759815010173
2764.4182,4.473180494556615
2765.6158,4.027572077635085
2766.8127,5.728908726721201
2768.009,5.027164564014882
2769.2045,-0.8276863455730137
2770.3994,3.4143300125967713
2771.5936,0.4531959217500159
2772.7872,1.5388936309692127
2773.9801,2.8214053848049545
2775.1723,2.4007134124188383
2776.3639,0.426799914758476
2777.5548,0.8996470687642955
2778.745,1.1692370471087514
2779.9346,2.7355520134678883
2781.1235,0.2985741198254104
2782.3117,1.2582854908095342
2783.4992,-0.9853317519372382
2784.6861,-1.0822954993552116
2785.8723,-1.982613798920525
2787.0579,-0.2862838859773049
2788.2428,-1.7432831895578573
2789.427,5.096413721281493
2790.6106,-2.717150307116505
2791.7935,1.2660675206267626
2792.9757,0.546137144221511
2794.1573,-1.7768715092827492
2795.3382,1.6971114817021729
2796.5184,-0.9318262102892021
2797.698,1.3864030703065708
2798.8769,1.0018962879967575
2800.0551,0.8647503934246075
2801.2327,4.175062327214427
2802.4096,3.182929021343064
2803.5859,3.688447366036783
2804.7615,-1.4582857803074205
2805.9364,2.6928264038229983
2807.1106,4.341895308215513
2808.2842,5.289032295729321
2809.4572,8.034348685804794
2810.6294,5.927955744991927
2811.801,10.719964659497244
2812.972,10.210486556247758
2814.1423,9.299632454970777
2815.3119,14.287513273288923
2816.4808,20.074239835828386
2817.6491,20.859922824340458
2818.8167,28.29467271983399
2819.9837,29.62859979471869
2821.15,36.061814038457655
2822.3157,45.044425144227965
2823.4807,55.07654244458857
2824.645,65.35827482165429
2825.8086,72.58973060677451
2826.9716,82.92101747771589
2828.134,94.30224238634787
2829.2957,102.5835114553297
2830.4567,109.66492986429816
2831.617,113.54660176705502
2832.7767,117.77863022075277
2833.9358,116.0611171470779
2835.0941,116.4441632899306
2836.2519,111.77786823259999
2837.4089,109.26233039393344
2838.5653,99.4976470749998
2839.7211,99.08391448424462
2840.8761,97.57122783513694
2842.0306,96.95968135030671
2843.1843,93.19936827667163
2844.3374,94.39038089155264
2845.4899,92.18281054027702
2846.6417,95.7767476242683
2847.7928,99.42228162312182
2848.9433,103.1695010586656
2850.0931,99.01849345850482
2851.2422,104.51934531854965
2852.3907,103.0721421445254
2853.5385,103.87696839696392
2854.6857,111.43390750567562
2855.8323,106.84304186170135
2856.9781,116.95445274174283
2858.1233,112.96822035407142
2859.2679,117.834423737414
2860.4118,127.25314080081526
2861.555,132.27444827497573
2862.6976,134.69842161806446
2863.8395,138.07513496550615
2864.9808,135.35466110574123
2866.1214,136.53707144645873
2867.2614,141.9224360418012
2868.4007,144.91082358054058
2869.5393,148.60230133222427
2870.6773,150.4969351172916
2871.8146,154.09478927015894
2872.9513,156.79592662027326
2874.0874,156.90040845613373
2875.2227,162.35829449828023
2876.3574,161.96964289824848
2877.4915,167.13451018399144
2878.6249,158.35295126376553
2879.7577,174.02501937448216
2880.8898,170.85076616952324
2882.0212,179.0802415620205
2883.152,183.26349375659808
2884.2821,189.80056916707764
2885.4116,188.14151237464603
2886.5405,186.1363660624844
2887.6686,190.3351710323588
2888.7962,195.2879662246717
2889.923,187.34478867647383
2891.0493,189.2556734719363
2892.1748,187.47065382178232
2893.2997,186.73976104417852
2894.424,189.61302458258496
2895.5476,192.59047201306396
2896.6706,191.22212901554775
2897.7929,190.90801934406375
2898.9145,187.1981648404182
2900.0355,188.99258543733714
2901.1559,190.89129919556498
2902.2756,188.44432228592038
2903.3946,190.9016689703089
2904.513,183.86335162619298
2905.6308,178.07938072201839
2906.7479,186.64976488759754
2907.8643,176.97451097194892
2908.9801,179.90362395759354
2910.0953,179.7871070573071
2911.2098,179.52496168482938
2912.3236,185.96718745602897
2913.4368,183.16378219152483
2914.5494,173.81474185226423
2915.6613,171.6200605675565
2916.7725,178.42973072856364
2917.8831,172.54374301024706
2918.9931,170.96208630327084
2920.1024,167.43474777286178
2921.211,162.16171287462564
2922.319,160.54296538982084
2923.4264,159.12848747808866
2924.5331,152.61825969364082
2925.6391,153.01226099940416
2926.7445,151.61046883212293
2927.8493,158.91285909841883
2928.9534,156.36940618880885
2930.0569,159.13008290468153
2931.1597,161.8448604837312
2932.2619,164.81370857235152
2933.3634,163.78659519848745
2934.4643,169.16348674194708
2935.5645,168.7943479446724
2936.6641,168.62914185697073
2937.763,168.7178298412058
2938.8613,171.26037157344996
2939.959,164.75672504259734
2941.056,167.0568465249383
2942.1523,159.96069064919593
2943.248,150.26821037352502
2944.3431,136.57935705647336
2945.4375,129.14408055390678
2946.5313,117.11232935589737
2947.6244,107.18405066107658
2948.7169,102.60919049695256
2949.8087,96.63769381919295
2950.8999,85.21950455737343
2951.9904,80.10456567469285
2953.0803,69.99281928215495
2954.1696,66.63420668971796
2955.2582,64.47866850741184
2956.3462,62.12614467892457
2957.4335,61.826574503157374
2958.5202,63.479896657750075
2959.6062,60.38604920207681
2960.6916,59.24496956071273
2961.7764,63.60659455437259
2962.8605,61.170860411321414
2963.9439,62.587702723758326
2965.0267,59.107056472173916
2966.1089,63.178856011181765
2967.1905,60.403035104324886
2968.2714,60.2795268833578
2969.3516,53.95826387600467
2970.4312,57.43917800719444
2971.5102,57.272200662273406
2972.5885,60.40726265219618
2973.6662,54.444294215195356
2974.7432,55.133224985430935
2975.8196,58.82398405262005
2976.8954,59.06649995514753
2977.9705,60.11070064315843
2979.045,57.00651347613285
2980.1188,63.05386521244394
2981.192,62.552682040399716
2982.2645,56.45288951776958
2983.3364,61.05441257679613
2984.4077,53.0571755851931
2985.4783,52.61110230013016
2986.5483,45.416115948205224
2987.6177,45.8721392299052
2988.6864,43.17909439155586
2989.7545,39.93690322076161
2990.8219,41.44548707333589
2991.8887,35.50476690572312
2992.9548,33.06466325991291
2994.0204,27.775096322847148
2995.0852,27.78598595082118
2996.1495,24.097251722379355
2997.2131,19.05881293820621
2998.276,17.570588658013776
2999.3383,15.83249775092596
3000.4,10.49445891036084
3001.4611,9.8063906714115
3002.5215,7.668211464226488
3003.5812,7.179839620890455
3004.6404,5.391193396805967
3005.6989,4.252190975577214
3006.7567,2.8127504868964692
3007.8139,2.7727900179341063
3008.8705,3.332227627733033
3009.9264,2.1909813476082647
3010.9818,2.648969175552608
3012.0364,0.8061090876490411
3013.0905,3.1123190334909054
3014.1439,1.1675169546104698
3015.1966,-0.028379238583170263
3016.2487,-0.7254516473560741
3017.3002,1.4262179105342625
3018.3511,0.07655486459230332
3019.4013,-0.07451536993968233
3020.4509,-0.27706737858493824
3021.4998,-3.7311750024581904
3022.5481,1.4630906852289272
3023.5958,-0.09430411429693208
3024.6428,0.5466067855599732
3025.6892,0.585790513493464
3026.735,4.873214192731332
3027.7802,-2.991155059356533
3028.8247,3.642649825867636
3029.8685,1.3246257986806143
3030.9118,5.404769772932731
3031.9544,0.133078649228068
3032.9963,0.859549274123026
3034.0376,0.7341784928432347
3035.0783,4.956963142018804
3036.1184,-1.6220999490619157
3037.1578,0.7469859993197971
3038.1966,3.1142339716611467
3039.2348,2.8296569449895124
3040.2723,7.293267865189932
3041.3092,7.65507964985089
3042.3455,5.765105143628208
3043.3811,7.523357114626943
3044.4161,3.5298482733011127
3045.4505,3.9345912548711723
3046.4842,5.687598659259077
3047.5173,8.788883047040905
3048.5498,7.038456921916747
3049.5816,8.386332699697885
3050.6128,8.48252272581103
3051.6434,8.427039261819573
3052.6734,11.169894484461704
3053.7027,8.561100486205206
3054.7314,5.300669247818941
3055.7594,8.738612664460785
3056.7868,7.874942578281928
3057.8136,10.109670744047445
3058.8398,7.492808837772994
3059.8653,11.724368434377553
3060.8902,11.554361033852018
3061.9145,9.532798018943602
3062.9381,11.809690656855938
3063.9612,12.285050119464668
3064.9835,12.358887460548548
3066.0053,12.03121361103587
3067.0264,13.652039378266032
3068.0469,15.421375449266325
3069.0668,15.93923237454365
3070.086,15.30562055039119
3071.1046,11.120550213709805
3072.1226,13.484031448344162
3073.1399,13.296074226933435
3074.1567,12.456688387276497
3075.1727,12.115883634211478
3076.1882,11.673669548009649
3077.203,10.780055587783444
3078.2173,11.585051095908618
3079.2308,10.588665306960365
3080.2438,10.090907339663381
3081.2561,8.741786206855704
3082.2678,9.39131082046632
3083.2789,8.939490005006352
3084.2893,9.43633249107382
3085.2991,7.381846919871865
3086.3083,7.626041838240308
3087.3169,4.418925719200519
3088.3248,6.360506959513465
3089.3321,9.850793911750863
3090.3388,4.989794864879375
3091.3449,7.67751800935774
3092.3503,5.71397148574675
3093.3551,4.499163357832035
3094.3593,9.13310163225951
3095.3629,6.0657942706834795
3096.3658,6.197249143427225
3097.3681,6.827474060156099
3098.3698,6.106476768562974
3099.3708,6.684264948066009
3100.3713,5.460846217018595
3101.3711,7.2862281269314835
3102.3702,-0.3895818252930425
3103.3688,7.383423784385041
3104.3667,6.755256271928175
3105.364,3.5759268794645713
3106.3607,5.045446781569883
3107.3568,6.763827117060497
3108.3522,6.831078974298352
3109.347,4.497213374007124
3110.3412,3.0622412685997027
3111.3348,6.1761735655168515
3112.3277,2.68902114157693
3113.32,3.8507948118365736
3114.3117,3.711505364462216
3115.3028,5.4211635491123324
3116.2932,3.6297800783303718
3117.2831,5.437365610448147
3118.2723,6.143930767499677
3119.2608,3.749486117145347
3120.2488,1.9540421656062232
3121.2361,2.407609381608532
3122.2229,0.7601982143380859
3123.209,2.1618190889046005
3124.1944,4.062482422815815
3125.1793,4.712198611961286
3126.1635,3.760978011605742
3127.1471,0.8088309298919292
3128.1301,4.605767637352837
3129.1125,4.7017983964331265
3130.0942,3.9969334235198044
3131.0753,5.491182887981889
3132.0558,3.1345569192190634
3133.0357,5.127065591719191
3134.015,3.1187189486245828
3134.9936,3.7095269818068815
3135.9716,3.699499651950564
3136.949,3.188646882644834
3137.9258,4.426978560483905
3138.902,7.21450454017552
3139.8775,3.201234632157652
3140.8524,4.537178574723214
3141.8267,4.0723460741527955
3142.8004,6.456746791355201
3143.7735,4.540390346515771
3144.7459,3.073286295252391
3145.7178,6.355444147779043
3146.689,2.4368733835768435
3147.6596,3.61758341857249
3148.6295,2.997583644323946
3149.5989,3.526883416213339
3150.5676,4.805492059646971
3151.5357,7.283418864762313
3152.5032,4.360673073641916
3153.4701,3.8872638555341563
3154.4364,6.413200336080676
3155.402,5.588491602050489
3156.367,5.713146676080605
3157.3315,5.037174524923122
3158.2952,6.260584058198678
3159.2584,1.733384135156168
3160.221,4.955583552438654
3161.1829,4.627191089355351
3162.1442,6.048215475659649
3163.105,1.9686653948330237
3164.065,5.838549469874797
3165.0245,3.307876304097646
3165.9834,6.37665444242875
3166.9416,7.094892396716531
3167.8993,4.762598615042873
3168.8563,5.629781474540734
3169.8127,7.596449304717096
3170.7684,7.662610378781124
3171.7236,4.078272893977492
3172.6782,8.093444970924768
3173.6321,4.608134689458794
3174.5854,5.272350048480962
3175.5381,9.736099000811326
3176.4902,5.99938944654643
3177.4417,6.0122291884218395
3178.3926,2.774625969179218
3179.3428,4.086587471437943
3180.2924,5.848121350071132
3181.2415,7.60923521908603
3182.1899,4.019936634008667
3183.1377,5.630233074272726
3184.0848,3.0901319791125204
3185.0314,6.299640731460038
3185.9773,5.708766683345946
3186.9227,7.4675171238045115
3187.8674,3.5258992847823354
3188.8115,6.783920323550845
3189.755,4.491587362122486
3190.6979,4.248907454670494
3191.6402,6.755887610452248
3192.5818,3.1625347962360415
3193.5229,3.6688559112312964
3194.4633,3.87485782302209
3195.4031,6.230547362503941
3196.3423,6.585931321823785
3197.2809,7.441016430823087
3198.2189,3.945809353483998
3199.1563,4.450316679378515
3200.0931,7.5545449586205455
3201.0292,3.008500696820829
3201.9648,8.162190324044655
3202.8997,10.465620240272301
3203.834,6.268796763862149
3204.7677,8.071726108516376
3205.7008,6.824414425249201
3206.6333,6.626867784357577
3207.5652,6.3790921878943205
3208.4964,8.13109357164358
3209.4271,9.23287780759858
3210.3571,4.334450686441615
3211.2865,3.6858179065262053
3212.2154,6.736985122861368
3213.1436,8.437957953597932
3214.0712,5.288741949516878
3214.9982,7.6393425770196055
3215.9246,5.9897652496200955
3216.8503,7.5900153044389
3217.7755,5.940098018698924
3218.7001,6.790018593722914
3219.624,8.23978217143264
3220.5473,10.339393825849692
3221.4701,6.738858548597843
3222.3922,9.038181227906927
3223.3137,6.537366684618194
3224.2346,6.136419649191087
3225.1549,6.685344786711374
3226.0746,8.884146700900635
3226.9937,8.482829928626991
3227.9121,6.431398917917096
3228.83,6.829858031969312
3229.7473,10.878211569668018
3230.6639,7.326463761599003
3231.5799,7.374618729565952
3232.4954,7.372680522107908
3233.4102,9.770653114017724
3234.3244,6.168540406361451
3235.238,8.266346202498614
3236.151,8.964074244103317
3237.0634,8.311728190186212
3237.9752,7.809311610117199
3238.8864,6.556827990148905
3239.797,7.454280738440837
3240.7069,7.851673197584228
3241.6163,8.8490086356275
3242.5251,8.24629024210234
3243.4332,7.243521118050357
3244.3408,5.990704282050254
3245.2477,9.787842680245536
3246.154,9.084939198872652
3247.0598,7.681996626289639
3247.9649,12.479017660005129
3248.8694,10.376004920707802
3249.7733,10.822960904296155
3250.6766,7.919888002908637
3251.5793,7.916788500454089
3252.4814,9.813664601642465
3253.3829,8.210518432015833
3254.2838,11.307352018979612
3255.1841,10.704167307834025
3256.0838,9.50096613080576
3256.9829,10.447750213079846
3257.8814,10.14452118483165
3258.7792,10.741280571759017
3259.6765,9.238029798114596
3260.5731,8.134770180738222
3261.4692,10.331502944089438
3262.3647,4.628229231280076
3263.2595,11.224950082106965
3264.1538,9.571666490084617
3265.0474,9.36837933647806
3265.9404,9.415089406835666
3266.8329,8.811797393022008
3267.7247,12.108503892750761
3268.616,9.205209415617631
3269.5066,9.501914350133273
3270.3966,11.098618992756256
3271.286,9.045323544926003
