RamanShift,CorrectedData
30.1047,485.54030308945437
32.3739,446.92106310860925
34.6426,408.80181827236095
36.9109,373.38255925609593
39.1787,336.1632726471823
41.4461,304.09394129916234
43.7131,265.1245447039457
45.9796,231.80505931250224
48.2456,194.73545892455644
50.5112,156.36571502178174
52.7764,123.19579713849716
55.0411,89.52567324536432
57.3054,55.355310081087005
59.5692,19.484673489112105
61.8326,-15.836271240666527
64.0955,-48.20755901320181
66.3579,-80.37906652909706
68.6199,-108.20018889544102
70.8815,-130.36951823244797
73.1426,-127.53456574044515
75.4032,-56.491540228272925
77.6634,183.76462356554003
79.9231,779.589555252952
82.1824,2052.0888826082746
84.4412,4223.318225609924
86.6995,7137.23318371543
88.9574,9859.739314149137
91.2148,11706.542102763058
93.4717,12506.79693681182
95.7282,12618.109086484616
97.9842,12529.383696902682
100.2398,12232.575787006157
102.4949,11990.940250441345
104.7495,11728.931858528797
107.0036,11468.355262679652
109.2573,11172.46499701574
111.5105,10825.765480975331
113.7632,10426.211022272055
116.0154,9940.205820361876
118.2672,9430.55397043866
120.5185,8906.709468294202
122.7693,8363.82621541477
125.0197,7904.358024219531
127.2696,7507.358623489394
129.519,7257.5816629616875
131.7679,7023.230717300152
134.0163,6865.609288592717
136.2642,6761.520808695002
138.5117,6690.768640806537
140.7587,6558.9060805116405
143.0052,6373.786356486948
145.2512,6105.362631820032
147.4967,5836.438005860606
149.7417,5543.115516904754
151.9863,5322.298144884182
154.2304,5170.638814299442
156.4739,5089.140396428102
158.717,5122.2557108413475
160.9596,5196.787526218957
163.2017,5327.1885600181595
165.4433,5399.411477728303
167.6844,5375.458891566854
169.925,5194.733359757163
172.1651,4941.987386767996
174.4047,4669.573425120785
176.6439,4392.793877917087
178.8825,4212.001101562728
181.1206,4086.047408535593
183.3582,3999.835069193562
185.5954,3913.2663130340397
187.832,3844.693329556082
190.0681,3824.068269126083
192.3037,3804.093243663506
194.5388,3764.870326847133
196.7734,3778.951554314813
199.0075,3799.738924055696
201.2411,3855.4843962694163
203.4742,3933.3398931582183
205.7068,4023.157298369505
207.9389,4098.688456217284
210.1704,4156.635170783988
212.4015,4127.999205165166
214.632,4128.832280890021
216.862,4117.6360782077645
219.0915,4117.812236079283
221.3205,4151.812352289111
223.549,4197.537983443654
225.777,4171.490644631203
228.0044,4123.971808964669
230.2314,4058.732907842056
232.4578,3968.425331421652
234.6837,3864.550429274417
236.909,3756.509511287059
239.1339,3659.7038487007826
241.3582,3582.6846751916964
243.582,3514.603187838875
245.8053,3518.410547894544
248.0281,3510.4578814649003
250.2503,3519.646279472038
252.472,3526.776797733469
254.6932,3517.6504568702458
256.9139,3510.3682422356546
259.134,3539.0811040064777
261.3536,3614.9899572558174
263.5727,3738.695681665965
265.7912,3931.3991207693157
268.0092,4183.101080711307
270.2267,4419.60232832339
272.4436,4662.903588606008
274.6601,4795.005542363582
276.8759,4885.458823771498
279.0913,4980.614019055087
281.3061,5043.571665585096
283.5204,5110.582250926131
285.7341,5204.146212207083
287.9473,5317.013935451027
290.16,5294.735754639566
292.3721,5092.911950584179
294.5837,4841.592751148983
296.7947,4629.378333268978
299.0052,4505.1688254632445
301.2152,4394.214309957069
303.4246,4337.16482392406
305.6334,4257.620360595685
307.8418,4191.380869831759
310.0495,4087.7462589158977
312.2568,3917.8663932179093
314.4635,3690.191097230141
316.6696,3424.420156266278
318.8752,3170.553318738096
321.0802,2986.1402988131736
323.2847,2932.430778953558
325.4887,2914.5244117598936
327.692,2967.6208205085195
329.8949,3147.4695993305313
332.0972,3363.5703126808176
334.2989,3562.4724935395675
336.5001,3590.5256412512695
338.7007,3463.4292195356907
340.9008,3193.082656207341
343.1003,2851.935344446443
345.2992,2571.0866455023934
347.4976,2319.3358921052372
349.6955,2115.432391274153
351.8927,2000.0754268349642
354.0895,1908.3642614591731
356.2856,1842.548137817531
358.4812,1766.0262794971432
360.6763,1697.7478916596378
362.8707,1676.9621618063811
365.0646,1668.3182604612603
367.258,1681.3153413785449
369.4508,1746.1025416293242
371.643,1845.5289814715325
373.8346,1969.0437637020837
376.0257,2143.7959726626013
378.2162,2292.9346730042694
380.4062,2366.10890794032
382.5956,2308.467697754635
384.7844,2116.060039070011
386.9726,1866.8849054245657
389.1603,1691.9912491958212
391.3474,1575.8280040924506
393.5339,1553.6940869032205
395.7199,1548.7883986586212
397.9052,1691.9098248521996
400.09,1902.8572354896223
402.2743,2117.5794836574614
404.4579,2276.3254034137153
406.641,2461.893807640593
408.8235,2648.283486457047
411.0054,2795.7432053630982
413.1868,2886.4717033759307
415.3675,2828.8676915553024
417.5477,2729.8298520962544
419.7273,2658.606838905156
421.9064,2540.7472785900754
424.0848,2357.349771173019
426.2627,2064.612891268518
428.4399,1740.7351899176065
430.6166,1440.5651975151904
432.7928,1209.3514270488258
434.9683,1039.7923771004162
437.1432,919.3365341583522
439.3176,836.7323743131055
441.4914,787.2783644617803
443.6645,739.772963134159
445.8371,715.8146209872457
448.0091,701.4017812803131
450.1806,689.63288011449
452.3514,697.8563465768902
454.5216,701.1206028583038
456.6913,720.3240641709581
458.8603,733.0151387158794
461.0288,754.7422274908558
463.1967,757.1037241635277
465.3639,736.3980148541132
467.5306,721.6734781117957
469.6967,675.2784851217812
471.8622,648.2113998525392
474.0271,634.9705795197624
476.1914,621.1543748570311
478.3551,573.6611302482215
480.5182,556.7391838656667
482.6807,581.7368681450935
484.8426,677.8025099548377
487.0039,872.2344303458685
489.1647,1115.8809435911307
491.3248,1389.490355241228
493.4843,1470.0109596879556
495.6432,1406.5910374282084
497.8015,1282.3788542587736
499.9592,1048.6726619105266
502.1163,781.6206992905509
504.2728,546.9211948192115
506.4287,413.1723691006637
508.5839,344.12243726985525
510.7386,304.0696103300106
512.8927,306.0620958431291
515.0461,327.9980983305177
517.199,423.8758192528594
519.3512,647.9434567908629
521.5029,988.4492048864831
523.6539,1343.9912510022414
525.8043,1422.4677727161707
527.9541,1165.4769341663914
530.1033,806.6668852663497
532.2519,515.4357642747245
534.3999,382.53170138352743
536.5472,332.20282163041156
538.694,322.04724622771755
540.8401,383.5630930657535
542.9856,476.7484768143613
545.1305,575.1515083077529
547.2748,659.3702936126583
549.4185,686.8529330442925
551.5615,715.5975203241705
553.704,792.8521423052789
555.8458,893.5648786846305
557.987,994.9338012307162
560.1276,1167.9069727763817
562.2675,1493.282446205134
564.4069,1917.5582627214117
566.5456,2192.63244859683
568.6837,2086.803010927424
570.8212,1654.6179348829082
572.958,1136.5251847649652
575.0942,745.5227083291038
577.2299,521.1584419655819
579.3648,448.3803146094324
581.4992,429.6862499841054
583.6329,503.5241673292512
585.766,657.0419815876558
587.8985,905.4876026668653
590.0304,1143.1589339040092
592.1616,1375.6038695813422
594.2922,1474.2202925495312
596.4222,1315.3560719032093
598.5515,1028.459061994804
600.6802,716.6771040231861
602.8083,471.7580289026391
604.9358,378.19966038067196
607.0626,339.19981748721875
609.1888,376.10631547021603
611.3144,486.2169661856069
613.4393,706.9795777282743
615.5636,1000.8419533309334
617.6873,1263.051889156508
619.8103,1439.8071713595036
621.9327,1478.0055734639127
624.0544,1349.0948545956553
626.1756,1038.2727591005946
628.2961,738.8870178336506
630.4159,574.585351267016
632.5351,536.5654724840169
634.6537,523.6250888221298
636.7716,465.26190225317214
638.8889,459.6736095127176
641.0056,500.2579026837193
643.1216,569.1124692523922
645.237,620.1349917023767
647.3518,562.9231468261878
649.4659,405.02460521499233
651.5793,291.1370318307281
653.6922,219.05808758508738
655.8043,158.08543047839566
657.9159,92.9667163203967
660.0268,43.649599339983524
662.137,53.88173283638207
664.2466,62.16076967232266
666.3556,84.18436217172257
668.4639,49.10016203689065
670.5716,37.45582012829618
672.6786,-9.401013184591193
674.785,-32.42268790686012
676.8907,-42.36146012747395
678.9958,-38.46926203274734
681.1002,-54.04760261800857
683.204,-20.04760657066572
685.3072,-10.369858642578038
687.4097,-19.764743310017366
689.5115,-5.082541454372404
691.6127,-16.823336507249223
693.7132,-26.787161125668263
695.8131,-22.07387990152165
697.9123,-1.233089822959755
700.0109,19.03583263992323
702.1089,69.3835233355976
704.2061,150.46061792217733
706.3028,275.7677513639419
708.3987,403.55555712056366
710.4941,516.1746658940447
712.5887,541.7257043508262
714.6827,530.8592939956111
716.7761,481.2760509158438
718.8688,447.02658589037765
720.9608,459.1115048853071
723.0522,501.03140939646073
725.1429,581.586896328552
727.233,780.2285575759806
729.3224,1085.4569792172842
731.4112,1383.972739528709
733.4993,1529.276405931936
735.5867,1329.7685320089213
737.6735,939.449656048856
739.7596,562.7703030432472
741.845,352.4309885891089
743.9298,235.3822226557554
746.014,200.8245116881908
748.0974,201.30835977759898
750.1802,212.98426900692084
752.2624,215.60273944601295
754.3439,242.61426903489155
756.4247,282.6193535575467
758.5048,343.46848637182666
760.5843,466.16215800938517
762.6631,653.0008555671943
764.7413,936.2350614806046
766.8188,1380.0652516549621
768.8956,1853.3918926332585
770.9718,2220.5654371578394
773.0473,2202.1863194371326
775.1221,2006.0549514739141
777.1962,1900.3717232490985
779.2697,2210.687004683054
781.3426,2754.651146692432
783.4147,3224.714478087016
785.4862,3266.2773001300775
787.557,2862.4398818377463
789.6271,2198.902459563375
791.6966,1487.4152410359225
793.7654,947.2784119953203
795.8335,609.0421433073539
797.901,436.80659636502605
799.9678,370.5219264709208
802.0339,350.338284559557
804.0993,409.0058178602353
806.1641,400.07467009887796
808.2282,346.4449809113489
810.2916,258.0168859327673
812.3544,166.79051733380538
814.4164,141.96600470496696
816.4778,163.59347596885254
818.5385,223.12305762840379
820.5986,399.70487455062766
822.658,685.6890493712999
824.7166,1019.0257007291502
826.7747,1472.96494040602
828.832,1899.456869993494
830.8886,2222.3515763535083
832.9446,2425.8991273534307
834.9999,2319.2995686371164
837.0545,1999.5029215894306
839.1085,1535.8591844022444
841.1618,1090.6683352724003
843.2143,797.7803370381507
845.2662,605.995141631061
847.3175,532.8626930049027
849.368,452.28292905349326
851.4179,462.55578234202494
853.467,453.0311809128625
855.5155,494.30904818281397
857.5633,534.7393030383764
859.6105,520.5718594229602
861.6569,460.5566259325842
863.7027,396.9935059575496
865.7478,314.7323982825951
867.7922,272.7231977225265
869.8359,211.66579594482664
871.8789,207.06008188974556
873.9212,193.95594238087733
875.9629,218.05326217121774
878.0039,308.25192407420855
880.0441,372.5518087227597
882.0837,486.1027936672622
884.1226,603.7547527325937
886.1609,785.1075548826052
888.1984,1059.5610630436022
890.2352,1332.115132290819
892.2714,1442.9696071038784
894.3069,1307.4743186412566
896.3416,1045.1790836317327
898.3757,789.9337057293465
900.4091,635.0379781363467
902.4418,670.2416861556467
904.4739,789.744608739783
906.5052,921.6465181388758
908.5358,932.1971787056013
910.5658,842.4463455761706
912.595,681.943764564829
914.6236,489.4391730613552
916.6515,345.68230163609223
918.6786,250.122875964993
920.7051,200.31061826718724
922.7309,191.0452482605774
924.756,201.17648365996092
926.7804,262.0040402696841
928.8041,312.12763188233066
930.8272,410.6469696704453
932.8495,474.4117616853
934.8711,505.6217118716986
936.892,549.0765194303308
938.9123,660.7258785056697
940.9318,825.0694777514241
942.9506,939.6069992140451
944.9688,929.3381166892859
946.9862,817.9124945768349
949.003,654.2297879829985
951.019,522.0396438349594
953.0344,436.44170251760534
955.0491,354.18559919542804
957.063,307.1709646685067
959.0763,294.64742619506615
961.0888,297.31460796162264
963.1007,297.3221312082205
965.1119,264.61961420175794
967.1223,227.90667223591436
969.1321,194.43291795817368
971.1412,175.59796173695304
973.1495,170.35141199634336
975.1572,169.39287540445548
977.1641,207.57195692588675
979.1704,205.48825983130837
981.1759,201.8913853156714
983.1808,181.03093251904738
985.1849,134.6564985625946
987.1884,107.5676787571665
989.1911,144.06406706704865
991.1932,201.34525638085324
993.1945,235.9108381465512
995.1951,254.31040179866204
997.1951,257.59353441259736
999.1943,227.8098205206702
1001.1928,227.20884207925883
1003.1906,271.19017876664657
1005.1877,417.70340798902726
1007.1841,585.4981044406959
1009.1798,693.7738386389151
1011.1748,668.5301752459673
1013.1691,544.3666719863986
1015.1627,384.28287989945466
1017.1556,234.2283445807152
1019.1477,129.40260778293123
1021.1392,47.905208916572064
1023.1299,19.385686098082715
1025.12,2.2435769648568566
1027.1093,58.47841896043201
1029.0979,164.3397495059162
1031.0859,283.47710543763196
1033.0731,377.3900219485067
1035.0596,397.4280313966997
1037.0454,369.9906623664706
1039.0304,333.3774394677994
1041.0148,216.38788361075967
1042.9985,107.92151237165535
1044.9814,53.32784116291168
1046.9636,8.35638431774214
1048.9452,67.10665563608381
1050.926,144.87816883431333
1052.9061,246.42043695774237
1054.8855,316.9829716029026
1056.8642,315.9652819021235
1058.8421,322.966873817908
1060.8194,306.73725015310674
1062.7959,303.82591048090353
1064.7717,287.03235130711073
1066.7469,280.656066099285
1068.7213,312.39654545465964
1070.695,395.55327716391093
1072.6679,489.5757458937492
1074.6402,661.663432355353
1076.6117,737.9158123641464
1078.5826,683.5823551189196
1080.5527,488.5125224393082
1082.5221,291.05576930912457
1084.4908,145.36154582705785
1086.4587,46.47929918124282
1088.426,-3.191524893800306
1090.3925,-21.401481128343676
1092.3584,-0.20109236932376007
1094.3235,64.1093323371183
1096.2879,149.32948595375137
1098.2515,281.15906080225204
1100.2145,414.8977477110061
1102.1767,587.4452346968101
1104.1382,814.9012056274842
1106.099,1103.2153384963972
1108.0591,1387.7873031479094
1110.0185,1600.1667583942262
1111.9771,1816.8533491696812
1113.9351,2060.9467044069415
1115.8923,2421.8464348701423
1117.8488,2672.0521307139506
1119.8045,2554.4633578745697
1121.7596,2077.5796555676843
1123.7139,1460.8505374643446
1125.6675,1109.2254964598083
1127.6204,1039.5040108408248
1129.5726,1132.035547801891
1131.524,1183.269564142463
1133.4748,1012.8555053416449
1135.4248,717.6928050458441
1137.3741,432.2308867729148
1139.3226,256.96916686378336
1141.2705,235.50705733706945
1143.2176,259.5939676417024
1145.164,358.1793048715408
1147.1097,400.31247352450373
1149.0546,303.24287451671853
1150.9989,177.96990476118935
1152.9424,49.34295813849167
1154.8852,-12.888573250496393
1156.8272,-62.12529779832357
1158.7686,-73.96769514069229
1160.7092,-73.01562428158468
1162.6491,-53.068205287704586
1164.5883,-3.6238287996693543
1166.5267,73.96964469327258
1168.4644,211.31439090392223
1170.4014,351.1625848053809
1172.3377,542.4663992576102
1174.2732,791.9780036089464
1176.2081,1196.6495617830615
1178.1421,1836.9832297838493
1180.0755,2566.6311516487103
1182.0082,3075.395453045213
1183.9401,3127.778233974617
1185.8713,2700.1815636842275
1187.8017,2020.2074801435683
1189.7315,1384.6579943203483
1191.6605,901.7850969802034
1193.5888,612.440765042189
1195.5163,449.1269664075121
1197.4432,314.2456628529708
1199.3693,210.34881166409468
1201.2947,129.88836698396062
1203.2193,92.16628085215643
1205.1432,65.43450400938809
1207.0664,45.144986274703115
1208.9889,57.19967681280241
1210.9106,56.70052433693991
1212.8316,86.04947698837395
1214.7519,128.29848234135898
1216.6715,201.94948710965446
1218.5903,278.0044367240389
1220.5084,335.5152745957953
1222.4257,411.58394135616663
1224.3424,462.6123742812438
1226.2583,559.6525065312776
1228.1735,692.1562666403979
1230.0879,877.2255775462095
1232.0016,1104.4123552647557
1233.9146,1297.4685070398223
1235.8269,1381.4959290710735
1237.7384,1423.3465045834887
1239.6492,1410.1721029870928
1241.5592,1486.6745794584458
1243.4686,1652.6557750723905
1245.3772,2024.967516037022
1247.285,2496.111612033883
1249.1922,2898.2398524948385
1251.0986,3321.2040018906414
1253.0042,3666.3057957096457
1254.9092,4123.846936228167
1256.8134,4633.879089059461
1258.7169,5193.853878578321
1260.6196,5617.822882820746
1262.5216,5919.987627884192
1264.4229,5973.949583687898
1266.3234,5820.460160951216
1268.2232,5497.670710654014
1270.1223,5160.382525571556
1272.0207,4926.446843502399
1273.9183,4813.164850641277
1275.8151,4769.387683918459
1277.7113,4903.566432132567
1279.6067,5313.802136388347
1281.5014,6057.895788754882
1283.3953,7062.9483281632365
1285.2885,8225.010632965515
1287.181,9189.433510884348
1289.0727,9644.467687392258
1290.9637,9460.513796067426
1292.854,8831.372374043367
1294.7435,8021.3438638484595
1296.6323,7281.978619697358
1298.5204,6626.076915591281
1300.4077,6108.5389527116595
1302.2943,5787.514865979156
1304.1802,5552.654729229047
1306.0653,5328.358558421463
1307.9497,5179.826313989983
1309.8333,5013.807903084608
1311.7162,4877.603181057074
1313.5984,4760.111953121037
1315.4798,4677.183975714125
1317.3605,4672.068957672849
1319.2405,4761.516561061881
1321.1197,4814.676401225202
1322.9982,4688.8480458916365
1324.876,4431.2810146432375
1326.753,3965.7247801735816
1328.6293,3442.778770863436
1330.5048,2919.3923754363204
1332.3796,2427.0149481879694
1334.2537,2038.1958142201906
1336.127,1765.034274364648
1337.9996,1579.1796090710436
1339.8714,1433.381081138742
1341.7426,1322.2879375753073
1343.6129,1224.5994110544966
1345.4826,1134.71472102719
1347.3515,1053.1830746982737
1349.2196,981.4536679254893
1351.087,939.575686034751
1352.9537,910.4483045374363
1354.8197,932.720689549169
1356.6849,971.1419980810883
1358.5493,1040.6113778171284
1360.4131,1187.5279667298041
1362.276,1380.8908923855201
1364.1383,1622.1492704754005
1365.9998,1726.7022028816614
1367.8606,1690.9987752650295
1369.7206,1669.7880560192052
1371.5799,1688.1690966279061
1373.4384,1685.740931876965
1375.2962,1565.552579670532
1377.1533,1309.9030410553446
1379.0096,1068.5413014226187
1380.8652,876.416333064542
1382.7201,724.8770975878915
1384.5742,576.0725478352815
1386.4275,454.35162940055534
1388.2802,351.3632821168321
1390.132,300.1564412737148
1391.9832,254.58003864717557
1393.8336,220.28300301162108
1395.6832,188.6142605956593
1397.5322,146.92273542506928
1399.3803,115.05734963948726
1401.2278,81.56702390932651
1403.0745,43.75067775442494
1404.9204,9.557229878950238
1406.7656,-23.51440145043489
1408.6101,-29.11529806263752
1410.4538,-44.29630687769577
1412.2968,-32.65798395382126
1414.139,-25.450442829122494
1415.9805,28.076529211549314
1417.8213,97.62339913326696
1419.6613,179.8406336203384
1421.5006,327.6786983808388
1423.3391,548.7380573244386
1425.1769,838.369171084023
1427.0139,1240.572494805098
1428.8502,1751.648475249478
1430.6858,2175.597546773255
1432.5206,2364.8201262160405
1434.3547,2375.0666086614674
1436.188,2257.587365544971
1438.0206,2191.882744551319
1439.8524,2125.6030707894083
1441.6835,2130.39864744931
1443.5139,2134.919756465068
1445.3435,2157.1666584667414
1447.1724,2210.989592735191
1449.0005,2202.388776979613
1450.8279,2166.1144067993137
1452.6545,2143.0666557697086
1454.4804,2125.6456758050704
1456.3056,2084.401597389008
1458.13,1980.2845297486742
1459.9536,1871.944561267208
1461.7766,1705.6817605249012
1463.5987,1493.7961773826055
1465.4202,1304.1878446443548
1467.2409,1100.3067801762245
1469.0608,924.7529888024146
1470.88,738.0264643440587
1472.6984,597.0271913747624
1474.5161,464.00514708786613
1476.3331,368.9603027064404
1478.1493,328.9426248135064
1479.9648,301.0020763024836
1481.7795,281.33861677736695
1483.5935,310.4022028321315
1485.4067,337.5427882473664
1487.2192,358.7103236996404
1489.031,357.25475649009513
1490.842,358.576030332772
1492.6522,375.17408536916673
1494.4618,378.74885815501466
1496.2705,384.5002814943109
1498.0785,356.72828440356443
1499.8858,339.83279205428016
1501.6924,310.66372605068227
1503.4981,302.37100459866633
1505.3032,280.204542797494
1507.1075,245.464252722717
1508.911,216.6500436478418
1510.7138,187.76182239173613
1512.5159,175.19949360676856
1514.3172,142.61296006768907
1516.1178,126.70212279725365
1517.9176,95.91688139209054
1519.7166,83.0071341818084
1521.515,59.97277853684591
1523.3126,52.263710997573526
1525.1094,33.57982750463134
1526.9055,22.42102347602622
1528.7008,10.937193993967867
1530.4954,9.82823391645752
1532.2893,1.7940379921246858
1534.0824,-9.865499128682359
1535.8747,1.6495171864451095
1537.6663,-4.860919873747889
1539.4572,16.75318286298875
1541.2473,32.74186712949404
1543.0367,30.905174491076195
1544.8253,52.0431461856258
1546.6132,78.65582314198264
1548.4003,110.19324576855593
1550.1867,156.75545368719895
1551.9723,220.2924854178334
1553.7572,304.8543779128263
1555.5414,407.39116592162236
1557.3247,557.0028811451214
1559.1074,761.2395512103146
1560.8893,995.1511981741642
1562.6705,1222.3378364812393
1564.4509,1411.4494706245966
1566.2305,1512.6860928739163
1568.0094,1578.8476813843831
1569.7876,1563.934199184321
1571.565,1558.0455935135794
1573.3417,1579.6817959726673
1575.1176,1613.2427225816377
1576.8928,1724.3282735637263
1578.6672,1853.888333009741
1580.4409,2017.9727677672104
1582.2138,2256.8314261447786
1583.986,2503.014136271364
1585.7575,2764.07070370757
1587.5282,3006.4509089838593
1589.2981,3189.104504989986
1591.0673,3286.1812145511994
1592.8358,3371.8307286017002
1594.6035,3362.7027052138787
1596.3704,3290.44676874182
1598.1366,3196.912509912582
1599.9021,3054.1494865487557
1601.6668,2890.107224503807
1603.4308,2772.43521908971
1605.194,2761.782936717366
1606.9564,2875.999816073328
1608.7182,3165.285268226317
1610.4791,3624.7386754850586
1612.2394,4240.559388505426
1613.9988,4896.596721695905
1615.7576,5481.999947059392
1617.5156,5825.7182876328125
1619.2728,5787.300911633094
1621.0293,5415.196929019983
1622.785,4755.605391880214
1624.54,4031.7752981485555
1626.2942,3331.8555982037233
1628.0477,2718.4952021066765
1629.8005,2171.3929865998243
1631.5525,1765.5478012406218
1633.3037,1445.4584738725946
1635.0542,1206.023814683793
1636.804,1010.492619407682
1638.553,855.8136717174898
1640.3013,736.3357451815186
1642.0488,642.507604809935
1643.7955,582.6780082495482
1645.5416,510.99570672209234
1647.2868,454.059445622524
1649.0313,417.9679652358411
1650.7751,393.8700013064488
1652.5181,390.814285399073
1654.2604,392.9995451397406
1656.0019,428.7745042463371
1657.7427,483.9878825067526
1659.4828,599.3383954211336
1661.222,766.4247536497487
1662.9606,980.0956618594823
1664.6984,1221.2498170529734
1666.4354,1364.3359064319034
1668.1717,1344.3526049854559
1669.9072,1175.7985740594559
1671.642,902.7224615562027
1673.3761,647.8229036200089
1675.1094,453.24852736796356
1676.8419,325.19795343892633
1678.5737,227.9697979392722
1680.3048,174.31267372339744
1682.0351,113.72519136600135
1683.7646,92.55595969865658
1685.4934,63.75358641568482
1687.2215,50.01667828584823
1688.9488,42.09384144037517
1690.6754,34.63368151032614
1692.4012,24.93480370582415
1694.1263,24.94581289065559
1695.8506,15.56531367925868
1697.5742,15.041910436614899
1699.297,-0.47579262794738497
1701.0191,-4.08919145551863
1702.7404,5.5503227659780805
1704.461,-1.708600300356693
1706.1808,-10.46731104692617
1707.8999,-16.127142797216038
1709.6182,-14.339324306276467
1711.3358,-4.5049232190012845
1713.0527,-4.274863930433412
1714.7688,-16.750025831434414
1716.4841,-13.331245606975472
1718.1987,-14.569192609269976
1719.9126,-10.464403011388868
1721.6257,-12.817267440169417
1723.338,-6.178071983063546
1725.0496,-5.796974683021972
1726.7605,-3.9240718640564864
1728.4706,-10.559401938403198
1730.18,-14.552964116820021
1731.8886,-4.954652121641175
1733.5964,-4.764214291088592
1735.3036,4.018650533590062
1737.0099,11.244291105648017
1738.7156,4.663056138150296
1740.4204,4.825294231717635
1742.1246,6.981353940338295
1743.8279,9.581583769749386
1745.5306,19.076332155874297
1747.2325,6.615947438820513
1748.9336,12.350777767932641
1750.634,9.581171226396236
1752.3336,25.557475773888427
1754.0325,26.38003927427576
1755.7307,30.199209335850128
1757.4281,41.71533330310399
1759.1247,26.128758218538223
1760.8206,37.33983070750128
1762.5158,38.448897134053254
1764.2102,44.156303488857134
1765.9039,41.81239537808642
1767.5968,34.767517966352784
1769.289,51.37201600014441
1770.9804,54.82623387827448
1772.6711,57.98051548583658
1774.361,56.33520415966234
1776.0502,54.59064265677898
1777.7386,61.647173170861834
1779.4263,55.55513734968031
1781.1132,67.81487622453335
1782.7994,65.67673027116882
1784.4849,72.94103928718687
1786.1696,66.25814241342096
1787.8535,78.12837806129414
1789.5367,83.20208397964973
1791.2192,82.0795971360468
1792.9009,79.36125366602425
1794.5818,93.84738888432616
1796.2621,83.58833731208449
1797.9415,81.23443253195705
1799.6202,75.58600729071918
1801.2982,79.94339352280201
1802.9755,95.25692240677722
1804.6519,88.67692432178342
1806.3277,87.10372869438936
1808.0027,90.98766406439518
1809.6769,88.72905810056386
1811.3504,82.27823756178259
1813.0231,91.93552831964894
1814.6951,88.75125542297803
1816.3664,104.17574300123067
1818.0369,107.40931429635498
1819.7067,103.5022915085425
1821.3757,102.00499576389234
1823.044,108.91774715348151
1824.7115,107.0408647483373
1826.3783,109.37466653030981
1828.0443,106.36946941084068
1829.7096,108.37558920762524
1831.3741,118.64334067466461
1833.0379,123.72303748220418
1834.701,118.86499211405646
1836.3633,120.11951581680421
1838.0248,123.48691864838042
1839.6856,123.41750946552406
1841.3457,126.8615958901047
1843.005,131.2194843098173
1844.6636,144.84147984374204
1846.3214,132.9778862987646
1847.9785,134.92900603335693
1849.6349,135.99514007621224
1851.2904,137.52658810673427
1852.9453,139.7736484443759
1854.5994,142.68661803332463
1856.2528,146.06579242003136
1857.9054,146.21146572408122
1859.5572,150.2239306044023
1861.2083,136.0034782578084
1862.8587,138.75039837887425
1864.5084,146.76497930213998
1866.1572,153.09750797464244
1867.8054,144.6982698757696
1869.4528,148.86754895393403
1871.0994,143.65562771056636
1872.7453,157.61278715842138
1874.3905,146.43930687369857
1876.0349,154.08546485647014
1877.6786,155.50153764241554
1879.3215,155.88780022636013
1880.9637,157.09452604811463
1882.6051,155.721986988612
1884.2458,153.57045335784017
1885.8858,155.09019390856793
1887.525,155.33147585785957
1889.1634,158.44456487187824
1890.8011,151.12972506347205
1892.4381,154.1372189610438
1894.0743,157.0673075817001
1895.7098,157.57025040117583
1897.3446,162.446305324533
1898.9786,158.34572868113116
1900.6118,160.56877517586713
1902.2443,149.86569793018054
1903.8761,154.8367484598241
1905.5071,154.58217678189385
1907.1374,154.30223136511813
1908.7669,149.14715913240434
1910.3957,164.9672054636386
1912.0237,155.4126142472354
1913.651,152.3336277219379
1915.2776,154.23048657236325
1916.9034,151.95342995979252
1918.5285,146.30269550320247
1920.1528,151.97851930203592
1921.7764,158.83113599270882
1923.3992,154.31077869185276
1925.0213,149.5176789277881
1926.6427,150.00206668572787
1928.2633,127.81417045570788
1929.8832,160.7042172277438
1931.5023,145.57243271371055
1933.1207,145.26904101844127
1934.7383,155.9942647910451
1936.3552,146.3983252279412
1937.9714,144.4814419656061
1939.5868,153.54383317653344
1941.2015,147.68571558840245
1942.8154,145.5073043934542
1944.4286,146.65881330707361
1946.041,147.8904545895723
1947.6528,143.15243903467433
1949.2637,138.14497595719934
1950.8739,140.6182732404426
1952.4834,147.92253738624981
1954.0921,141.65797349028492
1955.7001,138.22478516898605
1957.3074,143.87317462221256
1958.9139,135.75334266757613
1960.5197,137.26548868395662
1962.1247,133.2098106927009
1963.729,135.7865053425012
1965.3325,127.4457679499518
1966.9353,135.5877924737822
1968.5374,134.0627715982647
1970.1387,127.92089665179412
1971.7393,129.66235762213773
1973.3392,129.0873432178539
1974.9383,130.74604085087765
1976.5366,129.98863664227076
1978.1342,123.56531540563424
1979.7311,125.97626065468376
1981.3273,132.12165466748183
1982.9227,119.50167846232853
1984.5173,132.76651173630785
1986.1112,121.56633299148757
1987.7044,124.2513194022705
1989.2968,124.17164692739675
1990.8885,124.22749028309329
1992.4795,128.41902294387182
1994.0697,127.74641714196923
1995.6592,120.50984382543209
1997.2479,127.5594726648444
1998.8359,122.94547212569148
2000.4232,118.46800939786442
2002.0097,120.07725044180017
2003.5955,122.22336003325574
2005.1805,120.55650174721609
2006.7648,125.92683793643289
2008.3484,121.83452974809256
2009.9312,119.6797370701139
2011.5133,117.71261857207003
2013.0946,120.08333172673667
2014.6752,124.49203282976339
2016.2551,116.43887697596688
2017.8342,123.37401801524413
2019.4126,120.84760863310362
2020.9902,113.60980028131439
2022.5672,112.61074320316982
2024.1433,125.45058650586475
2025.7188,113.82947817048739
2027.2935,125.54756492361957
2028.8674,109.75499235354857
2030.4406,115.4019047930866
2032.0131,104.03844547749577
2033.5849,112.96475648801982
2035.1559,114.03097886551768
2036.7261,107.58725252120178
2038.2957,116.4337162259751
2039.8645,118.92050767486819
2041.4325,116.09776339857513
2042.9998,111.06561873858493
2044.5664,113.82420787540946
2046.1323,108.27366387890447
2047.6974,108.21411868068355
2049.2617,113.09570312962376
2050.8254,116.26854699246098
2052.3883,116.3327789049747
2053.9504,113.73852634025843
2055.5118,111.03591560807911
2057.0725,107.02507188081847
2058.6325,119.60611922049918
2060.1917,112.1291806188932
2061.7502,108.34437787171191
2063.3079,110.20183165337494
2064.8649,108.90166155485804
2066.4212,111.09398606511945
2067.9767,116.72892258410008
2069.5315,100.25658740080087
2071.0856,106.07709563693356
2072.6389,107.79056141164392
2074.1915,102.99709778330651
2075.7433,103.69681673239057
2077.2945,101.63982920939412
2078.8448,99.52624512784689
2080.3945,90.30617338488099
2081.9434,103.77972188236652
2083.4916,99.44699761911221
2085.039,94.30810655612925
2086.5857,99.01315365995936
2088.1317,99.76224295406274
2089.677,90.15547747176862
2091.2215,87.89295924878365
2092.7652,88.62478941926025
2094.3083,94.10106823842199
2095.8506,93.27189507524474
2097.3921,96.03736835769399
2098.933,96.04758558101645
2100.4731,89.80264328008565
2102.0124,89.5526370292992
2103.5511,95.64766150502925
2105.089,88.53781048812112
2106.6261,89.67317680294445
2108.1626,89.10385238849159
2109.6983,88.17992828702296
2111.2332,86.60149464976143
2112.7675,82.3186407461306
2114.301,88.13145497953889
2115.8337,93.4900249302093
2117.3657,92.39443729705033
2118.897,89.94477784407064
2120.4276,88.69113141133397
2121.9575,91.8835819394568
2123.4866,84.77221248214465
2125.0149,91.25710517426756
2126.5426,80.68834130297375
2128.0695,79.91600124284071
2129.5956,83.49016456156255
2131.1211,83.56091002767346
2132.6458,88.62831557480655
2134.1698,86.6424583009861
2135.693,82.40341441795306
2137.2155,84.51125927102532
2138.7373,89.266067381487
2140.2584,83.41791242551
2141.7787,79.26686718660602
2143.2983,77.51300361410716
2144.8171,84.05639286467795
2146.3353,84.89710531985276
2147.8527,81.18521052060254
2149.3693,74.77077715892796
2150.8853,71.75387311497775
2152.4005,79.48456552119274
2153.9149,75.86292079247465
2155.4287,75.18900454888012
2156.9417,71.96288165183631
2158.454,77.68461621088113
2159.9655,73.65427161592328
2161.4764,72.4719104800256
2162.9865,76.08759467970822
2164.4958,75.50138536677218
2166.0045,76.21334293214284
2167.5124,66.37352701173262
2169.0195,72.63199647932004
2170.526,71.5388095449486
2172.0317,73.6940236923424
2173.5367,66.99769568983743
2175.0409,70.89988156882981
2176.5445,68.50063669073921
2178.0473,69.30001570798669
2179.5494,63.1480725879872
2181.0507,64.49486060515568
2182.5513,61.940432402426836
2184.0512,69.68483997778685
2185.5504,61.52813470981795
2187.0488,62.02036728025422
2188.5465,59.66158775554783
2190.0435,62.40184558194801
2191.5397,59.141189609088315
2193.0353,64.27966806258473
2194.5301,65.21732857664153
2196.0241,64.55421814266697
2197.5175,57.59038309989597
2199.0101,58.825869142021816
2200.502,65.1107213868338
2201.9931,61.694984363862375
2203.4835,64.72870195153075
2204.9733,57.261917411311856
2206.4622,59.24467335739121
2207.9505,54.52701183133564
2209.438,51.15897428226566
2210.9248,53.94060161403155
2212.4109,55.47193421889369
2213.8962,46.30301194970684
2215.3809,50.383874104606036
2216.8648,55.71455951869598
2218.3479,46.09510652324275
2219.8304,47.37555289236593
2221.3121,48.60593593923454
2222.7931,46.086292503262484
2224.2733,44.01665893780421
2225.7529,35.89707113535212
2227.2317,39.52756454823236
2228.7098,39.908174269800156
2230.1872,40.28893499813546
2231.6638,42.56988103223631
2233.1397,33.8010462682123
2234.6149,32.23246417647505
2236.0894,46.164167889425016
2237.5632,40.896190217138496
2239.0362,41.328563508049115
2240.5085,39.41131970162962
2241.9801,36.74449032406693
2243.4509,35.67810650743468
2244.921,31.61219901636207
2246.3904,34.99679825869765
2247.8591,32.43193432616778
2249.3271,28.01763696053132
2250.7943,26.753935579227857
2252.2608,33.14085931952087
2253.7266,28.02843705113463
2255.1917,33.81669731238503
2256.656,26.805668361303844
2258.1197,30.545378117756
2259.5826,19.335854233549867
2261.0447,23.77712405504036
2262.5062,30.719214735223886
2263.9669,27.712153189325647
2265.4269,21.955966025378757
2266.8862,21.30067957429486
2268.3448,14.546319947426468
2269.8026,25.692913043119404
2271.2598,24.490484614256786
2272.7162,24.889060156792652
2274.1719,17.03866492177633
2275.6268,23.839323911366762
2277.0811,19.191061957336444
2278.5346,20.193903653064694
2279.9874,22.04787340002065
2281.4395,26.702995397734583
2282.8908,22.259293625258124
2284.3414,30.016791794612914
2285.7914,21.025513395228018
2287.2406,21.935481616364825
2288.689,30.946719437029742
2290.1368,22.15924961687449
2291.5838,22.373094606084237
2293.0302,21.838276633251724
2294.4758,21.454817703239087
2295.9206,23.172739602526065
2297.3648,25.79206390304421
2298.8082,21.512811944998134
2300.251,22.38500481067183
2301.693,22.25866336722129
2303.1343,21.83380825795274
2304.5748,16.110459903585877
2306.0147,21.388638506502787
2307.4538,22.518364107980574
2308.8922,17.749656535410566
2310.3299,21.532535391000465
2311.7669,21.56702009946156
2313.2031,21.003129870180146
2314.6387,20.240883696872288
2316.0735,12.430300363223182
2317.5076,20.071398450509378
2318.941,16.96419641570452
2320.3737,14.908712515068544
2321.8056,26.854964835219505
2323.2369,19.252971313688647
2324.6674,23.402749619457552
2326.0972,21.254317228978778
2327.5263,28.507691384677628
2328.9547,22.7128891164362
2330.3823,22.619927169059963
2331.8092,16.42882206022574
2333.2355,7.039590081411234
2334.661,10.802247359806131
2336.0858,12.06680995220438
2337.5098,10.683293807377709
2338.9332,14.251714753430065
2340.3558,15.622088511632228
2341.7778,14.444430660738192
2343.199,10.718756623281195
2344.6195,13.695081677350402
2346.0393,12.723420993847583
2347.4583,12.853789606724092
2348.8767,3.5862024226969993
2350.2943,9.770674219945818
2351.7113,10.507183950487786
2353.1275,20.445710468633308
2354.543,13.786232523621322
2355.9578,14.478728660233799
2357.3718,13.473177285390477
2358.7852,9.169556661223965
2360.1978,11.067844915135538
2361.6098,10.818020082830742
2363.021,16.320060089337005
2364.4315,13.523942751501579
2365.8413,10.679645722971657
2367.2504,11.437146522155103
2368.6587,16.546422560663473
2370.0664,15.107451135736767
2371.4733,12.27020937915131
2372.8795,13.634674271608674
2374.285,11.750822671108665
2375.6899,13.21863129930432
2377.0939,12.888076760340596
2378.4973,10.70913552617617
2379.9,13.581783939889306
2381.3019,17.85599823746702
2382.7032,9.381754519078413
2384.1037,9.00902870633297
2385.5035,20.337796627022556
2386.9027,12.518034018849221
2388.3011,14.249716416137176
2389.6987,9.382819228030428
2391.0957,8.26731772117597
2392.492,6.503187068392947
2393.8876,11.04040235982717
2395.2824,10.128938620592976
2396.6765,7.018770765400859
2398.07,7.309873607671818
2399.4627,3.352221890639214
2400.8547,11.245790284437987
2402.246,0.8905534256810483
2403.6366,2.8364858385236857
2405.0265,3.533553150491855
2406.4156,3.2817209607472364
2407.8041,5.330954833115982
2409.1918,7.931220298607229
2410.5789,4.432482834920734
2411.9652,4.284707840444412
2413.3508,5.387860669241604
2414.7358,4.491906632528469
2416.12,7.846810987642755
2417.5035,7.052538947003541
2418.8863,5.9590556445616585
2420.2684,7.366326143742867
2421.6497,10.924315448382401
2423.0304,4.932988488652427
2424.4104,6.442310085482063
2425.7896,6.202245010470847
2427.1682,-1.1372420292047423
2428.546,5.023813611609739
2429.9232,2.635387939115958
2431.2996,8.947456909277832
2432.6753,0.1599964517056378
2434.0503,-0.5270175934647341
2435.4246,12.236390612302785
2436.7982,7.85020217244994
2438.1711,10.114398068054982
2439.5433,7.42895920169417
2440.9148,3.493866374799893
2442.2856,5.009100314515081
2443.6557,4.774641713044332
2445.025,3.490471212501575
2446.3937,3.306569407254642
2447.7617,0.9729168567667443
2449.1289,7.589494087435469
2450.4955,7.256281615930163
2451.8613,4.423259883024798
2453.2265,3.690409256930991
2454.5909,6.857710061627586
2455.9546,8.075142584190019
2457.3177,4.892687043116155
2458.68,8.76032357615287
2460.0416,2.2280322721204584
2461.4025,6.045793132236156
2462.7627,1.2635861354362987
2464.1222,9.031391200199721
2465.4811,7.89918823236934
2466.8392,4.416957047474625
2468.1966,9.984677382053064
2469.5533,10.602328928472957
2470.9093,11.869891279256422
2472.2645,10.437343920902208
2473.6191,10.004666221210698
2474.973,14.62183744360891
2476.3262,11.63883675147764
2477.6787,11.255643161979094
2479.0305,17.72223557588751
2480.3816,16.338592781420573
2481.7319,15.95469338957406
2483.0816,12.520515847957881
2484.4306,21.4860384446352
2485.7789,9.551239342463987
2487.1264,15.41609648944194
2488.4733,15.58058773805459
2489.8195,11.094690786626359
2491.165,21.458383177676012
2492.5097,13.021642342775351
2493.8538,13.78444549891276
2495.1972,20.44676973285999
2496.5398,15.358591993544621
2497.8818,17.819889025426505
2499.2231,20.180637419380048
2500.5637,21.190813588080687
2501.9035,13.500393742397819
2503.2427,19.759353881292725
2504.5812,17.717669868723135
2505.919,23.77531737105312
2507.256,22.58227187747019
2508.5924,16.038508639408917
2509.9281,17.49400268248104
2511.2631,16.548728871913454
2512.5974,24.80266189799329
2513.9309,21.20577628552053
2515.2638,21.7080463112689
2516.596,17.109446039954435
2517.9275,16.1599493192129
2519.2583,25.20952982558572
2520.5884,20.758161074015163
2521.9178,13.455816327348145
2523.2465,15.352468640850361
2524.5745,18.448090935229345
2525.9018,13.79265597766829
2527.2284,18.48613635086963
2528.5543,20.478504499609414
2529.8796,18.869732683802283
2531.2041,26.40979295857801
2532.5279,16.348657190369295
2533.851,17.88629698151101
2535.1735,20.87268377085138
2536.4952,19.307788818375855
2537.8163,23.391583175343158
2539.1366,18.374037699934433
2540.4562,27.205123016414973
2541.7752,20.784809565309786
2543.0935,26.013067515092985
2544.411,22.139866826390346
2545.7279,18.86517719969737
2547.0441,29.98896811411106
2548.3596,26.411208860076613
2549.6744,25.53186842814989
2550.9885,25.750915544774443
2552.3019,21.518318681075357
2553.6146,25.434046050668826
2554.9266,25.248065651987872
2556.2379,26.960345229125437
2557.5485,26.87085227369363
2558.8585,27.079554007701518
2560.1677,23.68641738444984
2561.4762,28.941409086443684
2562.7841,28.544495559324076
2564.0913,26.895642959318167
2565.3977,33.494817157208075
2566.7035,28.841983754819665
2568.0086,25.387108019030848
2569.313,24.330154928299777
2570.6167,28.121089207213743
2571.9197,26.50987533705856
2573.222,33.59647751790948
2574.5236,35.930859684743155
2575.8246,30.86298543657159
2577.1248,31.942818013098417
2578.4244,34.77032034539755
2579.7232,29.595455045114647
2581.0214,32.268184376192266
2582.3189,36.138470306618615
2583.6157,38.20627448170012
2584.9118,40.721558185358504
2586.2072,39.38428231945301
2587.5019,42.444407378627545
2588.7959,33.60189346368327
2590.0893,41.75670025097713
2591.3819,42.85878708084749
2592.6739,47.40811287606601
2593.9652,52.60463613081646
2595.2557,43.448314865201695
2596.5456,49.13910657327847
2597.8348,51.726968314620365
2599.1234,58.211856657409896
2600.4112,55.89372765256019
2601.6983,57.42253676886594
2602.9848,55.948238916184664
2604.2705,60.52078843014871
2605.5556,53.99013908690824
2606.84,53.806244057405564
2608.1237,53.819055972681895
2609.4067,59.52852692571582
2610.689,50.88460847129545
2611.9707,49.4372515689239
2613.2516,49.03640666925821
2614.5319,51.38202372858319
2615.8115,52.324052212819566
2617.0903,47.46244107406818
2618.3685,42.69713874118935
2619.6461,47.37809316841904
2620.9229,51.505251883022
2622.199,48.12856193848222
2623.4745,48.74796987323134
2624.7493,53.26342174441535
2626.0234,50.62486312170077
2627.2968,43.48223904211997
2628.5695,48.08549403645685
2629.8415,49.234572200673085
2631.1128,54.17941714987555
2632.3835,46.56997200682537
2633.6535,49.8561793524899
2634.9228,50.88798130213658
2636.1914,55.06531947247123
2637.4593,49.888134971320056
2638.7265,49.006368355855955
2639.9931,51.81995968437067
2641.259,47.67884852509238
2642.5242,49.83297392804954
2643.7887,44.33227446648229
2645.0525,42.376688215301186
2646.3156,48.06615280609407
2647.5781,46.500605446682044
2648.8398,45.72998286422455
2650.1009,45.10422132087518
2651.3613,43.773256621487775
2652.6211,41.437024119874025
2653.8801,40.34545873211323
2655.1385,40.79849495991448
2656.3961,38.64606690153238
2657.6531,41.13810824723677
2658.9094,38.47455230083682
2660.1651,41.80533195476082
2661.42,47.68037971669159
2662.6743,43.84962767625865
2663.9279,47.31300744628797
2665.1808,49.770450201109156
2666.433,45.421886641921844
2667.6846,51.5672469722212
2668.9354,56.756460941283876
2670.1856,54.339457782713765
2671.4351,59.666166162550354
2672.6839,61.336514203438725
2673.9321,60.00042943136228
2675.1795,64.10783875893952
2676.4263,63.458668498784505
2677.6724,66.55284432243303
2678.9179,66.04029126683434
2680.1626,66.32093370340905
2681.4067,72.54469534317502
2682.6501,63.11149923394083
2683.8928,69.9212676980683
2685.1348,64.37392242680423
2686.3761,53.369384412182825
2687.6168,50.55757400249925
2688.8568,55.438411012354806
2690.0961,54.06181475077494
2691.3348,52.72770397240126
2692.5727,47.18599689125713
2693.81,47.136611194089085
2695.0466,45.629464095783646
2696.2826,47.21447233986137
2697.5178,47.49155221354823
2698.7524,47.510619531925414
2699.9863,51.37158963515867
2701.2195,51.87437738830778
2702.452,58.26889714271661
2703.6839,56.85506273098551
2704.9151,60.482787403025895
2706.1456,59.251983840198704
2707.3755,64.01256411903705
2708.6046,64.36443972355434
2709.8331,69.75752149763827
2711.0609,71.24171964153254
2712.2881,74.7669436579057
2713.5145,77.78310233700938
2714.7403,84.74010372142573
2715.9654,81.2878550759059
2717.1899,86.57626281780014
2718.4136,95.85523255158029
2719.6367,106.97466901595558
2720.8591,115.08447599108317
2722.0809,121.6845561873736
2723.3019,121.07481116439277
2724.5223,124.60514126486109
2725.7421,128.72544562075097
2726.9611,121.28562211798342
2728.1795,118.63556735522508
2729.3972,107.07517671828643
2730.6142,95.85434440662232
2731.8306,94.67296354893608
2733.0462,81.58092631538756
2734.2612,82.17812392940726
2735.4756,71.06444679861625
2736.6892,70.43978450885459
2737.9022,63.954025935317816
2739.1145,59.757059248803785
2740.3262,56.49877198057021
2741.5372,57.77905106430424
2742.7475,46.097782868705366
2743.9571,46.00485318468267
2745.1661,41.550147342167435
2746.3744,44.08355021104259
2747.582,33.654946245689615
2748.7889,34.26421945965461
2749.9952,28.661253529934385
2751.2008,26.54593179088363
2752.4057,28.468137290244755
2753.61,25.57775281030092
2754.8136,23.824660848654105
2756.0165,21.608743647128733
2757.2188,16.929883209302687
2758.4204,16.787961322666604
2759.6213,19.83285960541224
2760.8215,20.4644595078519
2762.0211,25.18264228196935
2763.22,22.93728897510377
2764.4182,17.22828038276802
2765.6158,15.255497071102212
2766.8127,11.118819433963807
2768.009,14.06812771265544
2769.2045,7.353302037291684
2770.3994,6.174222397305982
2771.5936,3.0807687085989244
2772.7872,2.072820825328847
2773.9801,3.8502585708466484
2775.1723,3.462961747774898
2776.3639,0.11081012023385028
2777.5548,-5.406316582286081
2778.745,-6.088538631402116
2779.9346,-0.9859222896290021
2781.1235,-4.898472994980523
2782.3117,-2.0261863361068606
2783.4992,-5.619008965913281
2784.6861,-5.52686729570334
2785.8723,-2.699631602881283
2787.0579,-4.8371169514472285
2788.2428,-5.7391114360816005
2789.427,-6.25535482866681
2790.6106,-2.6855295673620674
2791.7935,0.22074440066825218
2792.9757,-2.3861260433000666
2794.1573,-3.005734020198446
2795.3382,-5.337648813559298
2796.5184,1.2685903203677356
2797.698,0.813497448444565
2798.8769,0.8975866248472926
2800.0551,1.6213718956173864
2801.2327,3.7353672978203747
2802.4096,4.04008685230832
2803.5859,6.9860445425797195
2804.7615,10.523754311732489
2805.9364,13.00373003300399
2807.1106,16.826485474394275
2808.2842,20.492534273866198
2809.4572,22.05238990111789
2810.6294,33.856565620922254
2811.801,38.80557447752824
2812.972,46.249929176619474
2814.1423,52.44014203582387
2815.3119,61.37672491027013
2816.4808,83.51018913068563
2817.6491,104.49104541403065
2818.8167,120.56980364216344
2819.9837,147.84697265203198
2821.15,176.72306007488623
2822.3157,213.2985720635067
2823.4807,255.12401300344345
2824.645,293.44988514726083
2825.8086,346.77668819628315
2826.9716,389.45491891733616
2828.134,430.8850706094789
2829.2957,475.6676326772211
2830.4567,508.5030902162219
2831.617,536.5919235654644
2832.7767,547.3846079789009
2833.9358,541.9316133445645
2835.0941,541.6834040766423
2836.2519,526.2904391700058
2837.4089,496.6031722026921
2838.5653,478.32205148983417
2839.7211,454.0975203805334
2840.8761,445.58001744067064
2842.0306,452.06997669515175
2843.1843,446.3678277130824
2844.3374,451.9739955428687
2845.4899,454.43890076923844
2846.6417,465.16295945717997
2847.7928,477.9965831272924
2848.9433,480.4901786485457
2850.0931,492.2941481099437
2851.2422,499.2088887955889
2852.3907,497.4347930666421
2853.5385,499.02224829217545
2854.6857,495.12163686691315
2855.8323,515.6833361953569
2856.9781,536.0577187307922
2858.1233,544.5451517696713
2859.2679,572.2459972478689
2860.4118,585.7106116558086
2861.555,611.989345761454
2862.6976,632.932544475663
2863.8395,645.7905465893999
2864.9808,661.463684564304
2866.1214,663.7522844041089
2867.2614,669.7566654979119
2868.4007,685.8771405972875
2869.5393,704.4640157562435
2870.6773,713.5675901700165
2871.8146,726.188155989203
2872.9513,745.6759982287239
2874.0874,756.8813946416187
2875.2227,763.1046155241668
2876.3574,776.7459236038341
2877.4915,794.9555739770403
2878.6249,806.3838139727459
2879.7577,826.6308829703559
2880.8898,828.5470122854374
2882.0212,842.9324249672484
2883.152,868.5373357795773
2884.2821,871.5119510568877
2885.4116,895.9064684482712
2886.5405,901.7210768876985
2887.6686,913.2559563500774
2888.7962,920.961277793104
2889.923,915.1872030419156
2891.0493,906.2338847120373
2892.1748,900.1514662671214
2893.2997,904.7400821084825
2894.424,905.94985763592
2895.5476,911.8809092018327
2896.6706,917.6833440991218
2897.7929,917.2572605018781
2898.9145,916.0027474073604
2900.0355,905.3698846402543
2901.1559,907.2587428652183
2902.2756,894.5693836932123
2903.3946,892.4018596626088
2904.513,892.5562143660866
2905.6308,883.9324824723058
2906.7479,872.8306897243651
2907.8643,872.6008530260378
2908.9801,877.9429805527909
2910.0953,881.4570717540826
2911.2098,872.9931172999413
2912.3236,873.3010990458254
2913.4368,861.6309901172617
2914.5494,858.3827549067662
2915.6613,845.5063491905456
2916.7725,831.251720160979
2917.8831,820.0188065553814
2918.9931,802.8075387985521
2920.1024,787.4178391151012
2921.211,780.5996217015647
2922.319,762.3527928802996
2923.4264,751.9272511676672
2924.5331,754.6228874565011
2925.6391,742.9395851203619
2926.7445,745.3272199865821
2927.8493,749.9356604530983
2928.9534,746.8647674645752
2930.0569,757.2143944663209
2931.1597,766.9343874349959
2932.2619,780.5245847751174
2933.3634,779.9848172218585
2934.4643,791.6649077051468
2935.5645,790.1646713550621
2936.6641,815.5339153850348
2937.763,821.8224391068492
2938.8613,821.1800336769503
2939.959,805.9564820335588
2941.056,796.2015589030952
2942.1523,754.265030952415
2943.248,710.3966568863588
2944.3431,671.0461878671165
2945.4375,623.9133679529117
2946.5313,575.1979344915067
2947.6244,534.2496185915297
2948.7169,493.96814560963014
2949.8087,449.3032355599609
2950.8999,415.6046035169937
2951.9904,379.8219600621681
2953.0803,351.9550116208776
2954.1696,328.7034608202962
2955.2582,310.41700676804817
2956.3462,298.3453452847232
2957.4335,290.38816908674096
2958.5202,285.29516790706754
2959.6062,291.2660285747879
2960.6916,293.650435066035
2961.7764,288.1480684442821
2962.8605,295.70860683649767
2963.9439,292.6317254881701
2965.0267,287.7670966877015
2966.1089,293.7643897971769
2967.1905,292.37327130101033
2968.2714,283.0434047459722
2969.3516,271.6744507551
2970.4312,277.01606712099743
2971.5102,277.7179089195239
2972.5885,272.2796284563782
2973.6662,270.30087526008003
2974.7432,277.03129613635303
2975.8196,279.720535187912
2976.8954,286.468233747159
2977.9705,280.22403034929073
2979.045,280.4375606648217
2980.1188,289.8584575620262
2981.192,281.136351104803
2982.2645,281.42086845846615
2983.3364,267.21163397696665
2984.4077,251.75826920004673
2985.4783,233.4603929953326
2986.5483,220.01762171286774
2987.6177,212.0795693680919
2988.6864,204.8458477762686
2989.7545,192.9160666318656
2990.8219,181.33983358089228
2991.8887,173.8167543401974
2992.9548,157.59643281323164
2994.0204,141.8284711652779
2995.0852,125.26246998565517
2996.1495,105.64802844539756
2997.2131,94.03474446291466
2998.276,82.62221490013576
2999.3383,71.81003567864286
3000.4,57.89780189379596
3001.4611,50.235107922854695
3002.5215,42.121547564100695
3003.5812,30.506714113464625
3004.6404,23.990200445661742
3005.6989,21.17159913034027
3006.7567,16.7505024972464
3007.8139,12.126502664410566
3008.8705,10.199191582358253
3009.9264,8.21816108035003
3010.9818,10.233002885654571
3012.0364,3.2433086433591427
3013.0905,-2.4013301037790313
3014.1439,0.19867815456424864
3015.1966,-5.007051081999151
3016.2487,0.4310976841557874
3017.3002,-6.337210028905616
3018.3511,0.937691292571003
3019.4013,-1.59446952893191
3020.4509,-2.5839636803088126
3021.4998,-3.781046419703472
3022.5481,-2.135947191462577
3023.5958,-1.2988576672792362
3024.6428,-6.96994818073415
3025.6892,-2.84937608982014
3026.735,-1.3372291227476296
3027.7802,-0.7835665424601927
3028.8247,2.5615657470175677
3029.8685,-5.201870330509536
3030.9118,0.8260871231478006
3031.9544,-5.204548027136468
3032.9963,5.706238075250667
3034.0376,6.758511280357027
3035.0783,5.152337381168195
3036.1184,7.387782103084618
3037.1578,11.01491111998331
3038.1966,14.883790031863612
3039.2348,11.8944843285756
3040.2723,14.797059351131793
3041.3092,16.541580321599923
3042.3455,15.478112314077123
3043.3811,21.506720237244636
3044.4161,20.027468845002844
3045.4505,26.89042267618487
3046.4842,24.545646069349274
3047.5173,25.443203094150363
3048.5498,24.033157574785974
3049.5816,27.015573081021955
3050.6128,26.540512942292622
3051.6434,31.85804021787655
3052.6734,34.618217701647254
3053.7027,29.67110786889795
3054.7314,35.96677284873964
3055.7594,37.90527447357232
3056.7868,33.28667421612826
3057.8136,37.86103317008711
3058.8398,41.42841209626178
3059.8653,43.93887137685488
3060.8902,53.1924709797849
3061.9145,51.939270433581655
3062.9381,52.62932873485035
3063.9612,53.512704360803454
3064.9835,57.68945526236037
3066.0053,56.259638855313426
3067.0264,59.22331197856053
3068.0469,59.28053090840319
3069.0668,62.33135132890996
3070.086,64.67582833134408
3071.1046,58.51401638365529
3072.1226,59.24596930703511
3073.1399,57.17174033753494
3074.1567,55.04138211874644
3075.1727,55.80494672254402
3076.1882,55.41248567038822
3077.203,51.064049925690185
3078.2173,51.00968989773625
3079.2308,43.44945548517235
3080.2438,40.33339607654753
3081.2561,38.56156062591626
3082.2678,36.53399768399906
3083.2789,35.80075541590095
3084.2893,34.86188162138696
3085.2991,29.91742374221461
3086.3083,29.9674288715227
3087.3169,25.361943803275835
3088.3248,25.10101503176429
3089.3321,24.684688797659035
3090.3388,25.96301109062088
3091.3449,22.986027653463807
3092.3503,23.503783969371682
3093.3551,25.066325291668136
3094.3593,22.373696638638975
3095.3629,23.67594277790677
3096.3658,19.323108253357162
3097.3681,20.76523737211643
3098.3698,21.602374248079755
3099.3708,25.284562787490003
3100.3713,22.41184668056637
3101.3711,20.18426936468245
3102.3702,25.401874053093437
3103.3688,18.514703757211862
3104.3667,16.722801234431557
3105.364,14.676209056999298
3106.3607,18.024969629933892
3107.3568,12.219125211492027
3108.3522,19.408717879680708
3109.347,14.693789590315717
3110.3412,17.074382105125657
3111.3348,17.350537038901265
3112.3277,13.572295835689403
3113.32,18.48969976603162
3114.3117,13.502789964746583
3115.3028,16.91160738175593
3116.2932,15.566192831953515
3117.2831,11.916586961117076
3118.2723,12.662830259362465
3119.2608,14.004963097639731
3120.2488,12.94302572027064
3121.2361,12.327058231527388
3122.2229,8.157100606251973
3123.209,13.533192696015803
3124.1944,11.555374270819364
3125.1793,10.423684965331226
3126.1635,13.588164298666243
3127.1471,6.3488516857024635
3128.1301,11.95578640543632
3129.1125,8.809007673375746
3130.0942,8.35855458547082
3131.0753,11.904466149581594
3132.0558,10.796781289982576
3133.0357,7.135538811903643
3134.015,9.970777412606878
3134.9936,12.75253571799896
3135.9716,8.830852254278852
3136.949,8.555765420120167
3137.9258,11.227313525888
3138.902,12.095534796389813
3139.8775,7.410467344159947
3140.8524,9.122149160777411
3141.8267,8.780618163716532
3142.8004,12.485912179230219
3143.7735,11.688068945765195
3144.7459,13.337126076909094
3145.7178,11.283121069368896
3146.689,11.12609128648031
3147.6596,12.116073978747863
3148.6295,16.25310628541522
3149.5989,11.28722522456529
3150.5676,13.468467651749947
3151.5357,13.796870309648853
3152.5032,11.722469806257024
3153.4701,11.395302611600776
3154.4364,15.415405078481712
3155.402,12.382813445748468
3156.367,11.447563798095608
3157.3315,13.059692096389583
3158.2952,16.019234187021233
3159.2584,15.276225785784472
3160.221,15.230702448280908
3161.1829,15.332699577349892
3162.1442,17.182252423523774
3163.105,17.42939608400789
3164.065,16.674165484185114
3165.0245,13.366595375144325
3165.9834,18.906720341232784
3166.9416,13.24457483313179
3167.8993,18.53019311245544
3168.8563,20.213609308372124
3169.8127,19.8948573647483
3170.7684,18.823971023314343
3171.7236,14.550983826852072
3172.6782,18.8259291299036
3173.6321,16.898840141501207
3174.5854,19.369749882417903
3175.5381,17.138691204438278
3176.4902,19.355696765649437
3177.4417,17.670799052751608
3178.3926,21.884030358888037
3179.3428,16.59542280049404
3180.2924,23.905008275164604
3181.2415,21.762818514540538
3182.1899,22.268885011212557
3183.1377,19.97323904014323
3184.0848,20.87591165360627
3185.0314,20.126933704143035
3185.9773,21.026335835535757
3186.9227,20.374148490297355
3187.8674,20.970401900677377
3188.8115,19.515126095183895
3189.755,24.40835089262097
3190.6979,17.000105916641413
3191.6402,22.190420546814522
3192.5818,24.22932399270854
3193.5229,22.766845241987514
3194.4633,23.85301304002224
3195.4031,21.48785590451509
3196.3423,23.97140211463827
3197.2809,25.203679734685466
3198.2189,19.434716589236338
3199.1563,21.864540250833766
3200.0931,23.043178097673486
3201.0292,24.27065728930582
3201.9648,24.047004754849326
3202.8997,25.022247180715986
3203.834,26.54641101284772
3204.7677,26.66952244696395
3205.7008,24.191607413320018
3206.6333,27.86269157547606
3207.5652,25.232800355076108
3208.4964,25.351958895137315
3209.4271,25.470192086348813
3210.3571,26.937524565880146
3211.2865,25.803980716198936
3212.2154,27.569584650397562
3213.1436,27.784360223528598
3214.0712,29.048331014948776
3214.9982,26.6115203261712
3215.9246,29.87395116822568
3216.8503,27.03564628602682
3217.7755,27.146628125749714
3218.7001,29.95691886321298
3219.624,33.41654040276899
3220.5473,35.025514349200904
3221.4701,29.383861973126542
3222.3922,32.29160419490853
3223.3137,31.848761641070872
3224.2346,32.405354615221526
3225.1549,29.66140310248083
3226.0746,30.46692676391559
3226.9937,31.471944963978594
3227.9121,32.376476762453365
3228.83,34.68054090440396
3229.7473,35.13415581112968
3230.6639,32.3373395571244
3231.5799,32.540109865540444
3232.4954,35.84248413615673
3233.4102,31.994479443351068
3234.3244,34.14611250307646
3235.238,34.64739971134108
3236.151,36.84835712269201
3237.0634,36.99900044520231
3237.9752,34.49934501846144
3238.8864,36.54940581206885
3239.797,35.99919745063052
3240.7069,37.34873419325838
3241.6163,36.198029939072356
3242.5251,38.64709821370501
3243.4332,37.94595218080862
3244.3408,40.79460461756446
3245.2477,36.54306792169425
3246.154,36.59135408297368
3247.0598,39.089474725747735
3247.9649,35.38744110844785
3248.8694,38.53526409861074
3249.7733,41.8829542098987
3250.6766,40.03052157062141
3251.5793,39.47797589025897
3252.4814,38.825326477986266
3253.3829,38.7225822481984
3254.2838,38.76975172703724
3255.1841,38.86684305341878
3256.0838,39.363863978561525
3256.9829,39.61082186501554
3257.8814,38.057723681692224
3258.7792,41.25457600139478
3259.6765,43.35138501634914
3260.5731,41.89815650623548
3261.4692,42.04489581722008
3262.3647,39.89160787648768
3263.2595,40.388297190774054
3264.1538,37.53496786789886
3265.0474,41.58162361179879
3265.9404,41.428267751060844
3266.8329,40.62490319845574
3267.7247,43.671532452471524
3268.616,44.518157605347156
3269.5066,38.36478031260628
3270.3966,41.81140178459093
3271.286,40.85802284799534
