RamanShift,CorrectedData
30.1047,1839.4804656162096
32.3739,1716.5840337107586
34.6426,1591.7375834105026
36.9109,1465.2910791547972
39.1787,1338.2944694656208
41.4461,1213.0476882120408
43.7131,1089.5006558801801
45.9796,964.6032808256839
48.2456,840.3554605091895
50.5112,717.8070827453009
52.7764,591.4080269450676
55.0411,471.0081653414674
57.3054,344.95736425339805
59.5692,225.15548528967514
61.8326,103.70238660954071
64.0955,-13.602075879318164
66.3579,-132.10804730623823
68.6199,-244.41553691581822
70.8815,-342.6232341932644
73.1426,-393.72738691256984
75.4032,-313.3708200416178
77.6634,78.35757478830385
79.9231,1174.1220365203978
82.1824,3761.486803314292
84.4412,8467.166101588395
86.6995,15018.674120146245
88.9574,21354.424963119727
91.2148,25739.232584453977
93.4717,27739.910724549885
95.7282,28120.022866416024
97.9842,27925.732215661847
100.2398,27337.80169669659
102.4949,26635.093954672167
104.7495,25793.221361362466
107.0036,24907.29602219045
109.2573,24032.129784646862
111.5105,23253.18424714949
113.7632,22358.220767794814
116.0154,21661.150472147492
118.2672,21079.634262189957
120.5185,20509.43282329316
122.7693,20026.906630031684
125.0197,19613.765951885805
127.2696,19268.97085806674
129.519,18983.181221648025
131.7679,18703.65672301351
134.0163,18451.756852715233
136.2642,18141.990914268645
138.5117,17796.918026671665
140.7587,17476.19712750228
143.0052,17161.08697636932
145.2512,16826.196158119623
147.4967,16492.233085989174
149.7417,16240.706004951991
151.9863,16000.222995059767
154.2304,15835.141973957128
156.4739,15570.770699286488
158.717,15398.166770338834
160.9596,15143.387630697453
163.2017,14752.040569963967
165.4433,14409.382726306118
167.6844,13912.671090371252
169.925,13515.962508712884
172.1651,13054.06368875782
174.4047,12656.481202773246
176.6439,12328.771492485708
178.8825,11946.090873056948
181.1206,11677.895536361
183.3582,11416.091554810984
185.5954,11215.984884041063
187.832,10997.131365524501
190.0681,10902.0867285747
192.3037,10803.10659253376
194.5388,10696.096467722924
196.7734,10644.661756432362
199.0075,10590.157753991276
201.2411,10637.589649282276
203.4742,10594.16252528637
205.7068,10675.031358608692
207.9389,10672.60101991276
210.1704,10761.326273111768
212.4015,10794.411775392906
214.632,10863.662076330109
216.862,10973.731617553194
219.0915,11046.674732055368
221.3205,11163.59564309251
223.549,11333.998463453774
225.777,11532.687194292348
228.0044,11777.96572342144
230.2314,12146.537823327399
232.4578,12496.8071487169
234.6837,12762.277232831262
236.909,12936.351483943725
239.1339,12792.383182704767
241.3582,12478.425480401369
243.582,12003.23140039666
245.8053,11614.903841269545
248.0281,11196.3955815666
250.2503,10846.509283685367
252.472,10591.09749805945
254.6932,10487.362666657362
256.9139,10305.557125536641
259.134,10252.08310588122
261.3536,10122.442735819453
263.5727,10080.588040958872
265.7912,9938.870945682573
268.0092,9892.243273567792
270.2267,9759.656748803041
272.4436,9660.26299665442
274.6601,9504.313544791452
276.8759,9318.809824281045
279.0913,9247.153171146969
281.3061,9149.54482822491
283.5204,9148.885945879032
285.7341,9099.87758297804
287.9473,9215.120706901796
290.16,9358.416194031402
292.3721,9607.61482859674
294.5837,9969.967301243547
296.7947,10247.074206541425
299.0052,10378.236039360292
301.2152,10175.853192099334
303.4246,9757.375953375376
305.6334,9129.704510046722
307.8418,8575.688951397928
310.0495,8107.779275416513
312.2568,7686.875394333112
314.4635,7428.527139300562
316.6696,7243.834264602974
318.8752,7112.496450239181
321.0802,7078.2133037696785
323.2847,7154.1843616300175
325.4887,7136.209089473603
327.692,7024.836881412008
329.8949,6844.417060194715
332.0972,6509.798878322847
334.2989,6159.631519853359
336.5001,5829.81410374523
338.7007,5611.495687361117
340.9008,5395.275269765552
343.1003,5227.501793908108
345.2992,5135.324148785619
347.4976,5041.691171119908
349.6955,4956.551646279551
351.8927,4990.75430921622
354.0895,4913.897845316089
356.2856,4919.680890057793
358.4812,4841.402029780989
360.6763,4813.209801628533
362.8707,4751.952694329275
365.0646,4747.329148479974
367.258,4665.737557157883
369.4508,4614.976265966958
371.643,4696.693573853787
373.8346,4594.437733615199
376.0257,4529.75695108109
378.2162,4377.849386136984
380.4062,4247.663153370835
382.5956,4063.9463235921103
384.7844,3916.796925133667
386.9726,3788.6629456889095
389.1603,3693.5923337832846
391.3474,3554.5830000556107
393.5339,3499.6828182087847
395.7199,3424.539626399881
397.9052,3407.1512277891525
400.09,3347.515391291454
402.2743,3413.1798517501393
404.4579,3411.792310533421
406.641,3547.500434877704
408.8235,3768.151857901472
411.0054,3997.094177248222
413.1868,4406.274952879932
415.3675,4688.591704787641
417.5477,4835.141908899654
419.7273,4838.372994258361
421.9064,4671.682341554741
424.0848,4497.367283096046
426.2627,4249.075104472704
428.4399,3902.1530463014897
430.6166,3507.198306708433
432.7928,3117.958044798046
434.9683,2751.5793846028755
437.1432,2546.3094189758795
439.3176,2342.14521325424
441.4914,2150.9838073120427
443.6645,2084.722217601926
445.8371,1968.257439066696
448.0091,1871.886445801938
450.1806,1814.5061922206733
452.3514,1716.5136140170616
454.5216,1689.8056287402069
456.6913,1582.679136774077
458.8603,1636.3310216045902
461.0288,1661.1081508908683
463.1967,1651.2573759287407
465.3639,1724.4255314029542
467.5306,1798.0094354856774
469.6967,1907.8058891048458
471.8622,2020.5616752083115
474.0271,2140.673557665872
476.1914,2210.5882801417138
478.3551,2156.002564893304
480.5182,2126.4631120722443
482.6807,2089.5666002700964
484.8426,2182.80968681382
487.0039,2431.189008134712
489.1647,2827.101178835972
491.3248,3235.9427892089334
493.4843,3396.8104012739277
495.6432,3388.0505446918614
497.8015,3242.45971515555
499.9592,3215.5843744773083
502.1163,3159.2709520448625
504.2728,2895.2658450901035
506.4287,2591.1154192522117
508.5839,2178.4160112177306
510.7386,1841.613931762051
512.8927,1608.55546987641
515.0461,1477.3368961359047
517.199,1385.7044650301032
519.3512,1389.654416275178
521.5029,1458.4329757302767
523.6539,1552.3363553580202
525.8043,1525.3107525366868
527.9541,1534.5523491212043
530.1033,1518.9073117133958
532.2519,1528.3717915695852
534.3999,1649.3419247570273
536.5472,1880.8138320592698
538.694,2363.083617766446
540.8401,2955.397367360558
542.9856,3412.851142692787
545.1305,3554.9409760603558
547.2748,3418.762865631972
549.4185,3058.0627740269483
551.5615,2685.9866296769796
553.704,2545.9303304331297
555.8458,2440.189747286615
557.987,2462.510725769338
560.1276,2440.5890870113253
562.2675,2460.1206275175064
564.4069,2482.3011193869206
566.5456,2479.0263101174205
568.6837,2364.0419223838508
570.8212,2084.743654070804
572.958,1763.8271794224602
575.0942,1479.1881518355804
577.2299,1260.5722070686606
579.3648,1240.8249660883193
581.4992,1305.4920372554625
583.6329,1500.7690165227505
585.766,1732.8514867879312
587.8985,1867.1350159410758
590.0304,1841.9651545437227
592.1616,1748.8374344860895
594.2922,1633.6973692387219
596.4222,1452.0404547838225
598.5515,1312.712170766601
600.6802,1149.9579823118875
602.8083,967.0233414173999
604.9358,920.0536885812762
607.0626,825.294454631432
609.1888,773.2910611952539
611.3144,749.1389216471907
613.4393,621.8334416288126
615.5636,544.2200192903038
617.6873,428.3940465635278
619.8103,386.15090993815465
621.9327,240.48599161992752
624.0544,211.89466995308976
626.1756,227.72232087702287
628.2961,189.6143182121814
630.4159,129.9660335018125
632.5351,83.0228363930255
634.6537,44.630095233256725
636.7716,5.4831775397433375
638.8889,17.277450383404357
641.0056,70.55822605821959
643.1216,67.3706442564253
645.237,123.50984396468266
647.3518,90.72096349594722
649.4659,157.44913992810325
651.5793,136.6895094318097
653.6922,127.23720660326217
655.8043,132.28736467175986
657.9159,111.38511559422841
660.0268,27.725590004727565
662.137,-23.24608257653381
664.2466,-60.5850496080202
666.3556,-61.89622631981183
668.4639,-93.28392269737378
670.5716,-20.65183038285977
672.6786,65.04729088793465
674.785,103.56088769099006
676.8907,185.98640595182587
678.9958,261.87129056033154
681.1002,249.66298454655043
683.204,246.0589283218178
685.3072,181.95655980085212
687.4097,114.15331443780087
689.5115,57.19662586724735
691.6127,50.83392658224693
693.7132,9.812648503902892
695.8131,-70.61977695502719
697.9123,-25.466016410151497
700.0109,-78.07803098552176
702.1089,-73.00752739968084
704.2061,-63.60543237165257
706.3028,-21.521943275281956
708.3987,54.79337793386003
710.4941,101.14118430438248
712.5887,303.5721283369712
714.6827,618.9368615209132
716.7761,956.4360323098044
718.8688,1347.7702829678528
720.9608,1473.190246194914
723.0522,1571.2965412131598
725.1429,1394.9897725128503
727.233,1145.1705288713092
729.3224,906.3893851159519
731.4112,621.1969046224913
733.4993,407.2936417027413
735.5867,231.88014445658337
737.6735,145.70695691095534
739.7596,80.62462077400778
741.845,104.93367629683416
743.9298,76.68466292430821
746.014,94.47811905196068
748.0974,55.36458230850258
750.1802,63.99458937785312
752.2624,52.168676390290784
754.3439,108.98737883615104
756.4247,162.85123168410792
758.5048,302.51076881296467
760.5843,506.5665224730219
762.6631,805.2690218894677
764.7413,1250.418791221844
766.8188,1822.7663465770056
768.8956,2262.2621915576237
770.9718,2578.3068115387105
773.0473,2440.2506692726747
775.1221,2122.844201728876
777.1962,1762.3878214741562
779.2697,1543.3319198469399
781.3426,1616.5768705617666
783.4147,1860.6730318998816
785.4862,2223.070745976758
787.557,2238.020336301146
789.6271,1894.0221041511031
791.6966,1370.6263284244887
793.7654,841.0332690789473
795.8335,535.9931723658738
797.901,367.00627612635435
799.9678,297.82281284154305
802.0339,334.2430113225528
804.0993,391.867097402268
806.1641,348.3452935711575
808.2282,289.7278184010429
810.2916,241.91488698029207
812.3544,150.80671150001217
814.4164,88.45350173216866
816.4778,113.60546594069092
818.5385,116.21281150495633
820.5986,181.37574466832666
822.658,328.1944705120113
824.7166,410.26919230347266
826.7747,649.1001100282592
828.832,845.8374195692122
830.8886,974.7313103181878
832.9446,1149.8819632086597
834.9999,1188.739549426784
837.0545,1202.7542286599237
839.1085,1209.2261487080432
841.1618,1157.5554453435761
843.2143,1157.0922422467047
845.2662,1082.5866515220587
847.3175,1042.2887737033489
849.368,923.248698498428
851.4179,827.5165051922595
853.467,701.642263837326
855.5155,623.1760362109708
857.5633,550.9178770741091
859.6105,433.46783495590716
861.6569,368.4759528763643
863.7027,309.04226952080353
865.7478,362.26681988981363
867.7922,389.79963589356703
869.8359,417.44074581959285
871.8789,576.4401740574103
873.9212,731.6979408221559
875.9629,870.0640605645604
878.0039,1054.8885404184075
880.0441,1188.0713788168177
882.0837,1227.4125636440622
884.1226,1171.6620709037052
886.1609,1069.2198643251795
888.1984,994.9858959213088
890.2352,1028.310107012716
892.2714,938.1924289701747
894.3069,968.7827828813715
896.3416,905.4810804520712
898.3757,899.0872237002186
900.4091,935.1011055889685
902.4418,947.1726100906126
904.4739,956.3016118264459
906.5052,974.1379759460397
908.5358,870.8315580359667
910.5658,749.132203941419
912.595,590.7897507992857
914.6236,451.2040282551352
916.6515,405.57486004663224
918.6786,429.95206539942956
920.7051,495.28545948341343
922.7309,663.6748531689736
924.756,732.4200523736472
926.7804,821.1208563782275
928.8041,761.8770571393143
930.8272,827.4884384023135
932.8495,722.5547762938804
934.8711,711.6758386657857
936.892,557.9013861442654
938.9123,402.2311722387967
940.9318,315.41494487985256
942.9506,181.20244797559644
944.9688,99.54342228003588
946.9862,75.88760673516663
949.003,2.4847392875417427
951.019,12.034557124861749
953.0344,38.93677261225821
955.0491,95.99097788963627
957.063,193.8967647075333
959.0763,307.70372385660085
961.0888,412.5614441885227
963.1007,478.2695114779599
965.1119,563.777507373954
967.1223,604.7350087428422
969.1321,651.4915868132157
971.1412,689.3968067663191
973.1495,719.9002272684847
975.1572,781.8514000921095
977.1641,847.4498698105963
979.1704,821.3451731788518
981.1759,797.5868384772948
983.1808,874.9743857728863
985.1849,987.05732715673
987.1884,1132.5851659702057
989.1911,1305.257395684097
991.1932,1445.2234984433744
993.1945,1491.8329433404324
995.1951,1393.5851850154322
997.1951,1413.1296631902187
999.1943,1350.815803650792
1001.1928,1320.193018051872
1003.1906,1301.410704540027
1005.1877,1365.6682480599047
1007.1841,1373.4650205420621
1009.1798,1278.550380260378
1011.1748,1075.6236717540924
1013.1691,904.0342267769556
1015.1627,710.731366326494
1017.1556,473.4144023599001
1019.1477,376.5326397270619
1021.1392,324.8353785437357
1023.1299,318.37191516035455
1025.12,339.14154267901176
1027.1093,365.6935510181029
1029.0979,500.72722670458825
1031.0859,545.0418526085159
1033.0731,501.4867065926628
1035.0596,460.0110610694137
1037.0454,289.764183436273
1039.0304,218.9453364906476
1041.0148,108.80378013231166
1042.9985,27.088772071594576
1044.9814,35.3495689308038
1046.9636,-43.56457293863059
1048.9452,-64.70439753877145
1050.926,-21.470213661596063
1052.9061,-8.361683702150913
1054.8855,-18.42825556806929
1056.8642,61.23070636623743
1058.8421,135.86602182462957
1060.8194,184.67850991864543
1062.7959,220.8689884011801
1064.7717,209.9882731783473
1066.7469,254.63717794759577
1068.7213,281.31651430649435
1070.695,273.77709130625954
1072.6679,246.81971518494538
1074.6402,215.44518944284937
1076.6117,224.15431511207862
1078.5826,238.44789107029646
1080.5527,231.97671395363432
1082.5221,351.0915780137475
1084.4908,557.2932751825356
1086.4587,760.282593880991
1088.426,886.3603169571979
1090.3925,893.8772196564096
1092.3584,855.3840683603048
1094.3235,715.2316205117968
1096.2879,623.0706249999603
1098.2515,663.6018235615666
1100.2145,752.2759517026825
1102.1767,820.2937382933669
1104.1382,1004.3559046809278
1106.099,1198.3131640097417
1108.0591,1460.6662193806333
1110.0185,1602.3657619113183
1111.9771,1643.8124681128575
1113.9351,1408.2069984726586
1115.8923,1133.2499970400277
1117.8488,855.8920937822077
1119.8045,585.9839073339353
1121.7596,459.8260477710319
1123.7139,404.96911930948045
1125.6675,426.41372156702346
1127.6204,540.9104501117326
1129.5726,539.809896247556
1131.524,531.7126458693456
1133.4748,527.5192794738578
1135.4248,561.7803722407225
1137.3741,526.546494074395
1139.3226,512.0682092615207
1141.2705,514.2960768232988
1143.2176,383.0306506602501
1145.164,415.82247952993566
1147.1097,481.47210835961596
1149.0546,464.630077918333
1150.9989,420.996924160434
1152.9424,303.8731783939511
1154.8852,154.2093677169687
1156.8272,46.65601618882283
1158.7686,33.313646326780145
1160.7092,-0.2672198184482113
1162.6491,-10.386060529286624
1164.5883,101.40764858137481
1166.5267,199.2645356573703
1168.4644,369.73522782847067
1170.4014,540.4703502318116
1172.3377,821.0205243071905
1174.2732,1073.3363660897085
1176.2081,1339.4184834042571
1178.1421,1536.6174733423868
1180.0755,1791.5839196014676
1182.0082,1868.018390512705
1183.9401,1896.071436491493
1185.8713,1722.2935892730347
1187.8017,1537.1353616318338
1189.7315,1331.2472491194676
1191.6605,1029.5297319161728
1193.5888,823.0332768897097
1195.5163,750.0083406125632
1197.4432,671.5553714268899
1199.3693,624.8248101747668
1201.2947,596.7670909827466
1203.2193,554.1826417291231
1205.1432,622.5718843245522
1207.0664,643.8352351378562
1208.9889,707.6731043121508
1210.9106,693.5858955522162
1212.8316,795.5740054860944
1214.7519,902.687823805998
1216.6715,879.8777322483911
1218.5903,935.0941035228861
1220.5084,868.8373015403195
1222.4257,913.0076808605954
1224.3424,879.7555873552519
1226.2583,926.7313577657587
1228.1735,1026.0853200360252
1230.0879,1158.2177928426718
1232.0016,1253.12908460146
1233.9146,1311.3694921459828
1235.8269,1242.3892997785479
1237.7384,1189.738778687777
1239.6492,971.718187638402
1241.5592,889.0277734977899
1243.4686,821.7677734161152
1245.3772,807.4384156532942
1247.285,806.5399202515655
1249.1922,786.0724991788084
1251.0986,810.2363563374893
1253.0042,816.8316877693633
1254.9092,878.8586814138253
1256.8134,981.9175170419694
1258.7169,1105.858365636308
1260.6196,1266.5313883601848
1262.5216,1560.0367353183756
1264.4229,1707.8245439503298
1266.3234,1871.544936095168
1268.2232,1984.5980165137607
1270.1223,1974.5338712515477
1272.0207,1983.2025665079818
1273.9183,1964.2541487372
1275.8151,1916.6886445613236
1277.7113,1869.7560609599277
1279.6067,1723.6563857457186
1281.5014,1645.23958803385
1283.3953,1630.705619702916
1285.2885,1669.8044161791222
1287.181,1701.5358965816158
1289.0727,1853.3999633315052
1290.9637,1949.896501834548
1292.854,2101.575378962505
1294.7435,2263.936442088192
1296.6323,2460.0295175686806
1298.5204,2693.6544091216892
1300.4077,2932.710895864633
1302.2943,3100.248729978415
1304.1802,3206.517634316806
1306.0653,3088.8673007311227
1307.9497,2881.397389007485
1309.8333,2740.1075280433597
1311.7162,2689.1473179222376
1313.5984,2705.2663313265402
1315.4798,2768.5641140472417
1317.3605,2846.990184822642
1319.2405,2982.7940347054173
1321.1197,2951.675126278349
1322.9982,2811.982892296299
1324.876,2820.266735997375
1326.753,2729.2760324998744
1328.6293,2723.960128719431
1330.5048,2730.418344278909
1332.3796,2740.3999715616046
1334.2537,2691.2042756466217
1336.127,2650.5804942090945
1337.9996,2629.8278380121083
1339.8714,2645.0954913129735
1341.7426,2606.832612070737
1343.6129,2637.6383317934833
1345.4826,2602.461755921002
1347.3515,2617.701963516707
1349.2196,2569.6580076194005
1351.087,2587.678915090877
1352.9537,2690.3136870963626
1354.8197,2823.9112989243004
1356.6849,3015.320698960004
1358.5493,3080.690807349676
1360.4131,3141.920514086314
1362.276,3070.0586783560084
1364.1383,2958.554127925656
1365.9998,2774.455659861569
1367.8606,2479.212041644523
1369.7206,2253.572013010742
1371.5799,2047.284288904315
1373.4384,1876.0975617336262
1375.2962,1780.4605034342312
1377.1533,1509.9217671807055
1379.0096,1217.8799883430347
1380.8652,952.8837871919932
1382.7201,746.8817718195569
1384.5742,541.1225407888724
1386.4275,366.0546851942763
1388.2802,258.0767907188838
1390.132,164.43743938527587
1391.9832,137.1352106352624
1393.8336,66.76868226629267
1395.6832,52.836430704464874
1397.5322,44.73703170819317
1399.3803,19.119060507544418
1401.2278,-39.31890811478479
1403.0745,1.6217004327190807
1404.9204,11.989853537448653
1406.7656,28.534518570579166
1408.6101,54.1046627833839
1410.4538,91.6992531418091
1412.2968,124.56725607075714
1414.139,189.0076370781444
1415.9805,284.96936042620837
1417.8213,366.5013884871223
1419.6613,474.35268078337504
1421.5006,671.8221931724438
1423.3391,939.1588767682861
1425.1769,1275.2616759666416
1427.0139,1789.479525771676
1428.8502,2393.5613484349396
1430.6858,2974.9560483132027
1432.5206,3388.212505827614
1434.3547,3639.17957164978
1436.188,3698.0060625691804
1438.0206,3679.540758983514
1439.8524,3511.082404310424
1441.6835,3445.579705172151
1443.5139,3373.281333080118
1445.3435,3326.0359250899346
1447.1724,3276.992084524414
1449.0005,3229.748381446014
1450.8279,3160.903353147287
1452.6545,3179.155504623288
1454.4804,3236.0033092600625
1456.3056,3206.445208652094
1458.13,3145.9296120338568
1459.9536,2951.6048965753635
1461.7766,2639.769407987347
1463.5987,2255.021462464483
1465.4202,1933.309349803767
1467.2409,1580.1313372519799
1469.0608,1375.3856727228085
1470.88,1143.2205883286351
1472.6984,949.5843024279893
1474.5161,734.6250219471985
1476.3331,579.2909443167573
1478.1493,497.73025962091015
1479.9648,440.54115215100865
1481.7795,370.72180122110876
1483.5935,320.32038173986075
1485.4067,303.0850649087006
1487.2192,254.41401872586903
1489.031,238.4554081587521
1490.842,243.9073956306147
1492.6522,237.36814118016082
1494.4618,187.5358024070374
1496.2705,188.90853453720229
1498.0785,206.13449092127667
1499.8858,210.4118230207987
1501.6924,205.3886802359666
1503.4981,186.46320986287355
1505.3032,182.78355714372992
1507.1075,195.94786545612988
1508.911,168.25427634982043
1510.7138,156.20092941510302
1512.5159,114.18596255972807
1514.3172,96.20751212944924
1516.1178,38.21371332816307
1517.9176,54.5027003976993
1519.7166,38.67260719774458
1521.515,38.77156704296249
1523.3126,33.147712861298714
1525.1094,38.899177192990464
1526.9055,46.27409224679104
1528.7008,-20.129410157524035
1530.4954,-42.3131986629287
1532.2893,-33.82894081958875
1534.0824,-60.12788146881758
1535.8747,-13.510927500816251
1537.6663,9.121614871741258
1539.4572,-10.080425589652805
1541.2473,23.98277978527767
1543.0367,20.31116037026186
1544.8253,-1.9453547007924499
1546.6132,45.813163502911266
1548.4003,66.13666334626942
1550.1867,114.92509273606083
1551.9723,152.72839891768854
1553.7572,236.29652798732604
1555.5414,290.4294245138626
1557.3247,331.8270307032344
1559.1074,403.0392858570831
1560.8893,491.71612595879196
1562.6705,572.2074829613503
1564.4509,691.8632839005968
1566.2305,738.4334500903042
1568.0094,864.2178959256198
1569.7876,927.6665284173723
1571.565,958.3292459342174
1573.3417,1012.355937568147
1575.1176,1009.6964828278742
1576.8928,989.9507510985477
1578.6672,944.318601668363
1580.4409,826.4998839260134
1582.2138,746.994437817013
1583.986,657.8520950218845
1585.7575,646.8726797512154
1587.5282,578.1560096370758
1589.2981,592.601895842814
1591.0673,555.960143750226
1592.8358,598.8305528150886
1594.6035,652.3129169335625
1596.3704,658.7570240135265
1598.1366,690.8126554397295
1599.9021,799.6795860093662
1601.6668,846.6075836115087
1603.4308,934.8964081384365
1605.194,1078.4958110163661
1606.9564,1201.3555343225562
1608.7182,1341.925309349317
1610.4791,1512.154855375411
1612.2394,1713.793878260347
1613.9988,1877.5920687420912
1615.7576,2129.0991004206717
1617.5156,2341.014628120205
1619.2728,2579.1882853738152
1621.0293,2714.969682304478
1622.785,2749.7584032432933
1624.54,2666.754005371662
1626.2942,2541.6560183734036
1628.0477,2312.463945264797
1629.8005,2089.67726364557
1631.5525,1898.8954279908157
1633.3037,1730.9678718788546
1635.0542,1639.694009899058
1636.804,1526.0732393311246
1638.553,1486.954941057822
1640.3013,1464.5384807011797
1642.0488,1465.323209013688
1643.7955,1522.1584621024613
1645.5416,1596.7435614213719
1647.2868,1677.3778132027273
1649.0313,1836.260507711393
1650.7751,1977.8909184384647
1652.5181,2165.0183005124327
1654.2604,2341.5418892828766
1656.0019,2636.960898449199
1657.7427,2977.474518295383
1659.4828,3300.1819127358085
1661.222,3470.882215910122
1662.9606,3500.424528956146
1664.6984,3310.4579183029
1666.4354,2976.6314153751464
1668.1717,2473.2940184930885
1669.9072,2014.2446962106096
1671.642,1623.6323923486616
1673.3761,1294.1060305857554
1675.1094,1024.3645183640801
1676.8419,835.6067501847647
1678.5737,698.0816103053021
1680.3048,586.9379746271061
1682.0351,494.3247120707929
1683.7646,428.7406856875914
1685.4934,368.2347535854951
1687.2215,347.60576958509046
1688.9488,242.40258382461434
1690.6754,220.92404296625682
1692.4012,227.76899124817464
1694.1263,198.53627069929826
1695.8506,203.87472107086614
1697.5742,178.28318012875752
1699.297,163.76048360011373
1701.0191,137.70546542924785
1702.7404,114.8169579228761
1704.461,100.04379201066877
1706.1808,48.73479747413148
1707.8999,65.0888030943388
1709.6182,77.60463716502272
1711.3358,69.58112732902737
1713.0527,52.867100453158855
1714.7688,22.91138270841475
1716.4841,-12.6872002628661
1718.1987,10.620176952541442
1719.9126,11.632466512995961
1721.6257,27.048620470657625
1723.338,29.067590761367683
1725.0496,6.088329050488028
1726.7605,16.509786712709683
1728.4706,7.23091506183664
1730.18,-1.9493347534098575
1731.8886,-6.432011656622308
1733.5964,-16.018145097536944
1735.3036,26.041299729899947
1737.0099,-0.054482346989061625
1738.7156,-4.156296761291742
1740.4204,-30.26494840182113
1742.1246,-17.23120063598526
1743.8279,-1.205514484367086
1745.5306,-16.938178827855154
1747.2325,-16.479470504254095
1748.9336,0.9705028610351292
1750.634,-34.38820172748092
1752.3336,-10.755527275001441
1754.0325,19.26892675140698
1755.7307,10.585668332390014
1757.4281,5.095205255910514
1759.1247,13.498045204079062
1760.8206,14.394695808059623
1762.5158,29.785664564040417
1764.2102,16.821458824259935
1765.9039,6.302585643106795
1767.5968,26.879551906756205
1769.289,16.502864438365577
1770.9804,33.27302979229262
1772.6711,49.740554357875226
1774.361,12.305944191724848
1776.0502,64.3197048530501
1777.7386,46.2323417780035
1779.4263,28.844359759540566
1781.1132,70.25626312830082
1782.7994,50.81855592648117
1784.4849,60.781741493713525
1786.1696,63.146322661443264
1787.8535,80.91280165330136
1789.5367,83.93168006146607
1791.2192,106.35345866898206
1792.9009,84.02863741958936
1794.5818,101.00771519348837
1796.2621,98.99119003060332
1797.9415,119.72955896078565
1799.6202,98.32331802397766
1801.2982,98.92296206283027
1802.9755,107.47898493676075
1804.6519,139.3418795159696
1806.3277,87.71213759586408
1808.0027,88.24024957843812
1809.6769,122.67670498856205
1811.3504,122.87199246871114
1813.0231,129.67659943459876
1814.6951,132.9410120732182
1816.3664,171.2657152748061
1818.0369,139.30119260018546
1819.7067,153.4979258975236
1821.3757,167.75639562198376
1823.044,171.67708069374748
1824.7115,179.21045835543828
1826.3783,161.65700413291142
1828.0443,152.31719175992112
1829.7096,166.3914933536562
1831.3741,176.6303795081394
1833.0379,196.28431915347392
1834.701,180.55377945346663
1836.3633,174.7392256090825
1838.0248,150.54112101575083
1839.6856,170.3599273215159
1841.3457,201.69610466900576
1843.005,210.95011149725906
1844.6636,224.22240422835148
1846.3214,214.31343717486106
1847.9785,235.12366240714528
1849.6349,216.3535298524248
1851.2904,228.55348708669135
1852.9453,237.6739795224048
1854.5994,231.1154502864929
1856.2528,269.6283401291503
1857.9054,276.86308748941883
1859.5572,265.27012811005625
1861.2083,280.9498949651979
1862.8587,302.9028183762839
1864.5084,292.0293258552583
1866.1572,287.17984188504397
1867.8054,289.3047880282702
1869.4528,267.55458297576934
1871.0994,273.0796425253302
1872.7453,262.58037979919845
1874.3905,299.30720518882936
1876.0349,291.3105264598735
1877.6786,293.09074838491597
1879.3215,290.2482728234372
1880.9637,283.3334987040098
1882.6051,301.7968220527291
1884.2458,315.8886360623537
1885.8858,299.9093309076843
1887.525,316.2592936046367
1889.1634,289.9389081700392
1890.8011,313.7985554581255
1892.4381,300.5386134237442
1894.0743,319.3094568837614
1895.7098,293.3114576496637
1897.3446,298.64498433984227
1898.9786,312.4604026395782
1900.6118,308.25807524770516
1902.2443,313.6883617384583
1903.8761,311.0016186034927
1905.5071,287.24819919758556
1907.1374,280.9284537655012
1908.7669,290.24272967952766
1910.3957,298.0413715026725
1912.0237,266.77472089551975
1913.651,286.24311653824043
1915.2776,288.6968944432574
1916.9034,282.63638776056814
1918.5285,278.11192675320126
1920.1528,258.77383885782547
1921.7764,305.0224487299911
1923.3992,272.2580784375141
1925.0213,239.3310469979906
1926.6427,264.1916707064329
1928.2633,237.8402634645463
1929.8832,273.3771365321254
1931.5023,251.15259879056066
1933.1207,242.41695638747024
1934.7383,236.37051295895435
1936.3552,248.9635697169433
1937.9714,254.59642550966328
1939.5868,243.3193766957138
1941.2015,207.7327170877279
1942.8154,206.88673806514726
1944.4286,199.8317289300894
1946.041,183.76797691580668
1947.6528,165.59576725723582
1949.2637,196.3153833516326
1950.8739,199.32710694029902
1952.4834,187.18121780138154
1954.0921,207.47799371976544
1955.7001,185.51771060851752
1957.3074,186.70064230593016
1958.9139,208.27706079512063
1960.5197,187.64723619219785
1962.1247,166.21143653050603
1963.729,164.3699279669181
1965.3325,154.72297499619344
1966.9353,147.37084046939435
1968.5374,148.8137856903577
1970.1387,153.10207048921347
1971.7393,136.88595320795775
1973.3392,149.0656906575623
1974.9383,137.9415382801444
1976.5366,129.41375002716177
1978.1342,135.18257847065706
1979.7311,153.24827488853862
1981.3273,141.9110892068893
1982.9227,137.57126981931378
1984.5173,120.37906370030487
1986.1112,120.83471644864858
1987.7044,135.6884724593392
1989.2968,134.69057491903095
1990.8885,127.44126565749139
1992.4795,121.29078515758465
1994.0697,125.53937262776799
1995.6592,148.6872660635936
1997.2479,114.08470220522213
1998.8359,117.38191630594338
2000.4232,110.27914247819899
2002.0097,99.17661366061384
2003.5955,99.9745616890259
2005.1805,96.22321740750431
2006.7648,100.37281066037303
2008.3484,111.47357032972923
2009.9312,109.42572429394386
2011.5133,117.37949931665844
2013.0946,107.43512106725484
2014.6752,105.99281404132307
2016.2551,102.90280166010871
2017.8342,106.96530628492656
2019.4126,105.83054924806584
2020.9902,104.99875081216578
2022.5672,96.42013018156285
2024.1433,99.84490551060753
2025.7188,113.82329398944876
2027.2935,110.15551180979583
2028.8674,101.64177402511996
2030.4406,95.93229458734822
2032.0131,84.72728643198843
2033.5849,87.27696153523448
2035.1559,102.23153102600918
2036.7261,115.39120516046478
2038.2957,105.40619317244546
2039.8645,101.12670314188199
2041.4325,112.45294209464555
2042.9998,103.6851160453416
2044.5664,110.52342988405144
2046.1323,111.21808746400711
2047.6974,130.1192915332067
2049.2617,117.3272437274718
2050.8254,105.44214438142899
2052.3883,132.614192656436
2053.9504,126.49358665943146
2055.5118,120.18052317121419
2057.0725,101.97519770764939
2058.6325,115.72780458280158
2060.1917,98.58853709098457
2061.7502,111.3575873692389
2063.3079,111.43514656872048
2064.8649,93.6214047270114
2066.4212,106.56655076734387
2067.9767,110.47077267674103
2069.5315,114.38425737655689
2071.0856,94.65719068344515
2072.6389,82.43975727021825
2074.1915,78.98214086311691
2075.7433,54.484524363986566
2077.2945,63.24708988485236
2078.8448,86.37001899289771
2080.3945,73.15349262283871
2081.9434,88.89769084569889
2083.4916,70.05279300096117
2085.039,63.668977539136904
2086.5857,109.19642221021331
2088.1317,77.83530412748814
2089.677,76.13579931229742
2091.2215,80.34808300762552
2092.7652,62.872329695099324
2094.3083,77.40871305286737
2095.8506,80.9074061303545
2097.3921,83.21858120290153
2098.933,74.04240973677815
2100.4731,86.62906236606887
2102.0124,81.62870898443816
2103.5511,105.94151861926184
2105.089,86.06765948162774
2106.6261,99.00729872321335
2108.1626,91.11060263502304
2109.6983,96.42773651798962
2111.2332,106.20886476194391
2112.7675,102.75415079243794
2114.301,92.06375697294015
2115.8337,95.137844639381
2117.3657,103.82657420705527
2118.897,114.73010513987856
2120.4276,103.24859586350385
2121.9575,97.08220365628176
2123.4866,93.18108476408315
2125.0149,104.2453944619565
2126.5426,97.47528709314474
2128.0695,99.92091595843885
2129.5956,106.03243338388029
2131.1211,98.10999069630316
2132.6458,112.05373816222254
2134.1698,101.6638250670544
2135.693,106.24039957567584
2137.2155,91.53360883633195
2138.7373,96.34359893486544
2140.2584,109.37051504178407
2141.7787,109.26450136416042
2143.2983,101.62570101536676
2144.8171,87.10425601613042
2146.3353,113.10030737092575
2147.8527,101.46399521318472
2149.3693,103.29545854533944
2150.8853,99.6948353551843
2152.4005,100.06226259755795
2153.9149,94.64787623035318
2155.4287,92.20181121084124
2156.9417,106.22420154981455
2158.454,87.56518033605107
2159.9655,96.7248795960868
2161.4764,99.75343048080776
2162.9865,112.80096317385505
2164.4958,101.1676068613333
2166.0045,104.05348960133733
2167.5124,104.45873844028847
2169.0195,106.03347938407296
2170.526,100.52783739399092
2172.0317,97.59193637100998
2173.5367,99.47589921082181
2175.0409,118.72984783319907
2176.5445,127.85390316315761
2178.0473,99.94818493841922
2179.5494,91.21281161816796
2181.0507,94.09790066210826
2182.5513,92.15356861781765
2184.0512,103.67993109189774
2185.5504,94.92710276941852
2187.0488,104.84519729865178
2188.5465,89.33432737859948
2190.0435,100.69460465981228
2191.5397,96.92613989950223
2193.0353,89.07904284793449
2194.5301,73.40342228611689
2196.0241,89.79938610426689
2197.5175,89.31704145857202
2199.0101,62.80649460722634
2200.502,67.96785091525771
2201.9931,72.7012151196268
2203.4835,90.55669127762167
2204.9733,75.33438271951854
2206.4622,82.73439187003032
2207.9505,66.30682040052807
2209.438,78.60176915504007
2210.9248,64.41933831453025
2212.4109,79.5596272739449
2213.8962,64.27273478404004
2215.3809,58.05875879997575
2216.8648,78.46779663418783
2218.3479,57.699945018529434
2219.8304,78.70529990017576
2221.3121,58.88395664930522
2222.7931,63.23600984904624
2224.2733,65.06155349368782
2225.7529,70.51068094516359
2227.2317,67.183484914789
2228.7098,58.83005740877843
2230.1872,52.0504897615092
2231.6638,63.34487271906073
2233.1397,50.36329650700645
2234.6149,63.005850717472185
2236.0894,42.02262443895279
2237.5632,49.61370612988503
2239.0362,46.52918382848202
2240.5085,46.51914507682204
2241.9801,37.783676951695725
2243.4509,45.87286606470161
2244.921,39.1867986496045
2246.3904,41.075560481441244
2247.8591,46.23923694337964
2249.3271,36.42791300783438
2250.7943,44.84167318482832
2252.2608,39.48060162010415
2253.7266,55.94478201099082
2255.1917,34.53429766001045
2256.656,37.59923131023834
2258.1197,20.739665359407354
2259.5826,43.60568182925863
2261.0447,41.34736253413939
2262.5062,46.21478885233728
2263.9669,44.10804174866871
2265.4269,29.027201725803934
2266.8862,47.822348845335455
2268.3448,57.193562878583634
2269.8026,48.840923118648334
2271.2598,42.71450828669458
2272.7162,43.21439661547811
2274.1719,39.84066591061355
2275.6268,36.59339354557551
2277.0811,44.12265649543315
2278.5346,55.92853136932263
2279.9874,59.361094335157304
2281.4395,62.37042100156668
2282.8908,45.05658638357045
2284.3414,54.86966487248537
2285.7914,48.60973040906356
2287.2406,57.77685638536059
2288.689,62.57111570733787
2290.1368,64.44258070318938
2291.5838,48.69132307539894
2293.0302,58.41741388202627
2294.4758,64.82092369421525
2295.9206,61.701922498939894
2297.3648,52.71047963496267
2298.8082,49.94666382402784
2300.251,44.660543260774375
2301.693,42.15218564037605
2303.1343,62.62165821140297
2304.5748,56.61902780090713
2306.0147,58.69436060972521
2307.4538,65.34772227251051
2308.8922,76.77917783697512
2310.3299,51.38879169735401
2311.7669,68.07662748009125
2313.2031,64.7427482977464
2314.6387,55.98721658210934
2316.0735,61.36009411754776
2317.5076,51.96144212856052
2318.941,58.44132122604469
2320.3737,57.09979150128402
2321.8056,53.63691246114604
2323.2369,58.852743041502436
2324.6674,60.09734164185602
2326.0972,60.92076607318086
2327.5263,48.82307354548311
2328.9547,51.15432065955929
2330.3823,50.66456352797741
2331.8092,77.70385775176646
2333.2355,53.52225842530788
2334.661,72.16981986594828
2336.0858,59.14659585581285
2337.5098,73.95263945532861
2338.9332,69.68800313345764
2340.3558,70.75273861963569
2341.7778,68.74689694642029
2343.199,56.57052843884139
2344.6195,67.72368273446136
2346.0393,73.2064089051405
2347.4583,79.268755345498
2348.8767,76.86076971808961
2350.2943,66.58249889278613
2351.7113,78.78398897085162
2353.1275,74.66528538772036
2354.543,79.27643279098811
2355.9578,87.81747508160015
2357.3718,75.4384553677396
2358.7852,80.48941587941545
2360.1978,76.67039809225162
2361.6098,82.28144267697644
2363.021,79.92258953761802
2364.4315,76.4938777553939
2365.8413,54.695345612301935
2367.2504,58.37703062540095
2368.6587,57.88896976480328
2370.0664,62.58119941684981
2371.4733,66.25375538899243
2372.8795,66.90667286287407
2374.285,60.18998635759817
2375.6899,63.10372972320192
2377.0939,56.74793620782566
2378.4973,50.52263842857474
2379.9,67.5278684350792
2381.3019,56.81365777173778
2382.7032,52.930037307668954
2384.1037,62.62703734385423
2385.5035,58.20468765197529
2386.9027,55.26301737744279
2388.3011,65.55205508362087
2389.6987,50.571828781238764
2391.0957,57.27236582550722
2392.492,58.90369306592356
2393.8876,39.965836779263554
2395.2824,37.20882265326827
2396.6765,42.63267597601407
2398.07,46.13742166349266
2399.4627,40.123084205370105
2400.8547,52.589687629942546
2402.246,48.58725556427771
2403.6366,44.61581110954694
2405.0265,37.77537688105076
2406.4156,38.16597504792617
2407.8041,37.9376274015583
2409.1918,37.040355351678045
2410.5789,42.874179928639705
2411.9652,43.73912179239824
2413.3508,51.53520117416792
2414.7358,41.61243786777345
2416.12,43.920851151686975
2417.5035,38.2604598882574
2418.8863,34.03128250062741
2420.2684,47.53333702933469
2421.6497,39.56664117460605
2423.0304,44.98121216133541
2424.4104,58.17706681875143
2425.7896,41.00422152627152
2427.1682,33.26269208154508
2428.546,40.60249387217959
2429.9232,27.773641953158403
2431.2996,36.576150973440235
2432.6753,42.460035304248095
2434.0503,38.32530895104469
2435.4246,32.371985494693035
2436.7982,36.75007813280422
2438.1711,36.35959973927038
2439.5433,41.65056282048454
2440.9148,42.772979519244245
2442.2856,40.87686156184259
2443.6557,45.662220246843845
2445.025,36.07906646404581
2446.3937,38.977410646623184
2447.7617,37.8072628669604
2449.1289,54.46863280766911
2450.4955,40.211529773288476
2451.8613,34.58596252367306
2453.2265,40.141939416562536
2454.5909,49.17946846383893
2455.9546,53.49855727596514
2457.3177,42.29921297161013
2458.68,39.581442134458484
2460.0416,52.89525092520398
2461.4025,60.49064510872722
2462.7627,51.217629920957734
2464.1222,55.2262099929203
2465.4811,52.81638944346514
2466.8392,66.6381718391799
2468.1966,62.791560218490304
2469.5533,73.82655695343988
2470.9093,74.44316378815756
2472.2645,67.59138172850726
2473.6191,73.82121103592294
2474.973,59.43265129592487
2476.3262,71.62570135582291
2477.6787,68.45035946860071
2479.0305,61.75662317098545
2480.3816,70.14448931520201
2481.7319,68.7639541359099
2483.0816,57.415013166324115
2484.4306,69.89766125202209
2485.7789,60.56189266443175
2487.1264,61.25770097600639
2488.4733,67.7350791535805
2489.8195,56.4440195514112
2491.165,56.034513846406526
2492.5097,54.65655315103413
2493.8538,44.46012801741699
2495.1972,56.94522845111396
2496.5398,44.96184401308324
2497.8818,47.40996369483082
2499.2231,58.989576038245104
2500.5637,56.00066911111708
2501.9035,47.143230391342286
2503.2427,63.267246796810696
2504.5812,60.622704773980786
2505.919,53.50959013663987
2507.256,63.57788809234853
2508.5924,55.17758331357186
2509.9281,52.108659836997504
2511.2631,51.92110114753905
2512.5974,47.56489020902268
2513.9309,57.24000946606543
2515.2638,50.79644088763553
2516.596,61.13416587030292
2517.9275,42.2531653026731
2519.2583,57.453419462010515
2520.5884,55.284908203049326
2521.9178,48.64761080599078
2523.2465,58.141505998187995
2524.5745,64.46657202051938
2525.9018,48.972786532448026
2527.2284,62.71012654877427
2528.5543,49.32856859457047
2529.8796,61.728088567809664
2531.2041,63.20866187317847
2532.5279,51.270263298084046
2533.851,57.812866997848005
2535.1735,75.88644661509056
2536.4952,61.69097521430399
2537.8163,69.37642510111527
2539.1366,68.19276796424401
2540.4562,72.23997479864556
2541.7752,72.41801591734884
2543.0935,68.32686091098344
2544.411,75.36647864600059
2545.7279,75.18683730558269
2547.0441,83.53790431924949
2548.3596,76.61964636465223
2549.6744,80.93202928406436
2550.9885,85.27501815356322
2552.3019,73.89857723990667
2553.6146,82.00266995710263
2554.9266,77.98725898017437
2556.2379,76.35230616411832
2557.5485,81.4977725840597
2558.8585,82.42361855160038
2560.1677,90.07980356336611
2561.4762,86.66628629174579
2562.7841,95.28302450833166
2564.0913,81.87997511805361
2565.3977,83.90709407301233
2566.7035,98.21433650650874
2568.0086,104.80165671277496
2569.313,92.31900800389894
2570.6167,82.91634264395452
2571.9197,94.94361197382614
2573.222,100.40076650523406
2574.5236,99.78775580046431
2575.8246,100.10452841779579
2577.1248,109.60103191763005
2578.4244,98.82721285932439
2579.7232,126.03301670622636
2581.0214,108.1683879334114
2582.3189,114.43326975562627
2583.6157,130.32760430593385
2584.9118,121.55133257306625
2586.2072,130.85439424247943
2587.5019,114.08672778411687
2588.7959,129.04827035937842
2590.0893,132.93895798879635
2591.3819,140.30872540242058
2592.6739,138.7575060009126
2593.9652,137.9352317818466
2595.2557,140.8918333552217
2596.5456,137.47723995168462
2597.8348,142.54137939296493
2599.1234,131.38417812602006
2600.4112,135.95556117239425
2601.6983,134.00545223979157
2602.9848,141.38377367636008
2604.2705,139.94044649019338
2605.5556,140.3253902755489
2606.84,146.93852322727957
2608.1237,135.7297621369853
2609.4067,137.3490223268809
2610.689,141.196217761885
2611.9707,145.4712610334259
2613.2516,138.47406332097034
2614.5319,130.15453434927326
2615.8115,131.16258245834865
2617.0903,136.34811468666499
2618.3685,136.1110367610661
2619.6461,141.3512530449152
2620.9229,124.86866654046503
2622.199,142.31317883645715
2623.4745,132.8846902729456
2624.7493,132.63309976685423
2626.0234,140.15830490625967
2627.2968,140.26020195290857
2628.5695,134.03868576696618
2629.8415,138.8436498059957
2631.1128,135.67498618717286
2632.3835,138.78258563923828
2633.6535,134.61633753418323
2634.9228,132.97612985617252
2636.1914,133.86184924320946
2637.4593,130.77338100353563
2638.7265,130.21060910677556
2639.9931,142.5734162148201
2641.259,139.9616836874543
2642.5242,134.3752914587294
2643.7887,130.96411806308083
2645.0525,132.92804069119188
2646.3156,122.61693522410383
2647.5781,130.33067621357986
2648.8398,126.36913698521403
2650.1009,121.48218956129381
2651.3613,124.46970470041606
2652.6211,122.03155194635542
2653.8801,133.91759959819046
2655.1385,123.67771473468429
2656.3961,132.26176309542507
2657.6531,133.06960918322443
2658.9094,134.1511161782771
2660.1651,140.30614593008136
2661.42,136.63455894662525
2662.6743,145.38621433283606
2663.9279,151.41096982729493
2665.1808,137.75868171472143
2666.433,144.47920476572585
2667.6846,154.42239237333115
2668.9354,142.93809648576962
2670.1856,154.47616750704947
2671.4351,142.08645441179885
2672.6839,156.7188046298844
2673.9321,153.92306417030863
2675.1795,155.6490774748877
2676.4263,146.84668744620683
2677.6724,171.91573543036156
2678.9179,162.10606130498104
2680.1626,169.46750322853734
2681.4067,171.19989773844213
2682.6501,159.40307967743286
2683.8928,164.67688217624755
2685.1348,161.1711367715941
2686.3761,159.58567335341309
2687.6168,158.62032019993376
2688.8568,156.6249039935293
2690.0961,143.1492498303703
2691.3348,155.99318124037768
2692.5727,149.6065203219806
2693.81,148.68908761367697
2695.0466,144.79070215789977
2696.2826,153.36118151019207
2697.5178,144.90034177818995
2698.7524,140.0079975359182
2699.9863,141.63396190839876
2701.2195,146.37804662057374
2702.452,154.49006198104712
2703.6839,154.76981683464214
2704.9151,145.6671184812824
2706.1456,164.88177267319338
2707.3755,162.51358370593016
2708.6046,164.26235422623017
2709.8331,173.57788525569606
2711.0609,180.70997617330738
2712.2881,195.15842462226522
2713.5145,204.72302643867033
2714.7403,209.00357550704075
2715.9654,220.9998636646643
2717.1899,229.9616806587935
2718.4136,242.58881402668294
2719.6367,254.1310490059709
2720.8591,259.43816840840805
2722.0809,262.9599525044342
2723.3019,282.24617897010853
2724.5223,297.09662285189097
2725.7421,283.16105637378064
2726.9611,298.9392487888107
2728.1795,294.8809665184051
2729.3972,284.58597299459484
2730.6142,270.25402870060157
2731.8306,247.43489127378837
2733.0462,244.678315648977
2734.2612,214.98405428664114
2735.4756,206.8518572004723
2736.6892,186.58147225432162
2737.9022,168.12264524352224
2739.1145,151.32512009759262
2740.3262,145.73863906482575
2741.5372,135.71294288026445
2742.7475,116.69777082156509
2743.9571,112.7928608092551
2745.1661,101.94794959688511
2746.3744,98.41277281007683
2747.582,81.93706505497391
2748.7889,67.62055995359242
2749.9952,56.71299030857813
2751.2008,54.91408824637165
2752.4057,58.12358532628332
2753.61,39.79121255848338
2754.8136,47.01670037190593
2756.0165,39.29977879757337
2757.2188,45.690177396341596
2758.4204,37.88762533606928
2759.6213,33.99185132771379
2760.8215,29.152583703356754
2762.0211,31.669550455162153
2763.22,30.292479283768216
2764.4182,25.1710975731188
2765.6158,18.055132404233746
2766.8127,21.544310606422187
2768.009,6.688358828442688
2769.2045,4.6370035036118225
2770.3994,10.189970998362696
2771.5936,0.04698763275905549
2772.7872,-3.3422203750349126
2773.9801,-13.87792727626163
2775.1723,-19.76037393338322
2776.3639,-19.689662568368135
2777.5548,-20.06569799704971
2778.745,-24.188188335532914
2779.9346,-9.65664124359921
2781.1235,1.32967725897106
2782.3117,-8.62840237775697
2783.4992,-16.780049717013412
2784.6861,-9.274348124289531
2785.8723,-12.860213332379658
2787.0579,-3.886468423341512
2788.2428,0.5981919942980767
2789.427,1.595112137832075
2790.6106,11.305636218571976
2791.7935,18.631108431878488
2792.9757,31.622872860056532
2794.1573,32.68227339910152
2795.3382,44.81065362878098
2796.5184,56.35935680204125
2797.698,51.729725723721
2798.8769,76.97310263506552
2800.0551,98.54082926002457
2801.2327,103.78424655281663
2802.4096,113.70469448225231
2803.5859,130.65351197930056
2804.7615,155.78203683788286
2805.9364,180.69160554538564
2807.1106,196.53355303137562
2808.2842,234.05921241850353
2809.4572,262.91991486408483
2810.6294,290.6669891848436
2811.801,320.10176156830516
2812.972,359.8255552953252
2814.1423,395.4896904457436
2815.3119,447.29548350114317
2816.4808,490.44424698821115
2817.6491,537.5872889606795
2818.8167,574.3759125678389
2819.9837,627.8614155831061
2821.15,673.3450900361406
2822.3157,710.6782216779874
2823.4807,767.3120895262414
2824.645,796.3479654917156
2825.8086,841.6871138121032
2826.9716,882.5307907616182
2828.134,932.2302441976027
2829.2957,963.1367131520931
2830.4567,982.3514273348233
2831.617,1003.77560682416
2832.7767,1030.3104618749571
2833.9358,1017.5071927043116
2835.0941,1006.5169892262165
2836.2519,986.8410311795933
2837.4089,980.3304882381937
2838.5653,965.13652020736
2839.7211,972.2102770891296
2840.8761,978.1028992341747
2842.0306,986.9155172710655
2843.1843,1033.1992520473432
2844.3374,1073.9052145413955
2845.4899,1126.2345053996162
2846.6417,1205.3382145293485
2847.7928,1258.1174205755906
2848.9433,1334.723190129959
2850.0931,1413.8565772028962
2851.2422,1488.6186224576127
2852.3907,1557.810352418755
2853.5385,1614.0327787247822
2854.6857,1658.9868974360502
2855.8323,1720.7236884725871
2856.9781,1771.6441151645533
2858.1233,1819.5991236348723
2859.2679,1857.2896422900255
2860.4118,1898.8665813405057
2861.555,1945.780832423908
2862.6976,1982.4832681891626
2863.8395,2004.4247418273924
2864.9808,2017.2060867048885
2866.1214,2028.6281161436941
2867.2614,2038.1416232937927
2868.4007,2061.297381018886
2869.5393,2067.8961418012605
2870.6773,2076.188637510228
2871.8146,2088.325579336141
2872.9513,2079.6076577074646
2874.0874,2099.6855421694095
2875.2227,2075.409881471108
2876.3574,2052.48130336484
2877.4915,2025.8504148487873
2878.6249,2005.3678023963164
2879.7577,1966.1340322222934
2880.8898,1961.599650487905
2882.0212,1945.9651836929997
2883.152,1946.4811387214286
2884.2821,1909.9480029973918
2885.4116,1930.8162444802788
2886.5405,1921.9863120299992
2887.6686,1919.2586351983014
2888.7962,1914.3336243170693
2889.923,1934.361670525604
2891.0493,1952.3931458198676
2892.1748,1945.7284028522085
2893.2997,1952.9677747510432
2894.424,1983.2115751875058
2895.5476,1996.410098303052
2896.6706,2031.2136184070241
2897.7929,2047.7223898446628
2898.9145,2077.2866466490736
2900.0355,2105.0566023761376
2901.1559,2140.43244980887
2902.2756,2176.864360679721
2903.3946,2204.4524853168164
2904.513,2241.7969522796393
2905.6308,2253.7478680831473
2906.7479,2286.855316824331
2907.8643,2310.419360062701
2908.9801,2329.5400364892157
2910.0953,2338.117361690642
2911.2098,2333.4513279583452
2912.3236,2315.64190420252
2913.4368,2315.289035998847
2914.5494,2295.1426457665884
2915.6613,2286.302632772116
2916.7725,2246.7688733303758
2917.8831,2221.5912208932873
2918.9931,2193.969506445082
2920.1024,2165.0035387540806
2921.211,2142.2431046489082
2922.319,2129.087969308156
2923.4264,2115.8878764879832
2924.5331,2093.442548653672
2925.6391,2078.051687111625
2926.7445,2065.4149722338216
2927.8493,2072.4320636117222
2928.9534,2069.6526001826414
2930.0569,2066.0762001595695
2931.1597,2066.5024610589735
2932.2619,2076.6809597365573
2933.3634,2058.161252383001
2934.4643,2049.4428744221755
2935.5645,2029.62534069634
2936.6641,1999.858145553325
2937.763,1959.440763044709
2938.8613,1925.4726472234884
2939.959,1876.8032325482532
2941.056,1786.4319342228664
2942.1523,1714.6581486831592
2943.248,1632.1312545006444
2944.3431,1540.300613100254
2945.4375,1434.8655695856064
2946.5313,1341.8754536573165
2947.6244,1243.8795806673413
2948.7169,1153.6772525488855
2949.8087,1058.7177587963577
2950.8999,966.2003773673948
2951.9904,896.3743756324561
2953.0803,830.8890112999975
2954.1696,771.8435331147315
2955.2582,720.4371815124812
2956.3462,672.2691892106343
2957.4335,646.2887817222077
2958.5202,603.5451778375259
2959.6062,593.7375898840269
2960.6916,561.7152241536974
2961.7764,551.2772810011484
2962.8605,536.9229551638389
2963.9439,536.5014358664561
2965.0267,520.4619069644577
2966.1089,505.70354694828757
2967.1905,512.2255291037708
2968.2714,515.0770216596969
2969.3516,515.7071877226014
2970.4312,522.8151852482488
2971.5102,526.6001670353327
2972.5885,527.4612806543955
2973.6662,547.0476684099781
2974.7432,530.3084673320086
2975.8196,527.4428089799394
2976.8954,521.1998196101387
2977.9705,522.078620204546
2979.045,505.4783265331034
2980.1188,478.7980491449673
2981.192,474.7368935345112
2982.2645,450.34396040812817
2983.3364,441.86834572484383
2984.4077,410.3091409402441
2985.4783,389.665433091232
2986.5483,367.0363051116192
2987.6177,325.8208360385637
2988.6864,304.9681012388603
2989.7545,272.02717282109654
2990.8219,240.74711984417888
2991.8887,214.62700864674264
2992.9548,188.51590315995213
2994.0204,166.21286516870146
2995.0852,144.916954572726
2996.1495,114.72722960963347
2997.2131,92.9427470678628
2998.276,76.36256258858043
2999.3383,64.08573088352603
3000.4,43.06130590081341
3001.4611,34.888340947700385
3002.5215,32.71588890083126
3003.5812,15.093002287967693
3004.6404,8.868733309712184
3005.6989,0.1921340157374516
3006.7567,-1.5377436329707734
3007.8139,-5.871847677347887
3008.8705,-7.0111107962706
3009.9264,-14.856407008858469
3010.9818,3.5914597067655905
3012.0364,-7.468166212015831
3013.0905,-15.88594036373479
3014.1439,-4.412443739942546
3015.1966,-8.498098631646599
3016.2487,-7.993283249542628
3017.3002,-2.798290908320496
3018.3511,-0.4133350697709375
3019.4013,-4.638601240758703
3020.4509,4.475729201068702
3021.4998,15.979521217690262
3022.5481,18.172639726327816
3023.5958,20.204949484408075
3024.6428,22.42631506763155
3025.6892,27.53660084964895
3026.735,33.93567097984885
3027.7802,35.773389332254055
3028.8247,42.699619441530444
3029.8685,53.7642244846096
3030.9118,54.06706721142746
3031.9544,62.65800983427806
3032.9963,69.88691402478514
3034.0376,85.9036408279922
3035.0783,92.40805059007425
3036.1184,97.75000279817016
3037.1578,101.97935601533811
3038.1966,97.19596782713649
3039.2348,116.24969479933031
3040.2723,116.69039252572503
3041.3092,115.46791543762919
3042.3455,119.13211679944749
3043.3811,116.78284872090563
3044.4161,122.91996212040851
3045.4505,116.49330674853252
3046.4842,117.10273112665453
3047.5173,115.84808261121856
3048.5498,116.77920738764146
3049.5816,123.24595048285926
3050.6128,112.0481557560164
3051.6434,113.78566583379757
3052.6734,103.30832222240633
3053.7027,104.01596529018946
3054.7314,102.50843437241105
3055.7594,97.33556776417561
3056.7868,99.3472027355034
3057.8136,99.3431755830594
3058.8398,93.32332161003671
3059.8653,91.93747512619734
3060.8902,90.48546950807014
3061.9145,91.6171372128095
3062.9381,85.73230979271517
3063.9612,88.28081788391597
3064.9835,82.76249126521782
3066.0053,79.52715883261828
3067.0264,82.42464865449028
3068.0469,78.7547880039354
3069.0668,75.31740332980894
3070.086,69.8623202934184
3071.1046,66.13936380289732
3072.1226,60.04835806775617
3073.1399,53.839126636112155
3074.1567,50.91149245559899
3075.1727,45.565277935459164
3076.1882,38.050304975820495
3077.203,40.11639502115838
3078.2173,26.763369135445032
3079.2308,29.291047981489214
3080.2438,22.499251954465933
3081.2561,22.237801156640046
3082.2678,13.206515465283985
3083.2789,12.255214535292055
3084.2893,10.283717889493516
3085.2991,10.991844928165506
3086.3083,10.129414948747922
3087.3169,8.54624713876268
3088.3248,1.0921605844376359
3089.3321,-6.083025713461666
3090.3388,-4.079492765091004
3091.3449,-2.0473608111794306
3092.3503,-6.886709338323328
3093.3551,-2.1475973799846315
3094.3593,1.819984828601207
3095.3629,-0.6839314933037031
3096.3658,-1.7093151446368893
3097.3681,-2.256128091860262
3098.3698,-3.1243152253776145
3099.3708,-3.4637988968731577
3100.3713,-2.2244702461221095
3101.3711,-1.2061858095487423
3102.3702,0.5412200988802169
3103.3688,2.3179252149942613
3104.3667,1.8241018678341447
3105.364,4.709922363261541
3106.3607,5.425558988897166
3107.3568,0.1211839852627179
3108.3522,5.2969695386243245
3109.347,5.153086624620073
3110.3412,6.989706165918477
3111.3348,12.706999033657127
3112.3277,7.655136029076573
3113.32,6.784287826347452
3114.3117,9.194625023089031
3115.3028,9.486318149077704
3116.2932,16.509537642143812
3117.2831,6.914453845254741
3118.2723,12.251236936282396
3119.2608,13.820057023954377
3120.2488,14.07108409448594
3121.2361,7.304487995891833
3122.2229,15.720438435476098
3123.209,20.069105047498084
3124.1944,17.80065730901265
3125.1793,21.915264496383685
3126.1635,22.16309570796878
3127.1471,25.694319822972687
3128.1301,25.809105498969302
3129.1125,27.107621136589017
3130.0942,30.690034878371222
3131.0753,32.45651459577914
3132.0558,28.00722785337561
3133.0357,34.69234189115852
3134.015,28.962023669053423
3134.9936,30.666439800062506
3135.9716,37.355756607567855
3136.949,39.33014010828725
3137.9258,35.18975594538094
3138.902,41.13476936870785
3139.8775,31.2153452762295
3140.8524,37.931648154559866
3141.8267,42.283842178159546
3142.8004,39.322091142172724
3143.7735,39.69655841890537
3144.7459,44.95740698744257
3145.7178,47.35479942990395
3146.689,45.33889787883521
3147.6596,43.70986399323401
3148.6295,44.067858978709054
3149.5989,45.41304360377055
3150.5676,48.34557819625
3151.5357,46.96562262984858
3152.5032,51.4733362948118
3153.4701,53.668878111728986
3154.4364,53.7024064864562
3155.402,50.02407928816076
3156.367,58.03405384898605
3157.3315,55.48248700083457
3158.2952,60.319534995268384
3159.2584,59.39535352902472
3160.221,60.96009769564543
3161.1829,62.11392199471892
3162.1442,63.15698031623269
3163.105,67.23942592903508
3164.065,63.81141147040471
3165.0245,64.52308890522593
3165.9834,69.62460956026909
3166.9416,65.3661241170737
3167.8993,68.24778256093308
3168.8563,67.31973422347953
3169.8127,72.5321277538675
3170.7684,73.18511112805409
3171.7236,73.82883159667517
3172.6782,73.21343567851557
3173.6321,72.78906915407173
3174.5854,77.65587707170583
3175.5381,77.16400375188937
3176.4902,79.56359273853505
3177.4417,82.40478680391557
3178.3926,77.73772792466778
3179.3428,80.76255725338058
3180.2924,78.77941516526569
3181.2415,83.48844122790922
3182.1899,82.28977422110319
3183.1377,87.68355208975524
3184.0848,84.71991195587529
3185.0314,84.74899006463775
3185.9773,88.37092181401789
3186.9227,91.8358417545012
3187.8674,96.29388355286383
3188.8115,91.64517995752368
3189.755,93.6898627539597
3190.6979,94.72806281119915
3191.6402,95.20991006137064
3192.5818,97.03553348932218
3193.5229,98.40506112780264
3194.4633,103.21862003920565
3195.4031,99.52633630187418
3196.3423,102.17833496196505
3197.2809,105.6247400703717
3198.2189,105.31567465620425
3199.1563,105.8012606923254
3200.0931,107.93161909844112
3201.0292,109.65686973624479
3201.9648,111.12713138811358
3202.8997,107.39252173985598
3203.834,113.7031573660092
3204.7677,111.9591537671852
3205.7008,113.46062530696439
3206.6333,122.25768522933564
3207.5652,117.75044564368154
3208.4964,120.9390174368079
3209.4271,120.22351031801603
3210.3571,122.50403278721706
3211.2865,120.53069214208703
3212.2154,117.95359445526171
3213.1436,124.17284459406983
3214.0712,124.43854624630428
3214.9982,128.35080185802943
3215.9246,128.60971263092424
3216.8503,123.81537848315963
3217.7755,133.01789804680936
3218.7001,133.3173687157934
3219.624,131.06388655385274
3220.5473,139.10754629155466
3221.4701,133.89844134882753
3222.3922,133.4366637545243
3223.3137,138.47230419851343
3224.2346,141.8054520362968
3225.1549,136.08619523865318
3226.0746,139.9146203583068
3226.9937,142.99081258712
3227.9121,143.7148557178089
3228.83,143.73683211318144
3229.7473,143.95682269889699
3230.6639,152.9249069632466
3231.5799,151.24116295495298
3232.4954,150.9056671934899
3233.4102,150.51849468591934
3234.3244,151.6797189302466
3235.238,152.0394119192921
3236.151,154.79764412907892
3237.0634,155.05448451523614
3237.9752,151.11000048541638
3238.8864,156.61425789672722
3239.797,156.36732109517635
3240.7069,162.71925286062884
3241.6163,164.02011440927646
3242.5251,160.61996533011845
3243.4332,160.3688635719529
3244.3408,160.76686547737813
3245.2477,163.7140257853038
3246.154,163.6603976269709
3247.0598,164.65603249648012
3247.9649,172.15098025132818
3248.8694,169.69528910245145
3249.7733,165.0890055392764
3250.6766,170.9821743542766
3251.5793,173.47483868903538
3252.4814,171.41703997531442
3253.3829,171.1088179101268
3254.2838,171.85021047631517
3255.1841,172.54125394563394
3256.0838,173.4819828713355
3256.9829,175.6724300812596
3257.8814,176.81262666842608
3258.7792,177.40260196913056
3259.6765,182.64238355154222
3260.5731,182.8819972098044
3261.4692,186.27146691163648
3262.3647,182.5108147959379
3263.2595,182.5000611388934
3264.1538,185.33922439157936
3265.0474,184.6783211800717
3265.9404,184.0673662770539
3266.8329,182.80637260842627
3267.7247,186.0953512594154
3268.616,187.9843114871842
3269.5066,183.27326068794196
3270.3966,185.66220437805478
3271.286,182.70114624115618
