RamanShift,CorrectedData
30.1047,1101.8141252097525
32.3739,1018.592310072517
34.6426,939.7204839171401
36.9109,857.0486255395575
39.1787,777.8767043384998
41.4461,700.5046811422111
43.7131,620.8825090001683
45.9796,545.4601339568012
48.2456,463.8874958477138
50.5112,383.1145290539084
52.7764,308.09116331751227
55.0411,228.81732454950736
57.3054,152.5929355799637
59.5692,73.41791695077805
61.8326,-1.9578123220821908
64.0955,-76.68433395682888
66.3579,-150.06171011312884
68.6199,-218.68923687415278
70.8815,-265.96471120658737
73.1426,-279.78374537164336
75.4032,-161.13929464306682
77.6634,261.47848074501235
79.9231,1373.0310303400174
82.1824,3872.079801074587
84.4412,8361.786226151049
86.6995,14583.161700050938
88.9574,20622.56753363792
91.2148,24638.864891944046
93.4717,26352.114733775696
95.7282,26458.5277715506
97.9842,26039.314454165342
100.2398,25171.984965931228
102.4949,24241.949230766415
104.7495,23201.96692086922
107.0036,22168.44746601846
109.2573,21236.20006397329
111.5105,20385.033690808392
113.7632,19561.407110236447
116.0154,18895.178882119784
118.2672,18401.857370706686
120.5185,17887.500751293635
122.7693,17476.717015158538
125.0197,17127.56397470431
127.2696,16747.549267566686
129.519,16428.430360105758
131.7679,16086.414551206146
134.0163,15722.258975468147
136.2642,15296.470606627929
138.5117,14836.106261199066
140.7587,14366.072602730423
143.0052,13974.176146409813
145.2512,13571.473263764314
147.4967,13152.92018657925
149.7417,12870.573010925209
151.9863,12593.387701343581
154.2304,12402.62009367003
156.4739,12116.575897806335
158.717,11961.260699628088
160.9596,11683.929963845118
163.2017,11333.489035554652
165.4433,10950.893143014617
167.6844,10528.947401148056
169.925,10113.906815369079
172.1651,9674.776285802325
174.4047,9349.610611433369
176.6439,9040.61449450002
178.8825,8726.642543743987
181.1206,8459.649277500834
183.3582,8271.139126839704
185.5954,8124.816438233253
187.832,7940.835475442745
190.0681,7836.500420981283
192.3037,7752.8653779536235
194.5388,7662.734371099517
196.7734,7655.2113476300665
199.0075,7638.100178129034
201.2411,7693.00465662807
203.4742,7682.178500777822
205.7068,7774.475351298895
207.9389,7841.798772090116
210.1704,7915.202249305557
212.4015,7961.589190681311
214.632,8024.262924801446
216.862,8152.026700634147
219.0915,8195.43368690497
221.3205,8224.736970819207
223.549,8278.58955762782
225.777,8336.69437033441
228.0044,8389.604249156677
230.2314,8512.621950945386
232.4578,8633.10014865526
234.6837,8681.391430114803
236.909,8728.298296821524
239.1339,8647.473163459015
241.3582,8522.118357427891
243.582,8272.536119654036
245.8053,8096.42860584215
248.0281,7962.497888971583
250.2503,7854.645961057394
252.472,7834.3747344896665
254.6932,7851.286043112026
256.9139,7897.731642424356
259.134,8019.463209413681
261.3536,8129.982342089714
263.5727,8406.290558267534
265.7912,8573.33929446241
268.0092,8782.729903126703
270.2267,8865.013650979383
272.4436,8943.291716912137
274.6601,8882.965191166508
276.8759,8711.785074551135
279.0913,8589.352279044999
281.3061,8434.867629509245
283.5204,8298.831864911488
285.7341,8222.245639870674
287.9473,8187.459526017432
290.16,8269.174012759942
292.3721,8283.939507631792
294.5837,8532.406335474836
296.7947,8686.424738291542
299.0052,8817.644872760313
301.2152,8739.1668086953
303.4246,8506.290527734225
305.6334,8073.465924123139
307.8418,7609.442807045183
310.0495,7083.670904948846
312.2568,6645.849870188197
314.4635,6224.729284280594
316.6696,5880.008662284903
318.8752,5664.937457012702
321.0802,5557.165062475489
323.2847,5536.190816035391
325.4887,5533.41399948289
327.692,5443.1338392465605
329.8949,5325.899506420839
332.0972,5114.560117668829
334.2989,4847.1147363946275
336.5001,4564.062374856741
338.7007,4298.551996842529
340.9008,4083.9825204987355
343.1003,3898.1528209865846
345.2992,3776.4617326274856
347.4976,3630.608050761315
349.6955,3521.4905329633402
351.8927,3473.657900502756
354.0895,3341.158839433854
356.2856,3325.49200107435
358.4812,3210.456003330377
360.6763,3181.7994308531506
362.8707,3130.3208361893194
365.0646,3150.018740067555
367.258,3147.641631913313
369.4508,3160.137969651878
371.643,3264.706179732113
373.8346,3306.444657001508
376.0257,3382.051763660489
378.2162,3364.8258288450434
380.4062,3292.5651478706422
382.5956,3146.867982404501
384.7844,3004.2825611881926
386.9726,2836.157081494597
389.1603,2734.5397105537886
391.3474,2651.0285872342665
393.5339,2597.9218230591505
395.7199,2517.517503041274
397.9052,2554.1136862142575
400.09,2587.0584064365503
402.2743,2675.5996720254698
404.4579,2842.4354654277486
406.641,3031.5137423341384
408.8235,3153.532430011026
411.0054,3327.33942540968
413.1868,3508.9325939460377
415.3675,3592.659767762656
417.5477,3596.5687439127632
419.7273,3524.1572835230054
421.9064,3404.82311175434
424.0848,3315.0639185261534
426.2627,3143.477359709608
428.4399,2904.7610580252185
430.6166,2518.9126047587415
432.7928,2158.22956214831
434.9683,1829.259467242944
437.1432,1602.6498355093663
439.3176,1395.4981641217128
441.4914,1269.8019342276184
443.6645,1205.3586130197455
445.8371,1130.7156549927422
448.0091,1091.1705025876654
450.1806,1035.4705869384306
452.3514,1025.1633282672465
454.5216,1060.346136441629
456.6913,1012.4664110774684
458.8603,1032.0715411871952
461.0288,1087.258905658593
463.1967,1059.7258730587273
465.3639,1063.519801082075
467.5306,1050.6880368258735
469.6967,1055.777916752153
471.8622,1087.536766816078
474.0271,1149.9619024150288
476.1914,1172.6006280710371
478.3551,1166.650236806512
480.5182,1198.2080099178675
482.6807,1260.171217035022
484.8426,1432.8371158058126
487.0039,1768.0029512763704
489.1647,2132.8659541644574
491.3248,2485.9733375078176
493.4843,2579.8722930155345
495.6432,2554.009987536967
497.8015,2370.333562122749
499.9592,2259.640132283417
502.1163,2093.8767898261704
504.2728,1762.4406039618134
506.4287,1486.4786229623842
508.5839,1119.8378774755238
510.7386,911.6153832840828
512.8927,765.9581449725429
515.0461,761.4131580092253
517.199,794.5274102028761
519.3512,968.897881748122
521.5029,1214.071544894321
523.6539,1443.0953622018606
525.8043,1534.6662840904173
527.9541,1482.4312465487183
530.1033,1319.8371702188306
532.2519,1187.2809609185206
534.3999,1118.509511267177
536.5472,1222.969702011389
538.694,1467.9084027126446
540.8401,1763.4224707027497
542.9856,2006.5587486344175
545.1305,2079.2640615261516
547.2748,1999.2852143308683
549.4185,1753.4689912088488
551.5615,1606.0621563275236
553.704,1588.8114563196377
555.8458,1663.0636217573228
557.987,1803.4153673245928
560.1276,1998.713391074827
562.2675,2352.7543730272537
564.4069,2845.2349732139737
566.5456,3248.3518281395445
568.6837,3367.3515458561815
570.8212,2981.880701932585
572.958,2313.885838263943
575.0942,1723.913466926644
577.2299,1286.8600768582255
579.3648,1118.022139757093
581.4992,1059.196114453056
583.6329,1177.9784485957098
585.766,1372.3155792426805
587.8985,1525.1539316718208
590.0304,1566.7899174378308
592.1616,1505.869932843876
594.2922,1407.140358525232
596.4222,1207.6475600584745
598.5515,1016.3878889487823
600.6802,838.907684624859
602.8083,668.6032763515395
604.9358,674.1209850045743
607.0626,668.7071247736967
609.1888,774.9580031074256
611.3144,894.1699207672209
613.4393,1012.8391707649698
615.5636,1110.4620371708588
617.6873,1105.6347939267052
619.8103,1052.8537038697032
621.9327,845.8150187807132
624.0544,677.4649799120507
626.1756,506.24982005789207
628.2961,367.76576523776384
630.4159,299.25903640870274
632.5351,271.0758508500985
634.6537,270.0124228487475
636.7716,258.51496398069503
638.8889,282.07968312186676
641.0056,334.8027865630411
643.1216,295.5804777741905
645.237,278.1589568772688
647.3518,218.88442103843045
649.4659,175.55306464224304
651.5793,103.31107988443182
653.6922,73.05465720519715
655.8043,89.82998601163308
657.9159,81.53325498028971
660.0268,66.8606518894212
662.137,95.60836370195102
664.2466,88.32257671220395
666.3556,79.0994762584196
668.4639,53.33524679561924
670.5716,30.326071987839896
672.6786,19.868134965759964
674.785,-4.492381443187696
676.8907,-30.30929461024607
678.9958,8.763622972224766
681.1002,-12.927098398291491
683.204,-27.68492851193878
685.3072,-29.56320801716538
687.4097,-54.21500098997603
689.5115,-63.94307616993865
691.6127,-50.84966068877111
693.7132,-60.18634288685098
695.8131,-62.55420311645321
697.9123,-12.703720468292886
700.0109,-8.784749116595776
702.1089,30.15298367456853
704.2061,81.15983840077206
706.3028,145.43617525605805
708.3987,200.13235362287378
710.4941,234.84873142931247
712.5887,335.9356646021424
714.6827,435.0435067196522
716.7761,633.1726080007775
718.8688,811.7733143140249
720.9608,963.4459651961824
723.0522,1104.9408920663136
725.1429,1143.1084167090085
727.233,1184.798849859466
729.3224,1207.1124908217953
731.4112,1159.3996270521257
733.4993,983.0605339354661
735.5867,773.6454752628251
737.6735,578.0547049946199
739.7596,400.1384693548116
741.845,303.8970087868274
743.9298,216.58055973270712
746.014,208.98935559552956
748.0974,201.52362761256882
750.1802,203.7836049312118
752.2624,237.96951468361476
754.3439,279.8315819640993
756.4247,393.2200294872946
758.5048,582.0850771695132
760.5843,884.7769409948723
762.6631,1330.5958311266459
764.7413,1911.5919488803502
766.8188,2602.5654822655324
768.8956,3191.466600175836
770.9718,3592.545445479247
773.0473,3516.152129129103
775.1221,3237.4867261532763
777.1962,2981.349276418132
779.2697,2873.7897874151695
781.3426,2949.5082368224103
783.4147,3046.85457357998
785.4862,3169.5787171329303
787.557,3020.9805564577728
789.6271,2587.3599488352465
791.6966,1973.166721336278
793.7654,1370.6006751582026
795.8335,960.5115917666899
797.901,671.2492389214149
799.9678,514.7133747769294
802.0339,450.2537507753059
804.0993,416.0701132114791
806.1641,359.4622038778525
808.2282,300.22976040613685
810.2916,244.47251683343347
812.3544,172.19020419454682
814.4164,119.18255107956247
816.4778,173.5492843566699
818.5385,203.7401297022334
820.5986,393.3048110571435
822.658,610.3930503248794
824.7166,951.454565475884
826.7747,1448.3890683766767
828.832,1985.5462613792333
830.8886,2335.3258323516366
832.9446,2538.127449306514
834.9999,2426.4507569032394
837.0545,2153.995374419912
839.1085,1854.3108968701254
841.1618,1573.7968977275232
843.2143,1337.002931922647
845.2662,1147.8285386480675
847.3175,1042.0732437263378
849.368,921.0365615017181
851.4179,855.0679958977398
853.467,742.517041627565
855.5155,676.9831848536996
857.5633,618.2159043134689
859.6105,499.41467197437305
861.6569,455.42895362176387
863.7027,406.3082100468455
865.7478,361.4018974865339
867.7922,362.75946811466747
869.8359,337.2303704910719
871.8789,401.564049547982
873.9212,480.95994684533434
875.9629,588.4174999274364
878.0039,710.2861415289863
880.0441,836.7152985005159
882.0837,881.6543905897033
884.1226,907.952829177073
886.1609,942.1600168266086
888.1984,1067.3753470227693
890.2352,1177.548203828419
892.2714,1212.8279606326705
894.3069,1173.5639790491623
896.3416,1005.1556085632528
898.3757,886.1521869246626
900.4091,813.3030418315557
902.4418,826.4074921205847
904.4739,879.4148484953657
906.5052,922.6744133954471
908.5358,896.4354804662344
910.5658,751.5973341263962
912.595,570.2092498302482
914.6236,371.9704955161433
916.6515,252.53033342033996
918.6786,169.2880220593961
920.7051,202.9928174245706
922.7309,265.19397381423914
924.756,306.09074349686125
926.7804,383.9323760889529
928.8041,380.818118146135
930.8272,476.3972123846888
932.8495,447.31889771273745
934.8711,422.5324082744246
936.892,366.2869737407127
938.9123,385.58181955724467
940.9318,384.6161675067924
942.9506,389.8392355163123
944.9688,338.2502376666089
946.9862,262.5483841401001
949.003,135.88288173670117
951.019,56.302934630857635
953.0344,-3.4422543618147756
955.0491,25.09651701128132
957.063,71.31848539085513
959.0763,148.02288716665316
961.0888,205.70895801524784
963.1007,274.9759321329893
965.1119,299.4730416591374
967.1223,324.4495159831931
969.1321,312.354581499927
971.1412,314.8874613596163
973.1495,321.4973755890005
975.1572,341.1835410659369
977.1641,376.6951714533243
979.1704,354.83147700221343
981.1759,341.8416641967269
983.1808,365.9249359726691
985.1849,404.2304918474347
987.1884,481.45752767916565
989.1911,588.4552352837054
991.1932,654.8728016623245
993.1945,713.1094079317445
995.1951,695.964228659961
997.1951,653.5364312838828
999.1943,661.7251762807755
1001.1928,640.7796175925469
1003.1906,709.8989025438568
1005.1877,820.1321720515734
1007.1841,908.178559933569
1009.1798,932.087191806404
1011.1748,861.1571842048561
1013.1691,696.7376443428311
1015.1627,508.07767082266764
1017.1556,305.6763552793327
1019.1477,188.03278426701945
1021.1392,115.49604128316969
1023.1299,83.06520794489916
1025.12,87.98936471437264
1027.1093,181.01759122310614
1029.0979,286.2489662227181
1031.0859,408.6325666546654
1033.0731,457.667466597919
1035.0596,412.55273604512513
1037.0454,308.8374404122642
1039.0304,227.770640989791
1041.0148,92.40139597979214
1042.9985,20.47876130664372
1044.9814,-24.198208029280067
1046.9636,-74.03045723238029
1048.9452,-76.11868976696496
1050.926,-35.16286953307463
1052.9061,28.88779999495455
1054.8855,46.58446661985181
1056.8642,72.67827785547706
1058.8421,133.77038074984193
1060.8194,179.2119216241881
1062.7959,253.80404546204954
1064.7717,301.64789545485655
1066.7469,369.9946122559959
1068.7213,465.7953335023831
1070.695,537.7511931309809
1072.6679,577.4133204208047
1074.6402,589.4828392733607
1076.6117,567.0108678160277
1078.5826,481.1985182813696
1080.5527,349.89689723184256
1082.5221,297.7571064179283
1084.4908,311.0802440911375
1086.4587,350.7674055254165
1088.426,419.11968288389835
1090.3925,426.0381648220591
1092.3584,467.4739358041734
1094.3235,445.57807603414494
1096.2879,553.4016610411427
1098.2515,645.1457618985642
1100.2145,843.2614441457845
1102.1767,1026.9497668707209
1104.1382,1262.4617807286822
1106.099,1534.8985261054822
1108.0591,1724.5110307623181
1110.0185,1900.000307111406
1111.9771,1975.41735031986
1113.9351,1898.1131365547872
1115.8923,1763.5886222291256
1117.8488,1592.494744774689
1119.8045,1422.5824239874019
1121.7596,1287.2025637382521
1123.7139,1174.3560536724099
1125.6675,1131.0937705630213
1127.6204,1163.9165794396768
1129.5726,1111.125334021037
1131.524,1050.67087638659
1133.4748,926.3040375045821
1135.4248,768.5756378365568
1137.3741,642.2364885810148
1139.3226,524.4873932507144
1141.2705,466.4291489360494
1143.2176,393.9125474825405
1145.164,381.2383760714174
1147.1097,330.1574179447889
1149.0546,222.67045253238484
1150.9989,133.6782559623607
1152.9424,51.13160213616811
1154.8852,-16.11873638151701
1156.8272,-54.57198753732973
1158.7686,-49.32721825173212
1160.7092,-32.732950271036316
1162.6491,5.612787437352381
1164.5883,120.81229290820374
1166.5267,249.4678641201608
1168.4644,406.9317978437475
1170.4014,612.5063883548146
1172.3377,909.5439258598981
1174.2732,1215.6466944404729
1176.2081,1629.4169690825747
1178.1421,2105.75701261577
1180.0755,2623.1690715754703
1182.0082,3004.50537143951
1183.9401,3148.7181114540444
1185.8713,3020.1594608201804
1187.8017,2706.381557251849
1189.7315,2340.2365082613887
1191.6605,1922.0763942973326
1193.5888,1656.303272405844
1195.5163,1508.8191804123298
1197.4432,1435.7261395791666
1199.3693,1406.1261560805478
1201.2947,1380.0712217334085
1203.2193,1342.9133142934324
1205.1432,1325.7043977155945
1207.0664,1308.3464225257376
1208.9889,1293.04132599266
1210.9106,1317.2910323017095
1212.8316,1292.1474527078208
1214.7519,1384.6624852930254
1216.6715,1424.4880152178757
1218.5903,1493.6259137962998
1220.5084,1560.578038097351
1222.4257,1673.3962302538275
1224.3424,1730.1823167927469
1226.2583,1852.4381075071724
1228.1735,1998.0653948883437
1230.0879,2158.4659529031305
1232.0016,2352.541535537749
1233.9146,2487.7938751937554
1235.8269,2515.6246807473008
1237.7384,2461.935636196591
1239.6492,2321.878400383597
1241.5592,2310.6046075309287
1243.4686,2368.9658686424145
1245.3772,2511.063771615837
1247.285,2693.849880659327
1249.1922,2943.225734870379
1251.0986,3073.5928464079907
1253.0042,3154.30269799891
1254.9092,3272.2567416339516
1256.8134,3400.4563977609005
1258.7169,3540.903054104984
1260.6196,3699.148064386869
1262.5216,3958.842746918195
1264.4229,4169.188383019131
1266.3234,4415.036214421419
1268.2232,4524.537441164918
1270.1223,4600.943219139132
1272.0207,4660.10465898819
1273.9183,4638.9728253467865
1275.8151,4601.598736248583
1277.7113,4563.233363337507
1279.6067,4663.177632241512
1281.5014,4893.182422956219
1283.3953,5277.798568845483
1285.2885,5774.226854341337
1287.181,6253.468011097826
1289.0727,6753.322713026739
1290.9637,7092.791571505179
1292.854,7289.7751303770365
1294.7435,7300.573862558282
1296.6323,7199.588168067145
1298.5204,7075.068373916124
1300.4077,6955.56473512184
1302.2943,6727.027435950236
1304.1802,6448.506591111606
1306.0653,6037.0022480459775
1307.9497,5565.564389708321
1309.8333,5165.992938683585
1311.7162,4866.487761901088
1313.5984,4690.148674630214
1315.4798,4557.825443475482
1317.3605,4487.017788139918
1319.2405,4389.725382748301
1321.1197,4193.447856555237
1322.9982,3912.834794918077
1324.876,3639.685741259702
1326.753,3372.5001998746447
1328.6293,3178.427638660589
1330.5048,3059.7174917902094
1332.3796,2900.2191616519194
1334.2537,2802.1320200369555
1336.127,2753.9054097343624
1337.9996,2724.5386455118723
1339.8714,2749.181014598159
1341.7426,2759.5817769765163
1343.6129,2787.8401651384365
1345.4826,2807.5053839795855
1347.3515,2839.5766105172443
1349.2196,2817.352993693634
1351.087,2847.7836540552107
1352.9537,2907.2176839749063
1354.8197,3047.3541473478117
1356.6849,3244.742078996852
1358.5493,3422.830483271413
1360.4131,3587.8183320734624
1362.276,3745.0045630766635
1364.1383,3762.1380780765103
1365.9998,3602.667741418445
1367.8606,3266.8423798265503
1369.7206,2912.210783998228
1371.5799,2587.6717119624645
1373.4384,2337.4738926261416
1375.2962,2128.716029019428
1377.1533,1826.8468007977544
1379.0096,1492.264866329394
1380.8652,1130.6688657141558
1382.7201,875.0074241292077
1384.5742,637.929155445031
1386.4275,476.5826647820368
1388.2802,358.6665508813512
1390.132,253.52940771827343
1391.9832,185.81982568144394
1393.8336,107.38639262421111
1395.6832,105.47769454172885
1397.5322,80.09231635528977
1399.3803,57.82884193140944
1401.2278,50.98585433568587
1403.0745,50.1619360554314
1404.9204,49.355669068099814
1406.7656,71.06563484952949
1408.6101,109.89041438200366
1410.4538,152.72858793715568
1412.2968,252.77873468771577
1414.139,299.5394322791326
1415.9805,398.90925582906584
1417.8213,498.0867774597882
1419.6613,632.4705653044857
1421.5006,790.7591825154768
1423.3391,1017.3011859203798
1425.1769,1309.645124439221
1427.0139,1795.7895368190202
1428.8502,2355.782948710352
1430.6858,2897.0738678058915
1432.5206,3306.7107782404955
1434.3547,3545.142135178281
1436.188,3598.066360716266
1438.0206,3539.581841500042
1439.8524,3367.88692819455
1441.6835,3273.6799360689074
1443.5139,3213.0091467133643
1445.3435,3157.422808981378
1447.1724,3151.0691395963077
1449.0005,3116.2963237072927
1450.8279,3061.1525149527833
1452.6545,3076.0858358082705
1454.4804,3110.6943781377213
1456.3056,3135.3262030442484
1458.13,3065.6293405240176
1459.9536,2937.1017892199443
1461.7766,2684.9415171186492
1463.5987,2362.7964628357413
1465.4202,2055.1145381374236
1467.2409,1741.893631161929
1469.0608,1459.4816094963526
1470.88,1214.976323308856
1472.6984,1008.5756081727895
1474.5161,807.6272875117456
1476.3331,670.4291746635608
1478.1493,610.4290748898084
1479.9648,518.724786747769
1481.7795,453.9641026904392
1483.5935,427.4448099835745
1485.4067,393.71469135328516
1487.2192,352.27152525123984
1489.031,334.96308619196225
1490.842,316.4871451672643
1492.6522,295.04146981933627
1494.4618,285.72382462549376
1496.2705,279.2319711126411
1498.0785,276.06366795044505
1499.8858,234.3666710162588
1501.6924,198.538733426798
1503.4981,201.42760595511572
1505.3032,183.5310373888815
1507.1075,141.29677450148938
1508.911,135.47256223102795
1510.7138,92.00614410261733
1512.5159,80.89526228665636
1514.3172,44.737658033485786
1516.1178,29.83107178449609
1517.9176,19.123243533701498
1519.7166,6.7619129768127095
1521.515,-16.3051803816943
1523.3126,-16.98029710496121
1525.1094,-30.465534867375027
1526.9055,-17.462821710155367
1528.7008,-34.67378132383783
1530.4954,-48.24986294536939
1532.2893,-60.14216942062558
1534.0824,-56.75132157935241
1535.8747,-22.22733943102321
1537.6663,-23.819676039412116
1539.4572,-16.97756241717616
1541.2473,12.750008381588486
1543.0367,38.36421290862836
1544.8253,65.51622758819394
1546.6132,120.65722846089466
1548.4003,149.68839091217978
1550.1867,222.66088912092982
1551.9723,300.97589576914106
1553.7572,426.3345813122014
1555.5414,550.8881131957432
1557.3247,718.3376546020563
1559.1074,891.9843632045486
1560.8893,1062.4293894932553
1562.6705,1250.5238750383696
1564.4509,1384.4189507857927
1566.2305,1456.2657351761918
1568.0094,1540.3153328060462
1569.7876,1561.7688337091786
1571.565,1541.7273125162683
1573.3417,1534.8418282403027
1575.1176,1542.363424477002
1576.8928,1538.5931294736693
1578.6672,1557.981956053979
1580.4409,1602.9309016556736
1582.2138,1654.240948136675
1583.986,1682.2130613256022
1585.7575,1796.6481905086648
1587.5282,1875.4472681499492
1589.2981,2002.7612087470543
1591.0673,2095.7409080431244
1592.8358,2237.687241753685
1594.6035,2345.5510646368557
1596.3704,2444.9332090738844
1598.1366,2576.434483990516
1599.9021,2688.7056738631672
1601.6668,2816.7475374039086
1603.4308,2963.8108064377548
1605.194,3149.296184622248
1606.9564,3368.854345976818
1608.7182,3651.585933027938
1610.4791,3950.091554613544
1612.2394,4263.171783055713
1613.9988,4608.777151175607
1615.7576,4883.908149162672
1617.5156,5101.965221118588
1619.2728,5213.648762305946
1621.0293,5180.159116967696
1622.785,4979.446577210298
1624.54,4682.811383338619
1626.2942,4328.553725863068
1628.0477,3933.173748465937
1629.8005,3573.871551543981
1631.5525,3247.2971961622197
1633.3037,3000.600707646964
1635.0542,2808.582078851553
1636.804,2633.2412726233233
1638.553,2545.378223723791
1640.3013,2509.1428405820625
1642.0488,2462.4350061734604
1643.7955,2485.3045783818825
1645.5416,2584.7013904668775
1647.2868,2688.925250834949
1649.0313,2839.3259420455934
1650.7751,2973.103219769054
1652.5181,3141.356811282319
1654.2604,3336.1364141313434
1656.0019,3587.591694448514
1657.7427,3844.3722850048575
1659.4828,4138.277782695483
1661.222,4337.45774597178
1662.9606,4333.661691902366
1664.6984,4069.539094181277
1666.4354,3661.5393831659385
1668.1717,3127.9619485183866
1669.9072,2576.8561432852607
1671.642,2105.921289233586
1673.3761,1719.306682361827
1675.1094,1414.7615976092375
1676.8419,1180.3852927220046
1678.5737,1004.4770112987003
1680.3048,847.4359851340455
1682.0351,712.1614359779919
1683.7646,604.7525771061296
1685.4934,536.5086146724389
1687.2215,480.17874878337443
1688.9488,427.112174180309
1690.6754,364.1580808028284
1692.4012,335.71565431939825
1694.1263,307.9840767569008
1695.8506,275.0125267850667
1697.5742,276.1501799937869
1699.297,225.74620922282838
1701.0191,176.64978455046094
1702.7404,181.510073797494
1704.461,160.47624301823953
1706.1808,139.3474564519106
1707.8999,123.8228767329606
1709.6182,112.05166510236904
1711.3358,92.9829815628882
1713.0527,108.01598499675129
1714.7688,72.84983335636525
1716.4841,65.68368351397703
1718.1987,76.46669161333693
1719.9126,70.69801314136112
1721.6257,60.52680282030087
1723.338,71.20221466542807
1725.0496,55.87340208674959
1726.7605,69.88951778224873
1728.4706,58.19971389117791
1730.18,55.75314185389607
1731.8886,55.5489525287644
1733.5964,61.0862962166143
1735.3036,44.81432266278807
1737.0099,41.08218100176464
1738.7156,40.18901991988014
1740.4204,16.333987692652954
1742.1246,17.666232193714222
1743.8279,12.834901133353924
1745.5306,14.089142045201243
1747.2325,-4.521897665461893
1748.9336,-15.999070734242196
1750.634,-30.543184722991555
1752.3336,-15.454887362846875
1754.0325,-0.1845212585317313
1755.7307,-22.082274620445787
1757.4281,-12.04833381562321
1759.1247,-1.7326646091742077
1760.8206,-4.985112403356197
1762.5158,7.194494708892307
1764.2102,2.256378435903571
1765.9039,6.050760414064371
1767.5968,-3.272137742799714
1769.289,-11.662094481368968
1770.9804,9.781144440329172
1772.6711,10.157949768591152
1774.361,4.968692151901905
1776.0502,12.113742137172721
1777.7386,5.493470221627831
1779.4263,18.508246781353137
1781.1132,22.108442137502607
1782.7994,18.144426426148584
1784.4849,25.566569562280165
1786.1696,17.67524127944216
1787.8535,25.570811055514696
1789.5367,34.153648191627326
1791.2192,54.37412173320217
1792.9009,26.182600384127
1794.5818,33.5294523045477
1796.2621,39.86504539278576
1797.9415,63.28974721186978
1799.6202,53.25392492618039
1801.2982,58.907945067202945
1802.9755,63.852173633889834
1804.6519,72.88697603611354
1806.3277,59.5127170452306
1808.0027,48.329760703730244
1809.6769,57.588470458974825
1811.3504,57.18920927503086
1813.0231,68.7323395400822
1814.6951,77.61822307042166
1816.3664,84.49722099502105
1818.0369,78.31969366667181
1819.7067,79.88600059319242
1821.3757,68.34650049920674
1823.044,90.60155131048032
1824.7115,85.80151026931253
1826.3783,84.44673371198905
1828.0443,86.08757711678072
1829.7096,101.97439511749371
1831.3741,100.5575414870591
1833.0379,111.03736897866384
1834.701,95.0142293399199
1836.3633,101.98847320806681
1838.0248,115.91045027020346
1839.6856,119.18050919354437
1841.3457,114.4489974862031
1843.005,122.11626146448907
1844.6636,140.08264630022268
1846.3214,127.89849594406496
1847.9785,152.16415294585113
1849.6349,145.42995857643336
1851.2904,127.24625258502192
1852.9453,139.61337326653256
1854.5994,151.8816576434151
1856.2528,144.40144134199
1857.9054,164.17305846975933
1859.5572,156.6468416902144
1861.2083,157.37312202511748
1862.8587,156.35222892976572
1864.5084,164.88449028572268
1866.1572,165.27023241103416
1867.8054,167.75977997490236
1869.4528,176.90345599382817
1871.0994,165.00158180671633
1872.7453,155.35447698343978
1874.3905,156.66245944385582
1876.0349,164.1258455542793
1877.6786,169.64495011440204
1879.3215,176.92008628265876
1880.9637,195.45156552103617
1882.6051,166.43969752232124
1884.2458,171.08479002478452
1885.8858,175.48714910230365
1887.525,181.44707911790738
1889.1634,174.81488267975465
1890.8011,182.8408605815357
1892.4381,184.22531186879132
1894.0743,194.91853375865503
1895.7098,193.42082162600946
1897.3446,198.78246889655293
1898.9786,181.60376706177703
1900.6118,192.58500562534846
1902.2443,186.82647227489952
1903.8761,188.3784527722123
1905.5071,188.89123101080804
1907.1374,188.46508900042136
1908.7669,195.1003068618761
1910.3957,194.74716283134512
1912.0237,179.50593319399923
1913.651,189.92689228753989
1915.2776,193.91031265460697
1916.9034,188.8064649385742
1918.5285,197.56561784371024
1920.1528,183.53803818622237
1921.7764,181.47399080666037
1923.3992,190.92373871019618
1925.0213,175.8875430872622
1926.6427,174.1656632190543
1928.2633,151.55835662789286
1929.8832,170.71587909444452
1931.5023,168.3884848837929
1933.1207,168.77642655386353
1934.7383,173.7799549786996
1936.3552,176.64931934458036
1937.9714,171.5847670999874
1939.5868,167.43654392691087
1941.2015,161.70489379149194
1942.8154,157.6900589855095
1944.4286,167.0422801836953
1946.041,155.06179648388024
1947.6528,137.14884531347207
1949.2637,156.6536625492613
1950.8739,148.1264826965521
1952.4834,153.36753869411132
1954.0921,156.92706199944269
1955.7001,158.5552825363743
1957.3074,145.65242865946584
1958.9139,137.1187271377239
1960.5197,155.00440328363175
1962.1247,136.009681038488
1963.729,135.7347827935455
1965.3325,126.27992957996321
1966.9353,130.54534107155223
1968.5374,125.13123567932735
1970.1387,136.73783050884913
1971.7393,121.61534141436778
1973.3392,132.4139828827556
1974.9383,125.8839681847312
1976.5366,123.42550926687545
1978.1342,120.73881681693092
1979.7311,130.17410028838708
1981.3273,123.78156792734308
1982.9227,122.31142667815993
1984.5173,129.3638822473804
1986.1112,110.88913911843656
1987.7044,124.63740048111936
1989.2968,124.95886841633069
1990.8885,124.8037437585997
1992.4795,126.57222609286828
1994.0697,106.2145137560442
1995.6592,117.83080381931427
1997.2479,119.77129229171965
1998.8359,120.28617400399503
2000.4232,116.02564258916414
2002.0097,120.38989047738914
2003.5955,98.57910893857888
2005.1805,109.59348803874127
2006.7648,125.93321685809542
2008.3484,125.99848338092465
2009.9312,117.68947433218295
2011.5133,123.35637517683858
2013.0946,120.44937020296811
2014.6752,117.66864246508317
2016.2551,120.81437381320325
2017.8342,120.18674492066157
2019.4126,117.63593525264832
2020.9902,126.3621230724873
2022.5672,118.16548546714466
2024.1433,108.7461982599666
2025.7188,109.65443609264457
2027.2935,121.4903725194074
2028.8674,94.65417999794136
2030.4406,107.29602977102877
2032.0131,106.06609213491106
2033.5849,106.61453631287031
2035.1559,108.59153046752749
2036.7261,115.64724169535793
2038.2957,105.1818360069226
2039.8645,116.14547825631007
2041.4325,110.53833224579239
2042.9998,117.0105606161876
2044.5664,107.31232490293132
2046.1323,115.54378547135639
2047.6974,103.20510161367247
2049.2617,91.99643146665358
2050.8254,107.71793213502451
2052.3883,110.96975980354705
2053.9504,121.4520695798044
2055.5118,120.76501546168288
2057.0725,108.20875023254939
2058.6325,107.63342546812282
2060.1917,104.83919166203555
2061.7502,107.7261982315897
2063.3079,103.54459354569508
2064.8649,88.9945248960023
2066.4212,104.02613853871526
2067.9767,107.18957984009307
2069.5315,115.68499312613494
2071.0856,97.46252165094438
2072.6389,88.77230751177649
2074.1915,94.06449183126233
2075.7433,93.93921484431121
2077.2945,103.84661584518767
2078.8448,92.28683318876551
2080.3945,90.01000419145385
2081.9434,98.46626524679345
2083.4916,87.70575184822542
2085.039,89.82859850452883
2086.5857,92.23493884742629
2088.1317,102.12490561035543
2089.677,93.84863060440489
2091.2215,88.10624461941575
2092.7652,89.29787750674382
2094.3083,92.4236582366832
2095.8506,88.58371488655075
2097.3921,87.97817460942724
2098.933,99.10716367255691
2100.4731,87.87080746340234
2102.0124,89.31923037835622
2103.5511,92.90255593510255
2105.089,86.62090675813533
2106.6261,94.42440454292432
2108.1626,89.3631701187312
2109.6983,88.23732337057368
2111.2332,93.5969832898395
2112.7675,93.44226798554178
2114.301,101.62329463072479
2115.8337,97.39017946401145
2117.3657,87.74303770779193
2118.897,94.33198361055497
2120.4276,103.65713054335993
2121.9575,92.86859093394764
2123.4866,89.81647617348858
2125.0149,97.9008967244688
2126.5426,78.97196215121016
2128.0695,77.32978103902565
2129.5956,88.12446118350954
2131.1211,78.8061096069589
2132.6458,81.22483245042736
2134.1698,88.68073506690803
2135.693,96.3239219971465
2137.2155,98.15449689508159
2138.7373,98.17256245141357
2140.2584,80.62822037529872
2141.7787,87.02157139416795
2143.2983,85.25271542917085
2144.8171,78.72175153124067
2146.3353,74.42877789878435
2147.8527,85.62389194299271
2149.3693,83.60719033076884
2150.8853,88.37876887277685
2152.4005,85.33872254360972
2153.9149,75.68714543407509
2155.4287,86.42413078159325
2156.9417,81.34977106671454
2158.454,70.4641579057486
2159.9655,74.51738210150802
2161.4764,81.00953375216409
2162.9865,76.14070221071415
2164.4958,93.56097602006162
2166.0045,68.17044296170252
2167.5124,74.66918988152293
2169.0195,83.60730294370615
2170.526,78.48486756574357
2172.0317,68.20196832905435
2173.5367,79.15868903021055
2175.0409,78.15511278376516
2176.5445,89.84132191268577
2178.0473,76.01739795838967
2179.5494,66.5834215638813
2181.0507,78.83947261199114
2182.5513,74.93563031971576
2184.0512,72.87197311565728
2185.5504,83.79857867906253
2187.0488,75.61552396045818
2188.5465,70.42288507238754
2190.0435,72.57073737123869
2191.5397,68.45915550917152
2193.0353,80.63821341263997
2194.5301,69.50798432350712
2196.0241,68.76854067725458
2197.5175,78.16995421428328
2199.0101,62.11229598731006
2200.502,62.245636267352666
2201.9931,61.27004470430575
2203.4835,61.585590325609246
2204.9733,63.14234154600172
2206.4622,64.34036616436788
2207.9505,55.679731348168616
2209.438,51.26050362146293
2210.9248,49.33274895151271
2212.4109,51.44653279297381
2213.8962,53.30192010717519
2215.3809,57.49897534098159
2216.8648,58.03776240823845
2218.3479,66.0683446478024
2219.8304,47.29078481815327
2221.3121,52.45514501708931
2222.7931,62.311486869502005
2224.2733,42.60987147573087
2225.7529,51.60035931300172
2227.2317,52.733010432441006
2228.7098,49.407884369173644
2230.1872,39.425040130995285
2231.6638,54.63453623162286
2233.1397,43.1364307905244
2234.6149,45.63078138082187
2236.0894,47.41764514427291
2237.5632,46.29707876632756
2239.0362,46.769138458259704
2240.5085,41.88387996837355
2241.9801,40.34135857728165
2243.4509,34.59162914675858
2244.921,30.734746135166006
2246.3904,34.570763654951406
2247.8591,38.34973551121334
2249.3271,32.121715163343424
2250.7943,20.336755687236746
2252.2608,26.994909837571868
2253.7266,28.14623016565929
2255.1917,31.390768952860753
2256.656,24.3285781990769
2258.1197,28.1597095903021
2259.5826,15.584214569244295
2261.0447,31.75214429701532
2262.5062,19.16354977888409
2263.9669,25.61848170260032
2265.4269,23.516990564279013
2266.8862,29.009126603851428
2268.3448,23.444939826080827
2269.8026,28.224479945638677
2271.2598,26.14779644274813
2272.7162,31.31493851538835
2274.1719,22.925955100061856
2275.6268,28.58089482012224
2277.0811,34.529806069664346
2278.5346,26.672736956973267
2279.9874,16.30973524503611
2281.4395,27.940848430113874
2282.8908,31.26612384536952
2284.3414,33.885608544558636
2285.7914,39.09934926877554
2287.2406,33.05739242025993
2288.689,30.259784010257363
2290.1368,26.30656971944086
2291.5838,27.647794925884682
2293.0302,31.033504744599213
2294.4758,27.16374401411713
2295.9206,35.93855726263632
2297.3648,30.207988746718
2298.8082,32.372082363538084
2300.251,30.38088170819333
2301.693,33.83443005206027
2303.1343,33.58277036270874
2304.5748,40.12594526936368
2306.0147,32.51399706542338
2307.4538,33.09696764302612
2308.8922,48.52489856917191
2310.3299,30.647831079891375
2311.7669,31.815805925966288
2313.2031,27.228863551701124
2314.6387,32.987044083243745
2316.0735,24.090387374453258
2317.5076,27.588932949319315
2318.941,30.332720090927296
2320.3737,25.821787806474504
2321.8056,39.35617479983148
2323.2369,31.835919516650847
2324.6674,26.911060009023686
2326.0972,29.831634010682592
2327.5263,23.647678986249957
2328.9547,26.159232102031638
2330.3823,29.316330287858136
2331.8092,26.269010211966815
2333.2355,17.467308249431426
2334.661,28.961260512637182
2336.0858,41.05090293929561
2337.5098,29.586271177506205
2338.9332,27.31740046486175
2340.3558,33.594325743091986
2341.7778,20.467081680753154
2343.199,29.035702610458202
2344.6195,29.95022266015144
2346.0393,33.66067566741913
2347.4583,28.017095170346465
2348.8767,33.76951437041157
2350.2943,34.81796618892281
2351.7113,36.31248320949385
2353.1275,34.803097667559314
2354.543,27.439841435428207
2355.9578,36.62274603738069
2357.3718,33.85184272329775
2358.7852,40.127162376834576
2360.1978,34.34873554312867
2361.6098,45.316592366046734
2363.021,23.080762645969003
2364.4315,33.64127573010978
2365.8413,36.198160734877206
2367.2504,34.551446440267114
2368.6587,30.351161264293864
2370.0664,26.347333279458667
2371.4733,35.23999025475132
2372.8795,34.97915969568908
2374.285,30.31486875539042
2375.6899,26.097144237182306
2377.0939,37.27601264124212
2378.4973,32.401500206777314
2379.9,36.023632800237806
2381.3019,39.44243596405818
2382.7032,39.50793488043962
2384.1037,33.22015433715967
2385.5035,20.02911872691743
2386.9027,29.134852110212478
2388.3011,31.037378347253934
2389.6987,20.836721006903645
2391.0957,21.33290334765104
2392.492,22.925948419618976
2393.8876,10.765879059602298
2395.2824,5.452717875137296
2396.6765,26.736487366101528
2398.07,17.067155559718913
2399.4627,24.79469021585203
2400.8547,28.369058923689977
2402.246,20.690229024476253
2403.6366,30.758167575763423
2405.0265,14.772841428203037
2406.4156,14.434217124866677
2407.8041,29.442261061097156
2409.1918,18.096939487895725
2410.5789,17.94821836184201
2411.9652,21.69606345854629
2413.3508,17.640440374137142
2414.7358,19.031314487782765
2416.12,12.118651002249408
2417.5035,19.4024149299903
2418.8863,16.83257116227196
2420.2684,24.559084396337198
2421.6497,28.831919161103315
2423.0304,25.6010397398976
2424.4104,19.366410127728614
2425.7896,33.47799406359479
2427.1682,11.335755092830823
2428.546,19.839656425992757
2429.9232,17.88966116027882
2431.2996,28.635732194491425
2432.6753,27.477832248537197
2434.0503,23.56592375596506
2435.4246,29.099968875546892
2436.7982,17.129929530395316
2438.1711,23.40576735262414
2439.5433,19.427443803048163
2440.9148,25.694920108425208
2442.2856,14.00815730123918
2443.6557,12.717116157024861
2445.025,28.27175731123623
2446.3937,27.872041272156366
2447.7617,21.767928265351543
2449.1289,21.909378237667283
2450.4955,36.19635091827115
2451.8613,28.87880581723732
2453.2265,14.656702082677157
2454.5909,16.479998573913917
2455.9546,21.498654003704928
2457.3177,22.712626920007665
2458.68,22.271875655793792
2460.0416,31.626358316908295
2461.4025,30.326032786478436
2462.7627,33.82085663136775
2464.1222,36.31078711517989
2465.4811,27.995781163309857
2466.8392,23.975795338045145
2468.1966,24.500785921716556
2469.5533,39.120708956896124
2470.9093,41.93552024114888
2472.2645,32.39517518083346
2473.6191,40.099628762953785
2474.973,39.49883565056177
2476.3262,35.892750105714526
2477.6787,35.881325995480665
2479.0305,37.764516828002
2480.3816,41.542275752607
2481.7319,35.31455554097897
2483.0816,31.381308549379014
2484.4306,41.94248678092322
2485.7789,39.79804192491508
2487.1264,47.54792525123321
2488.4733,36.24208763177717
2489.8195,31.280479462966923
2491.165,43.663050778802244
2492.5097,33.73975130047836
2493.8538,39.36053031256051
2495.1972,39.37533676221733
2496.5398,34.334119203011824
2497.8818,50.886825794754486
2499.2231,39.13340435391433
2500.5637,36.623802188092895
2501.9035,25.10796621355837
2503.2427,37.135842980341295
2504.5812,32.957378787393395
2505.919,35.272519562307934
2507.256,37.43121090310456
2508.5924,36.38339805507883
2509.9281,42.079025889213995
2511.2631,35.36803891266027
2512.5974,43.05038121177745
2513.9309,35.57599651924545
2515.2638,41.0448281372411
2516.596,49.40681901218147
2517.9275,31.061911680035905
2519.2583,43.36004818270521
2520.5884,48.30117025147149
2521.9178,46.03521918401668
2523.2465,40.612135795011
2524.5745,42.58186043877242
2525.9018,42.79433306349779
2527.2284,46.29949319156606
2528.5543,45.84727991741261
2529.8796,49.98763187247914
2531.2041,49.4704872297342
2532.5279,44.69578366227074
2533.851,47.4634583484775
2535.1735,53.823448019785474
2536.4952,50.4756889329916
2537.8163,42.570116806658234
2539.1366,53.256666854591344
2540.4562,55.38527386489602
2541.7752,53.75587209311084
2543.0935,56.36839524092204
2544.411,61.97277647245744
2545.7279,50.21894838816161
2547.0441,66.7068429687514
2548.3596,68.78639169275368
2549.6744,57.05752537162766
2550.9885,70.12017412896876
2552.3019,55.87426751779776
2553.6146,64.31973438993418
2554.9266,63.25650303845475
2556.2379,60.3345011132393
2557.5485,67.15365563160276
2558.8585,64.46389300751525
2560.1677,65.16513898341032
2561.4762,57.807318657083215
2562.7841,66.89035647467824
2564.0913,65.81417630426654
2565.3977,68.37870134501645
2566.7035,69.78385413795422
2568.0086,70.77955654031973
2569.313,70.86572971151475
2570.6167,70.39229410314579
2571.9197,76.20916945816202
2573.222,75.7162748155904
2574.5236,75.3135284523662
2575.8246,77.10084788826236
2577.1248,83.82814988991686
2578.4244,76.79535045295938
2579.7232,82.05236473473803
2581.0214,86.8491071246475
2582.3189,87.38549119155971
2583.6157,84.56142963585535
2584.9118,83.87683428406115
2586.2072,84.6816161170891
2587.5019,97.57568527708338
2588.7959,92.45895105937245
2590.0893,96.331321783529
2591.3819,101.84270484453612
2592.6739,100.04300667406369
2593.9652,99.63213268535537
2595.2557,101.45998729122505
2596.5456,104.67647390816558
2597.8348,108.88149493807032
2599.1234,106.77495173606815
2600.4112,104.60674456847346
2601.6983,107.2267726338514
2602.9848,106.13493408469947
2604.2705,103.63112600124873
2605.5556,112.96524440238068
2606.84,113.23718427066615
2608.1237,111.64683945902368
2609.4067,110.54410268800052
2610.689,106.42886556167548
2611.9707,103.60101857868676
2613.2516,109.6104511733837
2614.5319,102.50705174410643
2615.8115,108.99070759309063
2617.0903,103.91130499750227
2618.3685,97.06872914460052
2619.6461,92.96286418253192
2620.9229,99.64359328875514
2622.199,98.5607987111008
2623.4745,106.31436170096345
2624.7493,96.25416252413038
2626.0234,107.18008038324524
2627.2968,96.59199351841016
2628.5695,105.58977909792759
2629.8415,107.72331332417968
2631.1128,100.64247134365132
2632.3835,107.39712722559443
2633.6535,105.48715403283643
2634.9228,109.51242375423374
2636.1914,105.22280732377146
2637.4593,105.4681745803108
2638.7265,94.89839431048506
2639.9931,98.3133342462462
2641.259,107.41286117056211
2642.5242,101.64684088326794
2643.7887,98.96513811007026
2645.0525,101.71761656020703
2646.3156,99.00413895326517
2647.5781,97.3745669916558
2648.8398,101.87876138774857
2650.1009,95.91658188016822
2651.3613,101.53788718875171
2652.6211,99.09253507417066
2653.8801,96.78038228171738
2655.1385,107.95128456575992
2656.3961,101.05509671286245
2657.6531,103.09167243007676
2658.9094,102.91086441390348
2660.1651,98.31252432992699
2661.42,104.34650281462291
2662.6743,111.5126495213425
2663.9279,99.76081305997184
2665.1808,112.94084092527123
2666.433,111.00257961439274
2667.6846,117.24587449508044
2668.9354,120.27056982505303
2670.1856,121.3265086895704
2671.4351,127.11353297118654
2672.6839,135.13148333919082
2673.9321,140.18019919173753
2675.1795,137.65951857566648
2676.4263,137.51927813601537
2677.6724,131.55931314122745
2678.9179,134.77945748455323
2680.1626,138.52954374365015
2681.4067,138.55940314838142
2682.6501,135.51886554331458
2683.8928,136.90775938742382
2685.1348,133.1759117844946
2686.3761,123.82314846923526
2687.6168,120.34929384459542
2688.8568,118.60417107529281
2690.0961,116.6876021225529
2691.3348,113.19940776155954
2692.5727,112.33940760062052
2693.81,106.55742011604985
2695.0466,111.05326266076753
2696.2826,118.57675152211948
2697.5178,114.02770187691908
2698.7524,116.25592771621263
2699.9863,120.26124189076972
2701.2195,120.09345608880068
2702.452,123.75238079590349
2703.6839,131.48782529674202
2704.9151,136.59959763845683
2706.1456,136.93750455331008
2707.3755,141.80135140756875
2708.6046,151.7409421981248
2709.8331,162.1060795038568
2711.0609,163.69656438623383
2712.2881,170.51219628566457
2713.5145,173.25277300559213
2714.7403,188.21809064433762
2715.9654,197.15794356769476
2717.1899,208.3221242592765
2718.4136,215.76042323111716
2719.6367,228.62262891202965
2720.8591,239.80852757322333
2722.0809,248.8179031996815
2723.3019,262.15053737830283
2724.5223,273.45620920780664
2725.7421,269.3846951654075
2726.9611,270.68576899375756
2728.1795,270.0592017416626
2729.3972,265.4547617510704
2730.6142,244.42221466333717
2731.8306,237.16132346527132
2733.0462,226.9218486994597
2734.2612,212.70354853687587
2735.4756,184.15617887927516
2736.6892,178.32949350137778
2737.9022,164.57324433634227
2739.1145,150.53718153403292
2740.3262,131.6210535985818
2741.5372,123.17460752874968
2742.7475,114.24758900708645
2743.9571,101.93974248439633
2745.1661,89.20081126900766
2746.3744,80.68053764985154
2747.582,76.67866302385096
2748.7889,64.94492798112424
2749.9952,61.9790723450032
2751.2008,60.13083528937119
2752.4057,50.69995536832073
2753.61,47.386170534636335
2754.8136,39.68921823410324
2756.0165,45.65883543864527
2757.2188,37.094758723294376
2758.4204,28.196724206494537
2759.6213,31.814467635742176
2760.8215,34.29772447656683
2762.0211,35.846229876353846
2763.22,30.909718639511595
2764.4182,29.53792521198625
2765.6158,19.880583730627336
2766.8127,18.087428036905408
2768.009,19.008191773485578
2769.2045,10.09260840215893
2770.3994,8.440411194634748
2771.5936,2.6513333216966544
2772.7872,-2.2248921302759754
2773.9801,-2.7885321014161946
2775.1723,-9.339831305185214
2776.3639,-9.679006597608861
2777.5548,-12.55618152979855
2778.745,-12.871382959589994
2779.9346,-15.624512308566011
2781.1235,-16.26534241319365
2782.3117,-18.193490021061848
2783.4992,-5.208409388989139
2784.6861,-13.059373020828843
2785.8723,-18.795601388424814
2787.0579,-2.6161845004850193
2788.2428,-4.870024597659494
2789.427,-1.7059977849153256
2790.6106,-4.6729315156740086
2791.7935,3.530363799560064
2792.9757,8.05512443286841
2794.1573,12.152586621029286
2795.3382,18.673986520270432
2796.5184,18.37056016529391
2797.698,28.643543404061802
2798.8769,34.99417190083136
2800.0551,51.77368103342451
2801.2327,65.48330582972108
2802.4096,78.92428079986428
2803.5859,89.54783979916454
2804.7615,101.85521589368989
2805.9364,124.24764125402965
2807.1106,145.1263470322217
2808.2842,164.99256313782791
2809.4572,189.29751802914654
2810.6294,213.54243851455033
2811.801,244.3785495094371
2812.972,274.25707379378014
2814.1423,320.62923170376735
2815.3119,369.2962408330162
2816.4808,399.5093155688521
2817.6491,452.9196666056383
2818.8167,499.0285006426451
2819.9837,538.0370198499468
2821.15,596.6464214073322
2822.3157,646.7578971142203
2823.4807,699.2226328035663
2824.645,760.8918078407465
2825.8086,807.8165945989118
2826.9716,871.998157842295
2828.134,921.8876542569637
2829.2957,959.4362318090044
2830.4567,996.4450292456272
2831.617,1016.41517571968
2832.7767,1026.6477904195613
2833.9358,1020.5939823695174
2835.0941,1005.4548503273181
2836.2519,1007.081482844793
2837.4089,969.8749584192243
2838.5653,962.5863454770789
2839.7211,948.4667027460754
2840.8761,944.8670793280695
2842.0306,951.3885148402496
2843.1843,968.3820394511337
2844.3374,994.7986738153547
2845.4899,1031.5894289037255
2846.6417,1100.9053057390724
2847.7928,1160.5972950283276
2848.9433,1216.4663764693705
2850.0931,1277.563518154107
2851.2422,1338.0896760097812
2852.3907,1394.9457931880002
2853.5385,1439.182799459476
2854.6857,1488.7516106454627
2855.8323,1542.203128175387
2856.9781,1581.788238591159
2858.1233,1632.3578130126584
2859.2679,1685.5627067418827
2860.4118,1730.3037587572517
2861.555,1774.8817911815581
2862.6976,1823.0476088345595
2863.8395,1846.8519987871923
2864.9808,1872.79572987992
2866.1214,1880.5795524846842
2867.2614,1903.7541982454704
2868.4007,1927.5203800004683
2869.5393,1945.8287915503258
2870.6773,1953.880107420487
2871.8146,1967.8249826781075
2872.9513,1971.914052851545
2874.0874,1962.5979337909048
2875.2227,1934.3272216271544
2876.3574,1918.3524928652807
2877.4915,1896.874304667
2878.6249,1870.693195010503
2879.7577,1855.7596829052377
2880.8898,1822.6742686537216
2882.0212,1820.787434000874
2883.152,1812.6996424648742
2884.2821,1781.2613393560246
2885.4116,1772.7229518576328
2886.5405,1777.2348893403937
2887.6686,1788.2475434477724
2888.7962,1796.7112880508848
2889.923,1809.426479138373
2891.0493,1815.1934547317655
2892.1748,1809.8125347583255
2893.2997,1822.6840209933837
2894.424,1843.2081971141452
2895.5476,1862.3853285709747
2896.6706,1875.9656623821559
2897.7929,1888.1494269421191
2898.9145,1926.086831885638
2900.0355,1943.4780679659932
2901.1559,1970.9733066755964
2902.2756,2009.2227000720786
2903.3946,2050.07638050334
2904.513,2073.6844602250517
2905.6308,2104.7970309921247
2906.7479,2123.214163822624
2907.8643,2150.2359086866445
2908.9801,2154.3622943221403
2910.0953,2164.3433279647056
2911.2098,2166.4789953063137
2912.3236,2144.019260395503
2913.4368,2142.0140656160243
2914.5494,2130.913331911435
2915.6613,2103.4169588051527
2916.7725,2062.2748245114635
2917.8831,2042.586786210483
2918.9931,2020.8526804595786
2920.1024,1997.2223233902519
2921.211,1974.8455109254774
2922.319,1944.2720190160057
2923.4264,1949.6016038641346
2924.5331,1933.3840022294405
2925.6391,1945.918931375485
2926.7445,1940.4560892319892
2927.8493,1939.4951542694857
2928.9534,1943.6857855539458
2930.0569,1947.0776227563906
2931.1597,1944.5702861109817
2932.2619,1943.263376381106
2933.3634,1957.006474884448
2934.4643,1955.8491435060585
2935.5645,1961.6909245609236
2936.6641,1951.931340805539
2937.763,1917.7198953794916
2938.8613,1868.7560719030553
2939.959,1835.8393348193044
2941.056,1777.1191298837548
2942.1523,1693.0948844935272
2943.248,1622.916008274553
2944.3431,1547.6818939218133
2945.4375,1444.6919179011304
2946.5313,1348.645441201508
2947.6244,1253.6418103650306
2948.7169,1160.3803584473283
2949.8087,1074.110405967614
2950.8999,988.3812618412968
2951.9904,920.2422242426829
2953.0803,845.1925814622664
2954.1696,796.1316125881187
2955.2582,732.8085882563862
2956.3462,688.5727711418989
2957.4335,662.4734165914012
2958.5202,624.4597730659104
2959.6062,600.8810824017096
2960.6916,579.136580190485
2961.7764,561.575496015112
2962.8605,559.1970536671004
2963.9439,541.6504713222062
2965.0267,536.984961564214
2966.1089,522.6997315604054
2967.1905,527.7439831082122
2968.2714,536.4669127780693
2969.3516,530.3677118629721
2970.4312,532.2455662912463
2971.5102,538.9496566875414
2972.5885,537.3291583540514
2973.6662,555.6332412034737
2974.7432,558.5110697752147
2975.8196,561.8118030523484
2976.8954,548.1845944328392
2977.9705,546.2785916965327
2979.045,546.5929371414295
2980.1188,516.8267676027444
2981.192,526.929214449763
2982.2645,497.49940388350353
2983.3364,481.63645683569234
2984.4077,457.53948926306145
2985.4783,441.15761230597934
2986.5483,412.78993252941893
2987.6177,383.8855520867777
2988.6864,357.09356900355385
2989.7545,329.91307746639063
2990.8219,295.293168090996
2991.8887,257.78292819394727
2992.9548,240.83144213889102
2994.0204,206.23779171164438
2995.0852,190.75105628971005
2996.1495,159.8703131882134
2997.2131,146.24463781476942
2998.276,116.17310397828976
2999.3383,102.25478402524027
3000.4,87.43874914035575
3001.4611,69.22406948582329
3002.5215,59.759814349443104
3003.5812,52.69505232677477
3004.6404,35.12885141578005
3005.6989,26.660279087470826
3006.7567,26.488402461570445
3007.8139,9.312288391199843
3008.8705,8.481003464596597
3009.9264,-0.15638582312482185
3010.9818,-5.200813061659744
3012.0364,-1.9032102784093468
3013.0905,-3.9644575446523618
3014.1439,-7.785415918597209
3015.1966,-12.816906853521516
3016.2487,-5.259674026398102
3017.3002,-7.414333073300725
3018.3511,-15.181447086159494
3019.4013,-13.811505087717364
3020.4509,-4.154844438061332
3021.4998,-11.311664520342731
3022.5481,0.11787678918284428
3023.5958,-5.916265382211861
3024.6428,2.585864091567373
3025.6892,3.0242794401056017
3026.735,8.548994867129238
3027.7802,7.410024546122145
3028.8247,12.357382565078638
3029.8685,18.291082937892895
3030.9118,21.911139554885494
3031.9544,26.66756612346643
3032.9963,24.660376131934072
3034.0376,36.13958280191105
3035.0783,43.805199108416105
3036.1184,45.60723766507277
3037.1578,49.99571064745248
3038.1966,57.87062977505451
3039.2348,56.73200626742147
3040.2723,65.82985076538978
3041.3092,69.3141733424755
3042.3455,73.6849834138967
3043.3811,71.89228970172974
3044.4161,70.93610019120126
3045.4505,77.2664221486151
3046.4842,66.7332621309148
3047.5173,73.43662592237911
3048.5498,80.17651863995485
3049.5816,74.20294466622289
3050.6128,71.06590758199889
3051.6434,77.91541022606924
3052.6734,74.80145472656147
3053.7027,71.72404243244904
3054.7314,65.38317394469101
3055.7594,72.82884914700628
3056.7868,76.21106726928224
3057.8136,72.07982681311779
3058.8398,75.58512551800135
3059.8653,76.2269604026232
3060.8902,71.75532772982251
3061.9145,73.67022300016907
3062.9381,77.67164099667963
3063.9612,70.95957576566877
3064.9835,76.98402057673502
3066.0053,75.69496798988115
3067.0264,71.44240979526984
3068.0469,70.42633702611408
3069.0668,68.14674000120289
3070.086,70.10360833506189
3071.1046,53.796930960749506
3072.1226,63.376696110288236
3073.1399,58.69289147773134
3074.1567,48.64550412336496
3075.1727,47.6345205205468
3076.1882,45.50992665617943
3077.203,41.871708040820295
3078.2173,36.8198497299276
3079.2308,30.50433636024252
3080.2438,33.07515220030808
3081.2561,22.582281213624043
3082.2678,22.225707032938544
3083.2789,21.905413065177072
3084.2893,19.871382495007964
3085.2991,18.023598288045406
3086.3083,15.362043211189729
3087.3169,10.686699851105516
3088.3248,5.497550640837062
3089.3321,16.094577906561682
3090.3388,4.7777639194814014
3091.3449,2.0970907898525013
3092.3503,5.002540580153692
3093.3551,6.9440953318927825
3094.3593,0.3717370365523607
3095.3629,2.3854476161740763
3096.3658,-0.06479101091767347
3097.3681,2.3210030497471337
3098.3698,4.792812339900792
3099.3708,-2.2993806219346027
3100.3713,0.7944066348351271
3101.3711,-0.9258204483836323
3102.3702,0.2899435618715529
3103.3688,0.8917133480094321
3104.3667,-3.870499304097507
3105.364,5.153317382506117
3106.3607,0.11321385106353432
3107.3568,-1.6407595067151135
3108.3522,-3.2085534301262157
3109.347,-0.940102267278661
3110.3412,-0.33530831283269436
3111.3348,1.9559355301732353
3112.3277,3.383739708430568
3113.32,0.7482146490714854
3114.3117,-0.5505292546091596
3115.3028,1.437618383201368
3116.2932,4.262773448102962
3117.2831,3.8750518113193664
3118.2723,5.424569301446695
3119.2608,7.361441708330574
3120.2488,4.385784767570954
3121.2361,1.547714141153449
3122.2229,3.647345447205879
3123.209,3.8347942883790154
3124.1944,7.360176230850271
3125.1793,6.323606802449035
3126.1635,7.925201457403077
3127.1471,6.165075586704205
3128.1301,6.143344502092319
3129.1125,6.86012345365657
3130.0942,5.215527630052733
3131.0753,13.409672151335371
3132.0558,11.992672085403754
3133.0357,12.014642366060556
3134.015,12.975697807181731
3134.9936,15.87595310249688
3135.9716,13.51552281597867
3136.949,17.794521352840363
3137.9258,18.213062983140077
3138.902,19.4212617989903
3139.8775,18.76923171037302
3140.8524,17.757086433057466
3141.8267,21.084939495120594
3142.8004,18.40290424706859
3143.7735,21.411093828558265
3144.7459,27.809621195217474
3145.7178,26.748599088563182
3146.689,23.078139972016146
3147.6596,20.398356041511178
3148.6295,28.609359262201664
3149.5989,24.41126139525751
3150.5676,26.804173915755058
3151.5357,31.088208054658082
3152.5032,30.613474774888672
3153.4701,29.43008472848682
3154.4364,29.8381482613579
3155.402,32.73777542510646
3156.367,33.629075972955675
3157.3315,35.31215933075099
3158.2952,31.33713458804705
3159.2584,33.604110481277004
3160.221,33.11319543350258
3161.1829,35.66449753174449
3162.1442,38.20812453189146
3163.105,38.44418383318731
3164.065,41.27278245279463
3165.0245,40.894027023434205
3165.9834,38.70802376509905
3166.9416,37.01487848884188
3167.8993,45.66469661863526
3168.8563,42.15758320830297
3169.8127,41.89364285502183
3170.7684,45.12297973439286
3171.7236,45.395697603080635
3172.6782,48.91189976652001
3173.6321,46.77168907618886
3174.5854,47.82516789444615
3175.5381,55.172438115933964
3176.4902,52.71360115704267
3177.4417,54.1487578824383
3178.3926,52.728008629650866
3179.3428,52.15145319472286
3180.2924,57.96919084641665
3181.2415,55.181320331980125
3182.1899,56.18793981896923
3183.1377,56.08914692312674
3184.0848,63.085038698316055
3185.0314,58.8757116375091
3185.9773,60.76126160282741
3186.9227,61.741783867635434
3187.8674,61.96737309768502
3188.8115,59.5381233413102
3189.755,63.60412802717124
3190.6979,60.56547998854723
3191.6402,65.72227142267599
3192.5818,66.77459392114051
3193.5229,71.0225384183011
3194.4633,68.41619518077212
3195.4031,68.70565376494258
3196.3423,67.49100304303948
3197.2809,68.77233120023334
3198.2189,71.39972574678464
3199.1563,72.22327350523054
3200.0931,71.39306058411093
3201.0292,72.50917236973304
3201.9648,73.2716935344734
3202.8997,76.9307080256169
3203.834,76.33629905773141
3204.7677,81.08854907607781
3205.7008,80.3375397625539
3206.6333,81.43335198817208
3207.5652,81.77606582056926
3208.4964,79.46576051304889
3209.4271,84.75251450115374
3210.3571,87.08640542576894
3211.2865,85.16751008025452
3212.2154,83.44590438710641
3213.1436,85.82166341714552
3214.0712,86.29486140673359
3214.9982,89.26557173401585
3215.9246,90.88386691418883
3216.8503,86.54981856979333
3217.7755,92.11349741453151
3218.7001,93.72497329660729
3219.624,91.28431514308963
3220.5473,92.24159094379776
3221.4701,95.89686777570776
3222.3922,93.75021179337976
3223.3137,97.30168819240525
3224.2346,96.70136123087354
3225.1549,98.3492941938571
3226.0746,100.6455493994147
3226.9937,102.79018818211216
3227.9121,100.88327087005986
3228.83,102.07485676346622
3229.7473,101.96500415370694
3230.6639,105.30377031140915
3231.5799,107.34121148754994
3232.4954,107.87738288006865
3233.4102,108.26233861349252
3234.3244,108.04613173357491
3235.238,109.32881420344577
3236.151,106.31043690577373
3237.0634,111.74104962993927
3237.9752,111.9207011022185
3238.8864,106.84943893147695
3239.797,111.22730960737314
3240.7069,115.05435855107115
3241.6163,114.68063007146193
3242.5251,116.45616732689281
3243.4332,115.23101232890482
3244.3408,118.45520592447728
3245.2477,120.0287878082793
3246.154,120.55179649042796
3247.0598,121.07426928075245
3247.9649,119.14624228356394
3248.8694,119.46775039243089
3249.7733,123.83882730945938
3250.6766,121.95950554207792
3251.5793,122.27981635932672
3252.4814,121.44978981065086
3253.3829,124.71945472269726
3254.2838,126.83883870761497
3255.1841,123.60796813035842
3256.0838,127.57686808749355
3256.9829,128.64556243950665
3257.8814,130.41407377111523
3258.7792,131.18242338058118
3259.6765,126.70063126202561
3260.5731,130.2187160977453
3261.4692,125.28669530303065
3262.3647,130.4045849909849
3263.2595,134.47240002184424
3264.1538,135.09015395179895
3265.0474,137.0578589923154
3265.9404,134.42552600395837
3266.8329,132.74316447671396
3267.7247,139.61078255631296
3268.616,136.12838706105447
3269.5066,134.84598341312963
3270.3966,133.31357567344577
3271.286,137.93116655445021
