RamanShift,CorrectedData
30.1047,1881.9172989798124
32.3739,1751.2890322096891
34.6426,1625.860746620392
36.9109,1497.7824058798587
39.1787,1370.4539573974182
41.4461,1242.7253336045742
43.7131,1120.5464532282913
45.9796,988.4172225682803
48.2456,864.0875367187862
50.5112,736.5072808898808
52.7764,613.7763316507605
55.0411,485.1945582055487
57.3054,361.2618236206051
59.5692,238.17798611034362
61.8326,111.69290027655984
64.0955,-14.143581660730518
66.3579,-130.78160859844064
68.6199,-244.67118813910312
70.8815,-344.76102137698064
73.1426,-399.2473651411669
75.4032,-319.07303209815194
77.6634,72.92315356675192
79.9231,1188.7055552078218
82.1824,3788.9385354501037
84.4412,8564.08644503159
86.6995,15202.563596800883
88.9574,21669.084217965734
91.2148,26120.66238370824
93.4717,28096.861952519677
95.7282,28461.646521684685
97.9842,28340.579407519283
100.2398,27705.373641723043
102.4949,26993.141972589725
104.7495,26159.84687135937
107.0036,25203.900539340575
109.2573,24354.314916243507
111.5105,23470.651689739294
113.7632,22644.872303955934
116.0154,21911.487968314905
118.2672,21390.509665788966
120.5185,20799.998160235995
122.7693,20291.76400160878
125.0197,19891.267531860118
127.2696,19481.818890025184
129.519,19232.57801622647
131.7679,18904.504655768284
134.0163,18668.558361629144
136.2642,18314.69849774254
138.5117,17986.634241356383
140.7587,17672.82458657159
143.0052,17337.87834762274
145.2512,16982.15416201618
147.4967,16639.36049387946
149.7417,16380.055637518592
151.9863,16141.797720845989
154.2304,16023.644707973508
156.4739,15751.30440159504
158.717,15562.83444416802
160.9596,15276.692320636848
163.2017,14904.235360317583
165.4433,14514.270739759359
167.6844,14071.705486468956
169.925,13641.146482810462
172.1651,13158.900470430894
174.4047,12793.524054565822
176.6439,12411.823708861797
178.8825,12070.355779030144
181.1206,11772.926486663957
183.3582,11506.641932652765
185.5954,11329.658100156845
187.832,11121.78085727004
190.0681,10996.865958789629
192.3037,10874.119048295079
194.5388,10727.845659397208
196.7734,10693.951216965645
199.0075,10640.841038591556
201.2411,10735.220334926604
203.4742,10702.894210214043
205.7068,10755.667661344934
207.9389,10728.695578181396
210.1704,10844.28274302888
212.4015,10835.73383090587
214.632,10931.153408388047
216.862,11029.445933693734
219.0915,11100.815755729742
221.3205,11205.967113108423
223.549,11393.904133433967
225.777,11597.3308322509
228.0044,11853.851111164719
230.2314,12229.1187558076
232.4578,12555.487433273222
234.6837,12763.310688364072
236.909,12930.64194032777
239.1339,12818.984480778843
241.3582,12526.991472025396
243.582,12067.815948185698
245.8053,11690.660818108101
248.0281,11254.078869962812
250.2503,10903.372775013426
252.472,10707.44509198276
254.6932,10556.548270559906
256.9139,10394.684653359514
259.134,10307.256477430763
261.3536,10199.415875875984
263.5727,10196.914878724949
265.7912,10065.255414013269
268.0092,10020.139307807416
270.2267,9874.318285521307
272.4436,9793.943972367473
274.6601,9624.267894815264
276.8759,9479.7414813946
279.0913,9339.066064392717
281.3061,9271.642881299449
283.5204,9233.423076213987
285.7341,9244.857700519082
287.9473,9303.09771326327
290.16,9441.693981046517
292.3721,9698.897277437814
294.5837,10051.058281589216
296.7947,10336.377575663822
299.0052,10441.805641314144
301.2152,10226.69285682892
303.4246,9848.589496078836
305.6334,9203.49573066766
307.8418,8624.661633713276
310.0495,8165.437186298619
312.2568,7811.67228326001
314.4635,7482.866737779401
316.6696,7319.2202849220375
318.8752,7149.632584924502
321.0802,7185.353224831182
323.2847,7222.38172019014
325.4887,7189.367514695919
327.692,7026.059979819234
329.8949,6884.158415137143
332.0972,6524.762049966093
334.2989,6240.620044780973
336.5001,5906.681494809052
338.7007,5624.195432871395
340.9008,5445.160832722258
343.1003,5253.3266118739575
345.2992,5148.391633387208
347.4976,5082.204707789459
349.6955,4981.314594124242
351.8927,5015.77000061306
354.0895,4924.669585664271
356.2856,4923.561957528549
358.4812,4871.595675209863
360.6763,4861.569248476586
362.8707,4751.331138381134
365.0646,4748.829757360252
367.258,4692.313470337376
369.4508,4670.3305947476565
371.643,4704.229401103106
373.8346,4644.508113212438
376.0257,4561.314907842076
378.2162,4424.447915313367
380.4062,4301.055220334509
382.5956,4069.03486336923
384.7844,3956.3848418707203
386.9726,3797.953112601839
389.1603,3673.287592761608
391.3474,3568.7861615695147
393.5339,3523.19666151218
395.7199,3452.8168993883646
397.9052,3420.6946467648722
400.09,3376.9276406803347
402.2743,3421.1135839664494
404.4579,3464.9501456856506
406.641,3576.8849606892254
408.8235,3749.2656291789626
411.0054,4007.689715587818
413.1868,4418.854746856101
415.3675,4709.30820984721
417.5477,4812.097547236022
419.7273,4842.170154604331
421.9064,4702.373379412964
424.0848,4505.654520701055
426.2627,4250.060830483995
428.4399,3929.1395157206534
430.6166,3530.4377408692926
432.7928,3146.052631096807
434.9683,2770.5812762657115
437.1432,2529.370734778011
439.3176,2317.568037329893
441.4914,2184.470189323849
443.6645,2109.924172986688
445.8371,1971.276948700528
448.0091,1893.1254557482462
450.1806,1821.966613699955
452.3514,1697.4973231945187
454.5216,1721.414466651142
456.6913,1608.8149095140689
458.8603,1582.745500013374
461.0288,1641.8530702910139
463.1967,1588.5844366614874
465.3639,1706.6363990207537
467.5306,1771.0057413789546
469.6967,1898.7392306798647
471.8622,2023.4836161572057
474.0271,2126.6856280573375
476.1914,2181.241976391786
478.3551,2138.999349905207
480.5182,2111.8544155298805
482.6807,2096.603818808082
484.8426,2190.6441841635606
487.0039,2441.272115054031
489.1647,2778.0341930307695
491.3248,3241.7769752323584
493.4843,3390.8969910170417
495.6432,3376.5907373252994
497.8015,3294.6046771886577
499.9592,3242.7852398727337
502.1163,3170.828821697105
504.2728,2886.781786553518
506.4287,2592.0404666254253
508.5839,2134.451165228478
510.7386,1807.1601597579247
512.8927,1594.5637062645183
515.0461,1457.0580427273962
517.199,1423.3393911800813
519.3512,1428.1539590855136
521.5029,1483.5479396732517
523.6539,1530.0675118913023
525.8043,1556.0088398522203
527.9541,1553.3680723678735
530.1033,1523.9913426900603
532.2519,1539.124768536898
534.3999,1650.4644523866264
536.5472,1925.4064813262303
538.694,2349.1969259380567
540.8401,2955.881837550398
542.9856,3406.6572439995944
545.1305,3596.9191435631765
547.2748,3439.1635004520977
549.4185,3086.6362429081564
551.5615,2712.433264781499
553.704,2599.3004290559256
555.8458,2485.5335715909023
557.987,2520.328502252909
560.1276,2455.0810060530857
562.2675,2516.7868427993126
564.4069,2515.691747748653
566.5456,2527.691430990333
568.6837,2458.7315774566523
570.8212,2143.957846803012
572.958,1785.365874097508
575.0942,1515.2512729686714
577.2299,1311.8096391913787
579.3648,1278.8865533880053
581.4992,1310.5275830628307
583.6329,1475.8782829312913
585.766,1741.034194603537
587.8985,1855.5908449309463
590.0304,1855.4437433545572
592.1616,1773.9383807595077
594.2922,1645.7202294764975
596.4222,1502.2847440968544
598.5515,1282.7773627547067
600.6802,1126.0935085613419
602.8083,921.5785918002912
604.9358,905.0780114941517
607.0626,812.1871574497345
609.1888,817.9014104230992
611.3144,740.4161430484382
613.4393,640.7767197809408
615.5636,561.1284976716524
617.6873,473.9668273638599
619.8103,422.43705388958915
621.9327,330.7345175411938
624.0544,289.65455438666686
626.1756,255.29249718666324
628.2961,198.44367580531616
630.4159,121.90341755383997
632.5351,111.26704775900726
634.6537,37.379890528569376
636.7716,52.187268857625895
638.8889,48.98450536745804
641.0056,128.36692215748553
643.1216,62.979840837288066
645.237,122.21858173279543
647.3518,112.87846454014289
649.4659,116.704807733302
651.5793,144.79292865746538
653.6922,124.08814349081149
655.8043,85.18576696357559
657.9159,91.63111256513366
660.0268,12.869492932997673
662.137,-45.4537802116065
664.2466,-49.49352371369605
666.3556,-45.00410033503431
668.4639,-81.83937839707869
670.5716,-8.252776630335575
672.6786,53.15310381007657
674.785,117.87574421425597
676.8907,133.8626253407965
678.9958,231.71122676954838
681.1002,217.81902674176672
683.204,212.68350118157105
685.3072,178.55212383492108
687.4097,120.77236632095082
689.5115,62.291698473254655
691.6127,6.357588917737303
693.7132,-18.23249434263198
695.8131,-67.58114681719235
697.9123,-17.54078187268533
700.0109,-88.01313774019582
702.1089,-98.94977741842376
704.2061,-59.65138465484051
706.3028,-1.5176546886395954
708.3987,49.60231315830606
710.4941,131.35943472549116
712.5887,314.454625356404
714.6827,582.1887990809373
716.7761,942.6628667844743
718.8688,1317.4777335304934
720.9608,1505.6342949558712
723.0522,1587.6334335227039
725.1429,1397.8260166367727
727.233,1154.0628958275483
729.3224,932.2949086462322
731.4112,626.2728811034212
733.4993,446.44762988674483
735.5867,255.51996542109555
737.6735,187.4406936669111
739.7596,103.86061802942277
741.845,74.98054003947982
743.9298,26.701260189322056
746.014,39.32357822139966
748.0974,66.04802713256868
750.1802,71.47513952647205
752.2624,62.55544734626892
754.3439,91.73948182037566
756.4247,167.1777735516589
758.5048,263.6708522255831
760.5843,495.66924585584275
762.6631,794.5734798194317
764.7413,1269.9340745366571
766.8188,1870.5515424820878
768.8956,2304.426383430986
770.9718,2641.209078453063
773.0473,2519.550085573803
775.1221,2188.8498364066
777.1962,1837.2087373693503
779.2697,1621.327172991485
781.3426,1662.1555094303585
783.4147,1874.5440966300484
785.4862,2237.4932679131052
787.557,2230.9033378566382
789.6271,1919.1245986628528
791.6966,1372.1573202249274
793.7654,870.6517532448051
795.8335,557.8081347028492
797.901,360.2266928729259
799.9678,320.3076504508135
802.0339,323.00122653002836
804.0993,376.4576370010327
806.1641,360.52709452427735
808.2282,327.8598079956573
810.2916,252.20598270581468
812.3544,177.06582066678675
814.4164,100.53952136858425
816.4778,150.57728253055757
818.5385,113.52930086667402
820.5986,191.5457715851262
822.658,321.52688875883905
824.7166,425.6728445452827
826.7747,714.4338278866562
828.832,899.0600234684389
830.8886,1046.3016088317963
832.9446,1248.6087525272742
834.9999,1251.3816126424572
837.0545,1238.5203347788374
839.1085,1242.875052024112
841.1618,1227.5958850807692
843.2143,1186.3329422225725
845.2662,1113.2363194473219
847.3175,1069.4061008895042
849.368,937.5423595512511
851.4179,856.1451577406224
853.467,669.4645483902859
855.5155,608.6005758714673
857.5633,556.3032778607558
859.6105,423.7226859487455
861.6569,372.4588261630015
863.7027,310.561720293892
865.7478,367.231386407213
867.7922,362.56783946313953
869.8359,418.6710907495617
871.8789,533.2911479286959
873.9212,748.5780144760429
875.9629,906.6816885342123
878.0039,1082.3521607600342
880.0441,1229.8894127435378
882.0837,1238.8434152512382
884.1226,1162.31412675076
886.1609,1056.3514933213119
888.1984,1016.9054494189622
890.2352,1080.925918936271
892.2714,1015.9628155967621
894.3069,1029.0160423146954
896.3416,964.8354918447258
898.3757,911.8210466513519
900.4091,913.8225795507242
902.4418,959.2399542407948
904.4739,966.2230252813097
906.5052,967.8716376396078
908.5358,881.2856266208219
910.5658,749.51481785137
912.595,606.1590281448298
914.6236,431.6680668196241
916.6515,441.3917371325988
918.6786,428.62983802393137
920.7051,507.882164019873
922.7309,679.8985053604083
924.756,742.3286472066902
926.7804,825.1723679209317
928.8041,772.2294384420311
930.8272,806.8996214571889
932.8495,758.2326719313023
934.8711,739.9783367602904
936.892,568.7863552577401
938.9123,460.1564593374751
940.9318,350.1883752254871
942.9506,222.38182454618072
944.9688,150.9365254221084
946.9862,121.40219375199376
949.003,51.02854392520749
951.019,45.56528911710484
953.0344,73.46214199277529
955.0491,107.76881476166818
957.063,189.98501889863473
959.0763,336.1604648008215
961.0888,426.19486096554465
963.1007,528.9879125285224
965.1119,587.8893203635125
967.1223,639.6487800544273
969.1321,654.4159813062761
971.1412,690.1906074275976
973.1495,710.3223351827837
975.1572,765.4108344343367
977.1641,851.8557679415535
979.1704,822.7567908096316
981.1759,800.3135496252034
983.1808,921.8256827473706
985.1849,980.5428205320895
987.1884,1133.2645841170815
989.1911,1325.0905848346374
991.1932,1465.9204226844085
993.1945,1534.6536844151524
995.1951,1449.9399421164271
997.1951,1419.4287525312575
999.1943,1365.5696579032665
1001.1928,1322.6621862818029
1003.1906,1290.1558520605322
1005.1877,1386.2501564064987
1007.1841,1345.4445875851925
1009.1798,1300.6886199996006
1011.1748,1096.331714598291
1013.1691,900.4233193229411
1015.1627,699.012871151921
1017.1556,459.64979805938856
1019.1477,436.933521029383
1021.1392,356.9134564494598
1023.1299,341.53901633786154
1025.12,340.85960914369934
1027.1093,376.17463990072065
1029.0979,508.3835102340927
1031.0859,534.2356180072529
1033.0731,518.7803559998029
1035.0596,466.5171116490019
1037.0454,315.2952672043066
1039.0304,232.01420025001062
1041.0148,94.47328521746749
1042.9985,22.521894217887166
1044.9814,46.859398417735065
1046.9636,-76.81483124172519
1048.9452,-51.55142428781255
1050.926,0.04975713229941903
1052.9061,-3.760634129819664
1054.8855,19.718054280303477
1056.8642,25.786512285874778
1058.8421,124.89542961294137
1060.8194,144.6954957296839
1062.7959,179.98739885534087
1064.7717,215.67182576219784
1066.7469,233.69946142266417
1068.7213,250.0209886524608
1070.695,295.38708793030673
1072.6679,197.8484372347266
1074.6402,249.8057115903939
1076.6117,234.70958404348858
1078.5826,252.0607251421643
1080.5527,241.05980308748622
1082.5221,329.5074835599298
1084.4908,514.9044298293556
1086.4587,693.2013018705693
1088.426,845.4487545093143
1090.3925,853.047435639357
1092.3584,833.6479846999646
1094.3235,681.9010325999297
1096.2879,658.0572019115934
1098.2515,684.6671083882866
1100.2145,750.4813612027829
1102.1767,840.8005626811828
1104.1382,1023.775307644788
1106.099,1207.0061825068915
1108.0591,1456.7937634430345
1110.0185,1606.5386145586963
1111.9771,1669.1412853914371
1113.9351,1459.1523094134209
1115.8923,1183.5722034054197
1117.8488,855.8514695566664
1119.8045,585.0405982207085
1121.7596,510.84007119256785
1123.7139,461.200364416869
1125.6675,475.5219487298673
1127.6204,535.9052903558077
1129.5726,556.200850763722
1131.524,572.7090860636054
1133.4748,546.3304468034403
1135.4248,537.3653778041335
1137.3741,547.6643184232998
1139.3226,524.9277026448945
1141.2705,517.1059589762554
1143.2176,390.2995106754315
1145.164,440.25877582942485
1147.1097,472.0341686222382
1149.0546,455.5260988353075
1150.9989,399.6849715297103
1152.9424,287.71118721129096
1154.8852,140.60514238903852
1156.8272,49.117230694824684
1158.7686,47.74784435450056
1160.7092,24.547375102734804
1162.6491,-28.233785803247883
1164.5883,89.95475264830384
1166.5267,197.7636635246672
1168.4644,379.8436189935819
1170.4014,556.8952892451598
1172.3377,831.4193406710983
1174.2732,1095.8164340941403
1176.2081,1364.2372220228572
1178.1421,1637.582346007668
1180.0755,1924.0024339566298
1182.0082,1969.4980974019782
1183.9401,2016.7699286359166
1185.8713,1878.1685002556915
1187.8017,1633.894364690841
1189.7315,1390.998055589229
1191.6605,1093.780090259792
1193.5888,917.4409721014817
1195.5163,824.8311935754573
1197.4432,741.1512379685009
1199.3693,692.9015803190669
1201.2947,665.9826882541165
1203.2193,631.3950224715954
1205.1432,701.98903700964
1207.0664,704.4151795924263
1208.9889,747.8238909242682
1210.9106,789.3656046653377
1212.8316,852.2407469975769
1214.7519,940.9497362092625
1216.6715,939.2429820662801
1218.5903,940.5208849250448
1220.5084,989.0338357495457
1222.4257,987.4322160985794
1224.3424,920.2663976405856
1226.2583,990.5867421697076
1228.1735,1096.193602277439
1230.0879,1197.8873206493954
1232.0016,1326.3682290092693
1233.9146,1372.586647101889
1235.8269,1279.692881408395
1237.7384,1209.9372246840721
1239.6492,1010.7699568873031
1241.5592,961.3913458770803
1243.4686,872.7016494047202
1245.3772,889.4511156076369
1247.285,885.9899838962228
1249.1922,871.068484786374
1251.0986,906.2368399340849
1253.0042,886.9452622846693
1254.9092,978.9939557210782
1256.8134,1051.833115256817
1258.7169,1263.4629261154587
1260.6196,1369.9835630022499
1262.5216,1577.04518798782
1264.4229,1756.3979494429586
1266.3234,1990.541979968024
1268.2232,2076.3273945993897
1270.1223,2096.2042884680195
1272.0207,2112.6727359416145
1273.9183,2073.7827904258265
1275.8151,1983.3844841995997
1277.7113,1943.3278288040492
1279.6067,1849.0628159464395
1281.5014,1783.2394179007679
1283.3953,1779.857588450399
1285.2885,1794.8672635463008
1287.181,1896.6183613408793
1289.0727,2037.1107820378784
1290.9637,2096.244406874852
1292.854,2266.9690967182687
1294.7435,2411.2846914721667
1296.6323,2631.991008370893
1298.5204,2844.487840535963
1300.4077,3091.9249547689906
1302.2943,3208.3020894267247
1304.1802,3317.8689519466825
1306.0653,3173.2252176833645
1307.9497,3014.7705288125835
1309.8333,2895.4044957779206
1311.7162,2799.1266988752504
1313.5984,2810.1866894464183
1315.4798,2880.583990841991
1317.3605,2954.068098310696
1319.2405,3035.8884782954283
1321.1197,3030.3445676984084
1322.9982,2909.3857730629825
1324.876,2878.3114706290344
1326.753,2796.2210075425974
1328.6293,2798.3137021666007
1330.5048,2817.53884490177
1332.3796,2773.595698165702
1334.2537,2722.633496200615
1336.127,2709.4014455127817
1337.9996,2703.7987253821448
1339.8714,2698.774487994633
1341.7426,2707.527858498186
1343.6129,2701.157935053019
1345.4826,2658.9637887440713
1347.3515,2688.3944636447195
1349.2196,2611.898977238703
1351.087,2672.826320125827
1352.9537,2745.725456786913
1354.8197,2929.5953249745144
1356.6849,3072.734834983945
1358.5493,3173.892867814562
1360.4131,3210.818273738385
1362.276,3201.1098712885178
1364.1383,3079.016446889902
1365.9998,2884.086754956392
1367.8606,2587.0195191116873
1369.7206,2358.2634341386347
1371.5799,2116.0671689498886
1373.4384,1929.1293688754777
1375.2962,1850.9986580847763
1377.1533,1582.1236414558716
1379.0096,1291.352905356871
1380.8652,998.5350203346443
1382.7201,770.8185440225479
1384.5742,553.2020240685906
1386.4275,377.3340004126003
1388.2802,258.6130074623834
1390.132,165.83757585240892
1391.9832,150.60623363101877
1393.8336,83.71750718818657
1395.6832,24.01992140782386
1397.5322,13.062000336667552
1399.3803,-6.70773221872696
1401.2278,0.5592474175682582
1403.0745,1.3615299317207246
1404.9204,-35.70229399568416
1406.7656,13.366366302330789
1408.6101,52.46645815865304
1410.4538,69.74692877250163
1412.2968,122.65672481843467
1414.139,182.6447922735515
1415.9805,267.01007588839093
1417.8213,339.1515185870485
1419.6613,517.1680606235313
1421.5006,695.2086388603329
1423.3391,991.2221849882771
1425.1769,1310.457623746097
1427.0139,1789.5638699603114
1428.8502,2403.839825352861
1430.6858,2976.38437375005
1432.5206,3386.196374939802
1434.3547,3681.274658946184
1436.188,3722.6180219313173
1438.0206,3710.975223244577
1439.8524,3545.144985009165
1441.6835,3462.925992238541
1443.5139,3373.716894494726
1445.3435,3317.966306710492
1447.1724,3294.7728100814365
1449.0005,3267.134952623519
1450.8279,3221.051249404969
1452.6545,3202.5701828226884
1454.4804,3232.3902030630597
1456.3056,3264.0597282867875
1458.13,3209.7271443306636
1459.9536,3016.0908043908876
1461.7766,2674.4490295664036
1463.5987,2319.300110795244
1465.4202,1933.3423122709683
1467.2409,1603.3738749941294
1469.0608,1350.5430206318797
1470.88,1186.2979548176281
1472.6984,944.8368696793696
1474.5161,736.1079454821265
1476.3331,599.8093530425576
1478.1493,491.18925581625444
1479.9648,446.34581126072226
1481.7795,381.5771719215845
1483.5935,333.68148588103213
1485.4067,317.2068974054873
1487.2192,278.4015474245971
1489.031,252.21357369592988
1490.842,219.89111119305562
1492.6522,224.23229236741827
1494.4618,221.0852474715466
1496.2705,223.1481045156579
1498.0785,225.7689892991184
1499.8858,222.69602538981053
1501.6924,178.52733409794564
1503.4981,183.36103450677547
1505.3032,182.79524391428458
1507.1075,167.9780777848464
1508.911,165.20764975489328
1510.7138,159.7320717810835
1512.5159,114.29945416800365
1514.3172,89.10790562293187
1516.1178,64.85553371015521
1517.9176,84.34044510289459
1519.7166,75.26074582582078
1521.515,36.9645410602152
1523.3126,42.54993523475969
1525.1094,34.41503240849852
1526.9055,26.507936214977235
1528.7008,30.026749943590403
1530.4954,-20.430423381338187
1532.2893,-29.61548103574387
1534.0824,-71.88011619564531
1535.8747,-26.625726178408513
1537.6663,-1.0029902190417488
1539.4572,-16.162321561565477
1541.2473,8.495876569870234
1543.0367,21.02136241269909
1544.8253,-14.086105880596733
1546.6132,59.22322963226543
1548.4003,75.34926761374663
1550.1867,91.2419061340861
1551.9723,143.2510425100445
1553.7572,229.42657314595453
1555.5414,275.968393013638
1557.3247,359.3763947906682
1559.1074,439.95046839493807
1560.8893,503.040500150586
1562.6705,592.0963719822503
1564.4509,671.0679607841812
1566.2305,769.4551375296669
1568.0094,884.9077664813249
1569.7876,944.3757042072302
1571.565,989.6587984263897
1573.3417,999.8568874140583
1575.1176,1014.8197995489118
1576.8928,1011.5973532110675
1578.6672,964.6893566324488
1580.4409,871.0956079290081
1582.2138,821.0158955698062
1583.986,736.0999993129462
1585.7575,678.297690706384
1587.5282,644.2587339370821
1589.2981,637.1828864090276
1591.0673,618.0698990836281
1592.8358,667.319516550464
1594.6035,705.3314772184222
1596.3704,696.4555128231896
1598.1366,776.841348047139
1599.9021,836.4887006080971
1601.6668,894.1472804554851
1603.4308,993.0667891738467
1605.194,1131.4969194062614
1606.9564,1263.437353865149
1608.7182,1446.737763947971
1610.4791,1616.897808417818
1612.2394,1784.2171315704054
1613.9988,1985.3953615324772
1615.7576,2242.982108588618
1617.5156,2453.6769631694588
1619.2728,2660.179493275822
1621.0293,2830.589242371765
1622.785,2843.2557273195616
1624.54,2760.178436675589
1626.2942,2618.85683056368
1628.0477,2387.6403415058776
1629.8005,2181.5283758356636
1631.5525,2001.320316010122
1633.3037,1832.4655226710584
1635.0542,1726.9633364470774
1636.804,1634.76307964214
1638.553,1538.6140572905806
1640.3013,1546.4155580791066
1642.0488,1548.9168553082982
1643.7955,1620.3672068145843
1645.5416,1680.0658549452346
1647.2868,1764.562025843832
1649.0313,1893.8549288533104
1650.7751,2057.493755670983
1652.5181,2239.927679055627
1654.2604,2446.7558511910847
1656.0019,2728.3774018619333
1657.7427,3076.2914363851887
1659.4828,3388.047032794102
1661.222,3557.643238359011
1662.9606,3598.7790664697986
1664.6984,3421.553494939919
1666.4354,3053.3654655950304
1668.1717,2585.913886045264
1669.9072,2096.5976333670915
1671.642,1671.9655587778543
1673.3761,1376.1664925289242
1675.1094,1099.6492481520236
1676.8419,884.9126254172061
1678.5737,749.4054130980312
1680.3048,626.5763911189351
1682.0351,509.12433191030686
1683.7646,423.0980016367721
1685.4934,409.2961613717107
1687.2215,319.41756795753645
1688.9488,278.8609741436976
1690.6754,232.17512948547483
1692.4012,232.15878074955071
1694.1263,212.11067238084797
1695.8506,199.97954650272004
1697.5742,215.96414311740773
1699.297,186.2132002273629
1701.0191,134.27545367540188
1702.7404,144.09963744221932
1704.461,81.28448416575884
1706.1808,71.67872504296975
1707.8999,72.48109045796082
1709.6182,71.84031007805424
1711.3358,54.85511284576569
1713.0527,41.6742269852075
1714.7688,35.29638017193611
1716.4841,54.720299664777485
1718.1987,51.94471236959362
1719.9126,30.66834464504973
1721.6257,32.53992233036297
1723.338,24.158170958064147
1725.0496,-17.37818426470767
1726.7605,-12.120418372393033
1728.4706,7.7303672086145525
1730.18,-22.076807865092633
1731.8886,-8.292924014227538
1733.5964,-1.1687411121947662
1735.3036,-5.754936186100167
1737.0099,1.3478254126730462
1738.7156,31.03893582454657
1740.4204,-19.432212823525333
1742.1246,4.433771285019247
1743.8279,-6.3135259054470225
1745.5306,-7.774518494887161
1747.2325,-7.349557511130115
1748.9336,-18.13891631457591
1750.634,-25.992794843552474
1752.3336,-18.91121182861025
1754.0325,-10.443926332283809
1755.7307,13.009491505906226
1757.4281,18.64957588125344
1759.1247,29.42686085896821
1760.8206,28.84188031777012
1762.5158,40.99516784211119
1764.2102,10.63725672802866
1765.9039,12.81867986161069
1767.5968,28.689970022575835
1769.289,26.751659862462475
1770.9804,35.104281745913795
1772.6711,59.59836777005876
1774.361,54.08444968098502
1776.0502,72.86305862879908
1777.7386,54.2347252227637
1779.4263,66.4499793435125
1781.1132,71.95935032933994
1782.7994,51.063366854043124
1784.4849,82.86255687182893
1786.1696,66.7574478262768
1787.8535,63.04856633233976
1789.5367,85.63643833740025
1791.2192,114.87158915835516
1792.9009,71.80454325573737
1794.5818,107.88582394135483
1796.2621,95.51595380897834
1797.9415,104.74545437352299
1799.6202,91.17484619473998
1801.2982,103.1046487849253
1802.9755,119.48538074463522
1804.6519,130.66755964338063
1806.3277,118.0017018558201
1808.0027,110.78832244994283
1809.6769,132.17793531372445
1811.3504,108.67105322726911
1813.0231,120.96818764889667
1814.6951,132.56984895022288
1816.3664,171.92654629318167
1818.0369,156.03878751401317
1819.7067,130.95707872969615
1821.3757,143.88192449682174
1823.044,174.7138280624158
1824.7115,160.60329123468455
1826.3783,165.45081407469934
1828.0443,160.3568950375029
1829.7096,161.32203092363488
1831.3741,177.5967169300693
1833.0379,184.23144664056144
1834.701,197.67671186290227
1836.3633,188.73300256257608
1838.0248,183.55080672830172
1839.6856,190.48061046146722
1841.3457,211.92289802795585
1843.005,214.27815178884794
1844.6636,225.29685198599418
1846.3214,230.72947671847578
1847.9785,257.176501832404
1849.6349,246.88840086660184
1851.2904,259.1656447881305
1852.9453,239.10870209516816
1854.5994,232.26803869424384
1856.2528,260.64411810080037
1857.9054,271.9374015076037
1859.5572,275.3983475009827
1861.2083,281.07741194789287
1862.8587,289.02504796131234
1864.5084,297.59170584344884
1866.1572,296.0278330062638
1867.8054,270.7338738858007
1869.4528,285.7602699578265
1871.0994,296.65745999077535
1872.7453,294.925879895477
1874.3905,295.31596261619325
1876.0349,302.028138147929
1877.6786,311.2128335325342
1879.3215,298.2704727915807
1880.9637,313.1514768345114
1882.6051,318.6562635880746
1884.2458,328.33524784750443
1885.8858,315.7888412214743
1887.525,326.3674520353097
1889.1634,332.37148545644686
1890.8011,327.80134338865264
1892.4381,321.10742441198454
1894.0743,309.2401238284874
1895.7098,322.59983372913666
1897.3446,335.68694311251056
1898.9786,323.8018377511862
1900.6118,330.89490006087544
1902.2443,311.71650921927994
1903.8761,316.4170410951565
1905.5071,307.6968684400972
1907.1374,306.15636084153357
1908.7669,334.0958848099299
1910.3957,318.6158037941914
1912.0237,287.36647790226743
1913.651,316.4982640559547
1915.2776,334.21151630338227
1916.9034,291.8565855277011
1918.5285,296.2338192699508
1920.1528,262.5435621526085
1921.7764,282.9361558358196
1923.3992,292.6119393542958
1925.0213,244.32124891338935
1926.6427,238.61441779234428
1928.2633,236.59177682718382
1929.8832,276.55365446779706
1931.5023,260.40037679815396
1933.1207,246.53226713669483
1934.7383,259.5496461978546
1936.3552,258.502832230748
1937.9714,249.94214088899935
1939.5868,229.9178852412033
1941.2015,225.38037585654
1942.8154,216.5799210050145
1944.4286,244.41682670282717
1946.041,201.6413968003826
1947.6528,206.80393270391505
1949.2637,209.25473380324638
1950.8739,217.4940974201645
1952.4834,211.32231878391212
1954.0921,230.13969094879576
1955.7001,201.19650485589773
1957.3074,190.39304914491277
1958.9139,180.72961044356725
1960.5197,190.3564734756601
1962.1247,184.6739211576978
1963.729,162.38223450262467
1965.3325,149.4816926766498
1966.9353,148.52257322216064
1968.5374,156.35515218672936
1970.1387,139.1797041327036
1971.7393,142.19650205888138
1973.3392,149.90581757226937
1974.9383,129.40792085790872
1976.5366,123.90308060179086
1978.1342,141.7915641958307
1979.7311,149.42363779291554
1981.3273,120.49956612801907
1982.9227,134.56961244188278
1984.5173,135.83403877025103
1986.1112,123.14310580317942
1987.7044,126.64707287237889
1989.2968,117.54619807813651
1990.8885,135.74073825426967
1992.4795,139.63094905913567
1994.0697,126.96708479368499
1995.6592,134.69939836256435
1997.2479,126.42814140075552
1998.8359,130.7035641962466
2000.4232,138.32591577274707
2002.0097,106.84544384693618
2003.5955,98.06239475223538
2005.1805,110.62701375361758
2006.7648,124.28954513543067
2008.3484,122.55023207575778
2009.9312,134.85931650978728
2011.5133,106.41703914720529
2013.0946,132.12363934911173
2014.6752,122.52935541243733
2016.2551,105.13442431287876
2017.8342,99.03908180084181
2019.4126,125.14356257538566
2020.9902,106.4481003451856
2022.5672,120.1529275674784
2024.1433,115.80827563502226
2025.7188,104.71437473904916
2027.2935,115.17145391271333
2028.8674,112.52974114202334
2030.4406,105.18946326127207
2032.0131,107.4008459794577
2033.5849,107.61411395368486
2035.1559,90.72949076704845
2036.7261,97.19719892650483
2038.2957,104.81746003171793
2039.8645,117.39049471038015
2041.4325,140.96652254201308
2042.9998,107.84576193223256
2044.5664,128.7284298769955
2046.1323,115.31474229379819
2047.6974,120.25491381286156
2049.2617,119.29915791125586
2050.8254,118.84768686350708
2052.3883,136.350711751149
2053.9504,100.85844246723991
2055.5118,116.1210875413326
2057.0725,111.38885449439385
2058.6325,122.21194968618329
2060.1917,119.94057836257616
2061.7502,115.8249445473266
2063.3079,97.66525106478184
2064.8649,115.7616995810431
2066.4212,102.31449078556398
2067.9767,112.57382421018247
2069.5315,101.23989836359033
2071.0856,96.71291062874752
2072.6389,98.54305737621598
2074.1915,88.8305340094339
2075.7433,79.6755349464047
2077.2945,76.42825371683011
2078.8448,62.93888305365908
2080.3945,80.45761492555903
2081.9434,73.03464067180903
2083.4916,64.8201508271186
2085.039,58.16433519584916
2086.5857,72.21738293416456
2088.1317,85.57948261658657
2089.677,70.75082209546872
2091.2215,76.2315883673682
2092.7652,77.5719677213392
2094.3083,81.02214568412091
2095.8506,80.93230700673575
2097.3921,106.60263562998352
2098.933,91.8833146853458
2100.4731,93.1745262382774
2102.0124,89.77645143540576
2103.5511,94.38927049161248
2105.089,101.41316272401855
2106.6261,109.54830650585154
2108.1626,108.44487919621042
2109.6983,107.60305705871178
2111.2332,115.27301527253167
2112.7675,101.95492794081474
2114.301,113.04896801397808
2115.8337,106.70530742289156
2117.3657,109.27411696793979
2118.897,137.35556638244998
2120.4276,108.09982430701166
2121.9575,110.70705800866199
2123.4866,118.52743367343965
2125.0149,130.0611163803178
2126.5426,99.45827002299666
2128.0695,110.91905719456327
2129.5956,95.2436394935271
2131.1211,98.18217740920863
2132.6458,120.73483047849277
2134.1698,101.75175725644431
2135.693,101.43311509078194
2137.2155,120.77906031170915
2138.7373,117.33974823509743
2140.2584,102.9153329690298
2141.7787,110.85596744819304
2143.2983,101.261803578122
2144.8171,113.38299215579218
2146.3353,113.2196829655636
2147.8527,94.32202465796945
2149.3693,108.94016475135186
2150.8853,96.42424982083367
2152.4005,94.07442535213931
2153.9149,99.04083586674824
2155.4287,93.4736249454013
2156.9417,98.32293517843254
2158.454,104.08890822144394
2159.9655,84.82168474681248
2161.4764,99.12140438602682
2162.9865,118.0882059223627
2164.4958,112.22222714788177
2166.0045,104.87360467376448
2167.5124,109.69247398897369
2169.0195,100.17896953373747
2170.526,117.98322465136062
2172.0317,110.65537168336141
2173.5367,120.29554179142633
2175.0409,98.35386503069276
2176.5445,113.93047025334135
2178.0473,115.07548532801775
2179.5494,109.48903698406411
2181.0507,104.57125080006699
2182.5513,114.622251259726
2184.0512,110.39216180103085
2185.5504,109.03110471574882
2187.0488,99.08920119172944
2188.5465,97.9665713265149
2190.0435,96.76333422675543
2191.5397,101.72960801943782
2193.0353,100.91550986391667
2194.5301,95.3711559022513
2196.0241,88.74666126735156
2197.5175,87.34214013841438
2199.0101,92.60770580717599
2200.502,76.69347069195328
2201.9931,83.74954628498608
2203.4835,86.57604331158154
2204.9733,88.62307165955554
2206.4622,84.94074035096492
2207.9505,66.02915752163744
2209.438,63.238430457995946
2210.9248,79.61866578617082
2212.4109,71.61996949990908
2213.8962,70.94244679677286
2215.3809,70.73620215812616
2216.8648,64.40133935591075
2218.3479,61.487961454708966
2219.8304,68.69617087509187
2221.3121,76.12606942275306
2222.7931,60.977758216423354
2224.2733,59.15133761357538
2225.7529,47.94690736190387
2227.2317,64.66456661759184
2228.7098,70.90441405735601
2230.1872,64.11654771126678
2231.6638,44.65106490035578
2233.1397,49.058062304488885
2234.6149,73.6876361570221
2236.0894,47.93988220073243
2237.5632,56.06489544152282
2239.0362,67.01277040589957
2240.5085,57.383601059718785
2241.9801,63.377480698711224
2243.4509,44.5445020447728
2244.921,56.484757186025035
2246.3904,37.29833776514624
2247.8591,35.33533485996986
2249.3271,47.74583917534528
2250.7943,28.079941062769194
2252.2608,34.18773039628286
2253.7266,44.16929676912832
2255.1917,39.6747294326733
2256.656,39.354117196594416
2258.1197,43.9575484738225
2259.5826,33.7851112837493
2261.0447,46.93689320619069
2262.5062,39.9629814831128
2263.9669,47.71346288711402
2265.4269,52.93842379116404
2266.8862,49.53795009109899
2268.3448,36.11212715337297
2269.8026,56.011039849061035
2271.2598,66.18477268811966
2272.7162,57.63340962039547
2274.1719,49.20703393388703
2275.6268,56.155728340260794
2277.0811,45.179575059114995
2278.5346,50.42865574849429
2279.9874,62.3530516146493
2281.4395,63.80284335954593
2282.8908,46.97811106162135
2284.3414,58.27893416128609
2285.7914,57.755391629169935
2287.2406,63.10756185311948
2288.689,59.03552264342761
2290.1368,64.18935117931187
2291.5838,61.769124049634684
2293.0302,57.62491720136586
2294.4758,44.406805963786155
2295.9206,53.41486508992739
2297.3648,65.49916888875669
2298.8082,73.05979113509147
2300.251,54.446804948758654
2301.693,63.110282718987946
2303.1343,79.40029629054015
2304.5748,63.66691687707316
2306.0147,55.81021489824525
2307.4538,65.58026013704875
2308.8922,60.47712181837187
2310.3299,57.050868511301815
2311.7669,58.75156818015557
2313.2031,62.42928821874375
2314.6387,62.28409543336102
2316.0735,57.716056006010604
2317.5076,53.77523549585612
2318.941,74.91169888489958
2320.3737,72.77551061739314
2321.8056,64.96673438847301
2323.2369,56.8854331655225
2324.6674,53.03166926625909
2326.0972,56.10550443954844
2327.5263,54.20699990393723
2328.9547,72.33621631691994
2330.3823,58.84321379392122
2331.8092,66.07805172700637
2333.2355,66.24078891981208
2334.661,62.68148351519585
2336.0858,60.70019299360956
2337.5098,72.6469742086897
2338.9332,72.22188340707226
2340.3558,78.42497610892588
2341.7778,69.80630711220147
2343.199,54.51593043060166
2344.6195,65.50389937976934
2346.0393,64.42026673018654
2347.4583,65.8150845972973
2348.8767,72.488404452346
2350.2943,90.69027710842875
2351.7113,93.62075265375734
2353.1275,80.22988026964231
2354.543,79.16770820118563
2355.9578,80.23428389119181
2357.3718,63.87965399078712
2358.7852,70.45386434875627
2360.1978,76.65696017508662
2361.6098,75.88898597522575
2363.021,75.14998548805215
2364.4315,75.09000169355204
2365.8413,70.05907682021234
2367.2504,85.65725234562387
2368.6587,71.43456904678669
2370.0664,66.29106684412682
2371.4733,70.77678494372822
2372.8795,72.94176188876327
2374.285,61.13603551463575
2375.6899,76.6096429273316
2377.0939,60.562620621481074
2378.4973,53.39500432562181
2379.9,51.25682916266487
2381.3019,62.198129721576606
2382.7032,71.56894007875326
2384.1037,78.41929368861065
2385.5035,55.24922328987395
2386.9027,76.50876083707817
2388.3011,60.597937732269656
2389.6987,66.56678461240608
2391.0957,57.71533150846972
2392.492,52.243607785778295
2393.8876,46.05164223249358
2395.2824,55.98946311434338
2396.6765,50.05709823653933
2398.07,46.75457484440312
2399.4627,46.031919682684475
2400.8547,49.189159028587255
2402.246,49.076318699001604
2403.6366,43.143424018920996
2405.0265,40.490499822578386
2406.4156,39.46757051276927
2407.8041,41.12466008738875
2409.1918,44.061792149650955
2410.5789,41.128989891526544
2411.9652,49.42627606436872
2413.3508,45.90367300823664
2414.7358,48.86120256892946
2416.12,31.498886133208998
2417.5035,42.01674459922128
2418.8863,40.91479855012267
2420.2684,31.14306814891097
2421.6497,30.901573149427804
2423.0304,41.44033299408761
2424.4104,43.3593668162905
2425.7896,23.758693335032603
2427.1682,36.688330835718034
2428.546,38.198297366163615
2429.9232,35.68861060730501
2431.2996,42.40928785809592
2432.6753,48.01034606060557
2434.0503,43.841801732811064
2435.4246,46.403670912587586
2436.7982,45.89596919939322
2438.1711,46.61871172865176
2439.5433,36.82191317682759
2440.9148,35.70558775419909
2442.2856,42.16974930282686
2443.6557,40.91441130771682
2445.025,35.63958683217811
2446.3937,35.84528853037659
2447.7617,34.48152870008357
2449.1289,45.59831928061908
2450.4955,41.0456718664891
2451.8613,36.87359759621563
2453.2265,46.23210719786607
2454.5909,46.37121103077288
2455.9546,55.24091899194764
2457.3177,39.19124051468975
2458.68,43.37218447989039
2460.0416,45.13375937652859
2461.4025,49.82597325986262
2462.7627,55.99883373381317
2464.1222,58.952347904042426
2465.4811,64.33652231622455
2466.8392,54.601362926514184
2468.1966,58.29687504770004
2469.5533,65.37306344655963
2470.9093,76.77993230690322
2472.2645,69.16748515881159
2473.6191,71.28572476456588
2474.973,50.434653194774
2476.3262,61.61427180718624
2477.6787,71.17458145520823
2479.0305,61.865582376103475
2480.3816,70.08727409539233
2481.7319,66.28965551993929
2483.0816,65.77272485573803
2484.4306,58.33647964588408
2485.7789,54.430916775747164
2487.1264,46.15603254733264
2488.4733,52.66182271833782
2489.8195,40.14828258490047
2491.165,59.41540691654018
2492.5097,53.36319008129544
2493.8538,49.54162585305107
2495.1972,58.55070747205991
2496.5398,49.24042768315849
2497.8818,55.160778645677055
2499.2231,42.06175202654231
2500.5637,50.24333894107485
2501.9035,60.10553008397824
2503.2427,51.54831564752408
2504.5812,48.1216852229295
2505.919,59.82562788592986
2507.256,73.76013223104519
2508.5924,56.92518625453886
2509.9281,54.07077721507494
2511.2631,61.24689180206519
2512.5974,66.80351616421399
2513.9309,65.19063583775733
2515.2638,52.75823569089698
2516.596,55.856299939930295
2517.9275,52.38481227357056
2519.2583,45.493755821969444
2520.5884,53.633113191430766
2521.9178,41.102866533321276
2523.2465,42.652997462676694
2524.5745,44.88348718350494
2525.9018,67.34431647328438
2527.2284,60.08546566065979
2528.5543,56.90691440083242
2529.8796,54.20864174815142
2531.2041,63.19062618789599
2532.5279,73.25284566325922
2533.851,58.09527748553046
2535.1735,70.61789823346953
2536.4952,65.27068390488512
2537.8163,65.25360979140783
2539.1366,71.71665053196261
2540.4562,62.70978011293778
2541.7752,76.68297180355717
2543.0935,77.6861982459468
2544.411,70.36943131540329
2545.7279,79.13264211036335
2547.0441,78.97580102557049
2548.3596,66.2988776644413
2549.6744,88.85184084063644
2550.9885,70.93465870482737
2552.3019,83.94729851916827
2553.6146,79.48972683646593
2554.9266,79.71190937005576
2556.2379,73.16381103837466
2557.5485,82.7453959627428
2558.8585,83.00662753284178
2560.1677,80.24746831090101
2561.4762,97.31788002908365
2562.7841,89.71782361707915
2564.0913,96.34725903139929
2565.3977,76.60614533137732
2566.7035,85.29444061287404
2568.0086,99.76210220568964
2569.313,92.959086586681
2570.6167,94.93534923508469
2571.9197,106.64084470054809
2573.222,97.9255265833649
2574.5236,106.2393474174205
2575.8246,109.53225875734552
2577.1248,103.45421109537847
2578.4244,101.905153828435
2579.7232,112.83503531888937
2581.0214,113.44380291006678
2582.3189,120.03140281694027
2583.6157,115.84778012004699
2584.9118,114.1928786996109
2586.2072,120.16664127737795
2587.5019,120.51900943316627
2588.7959,129.84992354512747
2590.0893,144.25932278622327
2591.3819,129.74714503091718
2592.6739,125.16332671107943
2593.9652,142.70780296111025
2595.2557,134.33050766377733
2596.5456,137.58137327476948
2597.8348,137.06033090647202
2599.1234,133.31731029545608
2600.4112,137.70223980769015
2601.6983,154.66504647597048
2602.9848,144.1556559560704
2604.2705,142.8739923571136
2605.5556,142.069978346668
2606.84,144.49353516356086
2608.1237,147.4445826259198
2609.4067,145.6730391069375
2610.689,140.22882150536202
2611.9707,143.06184526321158
2613.2516,130.82202442021799
2614.5319,134.8092715854948
2615.8115,123.67349805993717
2617.0903,144.91461379634734
2618.3685,130.8825275107929
2619.6461,132.8771464701963
2620.9229,135.1983766326548
2622.199,128.74612262749474
2623.4745,136.92028773205857
2624.7493,128.77077393622972
2626.0234,131.2974818606881
2627.2968,143.80031083840822
2628.5695,126.6291588893896
2629.8415,138.7839225956302
2631.1128,134.06449727283712
2632.3835,127.020776848879
2633.6535,129.15265391098023
2634.9228,132.46001977615788
2636.1914,139.3427644699034
2637.4593,133.85077669310908
2638.7265,126.13394375323946
2639.9931,132.1921516192524
2641.259,131.42528499876607
2642.5242,145.5332272774781
2643.7887,135.51586052683365
2645.0525,139.2230653629456
2646.3156,130.60472104676933
2647.5781,133.4607054470291
2648.8398,118.69089512640244
2650.1009,134.59516531296026
2651.3613,129.4233900478648
2652.6211,126.67544202632757
2653.8801,130.7511926493264
2655.1385,128.10051205108562
2656.3961,135.37326905831787
2657.6531,127.16933121673242
2658.9094,131.88856471830513
2660.1651,137.68083448331913
2661.42,135.04600411317347
2662.6743,145.58393583245834
2663.9279,141.19449051530523
2665.1808,138.57752758000606
2666.433,149.58290503290846
2667.6846,151.26047949458484
2668.9354,138.86010608977904
2670.1856,162.38163843063103
2671.4351,152.52492874068048
2672.6839,153.5398276196504
2673.9321,155.27618414201493
2675.1795,161.933845846851
2676.4263,166.01265872047406
2677.6724,166.6624671298615
2678.9179,175.23311378186463
2680.1626,168.1244397167104
2681.4067,180.23628422229478
2682.6501,169.71848490526963
2683.8928,167.72087756992437
2685.1348,162.79329632336407
2686.3761,160.93557359548515
2687.6168,153.29754018825088
2688.8568,145.87902529426879
2690.0961,148.82985657317226
2691.3348,148.1998602258045
2692.5727,146.23886096471142
2693.81,149.84668202043997
2695.0466,146.12314516114884
2696.2826,142.11807065653113
2697.5178,148.9312773150483
2698.7524,142.91258252398268
2699.9863,141.56180218130385
2701.2195,154.67875075585698
2702.452,151.71324130086896
2703.6839,157.06508532277962
2704.9151,160.58409281089644
2706.1456,163.42007218387607
2707.3755,163.67283025453492
2708.6046,169.74217220148978
2709.8331,180.47790156662904
2711.0609,174.42982019442024
2712.2881,208.84772812455253
2713.5145,195.2314236524178
2714.7403,217.28070298493037
2715.9654,234.29536037669118
2717.1899,224.37518790949446
2718.4136,236.56997532218156
2719.6367,250.3795101098426
2720.8591,252.65357740186755
2722.0809,269.0419598238517
2723.3019,275.3444374748551
2724.5223,282.660787763519
2725.7421,294.5407853450399
2726.9611,294.83420204800734
2728.1795,288.6908067556029
2729.3972,288.51036540266625
2730.6142,263.1426410371299
2731.8306,248.5873938218224
2733.0462,231.54438128814604
2734.2612,218.31335848162962
2735.4756,192.09407813235816
2736.6892,183.43629078728372
2737.9022,162.1897450724183
2739.1145,152.8041877794119
2740.3262,140.67936407801676
2741.5372,127.065017609944
2742.7475,115.96089061011162
2743.9571,113.46672404278866
2745.1661,95.78225771263544
2746.3744,86.45723028964528
2747.582,68.99137948598934
2748.7889,68.9844421492669
2749.9952,63.98615443716369
2751.2008,53.09625181752199
2752.4057,47.064469118322904
2753.61,43.29054063658509
2754.8136,48.17420019868359
2756.0165,27.865181198088067
2757.2188,41.8632165465275
2758.4204,35.2180388770787
2759.6213,39.429380404186986
2760.8215,33.29697299011798
2762.0211,30.3205481028441
2763.22,24.19983687736851
2764.4182,26.784570145489056
2765.6158,18.374478497005384
2766.8127,17.16929225387196
2768.009,11.118741554298936
2769.2045,18.422556364804223
2770.3994,0.08046654071881676
2771.5936,3.7922017531486745
2772.7872,-3.8925091306615514
2773.9801,-5.623937281389203
2775.1723,-14.952314983545989
2776.3639,-19.027818338510656
2777.5548,-20.600474074035333
2778.745,-22.120118829967623
2779.9346,-21.786383447419894
2781.1235,-11.848677787518227
2782.3117,-7.206194065418572
2783.4992,-9.058006127986118
2784.6861,-15.803115832207482
2785.8723,-9.990434545588414
2787.0579,2.981284237491991
2788.2428,-0.8866131729051858
2789.427,4.657219503468809
2790.6106,6.71413740412936
2791.7935,12.635495620018332
2792.9757,21.62264917493667
2794.1573,24.42695296632951
2795.3382,35.099761675415834
2796.5184,57.192429739145155
2797.698,60.15631124346919
2798.8769,82.49275970241729
2800.0551,83.50312802845497
2801.2327,103.68876830912006
2802.4096,119.10103179692203
2803.5859,133.59126870748196
2804.7615,141.96082806541176
2805.9364,163.66105755941078
2807.1106,192.3433034585696
2808.2842,218.20891039536832
2809.4572,254.70922107885428
2810.6294,278.5455760359865
2811.801,320.01931324663167
2812.972,358.4317679052008
2814.1423,398.7342720059131
2815.3119,446.67815395866967
2816.4808,488.8647381860301
2817.6491,526.0453446437728
2818.8167,577.7212883990289
2819.9837,618.0938792584777
2821.15,667.3644212515854
2822.3157,721.9842122268805
2823.4807,757.9045433592473
2824.645,812.4266986037283
2825.8086,841.8019543363206
2826.9716,876.6315788087552
2828.134,937.1668318547437
2829.2957,982.1589645416824
2830.4567,996.009218565301
2831.617,1018.7688257997394
2832.7767,1030.1390081590453
2833.9358,1026.0709773695794
2835.0941,1015.5659348563129
2836.2519,1006.6750717835079
2837.4089,988.3995691597668
2838.5653,984.1905979269422
2839.7211,981.2493191428903
2840.8761,986.4768840235623
2842.0306,1017.1244339724169
2843.1843,1036.7431005281442
2844.3374,1079.834005058191
2845.4899,1132.698258562573
2846.6417,1192.5869612429667
2847.7928,1280.9012019740671
2848.9433,1349.7920577046993
2850.0931,1434.510592574677
2851.2422,1489.857857225895
2852.3907,1573.4348879551412
2853.5385,1625.042706160627
2854.6857,1669.0823175062137
2855.8323,1735.4547114053366
2856.9781,1773.4608605806084
2858.1233,1821.601720400094
2859.2679,1873.9782284972505
2860.4118,1909.0913042895177
2861.555,1960.991848454553
2862.6976,1983.3307425791027
2863.8395,2014.858848639994
2864.9808,2028.2270087807474
2866.1214,2056.636044996295
2867.2614,2058.5867589992986
2868.4007,2089.7799319360624
2869.5393,2085.7163243670234
2870.6773,2109.1966759548195
2871.8146,2127.8717055049265
2872.9513,2131.3921107308533
2874.0874,2112.508568067393
2875.2227,2119.0217326354164
2876.3574,2093.382238430711
2877.4915,2064.0406982588465
2878.6249,2037.0477039915702
2879.7577,2019.7538268602236
2880.8898,1996.7096177256713
2882.0212,1981.5656072512395
2883.152,1952.0723061331596
2884.2821,1937.1802052520072
2885.4116,1952.6897759676367
2886.5405,1938.3514702680995
2887.6686,1948.6657206145505
2888.7962,1955.0829400846296
2889.923,1959.3035222693222
2891.0493,1979.6278412087827
2892.1748,1980.256251350133
2893.2997,1994.2390873442164
2894.424,2002.9766640393152
2895.5476,2018.7692763413204
2896.6706,2034.9671991263576
2897.7929,2061.270687082859
2898.9145,2095.279974549584
2900.0355,2131.1952752525895
2901.1559,2170.9167819651293
2902.2756,2212.9446661485076
2903.3946,2233.47907755486
2904.513,2265.170143806877
2905.6308,2281.417970192458
2906.7479,2298.722639347803
2907.8643,2341.334211094931
2908.9801,2349.6027222686375
2910.0953,2360.2281862903756
2911.2098,2365.41059308557
2912.3236,2344.6999089773662
2913.4368,2340.3460766348044
2914.5494,2327.349015279924
2915.6613,2302.3586207313065
2916.7725,2274.824765534041
2917.8831,2250.247299209632
2918.9931,2200.9760485313373
2920.1024,2198.8108177699414
2921.211,2169.5513891864703
2922.319,2153.5475230538405
2923.4264,2128.9489579494566
2924.5331,2111.8554109152483
2925.6391,2102.166577703655
2926.7445,2096.6821329485647
2927.8493,2094.3017302621975
2928.9534,2094.8250022899538
2930.0569,2098.701560734216
2931.1597,2091.180996349119
2932.2619,2080.562878901781
2933.3634,2085.9467572475123
2934.4643,2063.832159435994
2935.5645,2070.0685926574406
2936.6641,2032.4555434637455
2937.763,1995.692477706117
2938.8613,1942.3288409112072
2939.959,1897.9640586487462
2941.056,1823.8975370651742
2942.1523,1740.4786633272918
2943.248,1653.9068063629243
2944.3431,1568.6313176951105
2945.4375,1482.8015323078216
2946.5313,1369.0167694987158
2947.6244,1254.676333737437
2948.7169,1176.3795158034595
2949.8087,1079.425593929497
2950.8999,992.1638345844664
2951.9904,895.4934934430299
2953.0803,844.313816258212
2954.1696,793.0740398281018
2955.2582,730.9233925076512
2956.3462,689.8610947210714
2957.4335,648.536359583341
2958.5202,616.648393310827
2959.6062,595.2463956345334
2960.6916,577.5795601189811
2961.7764,553.8970743762261
2962.8605,543.2981202425301
2963.9439,541.781874015184
2965.0267,524.2975065584983
2966.1089,514.1441833189645
2967.1905,516.8710645001001
2968.2714,520.3773051639814
2969.3516,526.8120552039741
2970.4312,523.1244593096711
2971.5102,532.9136569025451
2972.5885,536.0287821728245
2973.6662,544.9189639816013
2974.7432,543.033325829679
2975.8196,540.5209857686725
2976.8954,527.1810564198634
2977.9705,520.7126449993241
2979.045,527.7648534513165
2980.1188,499.98677851297555
2981.192,489.7775116437881
2982.2645,465.3861393033726
2983.3364,444.71174305357397
2984.4077,419.85339980237416
2985.4783,402.76018201063926
2986.5483,375.5811579407009
2987.6177,344.3653918272896
2988.6864,310.6619441493242
2989.7545,276.56987194206965
2990.8219,247.58822913417202
2991.8887,213.26606688857896
2992.9548,194.25243389235584
2994.0204,175.19637669990811
2995.0852,144.0969399231169
2996.1495,119.50316642189955
2997.2131,88.0140976152054
2998.276,83.17877372695182
2999.3383,73.44623410091504
3000.4,51.91551724908459
3001.4611,36.2856609489877
3002.5215,33.25570245899689
3003.5812,16.62467867462874
3004.6404,16.59162615884327
3005.6989,3.8055813083540215
3006.7567,5.165580353958035
3007.8139,-2.3793405116026634
3008.8705,-3.7801451472417966
3009.9264,-8.137773642261436
3010.9818,-8.053128322313341
3012.0364,-14.47703021669065
3013.0905,-10.76021990393508
3014.1439,-11.453293337056039
3015.1966,-7.406738974466862
3016.2487,-8.620930856180848
3017.3002,-9.046169028889267
3018.3511,-1.7326674161841993
3019.4013,2.4194504295705883
3020.4509,7.010078265358743
3021.4998,5.389109823969193
3022.5481,16.85643876809047
3023.5958,15.311958706520727
3024.6428,26.805563079494164
3025.6892,29.98714517412475
3026.735,40.256598009471645
3027.7802,33.213814304722405
3028.8247,45.65868637649919
3029.8685,49.791106209285545
3030.9118,57.81096533097889
3031.9544,60.81815477156556
3032.9963,73.81256498292316
3034.0376,86.99408580874774
3035.0783,92.56260635460978
3036.1184,97.81801485613903
3037.1578,104.16019862333985
3038.1966,103.03904398803633
3039.2348,113.2544362404513
3040.2723,105.50625964041717
3041.3092,120.3443973152219
3042.3455,120.76873133709142
3043.3811,111.17914257480783
3044.4161,116.82551068946617
3045.4505,113.30771423036992
3046.4842,117.17563057856773
3047.5173,113.72913598203104
3048.5498,114.61810551697545
3049.5816,116.19241312232543
3050.6128,109.50193159082431
3051.6434,105.04653255329163
3052.6734,104.17608654552737
3053.7027,103.44046305286696
3054.7314,107.18953051888462
3055.7594,93.77315635275079
3056.7868,99.54120689174033
3057.8136,95.19354753539699
3058.8398,101.93004268785296
3059.8653,93.45055580130531
3060.8902,98.40494930865088
3061.9145,98.09308470828142
3062.9381,89.26482251453928
3063.9612,88.92002226083622
3064.9835,90.95854258793582
3066.0053,85.38024124740184
3067.0264,87.88497508121281
3068.0469,81.82260007754508
3069.0668,73.4929713457251
3070.086,70.29594317685371
3071.1046,62.531369127102096
3072.1226,65.49910204968228
3073.1399,58.798994172492655
3074.1567,56.680897068440686
3075.1727,49.49466172244428
3076.1882,36.04013855261206
3077.203,35.06717748210667
3078.2173,39.875628073689484
3079.2308,26.615339539450247
3080.2438,25.786160692722717
3081.2561,17.137940080687315
3082.2678,19.120525992662976
3083.2789,19.833766546589516
3084.2893,10.127509669201515
3085.2991,9.601603088896468
3086.3083,6.455894432796697
3087.3169,5.240231232008512
3088.3248,5.204460953079433
3089.3321,-0.001568989845111446
3090.3388,-2.3280112346642454
3091.3449,4.8749815963972765
3092.3503,-2.3927198620534114
3093.3551,-0.18124502415867028
3094.3593,-1.0906994007897879
3095.3629,-8.021186692180152
3096.3658,-4.772799702476334
3097.3681,2.604448895830103
3098.3698,-0.3894058894836121
3099.3708,0.7956709233156403
3100.3713,0.7097182061254443
3101.3711,-3.8472251771132164
3102.3702,-3.6751274525445012
3103.3688,-3.8739184125329587
3104.3667,2.456508865079911
3105.364,-0.4836999971024909
3106.3607,7.305600598958222
3107.3568,1.724561083463442
3108.3522,3.7233318135587297
3109.347,5.502063129144119
3110.3412,-2.4390946671135225
3111.3348,7.8000086724323126
3112.3277,5.219547761983733
3113.32,8.269697137742867
3114.3117,10.750631283716388
3115.3028,14.612524601214119
3116.2932,14.605551384039472
3117.2831,4.779885779870796
3118.2723,16.585701790331086
3119.2608,11.42317336924458
3120.2488,17.292474304578718
3121.2361,14.293778270069197
3122.2229,15.977258766527228
3123.209,20.843089151826177
3124.1944,25.19144262406698
3125.1793,23.472492172919857
3126.1635,26.586410536140676
3127.1471,22.78337021676049
3128.1301,23.613543451945958
3129.1125,24.52710225103027
3130.0942,26.974218387210755
3131.0753,25.80506338841394
3132.0558,29.969808512824272
3133.0357,28.31862476057563
3134.015,35.05168283210381
3134.9936,36.41915314465845
3135.9716,35.12120576497253
3136.949,31.158010395587468
3137.9258,30.879736387832736
3138.902,40.0865527814579
3139.8775,39.57862830741519
3140.8524,41.506131295791306
3141.8267,36.21922968088677
3142.8004,37.56809098194077
3143.7735,47.45288235600026
3144.7459,45.123770584431384
3145.7178,47.13092197407161
3146.689,49.17450238052075
3147.6596,47.95467718806937
3148.6295,47.67161128926317
3149.5989,46.37546909710099
3150.5676,51.916414547865756
3151.5357,52.69461111408576
3152.5032,53.060221749125105
3153.4701,54.863408879402
3154.4364,57.00433440073243
3155.402,51.583159660298406
3156.367,55.750045435238576
3157.3315,53.9551519868601
3158.2952,62.1986390189698
3159.2584,61.13066569582294
3160.221,59.751390559688375
3161.1829,68.51097154152843
3162.1442,61.0595659747915
3163.105,67.19733050781632
3164.065,59.074421178346
3165.0245,69.6909933521504
3165.9834,65.6472018042553
3166.9416,68.94320061277645
3167.8993,70.82914319935756
3168.8563,70.75518229621045
3169.8127,76.37146992725556
3170.7684,77.77815740886157
3171.7236,75.1253952936825
3172.6782,77.11333335659086
3173.6321,79.34212062120521
3174.5854,75.66190534001079
3175.5381,83.52283497207162
3176.4902,80.32505621983275
3177.4417,80.91871495051083
3178.3926,87.35395622807204
3179.3428,84.33092430729535
3180.2924,82.74976256942031
3181.2415,88.31061355237715
3182.1899,84.36361896659855
3183.1377,91.75891963941103
3184.0848,88.896655554505
3185.0314,94.3769657779817
3185.9773,96.09998848697578
3186.9227,93.66586091485229
3187.8674,94.97471933397644
3188.8115,93.32669908005481
3189.755,98.42193453904677
3190.6979,99.46055916364475
3191.6402,98.2427054223218
3192.5818,99.21850478894545
3193.5229,105.93808775495614
3194.4633,103.6515838196093
3195.4031,102.2591214227794
3196.3423,104.8108279678252
3197.2809,108.5568298355142
3198.2189,106.7972523585056
3199.1563,109.23221978389037
3200.0931,109.71185529078693
3201.0292,109.93628096599156
3201.9648,110.90561779918191
3202.8997,113.16998568067294
3203.834,116.22950339172336
3204.7677,115.38428858189206
3205.7008,118.48445773844296
3206.6333,121.53012619479702
3207.5652,121.92140809953071
3208.4964,121.80841638591917
3209.4271,123.14126276802354
3210.3571,125.3200577418207
3211.2865,120.39491057187502
3212.2154,125.5159292695502
3213.1436,122.13322064226082
3214.0712,127.1968902422622
3214.9982,130.65704240047742
3215.9246,130.86378017586068
3216.8503,132.21720532079573
3217.7755,127.16741827902851
3218.7001,135.71451817213287
3219.624,136.9086028500085
3220.5473,133.6497688054099
3221.4701,135.33811116200553
3222.3922,132.9237237069661
3223.3137,143.4566988740812
3224.2346,141.1371277679032
3225.1549,139.81510005841739
3226.0746,140.0907040042379
3226.9937,146.51402646582775
3227.9121,146.03515290274296
3228.83,147.60416730939923
3229.7473,144.52115221986077
3230.6639,148.93618869215004
3231.5799,150.14935633907814
3232.4954,152.21073328409412
3233.4102,149.57039614915348
3234.3244,156.92842003410436
3235.238,153.53487854309094
3236.151,153.48984371097316
3237.0634,159.49338603726218
3237.9752,157.9455744865706
3238.8864,160.04647642857725
3239.797,161.7961576535051
3240.7069,157.6946823511123
3241.6163,163.2921130931955
3242.5251,166.18851087460445
3243.4332,167.1839350572677
3244.3408,164.17844334122873
3245.2477,169.47209175469158
3246.154,169.11493468407588
3247.0598,169.05702482108012
3247.9649,170.59841316625352
3248.8694,174.6391490295751
3249.7733,176.82928001503953
3250.6766,174.86885198025013
3251.5793,174.35790901451728
3252.4814,176.49649345846282
3253.3829,178.03464590912944
3254.2838,175.9224051985948
3255.1841,177.70980837859014
3256.0838,182.7468907416225
3256.9829,179.28368580310092
3257.8814,181.22022525096548
3258.7792,182.35653898031921
3259.6765,185.24265507406295
3260.5731,185.27859979153197
3261.4692,188.464397539635
3262.3647,185.20007087249468
3263.2595,186.78564045958953
3264.1538,186.52112511839732
3265.0474,186.75654179853933
3265.9404,189.4419055844255
3266.8329,187.37722969290044
3267.7247,188.8125254463896
3268.616,186.4478022935462
3269.5066,190.68306779489808
3270.3966,192.86832764649495
3271.286,186.053585637556
