RamanShift,CorrectedData
30.1047,1909.401091788883
32.3739,1779.5923006848864
34.6426,1650.783490486879
36.9109,1521.1746243049265
39.1787,1384.0656487412596
41.4461,1258.2564951863628
43.7131,1129.4970811900635
45.9796,1000.1873117196227
48.2456,871.0770804473311
50.5112,744.2162710436041
52.7764,615.5047584680872
55.0411,488.1424102382622
57.3054,359.7790877165631
59.5692,235.51464738399983
61.8326,110.24894212379125
64.0955,-10.21817753599035
66.3579,-132.636862169762
68.6199,-254.80716027234723
70.8815,-348.77779529631664
73.1426,-406.7449451707099
75.4032,-326.251303534392
77.6634,73.1644993557743
79.9231,1191.6170924934474
82.1824,3803.821104140643
84.4412,8634.191150643202
86.6995,15321.141810308758
88.9574,21875.887575103035
91.2148,26360.792783780344
93.4717,28398.871556336104
95.7282,28773.237749157826
97.9842,28587.5049346443
100.2398,27956.236397461937
102.4949,27264.995136402096
104.7495,26394.34387069379
107.0036,25409.845046916063
109.2573,24520.710847704533
111.5105,23692.753201596355
113.7632,22866.983791921593
116.0154,22133.214065082775
118.2672,21604.155238812593
120.5185,21043.76830951159
122.7693,20568.914057538772
125.0197,20187.253052815464
127.2696,19757.895659573842
129.519,19480.15204017356
131.7679,19183.532159395312
134.0163,18901.345787218288
136.2642,18577.502501786337
138.5117,18245.41169222987
140.7587,17890.48256190428
143.0052,17557.37413171082
145.2512,17161.895243645948
147.4967,16844.804564132373
149.7417,16541.76058797384
151.9863,16320.17164152606
154.2304,16140.845885727145
156.4739,15862.241318313483
158.717,15696.665775613024
160.9596,15403.726935331288
163.2017,15061.532318207148
165.4433,14642.289290942213
167.6844,14229.605069622767
169.925,13829.8367239122
172.1651,13281.59118117786
174.4047,12958.275230488725
176.6439,12577.595528097861
178.8825,12206.50860067559
181.1206,11974.720849116286
183.3582,11651.238552249231
185.5954,11482.7178691565
187.832,11286.364842407793
190.0681,11157.885399745619
192.3037,11047.585356048861
194.5388,10934.570414617545
196.7734,10862.096168275837
199.0075,10836.668100502215
201.2411,10896.39158615419
203.4742,10857.071891722593
205.7068,10934.614174734352
207.9389,10942.17348414568
210.1704,10985.65475956665
212.4015,10993.7628311856
214.632,11099.752419334325
216.862,11183.228134406996
219.0915,11226.894475800267
221.3205,11353.655831078511
223.549,11492.566475537162
225.777,11676.18057093509
228.0044,11951.20216410552
230.2314,12264.485185119856
232.4578,12557.2334445375
234.6837,12774.750630272994
236.909,12897.940304668547
239.1339,12789.855902318888
241.3582,12517.200728839329
243.582,12071.52796194664
245.8053,11730.74065418558
248.0281,11325.991737385633
250.2503,11054.384026068885
252.472,10814.820221497512
254.6932,10711.15291438985
256.9139,10524.634587316044
259.134,10455.667615734726
261.3536,10363.554269858172
263.5727,10421.096715341988
265.7912,10295.747014206247
268.0092,10261.15712426005
270.2267,10172.478900355029
272.4436,10097.164094731264
274.6601,9933.06435790404
276.8759,9791.081239417003
279.0913,9658.566189483166
281.3061,9520.370560404739
283.5204,9500.245607898276
285.7341,9480.192492476626
287.9473,9545.11227965019
290.16,9698.955940127456
292.3721,9892.424349165789
294.5837,10241.91828503301
296.7947,10494.788427072694
299.0052,10614.835352209237
301.2152,10412.559532419162
303.4246,10048.561333530628
305.6334,9474.841017246215
307.8418,8829.648744782906
310.0495,8323.58458260928
312.2568,7919.598508897419
314.4635,7655.590418583584
316.6696,7473.060127408049
318.8752,7293.457374555199
321.0802,7295.831824478813
323.2847,7357.583068698121
325.4887,7281.710625774014
327.692,7155.213940691574
329.8949,7005.742385618769
332.0972,6702.945261171442
334.2989,6336.171797908015
336.5001,6014.071159357463
338.7007,5782.442445687055
340.9008,5591.13469692334
343.1003,5409.94689526846
345.2992,5302.077967013214
347.4976,5221.326784348939
349.6955,5132.442166446193
351.8927,5137.572880262274
354.0895,5057.11764143007
356.2856,5070.425114206742
358.4812,4957.543912278292
360.6763,4956.572598626464
362.8707,4871.259686657582
365.0646,4867.003640212257
367.258,4807.852874418511
369.4508,4773.855755734343
371.643,4815.16060253921
373.8346,4713.415685474029
376.0257,4715.169227028109
378.2162,4567.719402556615
380.4062,4445.364340263002
382.5956,4257.652122673559
384.7844,4113.630787860944
386.9726,3977.7483313212997
389.1603,3831.1527074144815
391.3474,3713.0418307228574
393.5339,3643.0635775172723
395.7199,3566.0657869381666
397.9052,3527.9462616953333
400.09,3499.15276883793
402.2743,3522.533040135644
404.4579,3589.734772366659
406.641,3719.6556270838137
408.8235,3878.0932299425986
411.0054,4138.095169401973
413.1868,4514.158995139964
415.3675,4766.682215453648
417.5477,4892.562293498517
419.7273,4924.996644763256
421.9064,4749.732635810929
424.0848,4563.2175839546435
426.2627,4309.948759010178
428.4399,4028.5733851611403
430.6166,3622.8886434916785
432.7928,3193.4416748002113
434.9683,2799.3795836562786
437.1432,2538.999442695018
439.3176,2371.848296557775
441.4914,2231.1731644958927
443.6645,2172.8210420422474
445.8371,2060.988902417994
448.0091,1935.1236971160615
450.1806,1857.0723570195114
452.3514,1775.6317936601736
454.5216,1777.8988999991525
456.6913,1658.120551241238
458.8603,1656.8936048122414
461.0288,1723.2149015567593
463.1967,1677.881265750475
465.3639,1785.7395044369114
467.5306,1807.8864078807892
469.6967,1912.4687484894494
471.8622,2007.3832805913698
474.0271,2146.5767393903625
476.1914,2163.995840016414
478.3551,2116.7372761337465
480.5182,2124.4477197666274
482.6807,2100.2238217719823
484.8426,2207.862211762251
487.0039,2478.959498347649
489.1647,2883.9122680597793
491.3248,3271.6170826406633
493.4843,3413.770474993209
495.6432,3355.618945304166
497.8015,3216.55895962258
499.9592,3225.8869504413233
502.1163,3104.7493180876845
504.2728,2844.8424306300876
506.4287,2563.712625089469
508.5839,2110.7062100383555
510.7386,1788.0694684121481
512.8927,1624.4986620392046
515.0461,1525.99003486718
517.199,1473.6398145987623
519.3512,1474.994213676724
521.5029,1532.0494298074627
523.6539,1614.7516459474282
525.8043,1655.8970297325868
527.9541,1637.5817326513934
530.1033,1563.501889633335
532.2519,1591.8536192320935
534.3999,1662.0830243663622
536.5472,1893.1861920362935
538.694,2293.9091926212204
540.8401,2830.8980775686105
542.9856,3301.548875386874
545.1305,3457.5075862754347
547.2748,3335.2701774182424
549.4185,2967.2825814241696
551.5615,2650.440697549413
553.704,2509.290395377331
555.8458,2438.1775179869037
557.987,2482.6978833641806
560.1276,2458.497285113477
562.2675,2571.8214920121172
564.4069,2621.866248252478
566.5456,2671.3772723087204
568.6837,2581.0502564363633
570.8212,2282.8308661771553
572.958,1928.764741262352
575.0942,1541.4474985949128
577.2299,1314.8747357901739
579.3648,1275.7420350489774
581.4992,1320.744965423437
583.6329,1479.9290832082552
585.766,1666.0899314906965
587.8985,1845.8230385587267
590.0304,1789.0239160394158
592.1616,1721.4380571016263
594.2922,1626.6109370239683
596.4222,1465.9380138706802
598.5515,1290.1647294399008
600.6802,1115.8365108703947
602.8083,933.4987723992999
604.9358,869.7469171053817
607.0626,780.4263387324281
609.1888,733.8324223267773
611.3144,765.2605451305026
613.4393,702.0060770473829
615.5636,599.1643803285951
617.6873,483.8808102052826
619.8103,455.2007159169407
621.9327,348.1194418642699
624.0544,270.7323278959775
626.1756,244.33471037957133
628.2961,217.17192297525617
630.4159,128.0892968999142
632.5351,144.28216119869467
634.6537,71.29584363587492
636.7716,67.07567053289677
638.8889,70.91696749826951
641.0056,136.1650594697203
643.1216,99.21527067583884
645.237,146.9129239835711
647.3518,86.05334126770686
649.4659,113.78184293393133
651.5793,154.0437485274233
653.6922,108.63437645555314
655.8043,90.44904358524218
657.9159,94.6830656971033
660.0268,-2.668242332754744
662.137,-4.109566575029021
664.2466,-42.245566444693395
666.3556,-47.73086030214108
668.4639,-68.91964447457212
670.5716,-8.265638457898604
672.6786,78.42812675921232
674.785,73.10870276181959
676.8907,146.32314035069794
678.9958,228.91848959556955
681.1002,184.09179910293824
683.204,145.54011519012056
685.3072,141.46048233353577
687.4097,53.24994355419403
689.5115,77.90554045852332
691.6127,35.12431412043952
693.7132,-7.246695165173151
695.8131,-75.710797995358
697.9123,-80.17123257267667
700.0109,-85.23048074881808
702.1089,-58.29022346489364
704.2061,-42.75129020951863
706.3028,-26.213928151981236
708.3987,40.12204262380328
710.4941,118.65706391107597
712.5887,285.19157710185027
714.6827,602.0760224015903
716.7761,847.5608371638591
718.8688,1201.09645272146
720.9608,1405.8332919316053
723.0522,1492.121765640546
725.1429,1356.4622706362134
727.233,1088.1051887853464
729.3224,922.00088839007
731.4112,697.7497268714542
733.4993,492.15205243057426
735.5867,310.7082062909976
737.6735,187.0185247547779
739.7596,121.0833410168998
741.845,95.10298640215842
743.9298,58.727791024546605
746.014,84.95808404702257
748.0974,91.24419404526634
750.1802,63.436448745396774
752.2624,105.0851749611029
754.3439,95.99069887172664
756.4247,161.45334560575066
758.5048,297.1234393317718
760.5843,527.7513026038578
762.6631,833.987255004864
764.7413,1329.1316108401406
766.8188,1921.6846760751796
768.8956,2359.546743384166
770.9718,2713.118086224429
773.0473,2550.3489544578515
775.1221,2266.389570815132
777.1962,1849.940132523483
779.2697,1708.650814146211
781.3426,1721.921771747242
783.4147,2006.4031443039821
785.4862,2299.5950535746306
787.557,2253.497601253366
789.6271,1930.9608660384329
791.6966,1396.9849040931113
793.7654,864.3197522710798
795.8335,593.9154334561863
797.901,376.071961889098
799.9678,312.73934587134136
802.0339,312.1175899437294
804.0993,359.90669551969404
806.1641,355.2566608914967
808.2282,329.4674807523443
810.2916,215.389146242891
812.3544,134.97164520911974
814.4164,56.76496334313924
816.4778,117.76908498732882
818.5385,82.93399391644562
820.5986,160.7596727275668
822.658,332.0461031884297
824.7166,467.69326545918375
826.7747,768.7511363795275
828.832,975.6196881122414
830.8886,1092.3988851326212
832.9446,1276.038682159775
834.9999,1289.789022988829
837.0545,1275.7998386545441
839.1085,1256.471047293795
841.1618,1228.8525542854622
843.2143,1155.8942524437225
845.2662,1088.7460222942464
847.3175,1048.7077328037703
849.368,948.0792420515681
851.4179,830.7103976298495
853.467,689.8510376500453
855.5155,619.9509919164811
857.5633,508.56008333499267
859.6105,428.7281286119178
861.6569,323.30493936801577
863.7027,294.090322936765
865.7478,297.2340834185925
867.7922,347.3360219730421
869.8359,420.8459367873111
871.8789,491.71362257525834
873.9212,667.6888698422918
875.9629,827.7214641766841
878.0039,1046.0611844898267
880.0441,1136.9578014159015
882.0837,1172.21107512846
884.1226,1094.5207544314944
886.1609,1043.8365764068803
888.1984,1003.1082671912955
890.2352,1056.8855424830654
892.2714,993.9181079494374
894.3069,1015.3056586888088
896.3416,940.4978798604025
898.3757,906.5944464703898
900.4091,912.3950241199818
902.4418,952.899269344467
904.4739,944.1068295551777
906.5052,958.4673426344561
908.5358,848.1804370235841
910.5658,755.345731579182
912.595,600.2628366760728
914.6236,462.4313551356172
916.6515,402.35088377656575
918.6786,379.22101479335106
920.7051,464.74133635691396
922.7309,646.2114328460048
924.756,696.7308839919606
926.7804,795.4492630640234
928.8041,677.4661363641353
930.8272,765.0310622397483
932.8495,675.193592263673
934.8711,651.7032703584118
936.892,556.2096336945287
938.9123,436.312212925568
940.9318,317.9605331429884
942.9506,253.25411507512035
944.9688,170.34247627070727
946.9862,130.32513174595078
949.003,41.75159481362789
951.019,15.121377483294054
953.0344,75.33399134697902
955.0491,83.6887969341551
957.063,208.93515402096818
959.0763,367.27242154665873
961.0888,386.09995636115127
963.1007,457.2171116416321
965.1119,543.2232367042998
967.1223,593.167676293182
969.1321,599.8997697200939
971.1412,685.8188503651763
973.1495,650.5242456095839
975.1572,752.3152759762888
977.1641,770.7912554830327
979.1704,746.9014906243974
981.1759,771.8952801870546
983.1808,874.371915488664
985.1849,921.9306801279454
987.1884,1036.8208489598983
989.1911,1257.0916876202427
991.1932,1388.8424513764912
993.1945,1429.3723829252558
995.1951,1389.9807110747352
997.1951,1360.6166503394197
999.1943,1261.7794013339953
1001.1928,1221.0181510670081
1003.1906,1228.1820739292307
1005.1877,1307.820332101248
1007.1841,1324.4820754818466
1009.1798,1263.6664408916185
1011.1748,1096.7725519063351
1013.1691,885.4995194651383
1015.1627,691.3464435394271
1017.1556,465.9624152456454
1019.1477,379.6465187867652
1021.1392,303.64783370614896
1023.1299,293.61543575071846
1025.12,313.7483976309195
1027.1093,341.44578912104043
1029.0979,463.8566768579003
1031.0859,496.88012406387134
1033.0731,506.16518932276085
1035.0596,433.8609262495993
1037.0454,286.76638339776036
1039.0304,221.13060498202685
1041.0148,86.55263234953236
1042.9985,8.181504636108002
1044.9814,16.516260112057353
1046.9636,-61.69406303411961
1048.9452,-70.55042677906022
1050.926,-4.253176775731845
1052.9061,-27.20195387833519
1054.8855,-35.396356451870815
1056.8642,53.214288886185386
1058.8421,89.23100912793961
1060.8194,129.5048307333709
1062.7959,163.3867792701676
1064.7717,226.1278790109609
1066.7469,270.3791525945271
1068.7213,304.9916203983521
1070.695,302.31630009615037
1072.6679,247.55420631172092
1074.6402,224.75635064571543
1076.6117,224.22374222324652
1078.5826,251.35738792188204
1080.5527,229.60829237696817
1082.5221,344.5774577102784
1084.4908,465.415883747497
1086.4587,668.4745668685355
1088.426,798.0544987991598
1090.3925,808.7566645803745
1092.3584,774.6320412726418
1094.3235,680.0315978488688
1096.2879,625.1062955356465
1098.2515,647.557088759273
1100.2145,759.6849256949681
1102.1767,844.1907480424088
1104.1382,1026.825489904426
1106.099,1265.6400769419379
1108.0591,1451.835424547622
1110.0185,1644.8124354577594
1111.9771,1701.4719978902758
1113.9351,1484.4649836149874
1115.8923,1221.0422473869912
1117.8488,939.1046291167331
1119.8045,680.402956504251
1121.7596,590.8380478585532
1123.7139,476.4607146846065
1125.6675,504.32176257903484
1127.6204,627.1219923738499
1129.5726,592.6621998578557
1131.524,609.8931745486516
1133.4748,597.1157000372077
1135.4248,570.1305538155793
1137.3741,548.0385074046608
1139.3226,468.34032662404934
1141.2705,528.9867718129572
1143.2176,382.378598627216
1145.164,437.366557432797
1147.1097,452.15139477188495
1149.0546,422.183852813032
1150.9989,369.51466920328676
1152.9424,270.09457736785043
1154.8852,103.47430703679129
1156.8272,25.6545852392519
1158.7686,39.186137969642004
1160.7092,40.069690965814516
1162.6491,-12.344030426211248
1164.5883,113.59569873888904
1166.5267,195.58972672329037
1168.4644,354.9389006532256
1170.4014,538.8940656990344
1172.3377,825.7560634816728
1174.2732,1084.775730233163
1176.2081,1380.7538939279766
1178.1421,1618.3413716928408
1180.0755,1926.4889668469405
1182.0082,2043.7974665260735
1183.9401,2060.8676386011357
1185.8713,1946.4502305050773
1187.8017,1776.0959690621676
1189.7315,1564.3055616321944
1191.6605,1206.3296978139879
1193.5888,997.4690515633447
1195.5163,911.4742847727684
1197.4432,834.0960493600724
1199.3693,791.634988128335
1201.2947,769.8917355396843
1203.2193,712.4669181399004
1205.1432,780.0611547758599
1207.0664,798.1750571697921
1208.9889,844.9592292433081
1210.9106,841.5142669362795
1212.8316,905.8907577389982
1214.7519,982.5892807266064
1216.6715,1027.8604059153513
1218.5903,1034.75469349559
1220.5084,1051.322693379083
1222.4257,1084.9149451300618
1224.3424,1022.9319777995188
1226.2583,1089.024309589313
1228.1735,1197.0424484719879
1230.0879,1291.1368915298553
1232.0016,1446.8581238748156
1233.9146,1485.4066177074092
1235.8269,1388.9828307595926
1237.7384,1320.0372059092806
1239.6492,1137.3201721445657
1241.5592,1083.3821452531774
1243.4686,974.8235296496714
1245.3772,1030.4947189147788
1247.285,1046.0460968810112
1249.1922,1048.9280370759407
1251.0986,1056.2409025666711
1253.0042,1087.585045931035
1254.9092,1171.1108091844653
1256.8134,1277.5685234665507
1258.7169,1426.1085082057834
1260.6196,1587.0310700549671
1262.5216,1821.886501405821
1264.4229,1954.9750787797675
1266.3234,2139.7470604793816
1268.2232,2206.3026852574767
1270.1223,2269.0421704694127
1272.0207,2297.6657114075315
1273.9183,2269.7234806737542
1275.8151,2211.465627893356
1277.7113,2203.642279994385
1279.6067,2041.8035417902356
1281.5014,2023.649496057904
1283.3953,2065.7302051563474
1285.2885,2186.4457112080436
1287.181,2290.046035678177
1289.0727,2450.2311781674744
1290.9637,2512.3011153762236
1292.854,2713.7057995024024
1294.7435,2812.745157620997
1296.6323,3038.9690896699285
1298.5204,3185.777467459675
1300.4077,3388.3701324110334
1302.2943,3513.246894087035
1304.1802,3555.707528167017
1306.0653,3406.651775197848
1307.9497,3205.429340169332
1309.8333,3058.4398940047577
1311.7162,2963.433075573139
1313.5984,2963.8084931590965
1315.4798,2970.015725412928
1317.3605,3069.1043213468693
1319.2405,3136.423800272998
1321.1197,3081.3736508123548
1322.9982,2917.503330221769
1324.876,2937.262264944333
1326.753,2787.549852248123
1328.6293,2800.265460028597
1330.5048,2820.2584283057295
1332.3796,2735.928069096861
1334.2537,2773.9736662167397
1336.127,2729.4444761208506
1337.9996,2711.9397275249376
1339.8714,2735.908621850307
1341.7426,2668.100333398892
1343.6129,2696.7640091135218
1345.4826,2667.24876925605
1347.3515,2680.9537071206796
1349.2196,2640.8778893291546
1351.087,2710.520355693663
1352.9537,2775.7301196176395
1354.8197,2939.0061673993114
1356.6849,3109.197457579621
1358.5493,3223.002919309467
1360.4131,3306.221450647754
1362.276,3316.951917423383
1364.1383,3183.243152403029
1365.9998,2966.6939551838605
1367.8606,2687.5530935306087
1369.7206,2352.519305541071
1371.5799,2178.4913024375146
1373.4384,1973.2677719170206
1375.2962,1868.497379891758
1377.1533,1611.5287725412381
1379.0096,1296.110577360003
1380.8652,1016.491405727309
1382.7201,800.9698560613033
1384.5742,567.5445166152185
1386.4275,402.863967632602
1388.2802,297.52678368155284
1390.132,210.28153530153577
1391.9832,143.47679005676036
1393.8336,49.51111340862917
1395.6832,49.03306938378773
1397.5322,15.84122151378142
1399.3803,14.784132839839003
1401.2278,-31.08963375521853
1403.0745,33.36848446360273
1404.9204,-7.742639183257779
1406.7656,29.525868290957078
1408.6101,45.22295722195486
1410.4538,123.84757765019458
1412.2968,198.64867916390358
1414.139,198.17521011284953
1415.9805,291.4761168603163
1417.8213,388.3003437878506
1419.6613,547.0468323622445
1421.5006,660.0145201672949
1423.3391,931.4023393163498
1425.1769,1280.4592153226113
1427.0139,1772.734064385264
1428.8502,2367.7257898988973
1430.6858,2918.8832775307674
1432.5206,3371.2553892708675
1434.3547,3636.040957920377
1436.188,3665.6387825679194
1438.0206,3651.047625941719
1439.8524,3514.5662141136236
1441.6835,3398.493236645005
1443.5139,3335.6773479515705
1445.3435,3257.9171684641115
1447.1724,3258.161285256627
1449.0005,3238.858252823962
1450.8279,3119.1065930793593
1452.6545,3137.5047955474874
1454.4804,3196.7513185619646
1456.3056,3203.144589081363
1458.13,3161.2330020967383
1459.9536,2977.7149205677306
1461.7766,2669.888675841643
1463.5987,2284.5525694886364
1465.4202,1956.654876379982
1467.2409,1604.1938485414485
1469.0608,1355.5177184322565
1470.88,1150.7247024696935
1472.6984,955.4130035158869
1474.5161,734.8808129257068
1476.3331,588.5263124999256
1478.1493,526.3476766905133
1479.9648,449.4430740641674
1481.7795,355.5106679241053
1483.5935,329.0486170791082
1485.4067,268.65507678286303
1487.2192,265.87819899856913
1489.031,280.0661330028797
1490.842,222.86702541367413
1492.6522,224.22902004816933
1494.4618,197.20025849492413
1496.2705,194.22888010021234
1498.0785,181.86302223830717
1499.8858,178.15082034119405
1501.6924,163.090408022239
1503.4981,211.42991711329523
1505.3032,158.21747781531667
1507.1075,128.45121821495013
1508.911,160.8292648166771
1510.7138,135.24974284046766
1512.5159,108.36077589800516
1514.3172,87.91048624848372
1516.1178,53.046995067501484
1517.9176,83.96842265154737
1519.7166,56.722888766644246
1521.515,45.008512339143635
1523.3126,20.473411728167775
1525.1094,23.46570484275435
1526.9055,11.033509387225422
1528.7008,-20.275057168759304
1530.4954,-61.91187746586547
1532.2893,-33.2286315969377
1534.0824,-50.62638115516347
1535.8747,-6.305855779712147
1537.6663,-2.3672793521982385
1539.4572,-12.710812758747124
1541.2473,5.613406763639432
1543.0367,8.105368958968029
1544.8253,5.015063515118527
1546.6132,52.74248003891444
1548.4003,63.33760808704028
1550.1867,118.00043668875878
1551.9723,153.68095423996238
1553.7572,214.92914795653996
1555.5414,255.09500351757924
1557.3247,344.87850445287586
1559.1074,485.9296317412827
1560.8893,566.2483629128747
1562.6705,638.6846706384404
1564.4509,758.4385219262967
1566.2305,829.0598773979145
1568.0094,943.2486900903968
1569.7876,1007.1549047502376
1571.565,986.8284566914554
1573.3417,1074.1692711565247
1575.1176,1040.227263519644
1576.8928,1030.7023384133172
1578.6672,979.1443900677914
1580.4409,895.553302406297
1582.2138,813.478949560631
1583.986,773.1211967070703
1585.7575,741.079900887109
1587.5282,726.0049114110334
1589.2981,744.096070178337
1591.0673,695.9532118284696
1592.8358,765.326163559921
1594.6035,817.3647456116523
1596.3704,823.6687705693657
1598.1366,911.6880428451168
1599.9021,971.5723586142794
1601.6668,1050.221504935349
1603.4308,1133.9352591511033
1605.194,1261.7133881021073
1606.9564,1447.4056472895754
1608.7182,1599.4117795975872
1610.4791,1780.1815134361768
1612.2394,1961.6645612212633
1613.9988,2191.1106175669483
1615.7576,2433.869357470705
1617.5156,2642.5904340188918
1619.2728,2873.6734759591873
1621.0293,2981.1680856133644
1622.785,3001.573836566471
1624.54,2866.490272591882
1626.2942,2778.61690744724
1628.0477,2509.153226225293
1629.8005,2309.298686232616
1631.5525,2121.002719684253
1633.3037,1941.5147357022615
1635.0542,1833.3841221986877
1636.804,1714.610247670431
1638.553,1666.8924622805553
1640.3013,1663.7800990460182
1642.0488,1684.8724743148614
1643.7955,1723.068887797339
1645.5416,1813.8186223549856
1647.2868,1901.220943618653
1649.0313,2032.9750990810044
1650.7751,2181.4803172225093
1652.5181,2350.7858061938805
1654.2604,2548.7907523310423
1656.0019,2847.744318462066
1657.7427,3167.0456419271104
1659.4828,3477.1438315889045
1661.222,3662.037964639727
1662.9606,3654.3270835004205
1664.6984,3479.610193971448
1666.4354,3115.4862653100063
1668.1717,2630.854231977186
1669.9072,2155.9129972792216
1671.642,1732.2114382138134
1673.3761,1408.3484102195398
1675.1094,1113.2727514128655
1676.8419,926.0832858267768
1678.5737,756.5788263615323
1680.3048,612.9081766565723
1682.0351,540.8201327855477
1683.7646,463.9134846930374
1685.4934,422.8370169154259
1687.2215,339.93950934996064
1688.9488,328.86973766552546
1690.6754,268.8764741316136
1692.4012,245.15848772901882
1694.1263,225.71454474978054
1695.8506,210.24340903434495
1697.5742,220.29384216602375
1699.297,155.91460362568978
1701.0191,127.60445069129673
1702.7404,136.71213908163918
1704.461,90.38642323948079
1706.1808,81.32605624045937
1707.8999,72.22979025634959
1709.6182,72.6963766456829
1711.3358,51.474566044698804
1713.0527,55.86310836267694
1714.7688,46.26075299416152
1716.4841,38.21624877506838
1718.1987,32.57834407870723
1719.9126,27.29578689623304
1721.6257,7.81732489301794
1723.338,17.09170546148198
1725.0496,19.917675915874497
1726.7605,8.343983399523495
1728.4706,25.66937485659946
1730.18,-12.70740285217471
1731.8886,-3.9376031227548083
1733.5964,-26.922352404149933
1735.3036,0.9872621912891191
1737.0099,7.840422505500101
1738.7156,17.686310370570936
1740.4204,-25.025892459827446
1742.1246,-4.397004408877365
1743.8279,-4.227593891100696
1745.5306,17.231814605049294
1747.2325,-5.369261175223073
1748.9336,-23.731303659032164
1750.634,-34.804741634574384
1752.3336,-1.3897668143326882
1754.0325,-27.386223211419747
1755.7307,-8.593940955180187
1757.4281,21.537523413407143
1759.1247,27.408699206833262
1760.8206,16.920115522211745
1762.5158,17.6723011825743
1764.2102,32.015784841750246
1765.9039,21.00109497685571
1767.5968,21.92875974485105
1769.289,47.949307092690105
1770.9804,22.313264748045185
1772.6711,45.371159959098804
1774.361,25.57351975090114
1776.0502,45.97087069479949
1777.7386,63.613739106401226
1779.4263,68.8526508416171
1781.1132,68.63813112022308
1782.7994,62.17070447347942
1784.4849,58.450894746268204
1786.1696,66.7792251617766
1787.8535,85.20621835868133
1789.5367,82.6323963078703
1791.2192,88.75828012817419
1792.9009,59.98439011210485
1794.5818,100.16124566459621
1796.2621,81.98936559073536
1797.9415,85.71926769399488
1799.6202,102.70146895795551
1801.2982,118.0864855090058
1802.9755,84.17483244652158
1804.6519,135.66702368901133
1806.3277,101.11357231323927
1808.0027,91.86499003930203
1809.6769,124.67178757615693
1811.3504,125.93447471411855
1813.0231,134.60355999678723
1814.6951,137.97955070842
1816.3664,157.76295278724228
1818.0369,146.3542707916822
1819.7067,138.1540077025429
1821.3757,151.31266503708866
1823.044,179.730742931044
1824.7115,182.05874000701442
1826.3783,169.99715309029216
1828.0443,154.64647718559627
1829.7096,169.85720559767105
1831.3741,183.02983008480442
1833.0379,197.61484070671122
1834.701,183.11272569281118
1836.3633,175.57397129637593
1838.0248,211.89906193955267
1839.6856,177.23848028875182
1841.3457,235.79270689139412
1843.005,206.11222052251833
1844.6636,221.3474975992367
1846.3214,222.29901247754424
1847.9785,244.96723729996756
1849.6349,221.7026419860431
1851.2904,236.90569400563345
1852.9453,228.92685861157952
1854.5994,234.5165986876682
1856.2528,259.2753748284231
1857.9054,254.60364528320224
1859.5572,279.7018657086128
1861.2083,275.070489215228
1862.8587,285.7099661166012
1864.5084,268.2707439755877
1866.1572,296.1532674979453
1867.8054,280.6079787067256
1869.4528,278.3353166634506
1871.0994,295.13571762356423
1872.7453,310.3596150591575
1874.3905,279.70743949096686
1876.0349,285.0296183361397
1877.6786,306.07657621474937
1879.3215,318.1487348965775
1880.9637,319.396513090649
1882.6051,321.97032632449645
1884.2458,307.87058693169456
1885.8858,307.09770402611684
1887.525,307.6520836429345
1889.1634,293.0841287463436
1890.8011,305.4442392240235
1892.4381,317.7828120328122
1894.0743,303.6002410751098
1895.7098,318.69691707549373
1897.3446,315.9732277225421
1898.9786,332.12955751787194
1900.6118,334.7162878033678
1902.2443,303.4337965996219
1903.8761,319.1824585800632
1905.5071,302.3626453837869
1907.1374,305.5747254580692
1908.7669,325.5190642265625
1910.3957,313.8960240571723
1912.0237,315.20596406261666
1913.651,326.49924021665265
1915.2776,320.0762053409835
1916.9034,307.68720899232267
1918.5285,295.9825975266249
1920.1528,277.6627142229763
1921.7764,281.37789940063976
1923.3992,282.7284906022487
1925.0213,245.16482255666324
1926.6427,264.33722716546254
1928.2633,245.59603387857896
1929.8832,281.8915695025762
1931.5023,234.17415838805846
1933.1207,251.39412206672023
1934.7383,257.50177972851725
1936.3552,236.29744804946586
1937.9714,262.3814411305684
1939.5868,247.5540707098553
1941.2015,213.86564590154467
1942.8154,236.166473344314
1944.4286,208.50685753818652
1946.041,185.23710062152077
1947.6528,210.857502647611
1949.2637,217.26836181737963
1950.8739,211.56997422317818
1952.4834,221.8626337846781
1954.0921,203.54663230585174
1955.7001,210.27225937205094
1957.3074,226.1398025331664
1958.9139,190.59954723636474
1960.5197,211.45177666742075
1962.1247,191.8967721061108
1963.729,164.38481271770524
1965.3325,155.4661757485028
1966.9353,150.24113680095797
1968.5374,152.75996992286855
1970.1387,165.67294765962015
1971.7393,155.9303410290031
1973.3392,163.93241939208292
1974.9383,152.77945055062446
1976.5366,119.7217006670644
1978.1342,136.70943437605
1979.7311,140.59291511500942
1981.3273,153.6724049542836
1982.9227,136.59816455828877
1984.5173,133.17045305471584
1986.1112,131.93952820527738
1987.7044,147.50564643998405
1989.2968,139.51906286945268
1990.8885,142.0300311292467
1992.4795,137.88880345974667
1994.0697,137.0956306810367
1995.6592,133.75076223431188
1997.2479,138.35444618981728
1998.8359,129.65692928028875
2000.4232,131.50845685492186
2002.0097,136.55927296633854
2003.5955,119.65962035208031
2005.1805,120.35974038410131
2006.7648,115.50987323776008
2008.3484,118.3602578848222
2009.9312,140.16113214195866
2011.5133,145.162732642244
2013.0946,133.31529461714035
2014.6752,126.31905184648804
2016.2551,121.72423677697316
2017.8342,112.58108059209644
2019.4126,97.13981325811892
2020.9902,95.85066361549252
2022.5672,118.56385953327572
2024.1433,115.22962792202179
2025.7188,122.498194506652
2027.2935,100.96978385978855
2028.8674,86.74461932907798
2030.4406,114.42292325246399
2032.0131,113.20491710044826
2033.5849,92.34082119930827
2035.1559,92.48085474327127
2036.7261,122.57523600316381
2038.2957,97.32418232500277
2039.8645,109.2779098290539
2041.4325,132.43663366234068
2042.9998,127.75056787911308
2044.5664,124.41992520925487
2046.1323,99.9449171051474
2047.6974,116.62575377497706
2049.2617,113.81264442747943
2050.8254,123.85579710513957
2052.3883,145.95541871230944
2053.9504,132.21171491479254
2055.5118,125.72488991883802
2057.0725,129.39514660857822
2058.6325,132.22268661090038
2060.1917,121.65771025874255
2061.7502,130.00041656281337
2063.3079,107.10100331724789
2064.8649,108.85966701617963
2066.4212,103.22660308273316
2067.9767,126.50200585144466
2069.5315,97.38606862457982
2071.0856,105.42898343938941
2072.6389,99.6309413592644
2074.1915,85.34213239330984
2075.7433,80.71274555432319
2077.2945,76.69296900168592
2078.8448,79.48299008764843
2080.3945,82.23299539753316
2081.9434,90.69317072183458
2083.4916,85.66370102872042
2085.039,79.19477037942852
2086.5857,86.8365619785609
2088.1317,81.13925823877344
2089.677,66.40304070436014
2091.2215,71.37809010822548
2092.7652,91.21458651924513
2094.3083,99.26270929251405
2095.8506,89.6726368709833
2097.3921,97.59454670497598
2098.933,91.02861534809472
2100.4731,91.82501837799646
2102.0124,106.68393046205483
2103.5511,113.30552534939306
2105.089,107.23997572230428
2106.6261,84.18745313002546
2108.1626,112.74812804939484
2109.6983,115.92217011537969
2111.2332,106.80974783546844
2112.7675,106.41102855793315
2114.301,96.07617856295019
2115.8337,118.85536306658787
2117.3657,111.64874632415649
2118.897,104.60649140241412
2120.4276,101.07876025163432
2121.9575,99.56571377602359
2123.4866,101.26751186900401
2125.0149,130.934313428344
2126.5426,111.71627633913977
2128.0695,99.46355717714687
2129.5956,91.876311400958
2131.1211,115.454693474539
2132.6458,130.29885694309223
2134.1698,111.55895419727631
2135.693,113.78513632476461
2137.2155,120.97755329764504
2138.7373,114.38635395015535
2140.2584,117.76168590675888
2141.7787,96.70369564805878
2143.2983,107.46252847704227
2144.8171,104.68832872965959
2146.3353,86.33123966723906
2147.8527,91.14140350422758
2149.3693,108.0189615917584
2150.8853,100.86405436955465
2152.4005,81.27682119714791
2153.9149,96.5074004254343
2155.4287,109.65592959254309
2156.9417,95.87254527153164
2158.454,108.50738293889935
2159.9655,87.0105771124222
2161.4764,92.6822612248061
2162.9865,119.17256783865605
2164.4958,94.23162858975229
2166.0045,89.25957392215287
2167.5124,101.40653333760156
2169.0195,94.57263544524494
2170.526,122.55800784016401
2172.0317,110.36277717171606
2173.5367,106.58706886368282
2175.0409,115.88100723621847
2176.5445,131.04471554360998
2178.0473,110.72831588133795
2179.5494,120.23192903443623
2181.0507,108.55567468065601
2182.5513,96.69967129543284
2184.0512,102.51403626864612
2185.5504,113.19888602318315
2187.0488,111.35433595679069
2188.5465,114.23050033522941
2190.0435,104.97749231071657
2191.5397,99.44542389316302
2193.0353,105.73440604270718
2194.5301,88.4945487250352
2196.0241,84.37596084849292
2197.5175,94.928750436482
2199.0101,94.10302466864914
2200.502,98.99888977535556
2201.9931,71.16645104593317
2203.4835,87.25581277972469
2204.9733,87.01707856440953
2206.4622,95.45035111511152
2207.9505,84.40573227678351
2209.438,72.23332293987687
2210.9248,63.7832231507864
2212.4109,69.90553223357347
2213.8962,66.40034887447109
2215.3809,56.017771060659925
2216.8648,69.15789611531864
2218.3479,63.370820801448644
2219.8304,68.15664119047415
2221.3121,63.46545272011144
2222.7931,69.39735014651342
2224.2733,60.70242759117946
2225.7529,56.23077848163939
2227.2317,62.08249563840036
2228.7098,66.75767131966313
2230.1872,51.00639716280284
2231.6638,68.02876413762124
2233.1397,50.874862703857616
2234.6149,53.544782640963604
2236.0894,55.98861321964432
2237.5632,61.15644317516035
2239.0362,50.29836068288796
2240.5085,43.814453306639734
2241.9801,46.05480810724657
2243.4509,42.91951170739458
2244.921,33.40865026922165
2246.3904,42.522309525673336
2247.8591,34.760574875609564
2249.3271,47.02353129266976
2250.7943,47.21126340288538
2252.2608,47.023855362055656
2253.7266,34.71139085386494
2255.1917,39.873953091762814
2256.656,32.16162494208538
2258.1197,46.52448887243099
2259.5826,37.56262702878439
2261.0447,28.676121091884852
2262.5062,35.615052366847976
2263.9669,38.72950187202605
2265.4269,55.01955026962196
2266.8862,53.68527783454374
2268.3448,51.526764291506424
2269.8026,55.494088828372696
2271.2598,52.837330117740294
2272.7162,37.30656627726694
2274.1719,43.851874896237405
2275.6268,56.023333190870744
2277.0811,55.571017938872956
2278.5346,50.64500535771549
2279.9874,59.745371109161624
2281.4395,75.47219034852742
2282.8908,48.42553763367505
2284.3414,65.15548676774597
2285.7914,68.3621110696281
2287.2406,47.44548320665217
2288.689,65.05567516253132
2290.1368,64.99275844652584
2291.5838,57.05680391733995
2293.0302,58.19788178375302
2294.4758,63.116061683975204
2295.9206,51.31141267424118
2297.3648,37.684003179626416
2298.8082,68.88390111209264
2300.251,60.56117400676203
2301.693,53.71588870991718
2303.1343,61.34811146223001
2304.5748,61.45790796721258
2306.0147,69.5453433148964
2307.4538,68.56048198073404
2308.8922,66.25338774473039
2310.3299,57.82412370128577
2311.7669,56.17275228226754
2313.2031,53.6493353413025
2314.6387,45.003934170290904
2316.0735,43.93660952463824
2317.5076,49.547421709712125
2318.941,60.386430591515364
2320.3737,69.80369554057916
2321.8056,63.79927532356896
2323.2369,43.573228009116065
2324.6674,50.57561102785803
2326.0972,64.85648137470116
2327.5263,56.41589553879976
2328.9547,53.003909360742
2330.3823,48.77057811695977
2331.8092,62.46595655384726
2333.2355,64.14009893009506
2334.661,48.04305887973305
2336.0858,67.67488939538998
2337.5098,59.28564298926449
2338.9332,66.82537149680593
2340.3558,70.794126160607
2341.7778,66.34195755500832
2343.199,76.61891554641034
2344.6195,72.37504933779792
2346.0393,66.51040736596497
2347.4583,66.7250373439565
2348.8767,66.51898631971426
2350.2943,63.49230067393182
2351.7113,84.19502612211318
2353.1275,67.52720774484123
2354.543,85.03888978074792
2355.9578,72.98011579319564
2357.3718,73.45092849515777
2358.7852,66.8513698698066
2360.1978,52.48148116580842
2361.6098,74.89130296331314
2363.021,68.08087531765796
2364.4315,71.60023753526957
2365.8413,83.94942824176633
2367.2504,67.42848534676205
2368.6587,73.53744592037992
2370.0664,77.17634635845661
2371.4733,57.64522232145964
2372.8795,62.74410869809026
2374.285,66.72303980060042
2375.6899,71.43204931380205
2377.0939,63.97117025527996
2378.4973,53.64043492829296
2379.9,53.939874996391154
2381.3019,68.31952158672448
2382.7032,61.52940528704312
2384.1037,65.21955600190313
2385.5035,55.14000302056456
2386.9027,58.190774980094375
2388.3011,58.371899966164165
2389.6987,52.08340548253864
2391.0957,54.47531844926971
2392.492,45.04766526557751
2393.8876,48.60047178592913
2395.2824,55.0837634143154
2396.6765,46.197565068722724
2398.07,40.34190111630278
2399.4627,42.41679546223304
2400.8547,47.422271608272695
2402.246,42.10835263201352
2403.6366,50.27506113682193
2405.0265,45.17241930498176
2406.4156,44.50044881602889
2407.8041,40.159170897775766
2409.1918,32.548606333029056
2410.5789,34.01877550300742
2411.9652,34.269698463447185
2413.3508,39.201394929898015
2414.7358,43.76388427520942
2416.12,32.15718548021505
2417.5035,37.181317088104834
2418.8863,36.83629732050326
2420.2684,39.872144027216564
2421.6497,34.038874689693785
2423.0304,32.93650639066777
2424.4104,31.86505587248257
2425.7896,29.924539548122766
2427.1682,23.214973511923517
2428.546,35.2863735589749
2429.9232,37.7887552522177
2431.2996,51.2721338017293
2432.6753,45.08652403970086
2434.0503,50.281940285602786
2435.4246,29.908396408040062
2436.7982,33.76590577280126
2438.1711,43.854481446590626
2439.5433,33.574136158454166
2440.9148,36.22488219889533
2442.2856,37.906731522675955
2443.6557,41.81969572231151
2445.025,33.413786011250295
2446.3937,38.53901318474482
2447.7617,37.19538770391159
2449.1289,33.68291964447826
2450.4955,47.80161871021983
2451.8613,44.45149426808439
2453.2265,53.48255520700309
2454.5909,43.8948099713939
2455.9546,37.1882664708487
2457.3177,54.66293217601287
2458.68,51.91881418565026
2460.0416,53.15591905189649
2461.4025,49.97425280769994
2462.7627,56.273820954449775
2464.1222,54.10462849379314
2465.4811,50.766679864639855
2466.8392,59.009978964854554
2468.1966,59.18452918463572
2469.5533,64.09033332408444
2470.9093,62.67739359145753
2472.2645,66.64571155410977
2473.6191,55.3952881526227
2474.973,68.42612366112212
2476.3262,66.98821779978311
2477.6787,66.5815696045197
2479.0305,56.956177441365526
2480.3816,59.91203901053882
2481.7319,62.24915144269653
2483.0816,53.06751126937684
2484.4306,64.76711439962651
2485.7789,72.14795621181929
2487.1264,55.3600314366588
2488.4733,55.753334083369964
2489.8195,52.477857607578244
2491.165,39.28359490737603
2492.5097,61.72053835607835
2493.8538,34.43867993416484
2495.1972,43.838011004911095
2496.5398,46.968522587205825
2497.8818,57.38020526155856
2499.2231,50.97304913879452
2500.5637,49.297043755937466
2501.9035,49.75217814028065
2503.2427,54.438440826148735
2504.5812,45.4558198503446
2505.919,47.0043027052875
2507.256,51.08387642883963
2508.5924,55.14452758881998
2509.9281,39.936242242210255
2511.2631,50.8590058945465
2512.5974,47.56280365200337
2513.9309,64.44762011216585
2515.2638,52.41343939699118
2516.596,51.26024498396191
2517.9275,54.78801982642631
2519.2583,53.29674636513141
2520.5884,59.53640649294448
2521.9178,42.50698156976523
2523.2465,54.70845236013133
2524.5745,62.990799203509596
2525.9018,45.60400189228426
2527.2284,58.39803958893185
2528.5543,52.67289099989057
2529.8796,58.92853424761756
2531.2041,57.91494692784204
2532.5279,72.03210604700757
2533.851,60.47998803240853
2535.1735,61.60856859101864
2536.4952,63.86782282501213
2537.8163,55.50772522047737
2539.1366,61.12824962482637
2540.4562,69.77936933039382
2541.7752,68.61105701823271
2543.0935,67.82328467160232
2544.411,74.26602358765194
2545.7279,69.83924438529948
2547.0441,83.64291694080339
2548.3596,82.82701043203019
2549.6744,73.99149320041761
2550.9885,72.8363327591344
2552.3019,72.21149588143408
2553.6146,85.11694861220712
2554.9266,81.25265627423005
2556.2379,81.46858333910973
2557.5485,76.11469346592617
2558.8585,93.69094949907549
2560.1677,81.09731352180779
2561.4762,80.43374668046363
2562.7841,86.2002093104104
2564.0913,99.24666094267855
2565.3977,94.62306024629743
2566.7035,92.77936489782996
2568.0086,89.9655316276087
2569.313,100.43151623817357
2570.6167,98.32727363240906
2571.9197,92.30275770888579
2573.222,94.10792138290185
2574.5236,93.04271664672979
2575.8246,99.85709455156211
2577.1248,106.15100521816635
2578.4244,104.02439776873871
2579.7232,114.52722026396668
2581.0214,114.60941972429441
2582.3189,124.02094202489457
2583.6157,116.76173189484575
2584.9118,118.83173282301686
2586.2072,121.83088713066104
2587.5019,119.85913595071452
2588.7959,128.01641919780513
2590.0893,126.95267558797059
2591.3819,127.86784255708562
2592.6739,136.11185627149735
2593.9652,137.68465161887707
2595.2557,133.98616212577735
2596.5456,133.51631994190507
2597.8348,146.77505587710561
2599.1234,134.41229940606263
2600.4112,137.67797853570983
2601.6983,138.27201992885807
2602.9848,145.0943488715402
2604.2705,138.14488926706827
2605.5556,133.17356356781306
2606.84,144.18029284469526
2608.1237,134.16499683690154
2609.4067,138.67759384181613
2610.689,128.56800081517326
2611.9707,143.586133325932
2613.2516,145.18190565737177
2614.5319,132.40523065691195
2615.8115,130.40601972015315
2617.0903,127.38418291864377
2618.3685,129.28962901987325
2619.6461,137.9722655174901
2620.9229,133.68199861224616
2622.199,132.61873312517082
2623.4745,128.132372540475
2624.7493,128.92281901618276
2626.0234,134.03997342899515
2627.2968,133.43373536638478
2628.5695,127.75400307542554
2629.8415,131.60067346885307
2631.1128,140.72364218186385
2632.3835,117.672803533648
2633.6535,121.84805043615938
2634.9228,129.04927462462388
2636.1914,134.2263666157869
2637.4593,126.12921563590226
2638.7265,132.30770956895913
2639.9931,132.6617350376555
2641.259,137.34117734161305
2642.5242,140.7959204538372
2643.7887,132.82584697392167
2645.0525,141.08083809350228
2646.3156,135.86077367595612
2647.5781,124.7655321738523
2648.8398,119.99499068115301
2650.1009,124.59902504416505
2651.3613,121.07750990924524
2652.6211,132.6803186767611
2653.8801,125.10732353630442
2655.1385,118.25839535066461
2656.3961,139.93340373155752
2657.6531,134.0322171081168
2658.9094,124.35470251014112
2660.1651,131.50072562710875
2661.42,141.02015090495138
2662.6743,140.1628414745942
2663.9279,145.6286590567613
2665.1808,138.8674639705498
2666.433,142.77911507877093
2667.6846,143.91346985556152
2668.9354,141.8203843472686
2670.1856,145.39971316110473
2671.4351,150.45130948607925
2672.6839,160.37502505720454
2673.9321,162.37071010498016
2675.1795,163.08821325615622
2676.4263,162.27738151377662
2677.6724,156.03806025000267
2678.9179,156.7700932142227
2680.1626,161.42332259544548
2681.4067,167.14758901497817
2682.6501,156.79273147989625
2683.8928,158.15858732579989
2685.1348,168.4949923203627
2686.3761,152.35178064967374
2687.6168,155.52878481487198
2688.8568,144.62583579357818
2690.0961,142.24276300812608
2691.3348,154.72939443459165
2692.5727,136.23555662662375
2693.81,135.36107459057712
2695.0466,129.355771970452
2696.2826,140.46947105663776
2697.5178,144.55199284596688
2698.7524,143.55315693057844
2699.9863,138.07278145709188
2701.2195,143.66068313659548
2702.452,151.46667729945023
2703.6839,147.64057783941075
2704.9151,153.78219713556496
2706.1456,169.1913460905953
2707.3755,161.76783406936238
2708.6046,173.21146874481383
2709.8331,173.52205617221932
2711.0609,191.79940067473365
2712.2881,188.84330484029078
2713.5145,194.4535693388317
2714.7403,205.1299929518641
2715.9654,214.62237251636054
2717.1899,228.93050281799412
2718.4136,236.004176496215
2719.6367,240.84318390116835
2720.8591,255.04731302295863
2722.0809,258.3163494432587
2723.3019,278.65007619326843
2724.5223,292.64827372102604
2725.7421,285.56071968806793
2726.9611,274.93718882944995
2728.1795,280.2774530246195
2729.3972,272.7812814036529
2730.6142,270.648440293853
2731.8306,257.2786932947098
2733.0462,235.82180129922995
2734.2612,219.92752262763338
2735.4756,202.39561324192323
2736.6892,184.5258269048279
2737.9022,160.41791535512004
2739.1145,155.27162848631497
2740.3262,144.53671458774886
2741.5372,129.16292039604195
2742.7475,123.5499912024477
2743.9571,107.04767100659114
2745.1661,93.5557025725974
2746.3744,88.57382759411621
2747.582,76.65178682923965
2748.7889,72.88932015032276
2749.9952,65.43616666320338
2751.2008,54.342064744826075
2752.4057,52.856752117774136
2753.61,42.87996596121036
2754.8136,45.111442925730216
2756.0165,40.200919233130094
2757.2188,40.04813065409303
2758.4204,46.40281255729326
2759.6213,34.46469991092431
2760.8215,32.48352721915148
2762.0211,23.859028641493865
2763.22,25.740938012635297
2764.4182,33.078988928669446
2765.6158,17.172914728280603
2766.8127,10.772448419364082
2768.009,12.027322838085297
2769.2045,4.187270712886516
2770.3994,4.552024651936904
2771.5936,0.021317221533422526
2772.7872,-7.555119057546904
2773.9801,-18.827551877486144
2775.1723,-13.846173454827976
2776.3639,-10.360987918872866
2777.5548,-9.521861075648985
2778.745,-8.328555224915704
2779.9346,-22.230737543040618
2781.1235,-17.977992004125326
2782.3117,-7.969680497204081
2783.4992,-15.454985311171072
2784.6861,-10.683009117812844
2785.8723,-8.80270019361285
2787.0579,-4.562900091793949
2788.2428,-1.112362426604136
2789.427,-3.2997952289204022
2790.6106,3.476104582881021
2791.7935,11.76667305537751
2792.9757,19.8232462003848
2794.1573,21.697159912052143
2795.3382,38.98974988629652
2796.5184,42.20235160206289
2797.698,58.23630014839921
2798.8769,61.49293019232891
2800.0551,77.17357581851536
2801.2327,93.27957049668976
2802.4096,114.61224692484859
2803.5859,131.52293686819223
2804.7615,149.2629709457974
2805.9364,162.23367846151132
2807.1106,180.83638722655235
2808.2842,208.2724234298023
2809.4572,232.7931114517795
2810.6294,272.24977359027935
2811.801,303.7437298151649
2812.972,353.77629737380335
2814.1423,388.64879047612396
2815.3119,437.8125197942935
2816.4808,478.268792113991
2817.6491,514.3189098427706
2818.8167,557.6641706054978
2819.9837,612.2058668838499
2821.15,650.6452855828627
2822.3157,703.6837074855132
2823.4807,756.2724068683262
2824.645,793.7626509709896
2825.8086,829.6556994704682
2826.9716,879.2028041061008
2828.134,926.2552083206699
2829.2957,964.4641467649308
2830.4567,997.3308448270861
2831.617,1024.6065182506982
2832.7767,1011.1423728060214
2833.9358,1012.2396040172441
2835.0941,1008.3493972971318
2836.2519,1005.5729279360532
2837.4089,991.7113611408854
2838.5653,968.565852062775
2839.7211,979.0375459357563
2840.8761,984.6775783082053
2842.0306,997.8870749381231
2843.1843,1020.0671517367354
2844.3374,1069.3689146363972
2845.4899,1115.6934593687938
2846.6417,1185.0418709719206
2847.7928,1254.8152233268393
2848.9433,1323.7645784641943
2850.0931,1397.1909858664767
2851.2422,1460.7454817785324
2852.3907,1526.379088473299
2853.5385,1594.1428136162574
2854.6857,1640.4376496091
2855.8323,1688.8645729120904
2856.9781,1740.8245435811177
2858.1233,1785.6185047834256
2859.2679,1841.0473822780118
2860.4118,1867.6620839676914
2861.555,1922.8134993448043
2862.6976,1960.2524992250706
2863.8395,1993.5299351960748
2864.9808,2003.4966392428785
2866.1214,2033.103423415243
2867.2614,2045.951079727963
2868.4007,2042.440379864801
2869.5393,2059.422075050008
2870.6773,2088.3468960834307
2871.8146,2092.765553170698
2872.9513,2092.278735633967
2874.0874,2085.5871118677433
2875.2227,2077.791329343743
2876.3574,2038.8420146778142
2877.4915,2026.589773707889
2878.6249,1994.9851918834822
2879.7577,1980.5788343882111
2880.8898,1959.771246455841
2882.0212,1940.1629535143506
2883.152,1925.5544613940053
2884.2821,1913.9962565234428
2885.4116,1915.8388060757554
2886.5405,1900.1825580840737
2887.6686,1908.7779414231409
2888.7962,1914.0253659658752
2889.923,1922.9752224974145
2891.0493,1929.3278826626447
2892.1748,1955.183698876699
2893.2997,1959.5930042614339
2894.424,1974.7061123868682
2895.5476,1983.7233172270915
2896.6706,2001.444893009133
2897.7929,2024.8210941227885
2898.9145,2056.952154943407
2900.0355,2094.0382895981256
2901.1559,2111.679691644562
2902.2756,2157.0765336999507
2903.3946,2193.67896726473
2904.513,2220.037122268575
2905.6308,2248.951106704369
2906.7479,2251.171006364625
2907.8643,2285.396884552347
2908.9801,2309.578782058825
2910.0953,2322.116716821385
2911.2098,2322.510683681563
2912.3236,2315.6106542597286
2913.4368,2307.2165769511457
2914.5494,2275.0783769949703
2915.6613,2268.6959565581956
2916.7725,2231.969195057029
2917.8831,2211.147949220721
2918.9931,2187.382053458827
2920.1024,2158.3713200694283
2921.211,2135.065539476782
2922.319,2110.3144805214347
2923.4264,2083.767890693277
2924.5331,2084.2754963790567
2925.6391,2073.137003127842
2926.7445,2060.3020956459463
2927.8493,2065.5204379083143
2928.9534,2068.7416732868705
2930.0569,2049.865424498335
2931.1597,2049.841293572011
2932.2619,2078.5188620385484
2933.3634,2053.797690930184
2934.4643,2063.9273204939664
2935.5645,2034.5572704389676
2936.6641,2005.2870398349864
2937.763,1974.4161074062508
2938.8613,1920.0439318241176
2939.959,1864.9699520157847
2941.056,1816.8935877080075
2942.1523,1731.2142399778465
2943.248,1646.2812917334236
2944.3431,1549.8441085707204
2945.4375,1455.1520396229057
2946.5313,1356.304418524708
2947.6244,1241.350564359335
2948.7169,1157.3397826469507
2949.8087,1068.3213664942127
2950.8999,983.394597434382
2951.9904,908.6587463175061
2953.0803,838.8130741596865
2954.1696,778.1068328904374
2955.2582,726.689266051143
2956.3462,683.2096094021199
2957.4335,646.1170914367927
2958.5202,613.61093381649
2959.6062,588.8903517413692
2960.6916,567.1545542754784
2961.7764,556.1027445939624
2962.8605,534.5841202004203
2963.9439,531.7478730374244
2965.0267,527.943189701705
2966.1089,526.5692514725149
2967.1905,511.3252343496757
2968.2714,508.2103090673156
2969.3516,507.92364124631115
2970.4312,514.214391425435
2971.5102,522.3817150642247
2972.5885,532.0247624800743
2973.6662,536.0926787665605
2974.7432,535.5846036970129
2975.8196,534.0996716838345
2976.8954,516.8870117835831
2977.9705,518.8957477118192
2979.045,512.3249980152342
2980.1188,491.12387605156096
2981.192,489.74149005528284
2982.2645,464.9269433496445
2983.3364,440.2293343604763
2984.4077,427.9477568643397
2985.4783,399.8313002355022
2986.5483,368.3290495687554
2987.6177,337.2400859605766
2988.6864,306.26348682415437
2989.7545,286.6483262002755
2990.8219,249.64367506709277
2991.8887,223.09860153627608
2992.9548,194.86217122305902
2994.0204,164.08344751168954
2995.0852,140.51149183779444
2996.1495,126.14536399616622
2997.2131,98.38412237648322
2998.276,80.0268241069715
2999.3383,68.87252533201581
3000.4,62.72028139573365
3001.4611,43.96914695351779
3002.5215,26.118176033558825
3003.5812,18.516422224356347
3004.6404,4.26293885322832
3005.6989,7.656779062328724
3006.7567,-0.5030040488173881
3007.8139,2.882642542747135
3008.8705,-7.637223115010556
3009.9264,-0.5635430029492454
3010.9818,-9.647182806069509
3012.0364,-12.489002579577345
3013.0905,-6.9397660033226884
3014.1439,-15.350111992019833
3015.1966,-8.77061013212142
3016.2487,-13.001676662461705
3017.3002,-9.14364020347989
3018.3511,2.103300511133739
3019.4013,0.43903809265532345
3020.4509,1.6634651313279392
3021.4998,5.3264742130041896
3022.5481,10.67795790690252
3023.5958,13.017808728977116
3024.6428,17.345919088402525
3025.6892,22.41218126417641
3026.735,28.11648736183713
3027.7802,37.15872926280122
3028.8247,26.18879856732076
3029.8685,49.4565865040604
3030.9118,47.76198403979754
3031.9544,57.204881646743615
3032.9963,59.48516931949126
3034.0376,73.50273648058447
3035.0783,83.30747195771562
3036.1184,84.49926384355012
3037.1578,91.07799939767858
3038.1966,94.94356503469925
3039.2348,102.49584625843067
3040.2723,101.9347276232557
3041.3092,104.11009265859894
3042.3455,104.82182387453798
3043.3811,116.41980274004982
3044.4161,107.90390967589315
3045.4505,111.1740239386292
3046.4842,110.5800237057797
3047.5173,109.67178604312664
3048.5498,109.99918691065199
3049.5816,102.41210117162018
3050.6128,105.16040258930417
3051.6434,101.79396390285643
3052.6734,93.01265679982572
3053.7027,99.16635194982143
3054.7314,91.90491909232634
3055.7594,92.22822697516023
3056.7868,92.58614342709382
3057.8136,94.02853535461594
3058.8398,94.9052687383541
3059.8653,85.46620861865085
3060.8902,90.26121908679613
3061.9145,86.64016337941842
3062.9381,89.10290383053405
3063.9612,82.74930190775763
3064.9835,90.17921818767547
3066.0053,81.09251241938057
3067.0264,84.48904345017394
3068.0469,79.41866931643165
3069.0668,77.9812472096392
3070.086,68.67663352709604
3071.1046,62.954683886288706
3072.1226,55.96525321793774
3073.1399,59.20819582321673
3074.1567,54.433365443647176
3075.1727,40.14061522866865
3076.1882,44.07979778338711
3077.203,36.95076531150289
3078.2173,32.7033695759182
3079.2308,35.43746197002787
3080.2438,24.102893560193365
3081.2561,18.199515058401403
3082.2678,16.07717693561017
3083.2789,11.78572948078289
3084.2893,13.425022822110975
3085.2991,7.594906969928502
3086.3083,5.845231800319482
3087.3169,3.0258471134189904
3088.3248,7.636602650910277
3089.3321,-2.0726518757817303
3090.3388,4.547933168402153
3091.3449,-0.4017718756869044
3092.3503,-4.5718967126770735
3093.3551,-1.6625670334958045
3094.3593,1.52613714417771
3095.3629,-3.7558475882914877
3096.3658,-3.3085846547994606
3097.3681,-1.882099958325
3098.3698,1.5236136509134894
3099.3708,1.2085821248759885
3100.3713,-2.227168599713366
3101.3711,-4.333612598216348
3102.3702,-7.560701696580537
3103.3688,4.791655572036461
3104.3667,0.023626205886671414
3105.364,1.6353771553058323
3106.3607,4.577075134603689
3107.3568,2.3488868417363165
3108.3522,-0.29902107111075793
3109.347,7.233518024759178
3110.3412,2.4966737452631946
3111.3348,7.590615633983333
3112.3277,8.765513209534987
3113.32,10.371535914627515
3114.3117,12.258853104315591
3115.3028,7.877634029938548
3116.2932,11.32804782024732
3117.2831,10.860263525216624
3118.2723,19.22445008154054
3119.2608,11.170776317310725
3120.2488,16.549410868374395
3121.2361,11.060522258871003
3122.2229,15.804278847446028
3123.209,15.780848882139821
3124.1944,18.59040045295012
3125.1793,20.4331014920663
3126.1635,16.50911974577386
3127.1471,24.41862275602722
3128.1301,26.81177789968976
3129.1125,24.538752309438877
3130.0942,28.299712849834293
3131.0753,28.694826140048264
3132.0558,29.22425851625573
3133.0357,25.138176027683187
3134.015,27.3367444313146
3134.9936,33.12012923275236
3135.9716,26.238495664231436
3136.949,31.142008626785696
3137.9258,32.58083275906401
3138.902,37.05513238829522
3139.8775,38.51507151589993
3140.8524,41.91081377274753
3141.8267,40.74252240455684
3142.8004,38.41036023793856
3143.7735,41.3144896920783
3144.7459,39.255072802058066
3145.7178,42.432271189815026
3146.689,43.24624608473553
3147.6596,45.69715829188348
3148.6295,48.185168183860156
3149.5989,47.660435676295435
3150.5676,45.3731202029675
3151.5357,50.3233807210502
3152.5032,51.011375733986185
3153.4701,50.18726324198438
3154.4364,54.80120073514006
3155.402,55.90334520167582
3156.367,52.893853081802405
3157.3315,56.42288025669717
3158.2952,57.49058207859906
3159.2584,59.19711333551814
3160.221,63.992628240558815
3161.1829,61.72728041485439
3162.1442,61.80122283961197
3163.105,62.06460787876587
3164.065,70.76758727823832
3165.0245,64.1603121633054
3165.9834,65.89293295156742
3166.9416,66.3655994190216
3167.8993,65.97846068273597
3168.8563,66.23166519612258
3169.8127,67.62536075280892
3170.7684,66.60969448410584
3171.7236,71.43481284507062
3172.6782,76.75086162466366
3173.6321,72.20798589749721
3174.5854,75.50632997067504
3175.5381,79.54603742922102
3176.4902,76.42725110309578
3177.4417,77.50011302679954
3178.3926,81.21476447056013
3179.3428,82.42134592960419
3180.2924,83.01999708701082
3181.2415,84.86085680164567
3182.1899,85.44406310217445
3183.1377,82.96975316865428
3184.0848,82.18806332670177
3185.0314,85.79912907223593
3185.9773,91.30308507929519
3186.9227,90.05006516392666
3187.8674,96.74020222914672
3188.8115,98.62362827747108
3189.755,92.1004743440134
3190.6979,96.37087047765118
3191.6402,100.03494580625711
3192.5818,99.5428284939953
3193.5229,96.24464570468027
3194.4633,101.9405236066984
3195.4031,103.28058740598958
3196.3423,100.3649612890885
3197.2809,101.34376840972399
3198.2189,101.71713091797524
3199.1563,111.18516995048381
3200.0931,109.04800562671998
3201.0292,108.90575695430229
3201.9648,106.10854185036926
3202.8997,111.20647714300188
3203.834,111.84967859919566
3204.7677,113.48826087388139
3205.7008,110.07233750349309
3206.6333,114.55202088958214
3207.5652,116.27742233297661
3208.4964,115.2986519889843
3209.4271,118.76581885013881
3210.3571,117.62903075598726
3211.2865,122.33839435841847
3212.2154,119.19401513303107
3213.1436,123.6959973320397
3214.0712,124.6444440157188
3214.9982,127.7394570073829
3215.9246,126.98113688390204
3216.8503,127.0695829447517
3217.7755,130.60489321959602
3218.7001,131.33716446740328
3219.624,128.6664921410928
3220.5473,134.19297038021227
3221.4701,133.66669203764445
3222.3922,138.8377486243424
3223.3137,136.50623031459227
3224.2346,135.92222589430267
3225.1549,140.5358227843199
3226.0746,137.94710704626803
3226.9937,139.25616333641278
3227.9121,140.36307493154882
3228.83,141.86792371590923
3229.7473,144.0707901700962
3230.6639,148.92175335603272
3231.5799,147.82089089493394
3232.4954,146.5682789187973
3233.4102,145.96399208141142
3234.3244,149.5081035708821
3235.238,149.70068511567518
3236.151,145.54180694917545
3237.0634,153.68153780776078
3237.9752,151.06994497239103
3238.8864,155.80709418721057
3239.797,154.89304968566432
3240.7069,156.8278741431263
3241.6163,157.11162868604004
3242.5251,163.3443728725701
3243.4332,161.27616468976487
3244.3408,161.85706049122894
3245.2477,163.6371150178052
3246.154,165.06638139176596
3247.0598,163.84491109901225
3247.9649,167.0727539747814
3248.8694,167.2499582158615
3249.7733,167.2265703483131
3250.6766,175.30263522569703
3251.5793,169.07819602930857
3252.4814,172.70329418741647
3253.3829,173.0279694375075
3254.2838,173.65225979003543
3255.1841,176.27620152517426
3256.0838,174.74982918657545
3256.9829,175.97317555512825
3257.8814,178.74627166422368
3258.7792,179.16914678752084
3259.6765,182.6918284112162
3260.5731,178.96434222981463
3261.4692,178.28671211090273
3262.3647,185.30896013242352
3263.2595,180.88110658945277
3264.1538,184.65316992397675
3265.0474,183.42516676917046
3265.9404,185.29711191167723
3266.8329,186.01901830388863
3267.7247,186.19089704522503
3268.616,186.0127573749166
3269.5066,184.53460667028435
3270.3966,182.65645044852184
3271.286,184.5282923814764
