RamanShift,CorrectedData
30.1047,135.9561007266155
32.3739,125.17096978864993
34.6426,113.73583749112335
36.9109,100.90070122276505
39.1787,91.46555723494593
41.4461,83.03040077002984
43.7131,71.34522615572503
45.9796,60.91002688943573
48.2456,51.5747957551138
50.5112,38.839524927610846
52.7764,28.004206066030484
55.0411,19.818830441081055
57.3054,6.933389043428834
59.5692,0.6478726655517981
61.8326,-12.937727969405977
64.0955,-24.073422144779126
66.3579,-30.15908989599993
68.6199,-37.144370765013434
70.8815,-41.17860300445664
73.1426,-32.11075379470268
75.4032,-3.039378941880699
77.6634,96.33728653431048
79.9231,333.3210379775677
82.1824,841.1136697682149
84.4412,1686.7169729533657
86.6995,2761.7327301689975
88.9574,3816.4627071839172
91.2148,4501.208642149604
93.4717,4798.872235052913
95.7282,4790.255140868611
97.9842,4709.6589665827405
100.2398,4563.485271278795
102.4949,4402.135566943681
104.7495,4243.961319929446
107.0036,4034.9639525667867
109.2573,3867.894844746785
111.5105,3682.255336010886
113.7632,3486.296727221582
116.0154,3296.120282418814
118.2672,3137.377230779558
120.5185,2986.2687685195847
122.7693,2854.5460604808927
125.0197,2734.110241642795
127.2696,2630.5624184391418
129.519,2551.503669962684
131.7679,2475.2350490005456
134.0163,2407.6075828248163
136.2642,2337.722273955235
138.5117,2272.180100835464
140.7587,2194.4820185319445
143.0052,2087.778959389316
145.2512,1999.2218338073967
147.4967,1913.3615313082182
149.7417,1838.348921421591
151.9863,1786.0848545437132
154.2304,1747.2701626872913
156.4739,1715.0556600041848
158.717,1710.9421431735523
160.9596,1684.2303917239951
163.2017,1681.871168074694
165.4433,1633.3652178025268
167.6844,1578.1132696656584
169.925,1505.5660360886038
172.1651,1378.9742137147434
174.4047,1326.488484131799
176.6439,1255.3095151377504
178.8825,1203.4879612656919
181.1206,1153.9244644956234
183.3582,1125.4696547726667
185.5954,1099.1241505026976
187.832,1084.038558836897
190.0681,1072.8134759352047
192.3037,1057.299487117175
194.5388,1061.3971669742286
196.7734,1053.0570795247909
199.0075,1062.6797781733167
201.2411,1087.8658057936902
203.4742,1103.9156946329977
205.7068,1128.829966059668
207.9389,1145.409130402974
210.1704,1171.3036867038884
212.4015,1170.2641225492932
214.632,1173.440913813035
216.862,1199.4845246663185
219.0915,1196.5454075459406
221.3205,1200.3240028938535
223.549,1201.220739186555
225.777,1186.7860328973043
228.0044,1168.9202884871538
230.2314,1162.4238985492955
232.4578,1131.6472439877189
234.6837,1100.4906940821747
236.909,1082.004606795942
239.1339,1064.8893290873925
241.3582,1057.145197094853
243.582,1032.4225363077567
245.8053,1030.0716616440848
248.0281,1033.9428776975942
250.2503,1033.3364787613261
252.472,1042.5527487888917
254.6932,1068.7419614005385
256.9139,1080.154379790987
259.134,1101.3902564675382
261.3536,1169.6998331359498
263.5727,1239.683340488078
265.7912,1313.4909975187804
268.0092,1383.623010826082
270.2267,1461.0295738730988
272.4436,1534.660866286717
274.6601,1544.417053083528
276.8759,1552.7982839335148
279.0913,1556.5046930624903
281.3061,1554.586399168285
283.5204,1575.3935053836835
285.7341,1592.8260992956057
287.9473,1616.1842527370375
290.16,1601.7680216127044
292.3721,1561.6274456654899
294.5837,1542.6625486205985
296.7947,1544.473338586961
299.0052,1532.759808246883
301.2152,1516.8219348379362
303.4246,1482.6596802700951
305.6334,1429.4229912851165
307.8418,1371.761799798159
310.0495,1300.626023430153
312.2568,1195.0655660844106
314.4635,1110.480318657984
316.6696,1006.2201600972714
318.8752,918.5849582438673
321.0802,872.624570877166
323.2847,860.7888465907129
325.4887,865.9276252518082
327.692,892.040738119864
329.8949,917.7280077950163
332.0972,932.6392479569934
334.2989,938.524263108244
336.5001,877.3328484248239
338.7007,824.9647896975473
340.9008,747.8698639439008
343.1003,671.6478399317234
345.2992,619.398478950156
347.4976,571.1215355718616
349.6955,520.1167581755192
351.8927,486.2338894285924
354.0895,460.17266679737895
356.2856,446.33282288583746
358.4812,430.9640856962005
360.6763,407.41617876737246
362.8707,401.1388213286175
365.0646,414.8817285350383
367.258,426.19461153035013
369.4508,437.2771773094512
371.643,485.9291286052951
373.8346,506.8001637780628
376.0257,538.9399763286444
378.2162,560.598254689929
380.4062,579.5246819054066
382.5956,548.6189354125852
384.7844,509.6306868537258
386.9726,453.70960238490056
389.1603,420.5053430658752
391.3474,391.21756541931995
393.5339,391.89592176285373
395.7199,389.6400605019203
397.9052,436.14962612300405
400.09,486.4242592161893
402.2743,551.5135960100652
404.4579,592.3672678689786
406.641,664.3849006421412
408.8235,706.8661142550923
411.0054,772.4605219895229
413.1868,821.7177300584633
415.3675,840.5373369503393
417.5477,786.618932936401
419.7273,704.5120998825246
421.9064,642.6164117883984
424.0848,604.7814356085898
426.2627,542.5067318715028
428.4399,460.2418550577265
430.6166,380.08635422278326
432.7928,303.6897738197765
434.9683,245.4016545009472
437.1432,192.67153388163865
439.3176,155.74894712317837
441.4914,151.38342746017838
443.6645,128.87450656976262
445.8371,124.62171461522098
448.0091,128.57458047109822
450.1806,121.03263176572318
452.3514,115.44539484167944
454.5216,116.46239483122486
456.6913,114.98315571216494
458.8603,130.80720029768213
461.0288,144.0340502511283
463.1967,130.3632259277838
465.3639,121.5942462425894
467.5306,124.2766288068533
469.6967,123.45989001594285
471.8622,102.39354502245874
474.0271,112.02710774440447
476.1914,115.3100910758485
478.3551,103.1920067905894
480.5182,111.22236550932507
482.6807,132.30067682083404
484.8426,158.62644920167236
487.0039,225.99918980538882
489.1647,299.3684041992692
491.3248,370.33359569060735
493.4843,397.2442645930141
495.6432,386.9499075167648
497.8015,353.2500170996925
499.9592,285.1940821101309
502.1163,224.0815877839143
504.2728,158.46201650493526
506.4287,99.18484841627242
508.5839,68.04956207638429
510.7386,54.855635051881336
512.8927,54.20254422887797
515.0461,53.53976594493338
517.199,88.91677599558079
519.3512,147.33304964095805
521.5029,226.98806125203555
523.6539,312.3312837264541
525.8043,313.36218769197444
527.9541,256.28024065304567
530.1033,187.0349069804954
532.2519,129.9756484823488
534.3999,94.35192509628314
536.5472,89.2631954602191
538.694,103.60891726855812
540.8401,140.58854732307077
542.9856,159.75154138943867
545.1305,198.34735382745816
547.2748,188.4254373994122
549.4185,178.93524288410913
551.5615,184.37621917610386
553.704,222.3978133805997
555.8458,256.099470759038
557.987,300.5306343488819
560.1276,339.7407446266009
562.2675,415.0292390633574
564.4069,548.3955517329073
566.5456,627.2891125587146
568.6837,641.4093459802882
570.8212,540.7556701642468
572.958,415.5774968631158
575.0942,284.52423242186524
577.2299,196.69527902969003
579.3648,169.49003603054393
581.4992,172.10790080142897
583.6329,190.14826902444634
585.766,241.06053466061826
587.8985,297.6440897694856
590.0304,349.8483239999837
592.1616,378.5226240246084
594.2922,339.8663730173723
596.4222,286.9789503670622
598.5515,210.20973206380245
600.6802,155.25809122792793
602.8083,112.52339887767653
604.9358,111.40502447870608
607.0626,109.1023363714396
609.1888,142.8647017822518
611.3144,178.8414868464945
613.4393,251.63205627087314
615.5636,333.1857729736789
617.6873,362.9519973568845
619.8103,403.63008649060475
621.9327,375.51939381543616
624.0544,316.61926873567427
626.1756,243.3290569004207
628.2961,192.848100792585
630.4159,167.52574046178756
632.5351,157.2113140291683
634.6537,149.50415794060973
636.7716,136.0036070698825
638.8889,123.65899479571522
641.0056,126.66965313680157
643.1216,133.7349128752444
645.237,137.85410352645044
647.3518,111.42655326847853
649.4659,71.75158890084572
651.5793,56.97853610880543
653.6922,46.00671986009456
655.8043,35.13546455266555
657.9159,28.814094124404164
660.0268,24.64193216184185
662.137,22.668301963369686
664.2466,34.5425265809597
666.3556,26.16392883990079
668.4639,8.781831220058393
670.5716,18.645555939658834
672.6786,5.754425129109677
674.785,-13.492239267634432
676.8907,-11.345115364163576
678.9958,-1.2547464865979236
681.1002,-14.521562623356203
683.204,-1.6959812279401376
685.3072,-12.628274683443124
687.4097,-12.218698430105178
689.5115,-11.66738175170326
691.6127,0.5756681327816295
693.7132,-4.989439438487125
695.8131,-4.56259513310215
697.9123,16.006360225842855
700.0109,12.267631395580338
702.1089,40.271422973278504
704.2061,62.06793943343018
706.3028,82.7573848478155
708.3987,100.13996266753452
710.4941,135.26587551611465
712.5887,132.0853250156838
714.6827,130.99851143571118
716.7761,149.90563372481324
718.8688,155.20688952162186
720.9608,169.30247496571383
723.0522,216.8425846445973
725.1429,260.1274114527562
727.233,325.1571461162491
729.3224,399.481976759861
731.4112,444.60208825680525
733.4993,442.1676614854755
735.5867,351.6288728782465
737.6735,253.6858944458163
739.7596,181.28889468259536
741.845,140.98803954613618
743.9298,123.4834931811015
746.014,130.77541832227416
748.0974,123.01397646960345
750.1802,132.99932781528491
752.2624,123.53163132137456
754.3439,133.81104461993527
756.4247,156.83772410771553
758.5048,178.91182484335286
760.5843,218.08350031710893
762.6631,300.75290223012667
764.7413,426.3701801027164
766.8188,584.1354804476587
768.8956,724.4489455140344
770.9718,829.9607117095695
773.0473,818.3209081975015
775.1221,795.7296558414605
777.1962,757.9870673218691
779.2697,829.1932473618535
781.3426,905.3482931046697
783.4147,958.5022934016408
785.4862,933.3053280506085
787.557,809.9074672643928
789.6271,639.9587719227598
791.6966,477.10929480640243
793.7654,330.3590822964263
795.8335,242.40817600284458
797.901,183.6566142320803
799.9678,164.3044328664746
802.0339,169.40166595180494
804.0993,152.69834589080392
806.1641,132.09450339218915
808.2282,116.99016763769441
810.2916,91.83536648810855
812.3544,67.38012663431982
814.4164,69.37447384886309
816.4778,80.36843323047265
818.5385,99.31202918413783
820.5986,140.75528531116356
822.658,240.94822421973527
824.7166,340.09086711048644
826.7747,495.9832327745678
828.832,647.5753366022227
830.8886,749.1671890238622
832.9446,787.2587939941438
834.9999,719.6001479760539
837.0545,588.1412395599921
839.1085,473.9320501403556
841.1618,366.1225552301314
843.2143,279.3627256029854
845.2662,244.6025283713593
847.3175,211.29192785406758
849.368,185.68088592389995
851.4179,182.6193623407289
853.467,166.75731500761867
855.5155,166.59470000144006
857.5633,171.6314717314906
859.6105,158.16758294112196
861.6569,144.8029846573711
863.7027,126.93762632559992
865.7478,109.72145594314043
867.7922,103.55442023794853
869.8359,96.18646484076748
871.8789,92.46753434679613
873.9212,102.34757238937027
875.9629,112.52652167714973
878.0039,134.55432389532007
880.0441,163.38091960380098
882.0837,196.65624801697095
884.1226,232.08024671539852
886.1609,288.8028513130896
888.1984,349.97399510324885
890.2352,402.9936084910523
892.2714,409.3116183819368
894.3069,372.1779476514039
896.3416,309.69251508183925
898.3757,266.0552357338497
900.4091,231.0660215711166
902.4418,234.1747818967699
904.4739,243.93142370327882
906.5052,262.38585164136657
908.5358,244.88796792244193
910.5658,226.4876721340563
912.595,174.93486141488074
914.6236,109.52943063871044
916.6515,79.97127292999221
918.6786,58.76028031787905
920.7051,56.44634403181135
922.7309,43.32935471362816
924.756,52.70920244070476
926.7804,68.58577685712339
928.8041,100.55896707987404
930.8272,116.1286615400902
932.8495,121.44474766331518
934.8711,134.35711171380626
936.892,143.8156387413735
938.9123,160.82021245225656
940.9318,203.77071511453823
942.9506,221.91702738810045
944.9688,208.9090278951178
946.9862,165.7965930385949
949.003,121.12959713244663
951.019,89.10791283262188
953.0344,55.331411583774525
955.0491,48.39996393947854
957.063,48.313439899995274
959.0763,46.22170898158697
961.0888,52.87464021738174
963.1007,57.72210217829024
965.1119,62.46396290647817
967.1223,58.000089866889766
969.1321,55.43034989983107
971.1412,48.20460926560804
973.1495,48.4727336702224
975.1572,34.83458833763075
977.1641,42.59003800706182
979.1704,44.188947069399546
981.1759,35.2811794896279
983.1808,34.31659879084077
985.1849,36.195068143321805
987.1884,37.066450374189344
989.1911,60.73060794861135
991.1932,71.13740296109256
993.1945,68.93669689883222
995.1951,50.378350537656615
997.1951,51.912223964024406
999.1943,51.038176760612714
1001.1928,67.30606799097609
1003.1906,93.06575620828755
1005.1877,112.76709929266065
1007.1841,149.85995419355163
1009.1798,162.89417673274545
1011.1748,167.7196212334277
1013.1691,117.43614038984344
1015.1627,84.59358521904153
1017.1556,47.94180556371066
1019.1477,18.180650420604024
1021.1392,-5.44003169294308
1023.1299,-9.220392441401145
1025.12,3.1894708566751433
1027.1093,16.689552994451105
1029.0979,56.82984873319799
1031.0859,75.36035266729107
1033.0731,94.03105882280761
1035.0596,91.69196047222181
1037.0454,66.89304994769759
1039.0304,47.23431866447936
1041.0148,33.91575736888183
1042.9985,7.887356334876813
1044.9814,-4.400894502720348
1046.9636,-4.399005287967611
1048.9452,-1.4569421999877932
1050.926,34.12537252815946
1052.9061,48.94803121826624
1054.8855,54.81112585087067
1056.8642,56.56474791703147
1058.8421,53.85898835969522
1060.8194,53.44393755616295
1062.7959,60.369685345145285
1064.7717,65.93632103091431
1066.7469,84.94393331404603
1068.7213,100.34261023575334
1070.695,125.38243898781059
1072.6679,155.31350575856595
1074.6402,165.08589548254452
1076.6117,158.94969154113505
1078.5826,131.15497566486897
1080.5527,80.6518279947802
1082.5221,42.94032736035365
1084.4908,23.070551784556528
1086.4587,13.342578860952699
1088.426,12.70648595240084
1090.3925,7.412350288333187
1092.3584,29.360248971118608
1094.3235,51.25025902900268
1096.2879,89.58245719662864
1098.2515,113.1569196961384
1100.2145,169.9237218538508
1102.1767,232.78293786451513
1104.1382,310.83464022364535
1106.099,384.2288990989249
1108.0591,462.6157815496923
1110.0185,522.6953507929973
1111.9771,577.4176654197322
1113.9351,618.9327787938363
1115.8923,655.6407385050734
1117.8488,652.6415859538785
1119.8045,584.8353559842805
1121.7596,472.2720769138923
1123.7139,369.301771211974
1125.6675,321.97445662506516
1127.6204,336.84014720668847
1129.5726,336.59885379062234
1131.524,326.50058384224417
1133.4748,262.94534146094304
1135.4248,180.6831274811027
1137.3741,129.91394010765362
1139.3226,97.63777573869584
1141.2705,96.25462947319113
1143.2176,91.86449543372385
1145.164,90.01736678033183
1147.1097,87.16323575440913
1149.0546,47.00209369717618
1150.9989,10.183931078220667
1152.9424,-4.041262102889846
1154.8852,-19.923495948426762
1156.8272,-16.81274018845386
1158.7686,-11.308765517310803
1160.7092,-10.961174670063883
1162.6491,12.080542592787651
1164.5883,27.667006012878574
1166.5267,62.998835211038795
1168.4644,101.7766495314288
1170.4014,167.60106768822072
1172.3377,240.3727073778208
1174.2732,334.392184620625
1176.2081,490.6101130333034
1178.1421,669.3271028886041
1180.0755,831.5937595531751
1182.0082,907.560681700393
1183.9401,856.3784596876984
1185.8713,734.3976747969257
1187.8017,565.818899746125
1189.7315,428.54269990937007
1191.6605,313.71963500254617
1193.5888,249.3502604561121
1195.5163,206.93512856333155
1197.4432,183.02478912396532
1199.3693,155.06978986842387
1201.2947,140.0206766968696
1203.2193,145.377993958768
1205.1432,136.8922846033779
1207.0664,130.8140901261787
1208.9889,137.79395065372796
1210.9106,141.0324050044419
1212.8316,154.27999061879802
1214.7519,174.68724352695006
1216.6715,198.55469821625184
1218.5903,215.68288742718494
1220.5084,243.22234191468442
1222.4257,285.3235902768562
1224.3424,315.5871586795831
1226.2583,352.01357043551263
1228.1735,395.7533457014209
1230.0879,469.55700111394935
1232.0016,540.7750493522059
1233.9146,596.8579983997291
1235.8269,647.2063508323075
1237.7384,647.4206032571506
1239.6492,653.2512458094043
1241.5592,695.5987621500088
1243.4686,775.4636294073939
1245.3772,883.7963177540016
1247.285,1008.7972896076388
1249.1922,1127.4169985481496
1251.0986,1244.8558880674072
1253.0042,1338.614390383113
1254.9092,1443.392925264412
1256.8134,1524.0918990943042
1258.7169,1583.6117038218613
1260.6196,1568.5527161552363
1262.5216,1575.7652969664662
1264.4229,1559.4497914420608
1266.3234,1542.7565290108785
1268.2232,1525.8358235072792
1270.1223,1488.0379733380582
1272.0207,1473.263261651654
1273.9183,1448.4119567161245
1275.8151,1489.634312066896
1277.7113,1550.230566755276
1279.6067,1667.9509449362295
1281.5014,1862.2956552624153
1283.3953,2081.814889706983
1285.2885,2312.358821620128
1287.181,2507.5776035338936
1289.0727,2592.8713648567386
1290.9637,2599.790209921345
1292.854,2551.084217131681
1294.7435,2458.953438893813
1296.6323,2343.047902102968
1298.5204,2221.167609064837
1300.4077,2132.112538654633
1302.2943,2040.7326475358943
1304.1802,1956.9778710510334
1306.0653,1853.848124135137
1307.9497,1747.8933021535138
1309.8333,1641.2632819329908
1311.7162,1550.457922821463
1313.5984,1481.677067754191
1315.4798,1431.3205441618577
1317.3605,1401.5881646583762
1319.2405,1354.6797275444544
1321.1197,1276.1950171049193
1322.9982,1167.8838040778014
1324.876,1048.5958464391801
1326.753,920.3308904862988
1328.6293,810.7386720304419
1330.5048,718.468917679585
1332.3796,635.0213459343187
1334.2537,571.9956681105436
1336.127,537.4415891739487
1337.9996,500.4088083702658
1339.8714,482.9970195708121
1341.7426,460.6559116428166
1343.6129,452.7851686235383
1345.4826,453.2344699436777
1347.3515,432.6034905060842
1349.2196,418.54190068126354
1351.087,419.69936651368585
1352.9537,420.12554986240343
1354.8197,440.47010838947494
1356.6849,468.0826955557037
1358.5493,514.9629604171929
1360.4131,560.1605473492192
1362.276,627.9250955774297
1364.1383,673.8562387258672
1365.9998,665.7036041393237
1367.8606,622.7668124240289
1369.7206,571.6454775291772
1371.5799,540.1392071762949
1373.4384,506.54760337045445
1375.2962,457.5202627153361
1377.1533,369.10677674914405
1379.0096,311.55673243488025
1380.8652,227.86971304447854
1382.7201,188.79529873430636
1384.5742,140.83306738203407
1386.4275,105.78259497737872
1388.2802,76.59345610172738
1390.132,66.66522427864152
1391.9832,52.89747226574798
1393.8336,35.28977215402222
1395.6832,24.541695505465214
1397.5322,24.502813529180344
1399.3803,13.322697188854931
1401.2278,1.9009172031481967
1403.0745,-0.31295584250733555
1404.9204,-11.519351381687784
1406.7656,-12.61869572154103
1408.6101,-7.011300090894565
1410.4538,-10.297349657806308
1412.2968,7.7230404525540735
1414.139,20.89985798553937
1415.9805,31.13309060927179
1417.8213,50.022725782875796
1419.6613,84.36875065414551
1421.5006,117.02115187064805
1423.3391,183.0299152362636
1425.1769,255.39502538466093
1427.0139,364.26646511921047
1428.8502,499.1942146893317
1430.6858,601.6782507017814
1432.5206,673.5685447713738
1434.3547,673.2650624961411
1436.188,659.2677627384315
1438.0206,637.0265976279424
1439.8524,613.7415127016942
1441.6835,608.7124471264425
1443.5139,611.3393339315271
1445.3435,607.3721000591639
1447.1724,611.2106663381763
1449.0005,620.1049475236673
1450.8279,606.7048522586339
1452.6545,601.3602829850233
1454.4804,622.0211360777356
1456.3056,603.4373018980673
1458.13,588.3086645871045
1459.9536,553.8851022515604
1461.7766,482.3664871150621
1463.5987,425.9026858623861
1465.4202,387.6935603546441
1467.2409,322.8889681939222
1469.0608,274.438763105371
1470.88,220.74279558525143
1472.6984,178.9009133854372
1474.5161,143.0629620503746
1476.3331,126.82878533550047
1478.1493,124.89822556562262
1479.9648,110.07112379726152
1481.7795,109.44731983795555
1483.5935,98.17665239453186
1485.4067,94.95895907934516
1487.2192,110.59407652298341
1489.031,104.18184040644576
1490.842,104.42208530479058
1492.6522,106.76464475125874
1494.4618,90.4593512348705
1496.2705,91.45603617699976
1498.0785,97.50453009442697
1499.8858,87.10466258937254
1501.6924,74.60626228901197
1503.4981,62.90915694947455
1505.3032,57.41317358082733
1507.1075,56.21813856404617
1508.911,45.823877705975406
1510.7138,37.980216251278534
1512.5159,31.436978986380723
1514.3172,28.09399031790508
1516.1178,6.701074338105059
1517.9176,4.758054858294713
1519.7166,-2.3352443772222387
1521.515,-5.0289996717219765
1523.3126,-6.773363999389858
1525.1094,5.981559905295285
1526.9055,-1.9642630262402463
1528.7008,-10.960867922385319
1530.4954,-2.7582702885424624
1532.2893,-3.006376131043453
1534.0824,4.494936098899302
1535.8747,-1.354182016229288
1537.6663,2.5464210611064573
1539.4572,4.946910396719886
1541.2473,10.04745103096036
1543.0367,21.348207954708414
1544.8253,34.399346058369815
1546.6132,48.00103001886907
1548.4003,59.45342416913718
1550.1867,82.50669236209535
1551.9723,107.96099785613148
1553.7572,141.51650308456635
1555.5414,183.22336940111143
1557.3247,235.58175674431322
1559.1074,304.7918232204852
1560.8893,371.9037245801238
1562.6705,443.1176135258072
1564.4509,480.133639041077
1566.2305,482.5019456782986
1568.0094,496.4226731885012
1569.7876,498.24595649769526
1571.565,501.02192556766363
1573.3417,509.4507053777304
1575.1176,518.732415897
1576.8928,532.3671720000705
1578.6672,588.4050833742155
1580.4409,634.7462543830374
1582.2138,684.6407835060885
1583.986,733.7387628754584
1585.7575,792.9902777768295
1587.5282,852.7454061584967
1589.2981,909.2042180388521
1591.0673,951.4167749088338
1592.8358,993.0331291673376
1594.6035,1005.7533236990923
1596.3704,1006.1773914584958
1598.1366,1005.7553553424127
1599.9021,997.9372281859345
1601.6668,996.7230127665995
1603.4308,1013.0127018825739
1605.194,1052.4062783647942
1606.9564,1105.70371491407
1608.7182,1224.5049737071486
1610.4791,1339.9600058637407
1612.2394,1490.0687502585079
1613.9988,1625.3311323665116
1615.7576,1711.1470627621266
1617.5156,1728.5164357664162
1619.2728,1667.3391285889736
1621.0293,1544.8150011542284
1622.785,1378.8438967132188
1624.54,1212.125643068834
1626.2942,1048.7100542355238
1628.0477,884.946932106482
1629.8005,764.9860680878033
1631.5525,662.3772447361121
1633.3037,571.3702369581731
1635.0542,508.3148130369789
1636.804,448.21073554182067
1638.553,411.4577619588413
1640.3013,388.85564529207693
1642.0488,350.85413443098616
1643.7955,342.8529743764718
1645.5416,331.30190662089564
1647.2868,325.90066922808984
1649.0313,322.89899694886805
1650.7751,339.14662127503766
1652.5181,355.3432704694161
1654.2604,369.5886694033553
1656.0019,410.43253939477495
1657.7427,452.624598065708
1659.4828,505.9645589338626
1661.222,570.7021309907009
1662.9606,599.2370181680401
1664.6984,606.6189186906759
1666.4354,560.2475247910339
1668.1717,473.22252263535137
1669.9072,382.6935927873899
1671.642,286.11041107868675
1673.3761,228.6726495138434
1675.1094,176.32997723635754
1676.8419,139.83206110300063
1678.5737,120.72856620724491
1680.3048,95.11915624424148
1682.0351,78.20349370185636
1683.7646,65.63124011676416
1685.4934,54.60205624360435
1687.2215,47.91560218070475
1688.9488,42.12153748037264
1690.6754,30.26952121575971
1692.4012,28.859212038801957
1694.1263,30.59026829874051
1695.8506,20.812348056224323
1697.5742,17.27510906600014
1699.297,8.228208874691461
1701.0191,15.871304856171037
1702.7404,10.704054302029817
1704.461,16.076114345146152
1706.1808,6.487142011357662
1707.8999,3.486794165741344
1709.6182,10.624727608502724
1711.3358,6.750599104979585
1713.0527,0.11406531426251831
1714.7688,5.614782827936438
1716.4841,2.3524082364457968
1718.1987,-1.8734019259125603
1719.9126,-3.662991148365734
1721.6257,-6.766684204855494
1723.338,-0.9347692760422319
1725.0496,-2.917466943411341
1726.7605,1.4850115498967966
1728.4706,-2.477515893763382
1730.18,4.094768613112478
1731.8886,4.3017077084124935
1733.5964,-2.0568560109229566
1735.3036,-0.8810799909705906
1737.0099,-1.5711011298157018
1738.7156,-1.777047523554529
1740.4204,-1.9990315729828012
1742.1246,-0.9371479261922104
1743.8279,2.8085287390510416
1745.5306,-0.1620668929117528
1747.2325,-4.799000165824452
1748.9336,-5.502334804382713
1750.634,-1.2720865912707495
1752.3336,5.29178365915152
1754.0325,-2.3106721593305792
1755.7307,3.270597794150433
1757.4281,6.335668444076759
1759.1247,6.4346146822246055
1760.8206,7.567511337013798
1762.5158,8.3844331725183
1764.2102,4.735454877137613
1765.9039,7.320651055427447
1767.5968,-2.7099037354109896
1769.289,5.443864988617349
1770.9804,10.182058783445598
1772.6711,9.154779150568288
1774.361,14.312127489659417
1776.0502,13.104205108845633
1777.7386,16.531113173132326
1779.4263,11.192952716482864
1781.1132,13.78982460754969
1782.7994,10.821829603055676
1784.4849,14.389068321825846
1786.1696,13.391641274466679
1787.8535,11.179648827694336
1789.5367,13.703191214308845
1791.2192,19.012368555313742
1792.9009,16.607280834681205
1794.5818,19.08802784625948
1796.2621,21.204709217824302
1797.9415,18.85742438627136
1799.6202,24.696272576449246
1801.2982,22.62135282463271
1802.9755,21.63276392013381
1804.6519,19.43060442605116
1806.3277,17.9649726891559
1808.0027,19.68596686191313
1809.6769,24.093684917138546
1811.3504,26.48822463078818
1813.0231,22.469683537881338
1814.6951,26.588158908555158
1816.3664,29.943747788250107
1818.0369,26.636546956524967
1819.7067,26.51665289350126
1821.3757,26.934161812935088
1823.044,29.13916966341617
1824.7115,33.03177212419274
1826.3783,26.512064583121628
1828.0443,29.830142097741998
1829.7096,32.886099460472394
1831.3741,28.53003116542999
1833.0379,34.21203137787154
1834.701,28.28219397775314
1836.3633,36.79061250291096
1838.0248,25.78738020835914
1839.6856,28.322589981205965
1841.3457,30.496334450686106
1843.005,37.55870596280846
1844.6636,36.80979655861864
1846.3214,34.14969790357537
1847.9785,42.378501295039484
1849.6349,36.94629768887472
1851.2904,40.00317761715996
1852.9453,39.39923124251129
1854.5994,36.68454832751297
1856.2528,38.25921824075738
1857.9054,38.0233299839914
1859.5572,41.32697217636991
1861.2083,46.47023305681455
1862.8587,42.60320045097728
1864.5084,45.87596171980783
1866.1572,45.68860379822405
1867.8054,45.041213162384366
1869.4528,43.28387583156123
1871.0994,44.71667737461493
1872.7453,49.63970292756727
1874.3905,51.00303717927335
1876.0349,45.506764322191316
1877.6786,45.55096803874912
1879.3215,44.98573155630703
1880.9637,44.06113764671602
1882.6051,49.67726863196961
1884.2458,45.08420639345016
1885.8858,42.73203231576764
1887.525,48.320827332690214
1889.1634,49.65067195066558
1890.8011,47.921646192933196
1892.4381,42.333829586226216
1894.0743,46.68730117806123
1895.7098,46.032139592616744
1897.3446,52.01842298719845
1898.9786,50.89622905879065
1900.6118,47.16563498419376
1902.2443,44.976717431245845
1903.8761,43.6295525961288
1905.5071,47.52421622525745
1907.1374,44.160783628751375
1908.7669,42.939329641488115
1910.3957,46.609928656737566
1912.0237,48.27265463837654
1913.651,50.07758108418287
1915.2776,47.8247810092077
1916.9034,48.26432692772667
1918.5285,41.69629087576757
1920.1528,41.47074440671503
1921.7764,46.637758656990854
1923.3992,44.947404348309476
1925.0213,46.3497517360079
1926.6427,40.09487062594911
1928.2633,35.382830360498815
1929.8832,40.3636998810741
1931.5023,46.387547775263954
1933.1207,46.454442227020394
1934.7383,43.66445095642018
1936.3552,44.06764121899565
1937.9714,43.01407983363492
1939.5868,47.70383317854953
1941.2015,43.48696720181047
1942.8154,43.56354737445031
1944.4286,42.48363873263199
1946.041,40.49730587688299
1947.6528,40.454612982894645
1949.2637,43.05562382138524
1950.8739,40.10040175852694
1952.4834,46.08900972993595
1954.0921,43.22151027022443
1955.7001,44.897965453114466
1957.3074,42.868436920113226
1958.9139,38.132985863748104
1960.5197,44.49167304786238
1962.1247,39.094558854969364
1963.729,41.891703222665825
1965.3325,39.43316569760307
1966.9353,40.96900540751571
1968.5374,41.14928108580676
1970.1387,40.724051056189296
1971.7393,39.24337323088375
1973.3392,44.807305114870076
1974.9383,41.66590382069461
1976.5366,40.51922601283064
1978.1342,40.56732793909242
1979.7311,35.960265442102184
1981.3273,39.148093958808715
1982.9227,44.38086856655832
1984.5173,36.95864395121649
1986.1112,41.48147435484012
1987.7044,39.099413649899816
1989.2968,38.81251529405142
1990.8885,36.37083235395687
1992.4795,42.57441750815295
1994.0697,39.023323071468155
1995.6592,37.76760093298702
1997.2479,34.507302591561
1998.8359,36.44247916836554
2000.4232,38.72318143950321
2002.0097,34.799459816651876
2003.5955,41.171364324257695
2005.1805,36.08894463877229
2006.7648,35.15225002493369
2008.3484,34.71132938659059
2009.9312,32.6162312760695
2011.5133,36.167003898583715
2013.0946,37.66369513318418
2014.6752,39.9063524972519
2016.2551,38.79502313153108
2017.8342,27.12975377770252
2019.4126,30.760590789496973
2020.9902,33.837580249347724
2022.5672,33.560767932082314
2024.1433,34.33019927415245
2025.7188,37.1959193764022
2027.2935,34.7079729963738
2028.8674,36.366404519650104
2030.4406,38.37125798473468
2032.0131,34.07257706646695
2033.5849,29.92040505597396
2035.1559,34.71478490365692
2036.7261,35.30575926071319
2038.2957,37.493370431192375
2039.8645,37.92766036608657
2041.4325,35.95867064145418
2042.9998,36.13644245407724
2044.5664,34.91101664115109
2046.1323,39.08243367850679
2047.6974,38.35073369286519
2049.2617,37.26595642012276
2050.8254,35.37814121266865
2052.3883,35.58732705023249
2053.9504,34.94355255876266
2055.5118,38.24685600833433
2057.0725,31.49727531958746
2058.6325,36.74484803069339
2060.1917,31.78961136485077
2061.7502,33.031602177809845
2063.3079,28.12085700742483
2064.8649,32.25741206123402
2066.4212,33.09130326556726
2067.9767,31.32256622418035
2069.5315,29.451236209916203
2071.0856,33.92734818239211
2072.6389,31.30093680671311
2074.1915,29.722036408710835
2075.7433,28.0906810012076
2077.2945,26.60690429980545
2078.8448,26.620739739199706
2080.3945,27.232220488016736
2081.9434,31.241379448675616
2083.4916,32.8982492512734
2085.039,23.40286221349345
2086.5857,33.80525032403688
2088.1317,24.00544533757605
2089.677,36.403478670731175
2091.2215,27.79938150006791
2092.7652,26.743184638117356
2094.3083,28.03491861941677
2095.8506,30.82461371107175
2097.3921,30.062299899838706
2098.933,30.948006864228006
2100.4731,30.8317639821272
2102.0124,24.813600321943994
2103.5511,28.79354464376857
2105.089,28.87162545955522
2106.6261,28.0978709933228
2108.1626,27.1723091803739
2109.6983,24.844967675032677
2111.2332,28.31587385990042
2112.7675,32.43505486912869
2114.301,31.452537553710528
2115.8337,23.91834844028824
2117.3657,25.28251374097897
2118.897,27.44505942871649
2120.4276,28.15601122360937
2121.9575,27.01539457131574
2123.4866,25.223234635933636
2125.0149,29.42955631140731
2126.5426,18.884384239448792
2128.0695,24.18774276747456
2129.5956,28.039656054057417
2131.1211,27.79014801589267
2132.6458,26.639242289279366
2134.1698,23.68696223261503
2135.693,21.733330937904725
2137.2155,26.87837126028387
2138.7373,24.77210583755462
2140.2584,25.51455703873549
2141.7787,24.205746985123966
2143.2983,27.24569754287205
2144.8171,23.084430336074405
2146.3353,19.171966716368757
2147.8527,24.7583278045486
2149.3693,25.443534529687838
2150.8853,19.927607573277157
2152.4005,24.660567362372007
2153.9149,24.49243412475164
2155.4287,23.973227841589818
2156.9417,23.10296824913587
2158.454,22.481674843907115
2159.9655,26.35936689139112
2161.4764,25.23606343225873
2162.9865,23.061783243587115
2164.4958,23.236544850093082
2166.0045,21.360366545875507
2167.5124,23.58326639266818
2169.0195,24.45526223860122
2170.526,23.176371695972364
2172.0317,19.746612132526906
2173.5367,19.91600068424654
2175.0409,15.1345542896469
2176.5445,26.55228968808376
2178.0473,16.619223467567252
2179.5494,18.485371950584977
2181.0507,21.550751293432256
2182.5513,21.315377467550775
2184.0512,23.029266228874633
2185.5504,19.542433120184285
2187.0488,18.704893453967514
2188.5465,20.716662347287922
2190.0435,18.177754730160245
2191.5397,26.388185325432687
2193.0353,22.097968674176116
2194.5301,25.657119053579407
2196.0241,22.71565051985195
2197.5175,17.523576872631935
2199.0101,19.03091168440133
2200.502,16.53766835240637
2201.9931,17.893860083584457
2203.4835,15.14949991949635
2204.9733,21.55460072276429
2206.4622,20.809175204515753
2207.9505,16.363235860332225
2209.438,14.616794977703591
2210.9248,20.16986468048748
2212.4109,13.022456946373609
2213.8962,20.424583551353095
2215.3809,18.476256141192437
2216.8648,14.077486157412551
2218.3479,16.928284856771768
2219.8304,19.17866335525352
2221.3121,15.628632599558586
2222.7931,17.278203344601224
2224.2733,17.82738618900939
2225.7529,16.57619155862932
2227.2317,15.874629701033342
2228.7098,14.92271069803192
2230.1872,11.220444472689309
2231.6638,15.26784079884294
2233.1397,13.364909338125813
2234.6149,14.561659599492685
2236.0894,14.458100958249275
2237.5632,10.054242644084752
2239.0362,11.650093742107487
2240.5085,13.045663236883513
2241.9801,8.99095999647804
2243.4509,12.585992758499515
2244.921,7.980770170646963
2246.3904,10.97530075475953
2247.8591,12.119592952868743
2249.3271,13.863655097252945
2250.7943,11.307495398994462
2252.2608,14.301121930539097
2253.7266,5.394542651257723
2255.1917,12.38776537750988
2256.656,11.430797871709814
2258.1197,8.973647772394088
2259.5826,5.566322603791377
2261.0447,8.058829800393994
2262.5062,10.501176741030946
2263.9669,10.493370723943059
2265.4269,10.43541894235949
2266.8862,7.67732848457581
2268.3448,5.969106334533279
2269.8026,9.260759399399973
2271.2598,9.802294526652759
2272.7162,9.593718471160969
2274.1719,11.985037889771007
2275.6268,5.7762593433920415
2277.0811,12.117389273083006
2278.5346,13.258434062140338
2279.9874,8.49939997268649
2281.4395,9.89029313425985
2282.8908,5.63111959140474
2284.3414,6.071885289762633
2285.7914,10.61259611866393
2287.2406,4.903257906720171
2288.689,12.443876376417109
2290.1368,8.484457201208244
2291.5838,10.97500593010804
2293.0302,10.165528027286655
2294.4758,10.15602884716401
2295.9206,7.996513642504965
2297.3648,11.436987564513998
2298.8082,4.477455684430538
2300.251,12.76792295912415
2301.693,9.558394300690168
2303.1343,9.798874493544872
2304.5748,2.8893682265206735
2306.0147,13.879880090461327
2307.4538,8.270414647317253
2308.8922,6.060976320240087
2310.3299,9.451569449677422
2311.7669,5.342198315467044
2313.2031,10.532867102931135
2314.6387,6.0735799439699605
2316.0735,10.3643408651551
2317.5076,5.705153832322424
2318.941,5.896022707664258
2320.3737,7.63695129632157
2321.8056,7.277943344475219
2323.2369,7.669002521936548
2324.6674,12.210132425737513
2326.0972,8.751336576220268
2327.5263,8.692618371625557
2328.9547,14.533981122680814
2330.3823,15.325428053187366
2331.8092,8.766962241606777
2333.2355,12.958586613146537
2334.661,9.450304005344492
2336.0858,4.1421171261527405
2337.5098,6.584028589020434
2338.9332,9.476040965975585
2340.3558,7.618156763206031
2341.7778,7.160378392139279
2343.199,13.802708188021299
2344.6195,6.145148414494315
2346.0393,7.13770119717357
2347.4583,6.730368600222832
2348.8767,6.973152616428948
2350.2943,5.26605517127517
2351.7113,5.309078120513263
2353.1275,2.6522232672345467
2354.543,5.6454923614395085
2355.9578,5.838887126606494
2357.3718,4.382409229759034
2358.7852,6.576060279531873
2360.1978,3.3198418407357337
2361.6098,6.2137554124208805
2363.021,8.957802460439282
2364.4315,10.05198438850546
2365.8413,10.29630251075585
2367.2504,7.040758040807262
2368.6587,6.8853520893135
2370.0664,5.430085696520848
2371.4733,5.474959833822197
2372.8795,13.119975418309622
2374.285,7.2651333123256165
2375.6899,4.310434247013021
2377.0939,2.5058788808634347
2378.4973,7.801467829264112
2379.9,9.697201682543565
2381.3019,5.343080953015729
2382.7032,5.68910605602251
2384.1037,8.335277353475107
2385.5035,5.281595150393699
2386.9027,3.178059668445826
2388.3011,6.374671076483253
2389.6987,5.971429511577128
2391.0957,3.5683350470519315
2392.492,8.815387696517902
2393.8876,6.762587437901928
2395.2824,7.109934160977076
2396.6765,5.65742768789066
2398.07,5.955067769690686
2399.4627,3.35285410085082
2400.8547,2.600786316294176
2402.246,4.498864017415357
2403.6366,4.097086779601099
2405.0265,5.095454133249646
2406.4156,0.79396556778849
2407.8041,6.342620521690677
2409.1918,5.041418425489667
2410.5789,3.8903586462927677
2411.9652,5.089440500793131
2413.3508,4.088663266780429
2414.7358,0.48802617115003954
2416.12,2.987528399910744
2417.5035,3.93716426368988
2418.8863,1.936928043239476
2420.2684,6.986813979940052
2421.6497,2.186816295802842
2423.0304,6.536929142970976
2424.4104,6.537146651719553
2425.7896,1.4374628869542931
2427.1682,4.237871848209508
2428.546,5.688367520644945
2429.9232,3.8889438470416167
2431.2996,0.7895947132970349
2432.6753,2.040313966419248
2434.0503,5.341095445520409
2435.4246,8.591932969309653
2436.7982,4.192820303085128
2438.1711,3.3937511262256805
2439.5433,3.744719076182079
2440.9148,6.445717756467488
2442.2856,0.7467407331479592
2443.6557,1.8477815078323943
2445.025,2.648833574662376
2446.3937,6.749890409301699
2447.7617,2.8509454609258995
2449.1289,5.001992111211706
2450.4955,2.9530237133263455
2451.8613,5.904033570417184
2453.2265,7.555014956101374
2454.5909,7.255961084955757
2455.9546,4.856865096007013
2457.3177,1.6077200557222824
2458.68,0.008518982000069286
2460.0416,3.2092548766616744
2461.4025,4.009920656423745
2462.7627,3.3605092059104607
2464.1222,4.511013369646847
2465.4811,5.211425958552837
2466.8392,7.011739738438351
2468.1966,3.561947422999083
2469.5533,4.062041655813317
2470.9093,6.712015044839902
2472.2645,6.361860157417254
2473.6191,4.261569493763716
2474.973,6.161135490479026
2476.3262,3.1105505415474113
2477.6787,9.209806979341764
2479.0305,7.558897105129489
2480.3816,10.857813128080053
2481.7319,5.656547181773945
2483.0816,5.955091291213492
2484.4306,5.153437424835573
2485.7789,5.551577491526302
2487.1264,5.349503348637384
2488.4733,7.547206798004865
2489.8195,7.994679587969742
2491.165,5.59191339140105
2492.5097,4.438899801221112
2493.8538,2.7356303544330984
2495.1972,8.582096543651303
2496.5398,6.32828983413377
2497.8818,3.4242016053175917
2499.2231,5.76982317335694
2500.5637,7.115145820164116
2501.9035,8.3101607699532
2503.2427,11.554859175786888
2504.5812,7.799232107626324
2505.919,8.193270519884095
2507.256,3.4869652889805423
2508.5924,2.880307209403256
2509.9281,9.873287040770194
2511.2631,7.615895513896319
2512.5974,2.408123260863661
2513.9309,6.599960837595319
2515.2638,6.791398775933061
2516.596,7.63242754171911
2517.9275,6.373037532881668
2519.2583,11.41321907102487
2520.5884,6.652962414022468
2521.9178,3.8922577056161174
2523.2465,9.231095023017957
2524.5745,3.569464404517774
2525.9018,3.557355796094427
2527.2284,1.694759108032244
2528.5543,2.7316642150420876
2529.8796,8.91806097488724
2531.2041,10.50393921801448
2532.5279,7.839288685690022
2533.851,14.074099014140728
2535.1735,4.008359761200595
2536.4952,4.5420603439626035
2537.8163,11.72519013943618
2539.1366,6.957738479210178
2540.4562,8.239694577621592
2541.7752,8.671047579430095
2543.0935,10.351786546998483
2544.411,9.081900455979124
2545.7279,9.011378178506533
2547.0441,11.490208495896269
2548.3596,13.918380099350117
2549.6744,9.345881565167815
2550.9885,9.622701330465333
2552.3019,10.398827738899882
2553.6146,11.124249037901635
2554.9266,9.398953370912565
2556.2379,5.672928770132231
2557.5485,8.646163173770702
2558.8585,10.968644463308806
2560.1677,12.540360433765755
2561.4762,8.461298770474372
2562.7841,10.731447033363892
2564.0913,10.750792697750612
2565.3977,10.619323131636406
2566.7035,13.687025595515152
2568.0086,10.403887243687592
2569.313,15.069895093584265
2570.6167,12.085036058596842
2571.9197,9.249296901418148
2573.222,16.71266426389063
2574.5236,4.875124695363823
2575.8246,13.23666457806064
2577.1248,15.797270245452836
2578.4244,10.256927898645472
2579.7232,13.465623580770995
2581.0214,14.373343232392614
2582.3189,13.380072659417422
2583.6157,14.585797524019043
2584.9118,9.840503354570487
2586.2072,11.84417553358685
2587.5019,14.496799345178246
2588.7959,13.848359955013066
2590.0893,17.548842383791822
2591.3819,16.948231513731457
2592.6739,15.546512051560526
2593.9652,17.443668534525315
2595.2557,14.739685344407036
2596.5456,19.1845466885503
2597.8348,16.678236626902887
2599.1234,20.22073902756719
2600.4112,20.362037591863242
2601.6983,21.10211581890377
2602.9848,18.34095700418102
2604.2705,16.57854423216628
2605.5556,18.964860403921193
2606.84,19.349888254722032
2608.1237,16.28361033019651
2609.4067,19.61600898247353
2610.689,17.94706640084594
2611.9707,15.17676457844648
2613.2516,16.155085328937275
2614.5319,15.182010314212874
2615.8115,16.457521034616917
2617.0903,14.781598838673077
2618.3685,18.004224910329768
2619.6461,16.775380285719507
2620.9229,17.39504582093258
2622.199,17.113202204305495
2623.4745,17.579829950224394
2624.7493,12.794909401943414
2626.0234,16.408420726918365
2627.2968,17.47034396465611
2628.5695,18.03065899057927
2629.8415,20.139345505407064
2631.1128,14.446383029552194
2632.3835,20.801750882033886
2633.6535,11.705428237407588
2634.9228,14.607394062211284
2636.1914,15.207627205928759
2637.4593,16.50610637196985
2638.7265,17.852810111668234
2639.9931,16.147716811296505
2641.259,15.890804678599125
2642.5242,14.032051759843526
2643.7887,13.521435942389104
2645.0525,16.908934973274782
2646.3156,13.844526464325156
2647.5781,17.578187858275484
2648.8398,18.859896459415822
2650.1009,11.089629396254352
2651.3613,13.417363608700398
2652.6211,13.443075925766976
2653.8801,14.716743042293544
2655.1385,15.238341518688813
2656.3961,13.257847768194068
2657.6531,15.725238051667247
2658.9094,15.290488497387756
2660.1651,16.353575076382768
2661.42,14.11447360677451
2662.6743,14.02315974314952
2663.9279,17.62960899894965
2665.1808,17.03379674738521
2666.433,21.035698185370478
2667.6846,15.185288339481787
2668.9354,18.632542025938548
2670.1856,17.677433909107307
2671.4351,16.969938467029223
2672.6839,17.71003000097116
2673.9321,18.397682642500598
2675.1795,21.73287034608478
2676.4263,23.265566882214117
2677.6724,23.695745804050347
2678.9179,23.17338043209962
2680.1626,21.798443849910626
2681.4067,17.72090890929826
2682.6501,21.940748244093015
2683.8928,18.90793431091626
2685.1348,14.172439346981932
2686.3761,20.434235400424697
2687.6168,19.693294377654894
2688.8568,19.049587980740526
2690.0961,15.953087714816704
2691.3348,20.303764894522658
2692.5727,18.451590674966795
2693.81,16.096536008219914
2695.0466,15.888571661836878
2696.2826,15.177668242407279
2697.5178,14.613796197634954
2698.7524,18.546925823447154
2699.9863,15.177027269633129
2701.2195,18.354070500512947
2702.452,17.528025328636417
2703.6839,22.54886138301272
2704.9151,18.966548117370834
2706.1456,21.131054759951112
2707.3755,24.24235034932846
2708.6046,22.85040371276733
2709.8331,25.20518343510865
2711.0609,24.90665787268928
2712.2881,26.40479512979431
2713.5145,25.749563061642263
2714.7403,31.240929259403714
2715.9654,29.028861056753627
2717.1899,29.613325474957747
2718.4136,38.49428924499321
2719.6367,38.77171880170404
2720.8591,35.945580194991365
2722.0809,41.465839087039114
2723.3019,47.332460780575474
2724.5223,43.645410163670206
2725.7421,41.55465165106861
2726.9611,45.460149221061855
2728.1795,38.31186643639464
2729.3972,38.409766405210235
2730.6142,36.65381185253328
2731.8306,34.093965119290786
2733.0462,35.13018817987165
2734.2612,32.51244266772511
2735.4756,30.89068986499855
2736.6892,25.264890728715002
2737.9022,27.28500590699059
2739.1145,19.00099579529254
2740.3262,22.36282051623813
2741.5372,18.070440002434623
2742.7475,18.17381396286116
2743.9571,20.622901925792533
2745.1661,19.417663237765424
2746.3744,12.858057039087583
2747.582,14.944042275890084
2748.7889,11.725577765723557
2749.9952,7.802622176698165
2751.2008,10.875134059668383
2752.4057,12.493071887462477
2753.61,11.006394024157416
2754.8136,8.415058708899522
2756.0165,8.619024070771204
2757.2188,3.3682481547042897
2758.4204,6.912688919440441
2759.6213,5.802304290038805
2760.8215,8.637052122431726
2762.0211,9.61689021452851
2763.22,5.2417762778679275
2764.4182,7.111667927819909
2765.6158,5.176522727336675
2766.8127,4.386298168253774
2768.009,4.190951690641555
2769.2045,1.6904406907074048
2770.3994,-0.36527747725081383
2771.5936,2.923754524160401
2772.7872,-0.3425023185434526
2773.9801,0.5859129519156028
2775.1723,0.8589647144136308
2776.3639,-0.023382658032332415
2777.5548,2.1388351990051007
2778.745,1.2455828835460494
2779.9346,-3.453175027777718
2781.1235,-3.507473970790201
2782.3117,0.23268511590309515
2783.4992,-1.8826636666383507
2784.6861,-0.9034862196818807
2785.8723,-4.179729636684783
2787.0579,1.5886680147229697
2788.2428,-2.0981895775895367
2789.427,0.5598012583601815
2790.6106,-3.787234844531568
2791.7935,-0.9391732589664201
2792.9757,0.4041484768299881
2794.1573,1.2929022069728973
2795.3382,3.677259771536029
2796.5184,-1.0426070023358989
2797.698,-1.6665263242707056
2798.8769,2.755684011747661
2800.0551,2.8242228603331654
2801.2327,2.1392890485430343
2802.4096,9.351081375192365
2803.5859,7.0097986177032965
2804.7615,8.565639459987239
2805.9364,14.018802515857729
2807.1106,11.119486313471853
2808.2842,10.417889240798829
2809.4572,17.014209574612906
2810.6294,23.558645487509523
2811.801,23.001394981941957
2812.972,26.492655824777074
2814.1423,36.88262555286781
2815.3119,38.1215014381406
2816.4808,46.20948038369568
2817.6491,57.69675891141834
2818.8167,65.58353308109906
2819.9837,69.96999837556078
2821.15,76.10634962179114
2822.3157,95.29278094707779
2823.4807,106.72948571764496
2824.645,117.11665634678904
2825.8086,133.0544841805116
2826.9716,154.14315939364778
2828.134,160.43287083048784
2829.2957,180.12380579389048
2830.4567,181.96614998238573
2831.617,194.11008729326562
2832.7767,196.35579980416065
2833.9358,191.15346765160072
2835.0941,189.8032690085575
2836.2519,183.30538013646805
2837.4089,181.80997539873704
2838.5653,174.567227325715
2839.7211,166.77730662965303
2840.8761,164.14038227712985
2842.0306,161.00662156695122
2843.1843,164.87619015651896
2844.3374,163.74925209316888
2845.4899,170.97596977547482
2846.6417,177.1565039645182
2847.7928,188.84101371162083
2848.9433,192.07965629653944
2850.0931,200.87258711062054
2851.2422,199.7199596244144
2852.3907,204.67192529974506
2853.5385,214.37863360123717
2854.6857,220.69023194679608
2855.8323,223.256865610541
2856.9781,233.87867765968872
2858.1233,234.6558089288874
2859.2679,250.33839791399853
2860.4118,256.92658076432554
2861.555,263.4204911257878
2862.6976,273.370260075039
2863.8395,281.82601605452805
2864.9808,279.98788477300116
2866.1214,281.8559891209443
2867.2614,284.18044918896476
2868.4007,285.01138224911017
2869.5393,299.1489027316233
2870.6773,296.1931222166334
2871.8146,296.09414929278074
2872.9513,297.3520895867743
2874.0874,301.86704576438177
2875.2227,301.4391175178498
2876.3574,304.1684015207548
2877.4915,305.75499143228205
2878.6249,304.79897786993286
2879.7577,300.60044839365867
2880.8898,300.50948751542114
2882.0212,306.77617674117766
2883.152,307.40059457179046
2884.2821,296.1828164403604
2885.4116,307.57291470598227
2886.5405,306.0709587659229
2887.6686,313.4770149417198
2888.7962,309.64114649420105
2889.923,314.86341354942465
2891.0493,311.04387313703705
2892.1748,317.432579138051
2893.2997,317.42958232304
2894.424,327.43493028825236
2895.5476,317.6486674556404
2896.6706,318.1208349728072
2897.7929,326.4014708108692
2898.9145,322.99060975973464
2900.0355,321.0882833452969
2901.1559,326.3445198635435
2902.2756,334.0093443995792
2903.3946,332.13277877506357
2904.513,337.86484147156284
2905.6308,340.5055476493154
2906.7479,341.4549090899113
2907.8643,344.01293416988517
2908.9801,341.27962785122253
2910.0953,347.2549916557796
2911.2098,343.5390236926165
2912.3236,345.03171859824363
2913.4368,344.48306757378066
2914.5494,337.74305837003084
2915.6613,330.91167529296615
2916.7725,333.2888992711285
2917.8831,319.3747079239428
2918.9931,321.7190755379451
2920.1024,314.2219732059244
2921.211,304.88336880347913
2922.319,299.3032270639878
2923.4264,302.38150967199545
2924.5331,302.46817531901473
2925.6391,302.9131796727434
2926.7445,302.11647537619746
2927.8493,297.82801204326114
2928.9534,300.64773626665396
2930.0569,306.2255916608152
2931.1597,308.1615188337072
2932.2619,312.205455331036
2933.3634,316.2073356168927
2934.4643,316.317091033314
2935.5645,314.1346497602632
2936.6641,320.2599368145326
2937.763,316.8928740715685
2938.8613,312.3333802042173
2939.959,306.73137071639724
2941.056,307.88675798869235
2942.1523,292.09945133437327
2943.248,272.3193569878431
2944.3431,249.84637826251037
2945.4375,238.2804157485901
2946.5313,223.2713675378336
2947.6244,209.81912933918795
2948.7169,189.77359462888666
2949.8087,173.03465478497202
2950.8999,160.8521992877502
2951.9904,145.87611588718113
2953.0803,135.90629072470256
2954.1696,125.94260848299133
2955.2582,121.33495248566132
2956.3462,111.08320479690033
2957.4335,106.73724626754668
2958.5202,103.54695663760668
2959.6062,102.56221457971427
2960.6916,104.33289773103374
2961.7764,95.6588827031074
2962.8605,94.74004506414842
2963.9439,97.22625942578138
2965.0267,89.76739945223028
2966.1089,94.91333783545662
2967.1905,89.21394636974786
2968.2714,92.16909590025827
2969.3516,88.67865638000265
2970.4312,95.34249684030493
2971.5102,89.5104854257025
2972.5885,93.73248932730783
2973.6662,96.15837484112865
2974.7432,97.98800732584773
2975.8196,100.72125117856427
2976.8954,101.30796981649735
2977.9705,96.4480256496536
2979.045,96.39128007495995
2980.1188,95.78759352486318
2981.192,93.58682546789734
2982.2645,89.9388344147205
2983.3364,91.79347794012251
2984.4077,83.80061271950491
2985.4783,85.56009451033451
2986.5483,83.42177823207204
2987.6177,72.23551794857738
2988.6864,65.45116688949261
2989.7545,67.26857756210474
2990.8219,56.23760181918908
2991.8887,54.85809084083532
2992.9548,46.32989524475707
2994.0204,43.952865100087095
2995.0852,38.826850012659236
2996.1495,35.95169914877873
2997.2131,26.677261286482334
2998.276,28.05338484428985
2999.3383,18.279917973948557
3000.4,20.056708546671885
3001.4611,12.08360425087416
3002.5215,14.660452574402655
3003.5812,12.987100884268585
3004.6404,5.613396400878713
3005.6989,10.539186214768762
3006.7567,6.01431736034057
3007.8139,5.688636766604112
3008.8705,3.861991302426233
3009.9264,3.434227779787463
3010.9818,2.8551929720484566
3012.0364,1.6747336182275632
3013.0905,-0.007303571208716164
3014.1439,1.308928097458761
3015.1966,-3.126724609088143
3016.2487,0.5355850627431167
3017.3002,2.0957351025239106
3018.3511,1.8536034944698159
3019.4013,-1.1909317981608964
3020.4509,-0.38799283064599166
3021.4998,-1.3376897608546017
3022.5481,-1.3901288706074766
3023.5958,-0.8454030782046686
3024.6428,-2.1535914145588535
3025.6892,-3.214764465005949
3026.735,-0.37897130050366457
3027.7802,-1.3462288765127255
3028.8247,2.3834496374294005
3029.8685,3.710064520611688
3030.9118,-1.3663839715113824
3031.9544,3.454104379414048
3032.9963,5.1715434419176844
3034.0376,3.785947049988245
3035.0783,0.5473289858990498
3036.1184,-0.744297005936069
3037.1578,4.711082813423445
3038.1966,3.7134896184452444
3039.2348,5.612944536486182
3040.2723,9.00946865776828
3041.3092,5.20308301638412
3042.3455,4.693808556331618
3043.3811,5.231666169577807
3044.4161,9.166676701151665
3045.4505,11.298860943765547
3046.4842,5.6782395984650265
3047.5173,10.704833253307129
3048.5498,7.628662439566469
3049.5816,9.449747581469374
3050.6128,9.268109026955557
3051.6434,10.03376702946727
3052.6734,8.996741749765711
3053.7027,10.25705324827441
3054.7314,9.014721495449507
3055.7594,14.769766359176614
3056.7868,11.92220761719419
3057.8136,14.122064899543012
3058.8398,13.369357717041815
3059.8653,13.214105439288701
3060.8902,14.556327302188222
3061.9145,15.146042409503885
3062.9381,11.883269719435916
3063.9612,19.718028038724178
3064.9835,18.45033605527582
3066.0053,18.68021225981773
3067.0264,17.257674958573425
3068.0469,17.53274227096437
3069.0668,16.655432143835256
3070.086,16.825762348703392
3071.1046,13.393750490531772
3072.1226,14.05941400602584
3073.1399,16.97277019795351
3074.1567,16.93383622848861
3075.1727,14.09262909007726
3076.1882,14.599165605827281
3077.203,12.35346245792018
3078.2173,12.605536182545848
3079.2308,13.005403192359545
3080.2438,11.703079773961193
3081.2561,12.548582083896697
3082.2678,8.291926161681175
3083.2789,11.033127921343961
3084.2893,9.772203193995132
3085.2991,7.359167700413529
3086.3083,9.044037063655978
3087.3169,8.926826833187619
3088.3248,8.507552468033268
3089.3321,7.286229337949475
3090.3388,10.512872727617282
3091.3449,7.237497848855458
3092.3503,8.460119808354058
3093.3551,6.080753640428192
3094.3593,2.749414294791773
3095.3629,6.366116660351203
3096.3658,7.180875598518728
3097.3681,8.943705907045441
3098.3698,4.104622311873726
3099.3708,5.563639449508887
3100.3713,6.020771915410055
3101.3711,4.4760342493999445
3102.3702,4.1294409310935905
3103.3688,3.6310063953456826
3104.3667,5.5307450357165
3105.364,3.928671209456283
3106.3607,3.2747992185078374
3107.3568,3.919143325527262
3108.3522,6.56171776042267
3109.347,4.502536713910786
3110.3412,4.541614311091159
3111.3348,1.9289646320379923
3112.3277,3.6146017114093283
3113.32,3.2985395645735878
3114.3117,4.230792170753194
3115.3028,3.1113734761851575
3116.2932,0.5902973847986246
3117.2831,4.717577769408987
3118.2723,6.343228496928685
3119.2608,1.817263387094382
3120.2488,5.789696196210475
3121.2361,3.010540662408747
3122.2229,3.729810465924025
3123.209,1.347519256885743
3124.1944,5.213680648125258
3125.1793,7.228308238998746
3126.1635,4.6414155767255885
3127.1471,2.5030161362420813
3128.1301,1.8631233460703704
3129.1125,1.7717506097024511
3130.0942,5.328911311999082
3131.0753,1.5346188201035424
3132.0558,0.8888864478700036
3133.0357,-0.2082725061935271
3134.015,5.643155247532082
3134.9936,2.9931850793083044
3135.9716,4.591832302965049
3136.949,5.5391122024003785
3137.9258,1.7350400155940626
3138.902,2.5796309251347473
3139.8775,2.3729000962606897
3140.8524,2.214862668413849
3141.8267,2.105533757307178
3142.8004,1.544928456505028
3143.7735,7.683061838516402
3144.7459,5.969948960401041
3145.7178,5.705604802388056
3146.689,3.890044285007072
3147.6596,3.9232822717316687
3148.6295,5.055333587134989
3149.5989,4.0862130165573625
3150.5676,6.615935294785787
3151.5357,4.794515115745142
3152.5032,6.621967107200961
3153.4701,2.498305848973626
3154.4364,5.923545854663864
3155.402,2.7477016128893403
3156.367,7.170787553032255
3157.3315,5.842818076997812
3158.2952,3.3138075149833455
3159.2584,4.183770138758012
3160.221,6.952720186952904
3161.1829,7.870671856361435
3162.1442,4.887639274249805
3163.105,7.853636489177509
3164.065,5.368677500827646
3165.0245,5.982776230346943
3165.9834,7.045946545195362
3166.9416,6.458202253005101
3167.8993,2.6695570909488975
3168.8563,6.230024731617476
3169.8127,10.789618820905993
3170.7684,5.198352942409363
3171.7236,5.256240571826323
3172.6782,6.213295132872078
3173.6321,6.569529996699429
3174.5854,8.424958472328232
3175.5381,6.129593803083041
3176.4902,5.333449148038829
3177.4417,7.936537604974632
3178.3926,6.738872218334999
3179.3428,7.290465953199111
3180.2924,7.341331707257424
3181.2415,7.491482305295739
3182.1899,8.790930498686546
3183.1377,7.939688963887506
3184.0848,8.687770289446965
3185.0314,8.985186984516393
3185.9773,8.581951471369548
3186.9227,9.228076082428334
3187.8674,10.173573064295129
3188.8115,7.718454571291559
3189.755,6.812732656003522
3190.6979,10.20641929383237
3191.6402,8.749526392052132
3192.5818,8.992065755872654
3193.5229,8.234049103008521
3194.4633,9.375488061253675
3195.4031,10.916394176061571
3196.3423,8.506778899130792
3197.2809,7.896653572995973
3198.2189,8.536029455123973
3199.1563,8.674917724015115
3200.0931,9.463329472809434
3201.0292,8.151275707897787
3201.9648,10.488767341037738
3202.8997,10.075815202474091
3203.834,11.312430017563976
3204.7677,9.598622410906357
3205.7008,13.934402893975902
3206.6333,10.669781882261058
3207.5652,8.554769651906241
3208.4964,9.639376372358054
3209.4271,13.573612127515386
3210.3571,9.157486904883372
3211.2865,14.141010556231022
3212.2154,11.07419284175248
3213.1436,11.857043380231794
3214.0712,13.23957167971108
3214.9982,12.371787129662033
3215.9246,9.70369898716061
3216.8503,10.88531638556492
3217.7755,11.466648361196071
3218.7001,14.29770384152201
3219.624,12.8284916393442
3220.5473,16.45902042448708
3221.4701,14.58929873849013
3222.3922,11.569334958302678
3223.3137,13.599137314981053
3224.2346,13.028713923888247
3225.1549,9.158072764395868
3226.0746,12.437221685588387
3226.9937,13.216168444969531
3227.9121,13.594920675670801
3228.83,12.223485878662007
3229.7473,11.951871418963739
3230.6639,13.880084539361745
3231.5799,13.408132363123048
3232.4954,14.336021874713829
3233.4102,15.763759924518908
3234.3244,13.591353219562889
3235.238,16.51880830923276
3236.151,14.39613160700199
3237.0634,14.023329361155973
3237.9752,15.100407676018785
3238.8864,11.777372515681181
3239.797,12.45422969322985
3240.7069,13.930984903977727
3241.6163,13.407643718695475
3242.5251,18.484211568843882
3243.4332,12.210693751807302
3244.3408,17.737095380127986
3245.2477,16.813421444241218
3246.154,16.28967675721134
3247.0598,15.16586596396846
3247.9649,12.191993546545913
3248.8694,15.968063835318334
3249.7733,15.544081038740448
3250.6766,15.87004920558633
3251.5793,17.49597222918925
3252.4814,14.971853844181975
3253.3829,14.747697610237555
3254.2838,15.473506937310509
3255.1841,15.74928508787836
3256.0838,17.82503516968356
3256.9829,16.2507601329757
3257.8814,15.876462749754044
3258.7792,15.90214562951028
3259.6765,14.577811222971466
3260.5731,15.003461821843194
3261.4692,15.629099572052931
3262.3647,16.15472646949353
3263.2595,17.280344353766836
3264.1538,16.35595490292743
3265.0474,17.331559622226457
3265.9404,19.507159853355496
3266.8329,17.632756764690527
3267.7247,16.35835132953593
3268.616,16.93394434486853
3269.5066,16.759536444081608
3270.3966,14.08512809122902
3271.286,15.56071958276924
