RamanShift,CorrectedData
30.1047,1249.5926022723863
32.3739,1158.2201885857783
34.6426,1067.197762403244
36.9109,981.6252996466557
39.1787,894.5527655659075
41.4461,804.3301155946406
43.7131,720.257296220968
45.9796,629.9342458897011
48.2456,542.0608958430779
50.5112,456.03717102399344
52.7764,368.56299095473366
55.0411,279.4882705972126
57.3054,191.31292122771418
59.5692,110.73685132763956
61.8326,25.309967465260684
64.0955,-59.967824898519126
66.3579,-141.1466205558961
68.6199,-216.12591522049587
70.8815,-281.3537945512048
73.1426,-293.8261851090167
75.4032,-196.38620273051737
77.6634,203.37597207129602
79.9231,1251.4221206815912
82.1824,3623.014022451777
84.4412,7966.113444219039
86.6995,14006.732116590425
88.9574,19868.33169051185
91.2148,23875.97367686191
93.4717,25659.519387835877
95.7282,25840.729896869296
97.9842,25572.466020802513
100.2398,24832.988318068576
102.4949,24062.157091375877
104.7495,23103.38239510293
107.0036,22145.774043006662
109.2573,21279.441617810193
111.5105,20443.894480778898
113.7632,19659.091780383733
116.0154,19008.39246065672
118.2672,18486.50526903895
120.5185,17906.238762887613
122.7693,17539.00131469482
125.0197,17123.25111789031
127.2696,16760.54619051382
129.519,16475.694379372562
131.7679,16122.50336366829
134.0163,15829.380657845813
136.2642,15474.883615124927
138.5117,15081.019430431596
140.7587,14726.995143942971
143.0052,14382.967645026007
145.2512,13984.443675777697
147.4967,13661.379834465373
149.7417,13367.882579511921
151.9863,13130.758232726432
154.2304,12968.51298223918
156.4739,12747.402884872841
158.717,12576.683867764992
160.9596,12291.76173057916
163.2017,11962.59214721204
165.4433,11620.130668642716
167.6844,11188.832726224347
169.925,10815.55363510879
172.1651,10368.448598559575
174.4047,10015.172711684694
176.6439,9657.080965907659
178.8825,9320.928252500255
181.1206,9106.519366163458
183.3582,8861.25900838897
185.5954,8687.651789603293
187.832,8539.35223162034
190.0681,8408.764769377512
192.3037,8330.193752418692
194.5388,8220.793446200114
196.7734,8184.01803287608
199.0075,8185.471612392954
201.2411,8218.808202856926
203.4742,8235.381740519475
205.7068,8315.446079443991
207.9389,8333.404991340063
210.1704,8405.712164762816
212.4015,8438.02120493332
214.632,8545.33563301554
216.862,8660.358885793219
219.0915,8697.594314596754
221.3205,8782.495184152947
223.549,8934.76467221267
225.777,9068.155868701837
228.0044,9265.271774198727
230.2314,9498.365298600052
232.4578,9715.48925914981
234.6837,9901.396378108353
236.909,10005.989280581143
239.1339,9897.970492659679
241.3582,9695.142440375574
243.582,9360.60745078074
245.8053,9059.667753975667
248.0281,8778.675486454773
250.2503,8564.432694115796
252.472,8441.841335069734
254.6932,8390.353281783251
256.9139,8357.120322304618
259.134,8352.094160778566
261.3536,8415.27641777863
263.5727,8502.868630357401
265.7912,8516.722251414714
268.0092,8576.188648821715
270.2267,8595.96910528233
272.4436,8532.964817738608
274.6601,8456.826897172901
276.8759,8281.35636923792
279.0913,8164.454175018114
281.3061,7997.871172784367
283.5204,7923.758139163036
285.7341,7928.665770801757
287.9473,7957.644685110599
290.16,8052.445420212973
292.3721,8246.36843465585
294.5837,8563.914106461745
296.7947,8772.432731189505
299.0052,8904.524518758833
301.2152,8745.989591365094
303.4246,8427.927982158431
305.6334,7877.939636829082
307.8418,7353.974416788018
310.0495,6905.73210466682
312.2568,6480.062409557326
314.4635,6143.464971494057
316.6696,5905.189365710916
318.8752,5746.035106007166
321.0802,5696.351647130172
323.2847,5742.88838636696
325.4887,5720.844664041035
327.692,5599.869763047029
329.8949,5506.4629090711205
332.0972,5213.723271800798
334.2989,4910.9999658589295
336.5001,4622.242053731148
338.7007,4377.0985487930975
340.9008,4203.368418197995
343.1003,4011.0505853280865
345.2992,3910.99393153193
347.4976,3838.847298047589
349.6955,3740.7594870031844
351.8927,3748.9792621383713
354.0895,3647.755349785217
356.2856,3626.4364387860023
358.4812,3543.571181505453
360.6763,3533.9081940439373
362.8707,3505.0960570661246
365.0646,3472.583315897602
367.258,3459.7184808130132
369.4508,3506.400027361162
371.643,3560.9763964936774
373.8346,3520.245994098186
376.0257,3514.607190452556
378.2162,3438.6583206321993
380.4062,3349.097684566448
382.5956,3170.423547798069
384.7844,3036.7841423788595
386.9726,2882.577668656384
389.1603,2783.9522966103814
391.3474,2716.8561673948097
393.5339,2647.3373943241113
395.7199,2548.2440635441653
397.9052,2567.924234727485
400.09,2574.7759420641396
402.2743,2636.4971940649684
404.4579,2724.885973493054
406.641,2899.8902367465053
408.8235,3044.257912974568
411.0054,3265.7369023276024
413.1868,3583.0250745133853
415.3675,3783.6702665823323
417.5477,3862.120279754612
419.7273,3841.7228774136966
421.9064,3705.9257843218566
424.0848,3603.1766868241393
426.2627,3392.0732342063384
428.4399,3093.3630397224806
430.6166,2721.2936827058747
432.7928,2341.2127115562052
434.9683,2019.7676474602304
437.1432,1775.4559881925816
439.3176,1577.8252113302187
441.4914,1458.922776695541
443.6645,1398.6961283327073
445.8371,1311.9926956966447
448.0091,1274.2098942553166
450.1806,1214.145126356776
452.3514,1157.1957816069735
454.5216,1167.1092374704112
456.6913,1068.2328598396398
458.8603,1085.3640029361122
461.0288,1162.7000102989605
463.1967,1114.9382146136813
465.3639,1200.5759369387706
467.5306,1224.0104871833464
469.6967,1309.6891632507723
471.8622,1360.25925080432
474.0271,1460.11802241037
476.1914,1522.9127370327242
478.3551,1466.140639033998
480.5182,1510.8489575476979
482.6807,1543.5849070459244
484.8426,1685.7456868922927
487.0039,1953.3784810145808
489.1647,2295.5304564831076
491.3248,2664.948760834426
493.4843,2828.6805186497804
495.6432,2790.72282786094
497.8015,2635.3727581128733
499.9592,2615.0773511433254
502.1163,2441.633622336316
504.2728,2199.9885609250978
506.4287,1915.3891317265952
508.5839,1508.63227755785
510.7386,1226.0149220820167
512.8927,1086.2339738759347
515.0461,1002.9863292562986
517.199,1006.6188736774584
519.3512,1062.8784825639068
521.5029,1202.1620212739563
523.6539,1361.6163445371312
525.8043,1365.7382950613464
527.9541,1358.8747019383518
530.1033,1261.0223806025188
532.2519,1218.4781328994832
534.3999,1253.9887480646648
536.5472,1423.4510031487116
538.694,1784.1616626623854
540.8401,2242.467476881933
542.9856,2617.515178242009
545.1305,2708.701476752589
547.2748,2586.7730562485103
549.4185,2281.176573477598
551.5615,2044.358659319947
553.704,1955.715921843892
555.8458,1955.9949486741934
557.987,2059.2923078784443
560.1276,2133.1045479643
562.2675,2299.428196846502
564.4069,2520.2097611087447
566.5456,2717.5957243404555
568.6837,2702.932544928968
570.8212,2373.116654085661
572.958,1887.4944559925934
575.0942,1472.5623311006693
577.2299,1194.366640985856
579.3648,1072.5037324985005
581.4992,1106.7699405452822
583.6329,1270.7115893078499
585.766,1480.6249919001639
587.8985,1615.6564487290616
590.0304,1592.7022453951395
592.1616,1551.65865134243
594.2922,1432.4219200879452
596.4222,1282.5882896321182
598.5515,1101.653983651162
600.6802,926.715212995412
602.8083,762.568177498677
604.9358,736.9590677276101
607.0626,692.3340666231925
609.1888,749.0393497568202
611.3144,767.4710857765549
613.4393,752.5254358400725
615.5636,750.5485534303516
617.6873,732.0365845051219
619.8103,661.0856675166378
621.9327,529.9419335967905
624.0544,426.40150726661886
626.1756,354.0105077477474
628.2961,270.81504999779827
630.4159,188.91124543428668
632.5351,145.5452027665906
634.6537,133.26302881497395
636.7716,131.660828944252
638.8889,146.2347071866152
641.0056,195.33076625763715
643.1216,137.44510741055637
645.237,149.32382994531508
647.3518,127.91303178740236
649.4659,101.35880936908143
651.5793,106.70725784349997
653.6922,91.00447135022478
655.8043,47.29654296175431
657.9159,79.62956484054666
660.0268,-16.850371323907893
662.137,-6.097174638396609
664.2466,-1.714585874509794
666.3556,3.943715106943273
668.4639,-38.72593442614561
670.5716,-23.277236603593337
672.6786,36.58649331685592
674.785,37.31217261705024
676.8907,93.44671821298107
678.9958,144.63704664752913
681.1002,115.33007352911773
683.204,95.27271301980363
685.3072,49.36187812834942
687.4097,19.34448091079321
689.5115,3.8674329295554344
691.6127,-9.822354446378085
693.7132,-50.1780084836937
695.8131,-61.30255832376315
697.9123,-76.94853182966108
700.0109,-68.61784445191552
702.1089,-58.76164292522844
704.2061,-30.680388492028214
706.3028,12.476044634053324
708.3987,79.85808873646965
710.4941,149.8661759739134
712.5887,245.8507377065198
714.6827,441.01220379574806
716.7761,702.7510016445649
718.8688,1020.1175542458132
720.9608,1187.3122775648262
723.0522,1267.7855773657702
725.1429,1221.2878475396774
727.233,1092.0694692997513
729.3224,1014.7808116463202
731.4112,810.3722326590305
733.4993,633.3440802697351
735.5867,462.1466943065552
737.6735,303.2804082641778
739.7596,214.14555101583392
741.845,144.0424484019495
743.9298,102.37142412150934
746.014,103.08280043308332
748.0974,114.52689857152654
750.1802,109.40403874087497
752.2624,140.61453999990772
754.3439,188.85872031335566
756.4247,265.7868962398152
758.5048,415.04938244930054
760.5843,683.0464909539623
762.6631,1065.0285296154634
764.7413,1588.2957994649933
766.8188,2206.948590883476
768.8956,2701.087178368889
770.9718,3019.561814349725
773.0473,2910.5227242436104
775.1221,2639.320103272559
777.1962,2311.2041175533577
779.2697,2159.8749068096076
781.3426,2181.3825876528717
783.4147,2402.7772550959744
785.4862,2604.7589823379094
787.557,2544.427818549915
789.6271,2172.983786855635
791.6966,1626.1268849344415
793.7654,1082.30708873587
795.8335,736.8743579481925
797.901,490.4786414366172
799.9678,403.71988069760664
802.0339,369.1980123228459
804.0993,400.1129688668334
806.1641,376.26467919208517
808.2282,332.95306815999356
810.2916,255.52805686930333
812.3544,176.03956308923262
814.4164,81.68750203373202
816.4778,121.92178715635782
818.5385,157.19233109380366
820.5986,283.79904526354585
822.658,455.39183951113773
824.7166,674.2706208441559
826.7747,1026.7852917162581
828.832,1350.335747838406
830.8886,1625.971874653711
832.9446,1747.643544101924
834.9999,1707.3506118630903
837.0545,1592.0429161408174
839.1085,1440.9702780652224
841.1618,1314.5325028459974
843.2143,1200.3793812831245
845.2662,1048.7606910312752
847.3175,1013.1761977413298
849.368,868.3756565765598
851.4179,806.8088125684844
853.467,699.3254020648601
855.5155,651.4251533453626
857.5633,549.3077876964107
859.6105,454.7730198901754
861.6569,389.67055920574967
863.7027,345.5001103745035
865.7478,312.46137423111395
867.7922,323.0540481552507
869.8359,343.57782640198457
871.8789,435.78239999585276
873.9212,576.8674565256151
875.9629,740.6826792222219
878.0039,870.0777455479401
880.0441,936.302325558223
882.0837,1001.3560806077585
884.1226,994.6886626882151
886.1609,933.8997137777042
888.1984,929.2388659074641
890.2352,1023.6057417697339
892.2714,981.2999547643685
894.3069,977.4711080551751
896.3416,862.4187949929546
898.3757,820.542599153825
900.4091,774.7920954897018
902.4418,788.7668507470808
904.4739,808.7664239245441
906.5052,839.1903661330234
908.5358,823.1882203957866
910.5658,675.9595213442099
912.595,492.90379537779336
914.6236,345.32056213645046
916.6515,254.5593363310527
918.6786,203.51962921927952
920.7051,231.60094951320934
922.7309,337.0528038897355
924.756,409.12469670974497
926.7804,515.016128963598
928.8041,504.0265975504244
930.8272,532.0555942191877
932.8495,506.10260567860314
934.8711,516.0671133168235
936.892,410.19859346098383
938.9123,321.7465172775519
940.9318,292.5603518310163
942.9506,191.33956096839756
944.9688,125.33360561112022
946.9862,77.64194476722878
949.003,-9.685963808569795
951.019,-19.550663137984884
953.0344,-9.052599479942728
955.0491,8.707976217745454
957.063,75.38090344274133
959.0763,172.8160215956268
961.0888,204.91316932319023
963.1007,306.7221835440614
965.1119,368.392899127748
967.1223,369.9751478765447
969.1321,405.3687579088164
971.1412,409.5235536431901
973.1495,440.73935544460255
975.1572,471.0159795827585
977.1641,536.6532379199743
979.1704,511.3509376084148
981.1759,495.80888043372397
983.1808,531.726863068041
985.1849,620.6046772254249
987.1884,739.7421093026733
989.1911,878.7889394905378
991.1932,993.294940582362
993.1945,996.6598765836006
995.1951,986.5335015667715
997.1951,972.2655596377972
999.1943,936.4557850372694
1001.1928,888.1539022831312
1003.1906,916.4096265287699
1005.1877,1020.3726640460409
1007.1841,1053.0427119427131
1009.1798,1000.2694571228349
1011.1748,905.4025759600263
1013.1691,754.2417348252311
1015.1627,551.7365910353728
1017.1556,353.23679436495695
1019.1477,254.4919890711426
1021.1392,172.25181587872248
1023.1299,166.46591296757288
1025.12,192.13391679505366
1027.1093,261.35546215386057
1029.0979,371.53018191536285
1031.0859,441.5077063373792
1033.0731,456.7876619624258
1035.0596,414.66967091794504
1037.0454,288.75335076351985
1039.0304,221.53831491203164
1041.0148,110.07417388884642
1042.9985,26.210536003954985
1044.9814,1.497008466605621
1046.9636,-47.216801776039574
1048.9452,-39.381287791786235
1050.926,-22.19637095258986
1052.9061,-9.461579211345452
1054.8855,3.1737812207938987
1056.8642,62.310498653856484
1058.8421,107.74936136614087
1060.8194,165.09115701283918
1062.7959,217.18667217165785
1064.7717,263.23669176940894
1066.7469,312.5919985610217
1068.7213,344.853372669073
1070.695,405.1715910902203
1072.6679,392.84742737258784
1074.6402,373.98165101259656
1076.6117,355.2250275781862
1078.5826,324.9783188974852
1080.5527,262.79228324637734
1082.5221,270.46767565096707
1084.4908,385.55524850943584
1086.4587,529.3557515153025
1088.426,627.7699305065344
1090.3925,643.8485260275556
1092.3584,628.2922723450829
1094.3235,578.101897287359
1096.2879,561.1781223996986
1098.2515,662.2216634464094
1100.2145,746.3832305800206
1102.1767,924.3135273308417
1104.1382,1099.7632497653667
1106.099,1338.6830847069523
1108.0591,1572.7237079813349
1110.0185,1727.1857820274217
1111.9771,1771.9199535568914
1113.9351,1629.4268520095611
1115.8923,1410.557089106067
1117.8488,1199.9112602727746
1119.8045,953.339946830487
1121.7596,848.843718100894
1123.7139,789.7231338722831
1125.6675,744.1287454445101
1127.6204,842.9110962202049
1129.5726,830.7707221607216
1131.524,753.6581507983046
1133.4748,714.7239013574999
1135.4248,620.3684855262672
1137.3741,559.492407845335
1139.3226,486.79616665174217
1141.2705,490.78025468760825
1143.2176,381.7951598271029
1145.164,370.5913650365874
1147.1097,385.7693494644773
1149.0546,324.37958855327634
1150.9989,271.17255388779813
1152.9424,182.6987138090626
1154.8852,20.508533946365787
1156.8272,-25.297521897982733
1158.7686,-21.36899012674985
1160.7092,-36.05515442046817
1162.6491,-21.05508498346353
1164.5883,90.03250817091248
1166.5267,174.8591253696177
1168.4644,351.02626603928184
1170.4014,560.6354278579565
1172.3377,800.3881049934316
1174.2732,1057.5357860071526
1176.2081,1392.1299514566836
1178.1421,1758.5720713242445
1180.0755,2132.963601670759
1182.0082,2347.7059809714447
1183.9401,2445.60062637189
1185.8713,2344.698931540619
1187.8017,2100.6022656901587
1189.7315,1795.711974586049
1191.6605,1466.9793829878054
1193.5888,1257.355797697839
1195.5163,1141.7425108487696
1197.4432,1052.8908019996616
1199.3693,1031.5019392921604
1201.2947,1021.7771803390169
1203.2193,1006.6677724379551
1205.1432,1035.374952668937
1207.0664,1030.8499480452574
1208.9889,1050.693975226468
1210.9106,1066.9082405636254
1212.8316,1089.9939399008545
1214.7519,1152.602258413206
1216.6715,1198.2343703757906
1218.5903,1220.5914385377018
1220.5084,1271.974613665705
1222.4257,1310.635034320656
1224.3424,1309.7738263436713
1226.2583,1396.9421024695257
1228.1735,1525.4909623352578
1230.0879,1632.4714916084868
1232.0016,1796.7347607019328
1233.9146,1867.331823703591
1235.8269,1811.4637167341207
1237.7384,1732.6314572408683
1239.6492,1592.2360445565446
1241.5592,1543.628460687547
1243.4686,1527.1096717179225
1245.3772,1600.5806282954363
1247.285,1706.242265796769
1249.1922,1732.5455035928007
1251.0986,1783.391243992006
1253.0042,1817.3803719773969
1254.9092,1922.2637546980823
1256.8134,2019.542241129373
1258.7169,2164.916661023948
1260.6196,2344.537823939074
1262.5216,2570.106517782857
1264.4229,2765.773507018026
1266.3234,2965.089530406256
1268.2232,3074.405299051494
1270.1223,3118.171494406799
1272.0207,3119.2387671811794
1273.9183,3118.607736901933
1275.8151,3057.178991903971
1277.7113,3015.253089336131
1279.6067,2977.03055577546
1281.5014,3081.3118876464832
1283.3953,3201.597551603425
1285.2885,3439.237983487392
1287.181,3684.933587123527
1289.0727,3960.7347319445926
1290.9637,4141.241750534018
1292.854,4318.7549358678825
1294.7435,4394.174539509861
1296.6323,4457.600769836075
1298.5204,4526.583791280917
1300.4077,4586.42372370277
1302.2943,4598.320641694185
1304.1802,4511.624573983474
1306.0653,4222.1855033157535
1307.9497,3971.4033673198937
1309.8333,3728.4780614029223
1311.7162,3554.509441257829
1313.5984,3499.197325292842
1315.4798,3475.141496371085
1317.3605,3490.041702363722
1319.2405,3454.4476563905027
1321.1197,3356.8590366707576
1322.9982,3175.3754868793512
1324.876,3037.096617122561
1326.753,2897.572005752909
1328.6293,2836.951200751948
1330.5048,2777.883721125523
1332.3796,2709.3190575099707
1334.2537,2667.0066727627855
1336.127,2633.7960026482906
1337.9996,2631.386456260743
1339.8714,2612.427416356446
1341.7426,2615.568239377835
1343.6129,2642.5582556430763
1345.4826,2640.9467693146617
1347.3515,2660.083058129496
1349.2196,2618.116373415034
1351.087,2700.3459398978957
1352.9537,2744.8209561235453
1354.8197,2925.390593633989
1356.6849,3047.9539965230233
1358.5493,3212.910279630547
1360.4131,3319.0585273169127
1362.276,3364.597791813385
1364.1383,3286.2270921606396
1365.9998,3098.3954137533765
1367.8606,2800.051709124027
1369.7206,2464.8948998210726
1371.5799,2250.8738793924877
1373.4384,2043.4875167372975
1375.2962,1864.784658245797
1377.1533,1613.8141298734135
1379.0096,1308.274738927732
1380.8652,1002.5652765781979
1382.7201,764.2845209115148
1384.5742,558.1312399887393
1386.4275,401.35419422808627
1388.2802,264.20213846646584
1390.132,143.3238235272529
1391.9832,120.21799759180067
1393.8336,76.78340740823114
1395.6832,51.61879852248694
1397.5322,17.4229157126847
1399.3803,5.194503240754784
1401.2278,8.882305194406399
1403.0745,19.435065609402955
1404.9204,14.501528432692794
1406.7656,70.28043741687452
1408.6101,86.42053616954036
1410.4538,162.9205675954763
1412.2968,228.3792737352669
1414.139,276.59539500029405
1415.9805,400.31766951815007
1417.8213,472.7448326504791
1419.6613,595.7756157557551
1421.5006,791.5087454650029
1423.3391,1032.8429424515007
1425.1769,1340.0269194734346
1427.0139,1814.5093789605771
1428.8502,2393.589009942423
1430.6858,2935.01448330338
1432.5206,3352.0344459919597
1434.3547,3599.8475156065433
1436.188,3622.75227622517
1438.0206,3575.747275927408
1439.8524,3424.4310265653057
1441.6835,3350.9020042334414
1443.5139,3246.0086507820906
1445.3435,3212.0493745525127
1447.1724,3232.5225514258864
1449.0005,3161.1765251629004
1450.8279,3095.4596071990163
1452.6545,3095.5700773579374
1454.4804,3160.2061845087746
1456.3056,3134.0661465649346
1458.13,3077.8481498377705
1459.9536,2961.950349297971
1461.7766,2668.8708691377587
1463.5987,2301.4078039298447
1465.4202,1942.5592215582374
1467.2409,1630.6731668928742
1469.0608,1383.0476653780952
1470.88,1149.1807261515187
1472.6984,934.5703445202826
1474.5161,748.3645042997205
1476.3331,620.2111799594641
1478.1493,537.0083384855016
1479.9648,467.90394066171666
1481.7795,412.0459419019098
1483.5935,341.7822929408476
1485.4067,325.5109403928436
1487.2192,298.9798274543864
1489.031,257.43689406686644
1490.842,251.380077181876
1492.6522,232.90731117664745
1494.4618,198.26652791461584
1496.2705,219.9556569301467
1498.0785,186.62262577494494
1499.8858,173.86535980116696
1501.6924,186.7317824947404
1503.4981,161.8198156029448
1505.3032,159.12737900574484
1507.1075,153.95239096490968
1508.911,139.54276815093726
1510.7138,100.44642569480675
1512.5159,59.86127733207195
1514.3172,70.38523579382672
1516.1178,11.31621321255352
1517.9176,25.75212101688703
1519.7166,-6.509129477700299
1521.515,10.030372786747648
1523.3126,-0.5813961056155676
1525.1094,-2.8964601709330964
1526.9055,-12.416837617204692
1528.7008,-38.84451771679505
1530.4954,-56.93136569786293
1532.2893,-46.8288587318375
1534.0824,-73.18790524580982
1535.8747,-18.258945846572715
1537.6663,-23.541689993754517
1539.4572,-9.635664740111679
1541.2473,5.109838043073978
1543.0367,42.245622744811044
1544.8253,33.772493703013424
1546.6132,68.04125483314237
1548.4003,100.65270971293558
1550.1867,145.00766123972335
1551.9723,218.45691130430896
1553.7572,295.05126034742534
1555.5414,387.1415066252375
1557.3247,512.678445443401
1559.1074,631.6128682361605
1560.8893,751.3955613109829
1562.6705,892.4773046592018
1564.4509,996.9588707581988
1566.2305,1060.4910231605836
1568.0094,1149.6745154493783
1569.7876,1174.2600906027046
1571.565,1208.6984801019507
1573.3417,1217.2904036859036
1575.1176,1223.5365690063672
1576.8928,1208.7876715422462
1578.6672,1184.8943945370784
1580.4409,1153.4574091465229
1582.2138,1104.9773746772998
1583.986,1086.7549389015503
1585.7575,1084.240738541649
1587.5282,1131.185399452429
1589.2981,1136.389536646322
1591.0673,1206.053753823906
1592.8358,1269.6286433218675
1594.6035,1336.3147854163553
1596.3704,1426.0127476872358
1598.1366,1477.3230843512329
1599.9021,1601.6463353649478
1601.6668,1684.0830259117492
1603.4308,1798.4836651585465
1605.194,1942.3987454314229
1606.9564,2145.028741071632
1608.7182,2333.67410699644
1610.4791,2584.5852766728303
1612.2394,2834.862660231048
1613.9988,3070.606641955488
1615.7576,3297.217577781921
1617.5156,3546.8457929400465
1619.2728,3683.0915796874006
1621.0293,3716.055194813057
1622.785,3650.8868582751775
1624.54,3474.636752871377
1626.2942,3297.7550248904054
1628.0477,2997.0917858746425
1629.8005,2774.7971143889226
1631.5525,2535.321059027169
1633.3037,2354.7636406353304
1635.0542,2217.2748547061537
1636.804,2116.804673184748
1638.553,2034.5530458434796
1640.3013,2034.2199012866704
1642.0488,2027.2551477731113
1643.7955,2077.8586732194035
1645.5416,2154.7303452695915
1647.2868,2271.020010789144
1649.0313,2391.2274950962255
1650.7751,2556.2026007988006
1652.5181,2737.4951065925634
1654.2604,2943.5547656111867
1656.0019,3171.981303613392
1657.7427,3460.2244169223595
1659.4828,3743.133770141454
1661.222,3953.9589932718027
1662.9606,3909.5996788832017
1664.6984,3698.1553800058546
1666.4354,3302.0256105739727
1668.1717,2767.0098475402183
1669.9072,2265.5575348369894
1671.642,1839.6180887265982
1673.3761,1479.5909028157748
1675.1094,1186.725352315082
1676.8419,985.1707976391699
1678.5737,831.8265873354358
1680.3048,689.2420600995747
1682.0351,590.3165463090154
1683.7646,513.4993694487666
1685.4934,452.03984710067743
1687.2215,401.93729171160066
1688.9488,353.2410112079988
1690.6754,303.4003094969594
1692.4012,279.8644869531654
1694.1263,266.8828409172984
1695.8506,263.9046659314008
1697.5742,226.77925386868264
1699.297,210.05589396331288
1701.0191,180.73387318166897
1702.7404,170.1124763895732
1704.461,131.84098664551038
1706.1808,114.61868530684387
1707.8999,118.99485241253115
1709.6182,100.26876685534262
1711.3358,94.28970633810786
1713.0527,74.95694756096691
1714.7688,60.269766281166994
1716.4841,76.32743750638656
1718.1987,51.52923564160483
1719.9126,60.024434328526695
1721.6257,54.612306693567916
1723.338,66.54212526289848
1725.0496,46.06316201656864
1726.7605,42.37468826921213
1728.4706,35.82597487483508
1730.18,16.16629226369878
1731.8886,30.944910507803797
1733.5964,36.41109951749604
1735.3036,43.81412889366675
1737.0099,44.55326787310241
1738.7156,43.2277852544521
1740.4204,19.83694939083398
1742.1246,17.930028203090842
1743.8279,9.356289413701234
1745.5306,1.6150005658419104
1747.2325,-9.594570890867544
1748.9336,-9.573157522958354
1750.634,-22.521396047199232
1752.3336,-17.489827544519358
1754.0325,-20.528768107096766
1755.7307,-11.188359103738549
1757.4281,-5.568536820855115
1759.1247,9.78087422684257
1760.8206,2.560105154325356
1762.5158,-3.680613021244426
1764.2102,5.458950691699101
1765.9039,-8.920935945958263
1767.5968,2.879994772082682
1769.289,0.9620996722724158
1770.9804,13.525735552261722
1772.6711,18.671259200075383
1774.361,15.699027268488862
1776.0502,12.70939622356309
1777.7386,28.35272237437266
1779.4263,26.179361902898563
1781.1132,33.48967070759909
1782.7994,23.13400442513648
1784.4849,37.41271835728094
1786.1696,18.676167574462852
1787.8535,34.12470677298643
1789.5367,36.25869046239495
1791.2192,60.67847281098648
1792.9009,21.884407624477717
1794.5818,56.62684810180008
1796.2621,55.85614722304581
1797.9415,48.72265740204011
1799.6202,56.22673049404875
1801.2982,50.918717867111354
1802.9755,72.29897032700774
1804.6519,64.36783817032665
1806.3277,63.675670970680585
1808.0027,63.72281765799926
1809.6769,59.50962652546059
1811.3504,62.33644522901477
1813.0231,70.15362082951697
1814.6951,77.01149976445868
1816.3664,99.01042776979693
1818.0369,83.30074981137523
1819.7067,102.3328098649331
1821.3757,82.80695107320753
1823.044,99.37351555560508
1824.7115,99.98284460346758
1826.3783,87.63527851440358
1828.0443,88.83115658619636
1829.7096,110.62081724028167
1831.3741,84.75459800978297
1833.0379,121.23283532162122
1834.701,82.50586475517139
1836.3633,108.42402067748526
1838.0248,107.28763663055543
1839.6856,127.0470450721341
1841.3457,141.8525773871006
1843.005,132.30456368986324
1844.6636,151.25333267630685
1846.3214,131.89921171927472
1847.9785,143.99252667907786
1849.6349,146.33360209703824
1851.2904,161.82276107455255
1852.9453,148.51032524968286
1854.5994,143.64661464226583
1856.2528,159.1819477870381
1857.9054,156.21664178227093
1859.5572,171.4010121344163
1861.2083,159.83537278776294
1862.8587,186.17003597258918
1864.5084,179.4553123208193
1866.1572,181.19151060268177
1867.8054,173.47893779385367
1869.4528,167.26789905809892
1871.0994,171.2086978243933
1872.7453,181.75163584903476
1874.3905,171.24701317623976
1876.0349,179.44512803270345
1877.6786,172.04627693265502
1879.3215,186.90075459587388
1880.9637,178.2588540216766
1882.6051,184.2708663403737
1884.2458,193.68708089968732
1885.8858,202.4077852046339
1887.525,202.4332648233617
1889.1634,196.01380329994163
1890.8011,200.04968215411554
1892.4381,178.59118094548694
1894.0743,216.1385772331646
1895.7098,201.1921467903503
1897.3446,202.70216322886063
1898.9786,193.86889814858978
1900.6118,204.5426211224153
1902.2443,198.02359978452478
1903.8761,187.56209972368015
1905.5071,165.4583845484094
1907.1374,190.712715991619
1908.7669,196.92535413163387
1910.3957,204.79655713965258
1912.0237,182.57658121762188
1913.651,193.16568051952663
1915.2776,195.31410737358556
1916.9034,177.42211217636213
1918.5285,187.93994337128152
1920.1528,156.1178476275486
1921.7764,185.6060697349708
1923.3992,194.10485292217845
1925.0213,182.76443856174274
1926.6427,167.08506608518837
1928.2633,138.71697309639922
1929.8832,183.96039552840648
1931.5023,180.66556792707252
1933.1207,167.23272299865903
1934.7383,163.46209164277207
1936.3552,162.40390308669157
1937.9714,163.15838492307785
1939.5868,145.32576312055244
1941.2015,151.75626201615614
1942.8154,143.10010449367292
1944.4286,141.8575119193274
1946.041,143.02870422834394
1947.6528,147.0638999373732
1949.2637,137.56331613278053
1950.8739,136.02716843029293
1952.4834,142.85567107000452
1954.0921,128.69903693173956
1955.7001,129.80747746676525
1957.3074,148.1312028393604
1958.9139,122.92042191573228
1960.5197,135.72534208077514
1962.1247,132.24616949018173
1963.729,108.88310894239112
1965.3325,117.88636391338287
1966.9353,124.7061367903093
1968.5374,115.99262878145737
1970.1387,103.54603984805271
1971.7393,111.61656879139673
1973.3392,110.65441337733273
1974.9383,123.2097702555352
1976.5366,99.48283496913928
1978.1342,100.6238018291806
1979.7311,116.2328641518684
1981.3273,106.11021424717683
1982.9227,116.85604326275234
1984.5173,103.37054128514046
1986.1112,91.35389723232902
1987.7044,99.7062989886017
1989.2968,98.57793352470526
1990.8885,97.96898681432504
1992.4795,88.62964384536917
1994.0697,101.86008862605468
1995.6592,104.91050427830442
1997.2479,100.58107290544058
1998.8359,99.17197556167912
2000.4232,104.28339229543008
2002.0097,92.76550216338364
2003.5955,83.0684831793983
2005.1805,101.64251242967975
2006.7648,93.98776616974965
2008.3484,96.00441963870526
2009.9312,104.04264713576913
2011.5133,96.35262200011857
2013.0946,98.33451653050724
2014.6752,91.33850206215993
2016.2551,91.51474894696275
2017.8342,88.01342662341494
2019.4126,88.7347036148708
2020.9902,91.07874756455112
2022.5672,92.49572522832887
2024.1433,100.7358024512937
2025.7188,88.24914415357671
2027.2935,93.68591424795295
2028.8674,97.99627576470766
2030.4406,96.18039079726486
2032.0131,86.13842045908996
2033.5849,86.82052490184424
2035.1559,93.92686341580611
2036.7261,88.65759442305125
2038.2957,77.06287540638687
2039.8645,96.69286296205064
2041.4325,102.44771291564984
2042.9998,92.7775801258681
2044.5664,106.38261842691145
2046.1323,96.61298072521231
2047.6974,83.06881886337624
2049.2617,89.35028371788076
2050.8254,80.95752533451696
2052.3883,106.94069286557351
2053.9504,107.69993465376501
2055.5118,97.23539797240073
2057.0725,88.09722901778923
2058.6325,93.28557301388855
2060.1917,75.75057430368452
2061.7502,94.14237629730906
2063.3079,89.21112164738952
2064.8649,98.95695206513028
2066.4212,91.73000836962638
2067.9767,97.68043039040322
2069.5315,83.45835703968623
2071.0856,86.01392625289691
2072.6389,78.89727513087428
2074.1915,75.35853991431713
2075.7433,75.3478560549529
2077.2945,68.51535825092378
2078.8448,73.56118044689583
2080.3945,79.93545590238136
2081.9434,74.5883171412811
2083.4916,74.81989588814486
2085.039,83.08032312163732
2086.5857,80.8197290722278
2088.1317,80.28824313958239
2089.677,77.53599391517173
2091.2215,81.5131091875869
2092.7652,72.86971597005959
2094.3083,68.90594046069373
2095.8506,73.37190812889594
2097.3921,82.26774375501736
2098.933,70.19357138569103
2100.4731,82.54951424487535
2102.0124,76.38569485459266
2103.5511,85.05223491137303
2105.089,75.49925534788781
2106.6261,84.72687624628725
2108.1626,75.78521693373114
2109.6983,83.12439589010955
2111.2332,87.09453083746257
2112.7675,93.5957386665873
2114.301,87.17813539733788
2115.8337,95.5418361136135
2117.3657,99.4869550275348
2118.897,91.9636053958061
2120.4276,81.77189948026307
2121.9575,90.46194862310494
2123.4866,97.7338633488157
2125.0149,84.83775327726107
2126.5426,69.5237270509665
2128.0695,86.64189246408228
2129.5956,89.39235661552084
2131.1211,92.62522573777824
2132.6458,72.3906051694255
2134.1698,86.33859932278233
2135.693,82.21931188626286
2137.2155,92.13284568489803
2138.7373,92.27930272152639
2140.2584,81.85878407765767
2141.7787,80.27138991201127
2143.2983,76.36721956471956
2144.8171,67.64637157320112
2146.3353,78.4089437112043
2147.8527,76.20503307601302
2149.3693,77.78473598082314
2150.8853,79.74814797678073
2152.4005,80.99536383718419
2153.9149,78.9264775378524
2155.4287,89.14158224465245
2156.9417,87.14077033418607
2158.454,78.12413329164087
2159.9655,77.69176173079745
2161.4764,79.5937454841951
2162.9865,83.18017360745807
2164.4958,87.35113436027245
2166.0045,81.45671517052324
2167.5124,75.29700259258539
2169.0195,81.52208236626757
2170.526,84.58203947840911
2172.0317,69.32695810063024
2173.5367,84.7569215587298
2175.0409,77.72201248523743
2176.5445,79.82231266511508
2178.0473,88.35790310610628
2179.5494,83.22886401773212
2181.0507,81.48527472593514
2182.5513,76.92721372437018
2184.0512,71.60475869183938
2185.5504,79.16798653787282
2187.0488,79.5169734559554
2188.5465,79.1017948478916
2190.0435,73.77252532031753
2191.5397,58.82923868885223
2193.0353,79.07200803139085
2194.5301,68.80090583753918
2196.0241,68.41600380618343
2197.5175,84.56737294820186
2199.0101,83.15508359031469
2200.502,69.02920521356805
2201.9931,59.83980646745704
2203.4835,55.6369553111856
2204.9733,57.87071910556142
2206.4622,58.74116465502266
2207.9505,66.24835818530028
2209.438,51.19236533471508
2210.9248,55.97325107910433
2212.4109,59.39107988238311
2213.8962,67.64591564873331
2215.3809,55.28782168842736
2216.8648,62.56686063527991
2218.3479,65.88309457022729
2219.8304,50.48658494853862
2221.3121,57.67739256665391
2222.7931,54.605577716147764
2224.2733,49.221200111820735
2225.7529,50.12431892241875
2227.2317,56.3649928244763
2228.7098,66.24327999328443
2230.1872,44.309238040485525
2231.6638,58.46292391528823
2233.1397,55.2043941238112
2234.6149,55.13370458754275
2236.0894,55.40091067592857
2237.5632,40.95606720707747
2239.0362,49.899228445089875
2240.5085,45.83044824450667
2241.9801,44.04977996087655
2243.4509,39.00727649144528
2244.921,44.202990292960976
2246.3904,36.98697343210006
2247.8591,35.509277533509476
2249.3271,41.269953851968694
2250.7943,31.119053287163524
2252.2608,32.05662632608164
2253.7266,33.88272314451979
2255.1917,29.297393597708606
2256.656,42.25068720205286
2258.1197,21.842653180982552
2259.5826,34.97334033542165
2261.0447,32.54279724786829
2262.5062,34.50107215108983
2263.9669,33.34821295242659
2265.4269,23.584267214208694
2266.8862,37.00928216528541
2268.3448,45.02330479866441
2269.8026,45.47638173726159
2271.2598,38.66855915376027
2272.7162,28.499882766080873
2274.1719,31.12039790545782
2275.6268,39.330149618127734
2277.0811,54.279182639123746
2278.5346,42.617541310177785
2279.9874,54.795269430230746
2281.4395,47.01241037204909
2282.8908,46.51900696044663
2284.3414,42.61510155011365
2285.7914,48.300736030550524
2287.2406,47.52595186510757
2288.689,46.59079003412808
2290.1368,46.945291042695544
2291.5838,36.78949492998481
2293.0302,44.473441265718975
2294.4758,56.497169251726746
2295.9206,35.510717645103114
2297.3648,41.21412463797196
2298.8082,42.85742806735175
2300.251,47.24066535812108
2301.693,40.813873506585196
2303.1343,49.62708903664429
2304.5748,40.58034806405908
2306.0147,43.473686208321396
2307.4538,50.00713868311914
2308.8922,55.480740267404826
2310.3299,47.39452524006015
2311.7669,40.048527325160194
2313.2031,44.892779772834274
2314.6387,43.5273154327283
2316.0735,43.95216670556056
2317.5076,50.017365556776895
2318.941,52.02294351230171
2320.3737,49.21893159788556
2321.8056,40.40536031904935
2323.2369,45.6822596891252
2324.6674,42.19965931739239
2326.0972,50.80758835630945
2327.5263,48.15607553633913
2328.9547,46.04514907987027
2330.3823,50.2748367277311
2331.8092,54.74516576029896
2333.2355,42.75616295520331
2334.661,47.9578545426225
2336.0858,51.45026632517465
2337.5098,49.683423625900105
2338.9332,49.757351253338356
2340.3558,45.2720735191956
2341.7778,55.82761423760485
2343.199,48.073996769978294
2344.6195,56.061243919454
2346.0393,48.53937800842982
2347.4583,59.40842079869185
2348.8767,45.61839356663222
2350.2943,53.71931699456104
2351.7113,61.06121130860333
2353.1275,59.09409619769235
2354.543,60.66799074014921
2355.9578,53.03291342335456
2357.3718,49.88888212800953
2358.7852,43.48591420448656
2360.1978,50.72402650427034
2361.6098,53.70323544398593
2363.021,64.62355693301902
2364.4315,62.33500634372331
2365.8413,47.4875984022176
2367.2504,58.881347211269485
2368.6587,53.266266398770995
2370.0664,48.49236900380265
2371.4733,56.50966753278249
2372.8795,58.268174007205744
2374.285,53.36789988346982
2375.6899,56.708856035290864
2377.0939,46.2410528027076
2378.4973,45.56449995867138
2379.9,51.57920681372525
2381.3019,49.93518222276725
2382.7032,58.482434524904875
2384.1037,62.020971559892814
2385.5035,45.600800582659986
2386.9027,45.07192822792672
2388.3011,44.18436067440348
2389.6987,46.638103650083394
2391.0957,53.583162441115064
2392.492,45.56954186726739
2393.8876,37.497246212477194
2395.2824,41.46627930498789
2396.6765,35.07664459807188
2398.07,42.828345130340495
2399.4627,37.271383589637935
2400.8547,43.90576223552512
2402.246,41.731482954850435
2403.6366,47.448547195405354
2405.0265,37.85695598766824
2406.4156,46.65670988763304
2407.8041,37.447809072722976
2409.1918,34.280253253795536
2410.5789,38.95404176722991
2411.9652,33.71917360660541
2413.3508,34.32564737595999
2414.7358,36.6234613421434
2416.12,41.162613428748045
2417.5035,43.69310119313104
2418.8863,36.46492178102403
2420.2684,40.42807190122767
2421.6497,41.68254789789421
2423.0304,34.32834571089484
2424.4104,40.26546086327426
2425.7896,32.14388853479386
2427.1682,44.81362350255836
2428.546,45.77466022223507
2429.9232,52.27699270135395
2431.2996,41.470614489699074
2432.6753,43.60551861428485
2434.0503,35.43169768742064
2435.4246,39.6491438853609
2436.7982,42.1078490300431
2438.1711,46.357804546914394
2439.5433,44.699001440345
2440.9148,37.13143025112572
2442.2856,32.20508107305909
2443.6557,41.169943628633064
2445.025,31.626007318284792
2446.3937,38.2732611307531
2447.7617,35.51169373851644
2449.1289,43.391293431321174
2450.4955,39.2120481437978
2451.8613,39.673945376662914
2453.2265,36.676972238514054
2454.5909,44.87111544120944
2455.9546,37.756361329837546
2457.3177,39.38269580077633
2458.68,44.05010437284102
2460.0416,45.908572171019614
2461.4025,48.55808387979971
2462.7627,48.49862372458392
2464.1222,56.18017544519421
2465.4811,46.65272229646655
2466.8392,55.11624697143611
2468.1966,49.67073169661114
2469.5533,66.36615814733761
2470.9093,52.402507502253684
2472.2645,65.07976027633754
2473.6191,59.84789646054139
2474.973,60.80689539502032
2476.3262,65.70673582145139
2477.6787,56.697395873441565
2479.0305,58.37885302753148
2480.3816,58.75108419328842
2481.7319,60.514065696491684
2483.0816,63.71777327541065
2484.4306,56.362182063175055
2485.7789,62.697266555736405
2487.1264,52.323000685425995
2488.4733,50.839357757601874
2489.8195,50.59631055439263
2491.165,56.99383134953382
2492.5097,47.081891910797594
2493.8538,66.46046343601881
2495.1972,44.82951665221367
2496.5398,48.08902162179413
2497.8818,49.28894795887709
2499.2231,45.77926479668952
2500.5637,50.80994077557034
2501.9035,49.780944078065545
2503.2427,53.14224237862243
2504.5812,52.6438028538787
2505.919,55.43559214904951
2507.256,70.96757638291285
2508.5924,52.88972111989119
2509.9281,58.701991214731265
2511.2631,58.10435099328345
2512.5974,55.34676419437881
2513.9309,57.679193975804765
2515.2638,59.30160294188181
2516.596,67.8139531201391
2517.9275,58.716205945090564
2519.2583,57.208322173111014
2520.5884,58.8402619734137
2521.9178,55.51198494312871
2523.2465,57.173450090984375
2524.5745,56.37461587058897
2525.9018,53.36544016381663
2527.2284,54.495880288796
2528.5543,58.51589303000139
2529.8796,63.52543462694871
2531.2041,62.22446073399601
2532.5279,64.26292637024653
2533.851,58.09078593255947
2535.1735,55.407993175165075
2536.4952,70.86450127138608
2537.8163,66.76026284046566
2539.1366,68.64522979300273
2540.4562,71.31935337199377
2541.7752,76.78258413398385
2543.0935,69.58487192232451
2544.411,74.62616581254235
2545.7279,75.55641418431503
2547.0441,66.17556467105896
2548.3596,66.98356415062642
2549.6744,77.58035883911475
2550.9885,72.5158942827859
2552.3019,73.34011525209758
2553.6146,71.70296579234991
2554.9266,72.50438921544173
2556.2379,79.54432811624338
2557.5485,78.12272436458125
2558.8585,85.58951903483955
2560.1677,82.3446524201753
2561.4762,79.58806395785075
2562.7841,85.86969226168287
2564.0913,83.08947514960744
2565.3977,73.09734958086472
2566.7035,79.34325168379962
2568.0086,78.02711685578458
2569.313,71.29887970075981
2570.6167,79.90847404239503
2571.9197,84.15583299137108
2573.222,86.69088885928477
2574.5236,83.76357311617437
2575.8246,97.27381636516941
2577.1248,87.22154837176356
2578.4244,101.35669792871352
2579.7232,91.92919295656054
2581.0214,96.18896036227943
2582.3189,101.2859261335534
2583.6157,97.47001529617671
2584.9118,112.19115186308409
2586.2072,96.79925887251125
2587.5019,101.54425824078214
2588.7959,110.17607091622881
2590.0893,101.59461683174095
2591.3819,107.19981481844786
2592.6739,111.99158269153315
2593.9652,112.6698371941826
2595.2557,113.43449394966694
2596.5456,113.03546745455856
2597.8348,120.2726710710856
2599.1234,122.94601703112096
2600.4112,119.20541636381097
2601.6983,124.70077886884212
2602.9848,120.73201315384676
2604.2705,121.8490265794494
2605.5556,125.40172529895494
2606.84,114.69001424717806
2608.1237,126.66379710491685
2609.4067,120.12297640606914
2610.689,116.51745341789547
2611.9707,110.59712820642733
2613.2516,117.51189967252151
2614.5319,114.66166561106434
2615.8115,108.09632264182301
2617.0903,111.21576623794897
2618.3685,113.31989079163066
2619.6461,116.20858958289944
2620.9229,108.53175475858757
2622.199,122.23927730344246
2623.4745,118.68104711689386
2624.7493,109.30695287597928
2626.0234,120.66688207092636
2627.2968,113.2107210988936
2628.5695,111.9883551503707
2629.8415,119.74966828374056
2631.1128,117.99454343750324
2632.3835,120.07286235266224
2633.6535,111.63450559027581
2634.9228,114.67935251067422
2636.1914,109.25728135784266
2637.4593,119.06816922897303
2638.7265,118.31189212868503
2639.9931,122.9883248709167
2641.259,106.09734108648786
2642.5242,115.53881317633534
2643.7887,111.11261248042285
2645.0525,118.81860918332654
2646.3156,109.55667235849671
2647.5781,113.47666989119807
2648.8398,110.4784685711287
2650.1009,101.8119340532204
2651.3613,119.17693088762076
2652.6211,111.12332260635833
2653.8801,108.60097154969276
2655.1385,123.05973894665055
2656.3961,111.74948494024966
2657.6531,114.07006844291095
2658.9094,110.47134724956061
2660.1651,117.15317801442427
2661.42,117.66541628701452
2662.6743,125.7079164453121
2663.9279,130.13053169064415
2665.1808,118.23311396725876
2666.433,118.71551391809908
2667.6846,130.22758100377712
2668.9354,132.26916349775047
2670.1856,132.640108371201
2671.4351,131.49026127261982
2672.6839,136.41946652409695
2673.9321,141.17756713282085
2675.1795,145.2144047417853
2676.4263,146.679819582209
2677.6724,148.62365043316697
2678.9179,144.64573460693623
2680.1626,149.74590792955792
2681.4067,149.77400478061577
2682.6501,147.22985804223515
2683.8928,144.2632990988012
2685.1348,147.67415786240122
2686.3761,141.6622628024893
2687.6168,141.17744091177792
2688.8568,136.419517766358
2690.0961,132.28831753054567
2691.3348,127.63366300446273
2692.5727,125.50537566534808
2693.81,126.80327571410407
2695.0466,128.17718209657937
2696.2826,121.2269124905904
2697.5178,125.45228329218207
2698.7524,121.90310968512938
2699.9863,126.37920559868576
2701.2195,124.58038374307398
2702.452,133.45645556472448
2703.6839,135.1572312642645
2704.9151,141.13251970775718
2706.1456,140.88212840969334
2707.3755,146.8558634732393
2708.6046,157.50352959274016
2709.8331,150.9749299939824
2711.0609,167.86986632771846
2712.2881,178.73813873495192
2713.5145,196.97954567798854
2714.7403,186.04388383175228
2715.9654,191.08094790137204
2717.1899,208.74053073153823
2718.4136,223.172423256132
2719.6367,229.8764143216298
2720.8591,238.1022905427833
2722.0809,257.0498362355811
2723.3019,254.86883333498815
2724.5223,274.6590612054721
2725.7421,268.7702966628127
2726.9611,274.80231377619884
2728.1795,273.9048839271172
2729.3972,269.1277757490317
2730.6142,263.62075513635716
2731.8306,241.8835852922316
2733.0462,225.11602678358543
2734.2612,206.91783775851377
2735.4756,189.43877411395113
2736.6892,182.47858967765478
2737.9022,153.3370363829937
2739.1145,148.6638643385519
2740.3262,133.4588221195429
2741.5372,133.47165681454203
2742.7475,117.9021141775371
2743.9571,104.499938627799
2745.1661,95.86487340557755
2746.3744,91.39666070612373
2747.582,76.1450417660393
2748.7889,72.80975690796026
2749.9952,65.64054569307211
2751.2008,51.587146954463606
2752.4057,48.49929886881819
2753.61,44.726739096948336
2754.8136,40.26920481467346
2756.0165,42.02643275054561
2757.2188,37.448159230425745
2758.4204,39.48412015990982
2759.6213,32.93405107011324
2760.8215,37.19768709730988
2762.0211,37.72476304843349
2763.22,32.565013358441206
2764.4182,24.268172085043034
2765.6158,17.883972960298138
2766.8127,26.312149473585123
2768.009,12.402434935442784
2769.2045,3.6045623932878925
2770.3994,7.6682647705137015
2771.5936,3.0932749544675744
2772.7872,-0.6206742441856932
2773.9801,-7.623850045713539
2775.1723,-12.216513469848906
2776.3639,-10.498849374062047
2777.5548,-12.070920572854902
2778.745,-15.532684997223782
2779.9346,-12.183979989668842
2781.1235,-13.974487721167634
2782.3117,-10.903768644737397
2783.4992,-14.421243608263012
2784.6861,-17.476224530980858
2785.8723,-5.9678792639037965
2787.0579,-11.095201070561416
2788.2428,-9.457123595370376
2789.427,0.59753035831136
2790.6106,6.620032463789812
2791.7935,11.561654388396505
2792.9757,6.5236677332623
2794.1573,24.857343983901956
2795.3382,27.813954560593515
2796.5184,42.044770635041345
2797.698,45.151063100811484
2798.8769,66.28410243102121
2800.0551,64.5951586472786
2801.2327,86.68550110834963
2802.4096,102.30639852704928
2803.5859,118.15911874933693
2804.7615,130.84492859810814
2805.9364,153.91509371466782
2807.1106,173.3708784318726
2808.2842,189.21354554342793
2809.4572,222.5943561093302
2810.6294,252.26456929744165
2811.801,280.47544204968096
2812.972,313.62822878532165
2814.1423,352.674181118883
2815.3119,397.7645475286024
2816.4808,447.4505729659753
2817.6491,484.83349840485243
2818.8167,533.0145603445791
2819.9837,568.8949904361658
2821.15,613.9760150004785
2822.3157,680.3088546694325
2823.4807,714.1447239351838
2824.645,757.9348304868001
2825.8086,818.1303748719014
2826.9716,867.4825500587599
2828.134,904.0925408343452
2829.2957,945.4115233108009
2830.4567,977.2906645593469
2831.617,993.1311221970867
2832.7767,999.5840440682188
2833.9358,999.4505680856294
2835.0941,987.8818221663655
2836.2519,972.2789242329685
2837.4089,966.9429823291623
2838.5653,951.5750947758816
2839.7211,943.076350224632
2840.8761,937.6478278111684
2842.0306,957.6905972404829
2843.1843,976.355718841089
2844.3374,1024.2442433645951
2845.4899,1067.1572117990527
2846.6417,1129.6956548900712
2847.7928,1184.1605927116887
2848.9433,1250.3030340409864
2850.0931,1338.2739758134403
2851.2422,1396.4244024614948
2852.3907,1440.705285034857
2853.5385,1509.767580618989
2854.6857,1547.5122318923004
2855.8323,1596.8401664355245
2856.9781,1653.7522963542733
2858.1233,1700.6495177857578
2859.2679,1737.8827103296653
2860.4118,1798.5527365791886
2861.555,1822.7104417486935
2862.6976,1871.2566530670179
2863.8395,1902.2421795358964
2864.9808,1925.3678114444974
2866.1214,1934.084320059567
2867.2614,1944.0924573941757
2868.4007,1957.7929561205492
2869.5393,1983.1865294699896
2870.6773,1987.4238710958705
2871.8146,2001.9556548196992
2872.9513,2002.282534588745
2874.0874,1997.0051443307195
2875.2227,1983.4240979505107
2876.3574,1970.8899893829544
2877.4915,1953.053392728646
2878.6249,1909.5648623792813
2879.7577,1893.2749331960224
2880.8898,1859.5841209443838
2882.0212,1852.3929224571311
2883.152,1845.8018159711896
2884.2821,1829.7612611995548
2885.4116,1818.2716993972058
2886.5405,1814.8335535215078
2887.6686,1833.3972283471098
2888.7962,1835.513110500326
2889.923,1835.6815682734987
2891.0493,1862.9029516038383
2892.1748,1857.1775920717412
2893.2997,1886.605802628574
2894.424,1890.1378776539282
2895.5476,1889.5740926613366
2896.6706,1929.1147042629534
2897.7929,1944.1599501751941
2898.9145,1972.7100488233248
2900.0355,2006.0151991910143
2901.1559,2032.3755805348305
2902.2756,2065.9913520511896
2903.3946,2105.2626526127515
2904.513,2114.6896004322634
2905.6308,2154.772292669847
2906.7479,2159.5108053387276
2907.8643,2188.255192904408
2908.9801,2208.455488237284
2910.0953,2211.3117023252016
2911.2098,2228.7238240714482
2912.3236,2212.191820266199
2913.4368,2205.5656354123885
2914.5494,2183.8951918910325
2915.6613,2149.780390027494
2916.7725,2138.4711083081816
2917.8831,2105.667203721702
2918.9931,2060.8685118719513
2920.1024,2060.1748473061525
2921.211,2036.2860039628438
2922.319,2014.851755178816
2923.4264,1997.521853927999
2924.5331,1980.8960330358059
2925.6391,1968.5740053524314
2926.7445,1977.755463919109
2927.8493,1972.1900820913347
2928.9534,1967.4275134470483
2930.0569,1971.4673918422905
2931.1597,1990.8093314588261
2932.2619,1980.8529267637475
2933.3634,1966.0477523160534
2934.4643,1966.5933628662142
2935.5645,1975.289293504223
2936.6641,1934.9350596541406
2937.763,1911.4801569871333
2938.8613,1865.7740618250182
2939.959,1832.46623137481
2941.056,1764.2061041857842
2942.1523,1677.3431004825527
2943.248,1612.976622847669
2944.3431,1515.9060570902543
2945.4375,1419.5807728896657
2946.5313,1324.4001247661975
2947.6244,1237.163453044339
2948.7169,1138.470084804577
2949.8087,1055.119334755766
2950.8999,958.9105062220586
2951.9904,878.6928919764147
2953.0803,818.5157752026895
2954.1696,767.1784302978099
2955.2582,719.2301234735442
2956.3462,666.4201132698776
2957.4335,632.6976510344932
2958.5202,599.6619814508746
2959.6062,586.6123428755286
2960.6916,565.3479676683428
2961.7764,553.4680823230814
2962.8605,536.8719076800295
2963.9439,529.6586590447915
2965.0267,524.827546354253
2966.1089,509.1277742487131
2967.1905,509.90854212019633
2968.2714,516.0690442694495
2969.3516,512.7584698981339
2970.4312,524.9260030472218
2971.5102,526.0708226301002
2972.5885,519.3421023108966
2973.6662,531.98901049303
2974.7432,540.7607103864989
2975.8196,527.0563598814118
2976.8954,528.0751114602706
2977.9705,519.7161123350126
2979.045,506.2285044368257
2980.1188,510.16142449973654
2981.192,493.8640041954867
2982.2645,473.43537009420436
2983.3364,448.3246438273777
2984.4077,432.8809422921412
2985.4783,403.403377902383
2986.5483,373.5410587431827
2987.6177,348.69308886558576
2988.6864,329.25856858522764
2989.7545,298.2365947308135
2990.8219,263.8262608384624
2991.8887,233.0266574619285
2992.9548,207.6868725167035
2994.0204,186.3559915880129
2995.0852,158.78309818421405
2996.1495,131.6672739501039
2997.2131,118.8575989426489
2998.276,96.95315190214296
2999.3383,91.40301038030407
3000.4,71.55625095931919
3001.4611,57.06194930734523
3002.5215,38.86918037697694
3003.5812,32.42701855019038
3004.6404,23.384537820269315
3005.6989,13.140811856228368
3006.7567,13.144914093236764
3007.8139,6.495917835055934
3008.8705,-2.207103746001337
3009.9264,-0.5650775425815482
3010.9818,-5.878908398364729
3012.0364,-11.399495511906139
3013.0905,-7.727679351466406
3014.1439,-10.914186504346219
3015.1966,-16.509666358329696
3016.2487,-11.96465926847793
3017.3002,-3.979540658285032
3018.3511,-10.404566424299162
3019.4013,2.71004729254264
3020.4509,-4.335811707077994
3021.4998,1.1577443504205007
3022.5481,7.940646553378656
3023.5958,12.912825978559567
3024.6428,12.774213623320406
3025.6892,6.524740355890401
3026.735,18.264336916756235
3027.7802,25.592933981157557
3028.8247,20.960462041690846
3029.8685,26.266851335023375
3030.9118,42.36203188821793
3031.9544,45.345933465668566
3032.9963,47.61848540814901
3034.0376,58.42961660297402
3035.0783,60.029255461273635
3036.1184,73.11732980988234
3037.1578,73.84376687534217
3038.1966,77.80849315302225
3039.2348,84.61143439985426
3040.2723,87.35251559468503
3041.3092,89.43166087024719
3042.3455,87.69879348574818
3043.3811,93.35383580607942
3044.4161,95.4967093191442
3045.4505,90.1273345793079
3046.4842,93.795631185969
3047.5173,93.05151783725273
3048.5498,96.14491229332816
3049.5816,90.5757313838493
3050.6128,90.29389097702114
3051.6434,87.29930603529135
3052.6734,88.49189061816867
3053.7027,77.77155791216893
3054.7314,78.48822021888907
3055.7594,89.99178906221061
3056.7868,81.28217518113291
3057.8136,89.05928841473758
3058.8398,78.9730377892846
3059.8653,86.02333144044138
3060.8902,83.26007671414482
3061.9145,78.58318009609923
3062.9381,80.19254723940782
3063.9612,84.33808301134252
3064.9835,77.76969147724964
3066.0053,75.38727585909493
3067.0264,77.74073860114737
3068.0469,74.97998139380326
3069.0668,64.6049051500516
3070.086,67.26541003308193
3071.1046,63.7113955600347
3072.1226,61.642760575396665
3073.1399,62.55940328654066
3074.1567,46.46122128441186
3075.1727,43.748111534361726
3076.1882,46.21997053712954
3077.203,40.5266943559736
3078.2173,37.31817859195263
3079.2308,29.59431844085867
3080.2438,30.355008725301843
3081.2561,20.000143971949512
3082.2678,19.329618403919028
3083.2789,7.593326044326346
3084.2893,10.391160722991344
3085.2991,2.7730161938007143
3086.3083,11.888786106729754
3087.3169,5.738364084023743
3088.3248,3.9216436290402896
3089.3321,-1.3114818122467682
3090.3388,5.28888116692022
3091.3449,0.8726390750020414
3092.3503,-0.6603016324292241
3093.3551,0.6899654914720941
3094.3593,-0.07664651003520362
3095.3629,-1.8602246005919483
3096.3658,-1.5108549781405145
3097.3681,-0.47860525697959133
3098.3698,1.7864720420331537
3099.3708,-2.265670820693458
3100.3713,-3.8850816026153723
3101.3711,-1.5717854271369447
3102.3702,-6.625768605697573
3103.3688,-1.1970017476004102
3104.3667,-0.9353892707202647
3105.364,-0.6408236348845548
3106.3607,0.8368120446181138
3107.3568,-1.952358945672671
3108.3522,2.141786672414611
3109.347,4.019391681117185
3110.3412,1.8805988412545958
3111.3348,5.875550873452511
3112.3277,4.454390479530673
3113.32,7.667260302553359
3114.3117,6.014302941041109
3115.3028,10.545660916841825
3116.2932,9.261476691660476
3117.2831,8.061892621745443
3118.2723,10.197050970730317
3119.2608,9.817093921629919
3120.2488,8.772163555488618
3121.2361,7.912401855179894
3122.2229,14.037950715855715
3123.209,14.698951953544139
3124.1944,12.995547243893668
3125.1793,15.927878115563374
3126.1635,13.246085967256846
3127.1471,20.100312038399068
3128.1301,18.340697435953842
3129.1125,20.917383065881836
3130.0942,21.0805096507366
3131.0753,23.830217703897688
3132.0558,22.316647527939523
3133.0357,21.039939187134493
3134.015,22.60023252258864
3134.9936,21.04766716500862
3135.9716,21.382382519098755
3136.949,29.00451777908684
3137.9258,29.26421192537687
3138.902,28.861603648327716
3139.8775,33.59683134565613
3140.8524,31.17003312646294
3141.8267,30.781346763880762
3142.8004,31.08090971934189
3143.7735,33.66885914646507
3144.7459,35.19533188806005
3145.7178,35.26046445024798
3146.689,35.31439298719681
3147.6596,33.107253300469836
3148.6295,33.239180838486504
3149.5989,35.41031071859375
3150.5676,41.02077772574671
3151.5357,43.87071629079752
3152.5032,41.46026043439049
3153.4701,43.539543738462854
3154.4364,44.208699370349265
3155.402,46.41786006198912
3156.367,47.21715810323475
3157.3315,47.75672531975998
3158.2952,46.73669306506704
3159.2584,50.25719221509098
3160.221,41.46835317839992
3161.1829,48.570305860990075
3162.1442,50.413179754174145
3163.105,52.49710386356189
3164.065,47.472206690631296
3165.0245,53.688616211889304
3165.9834,56.49645992912086
3166.9416,53.29586480722468
3167.8993,56.586957246134986
3168.8563,56.31986311282729
3169.8127,57.94470770840764
3170.7684,60.51161577078343
3171.7236,58.97071145841502
3172.6782,59.47211832464661
3173.6321,61.66595933311532
3174.5854,66.05235685273712
3175.5381,67.4314326357684
3176.4902,65.75330777394198
3177.4417,65.76810268467634
3178.3926,67.57593712785695
3179.3428,68.52693020568822
3180.2924,68.52120034461524
3181.2415,69.20886528581376
3182.1899,68.04004208524756
3183.1377,75.16484710679174
3184.0848,74.83339603392099
3185.0314,75.14580379846156
3185.9773,76.45218458390569
3186.9227,77.10265182228765
3187.8674,76.94731818111981
3188.8115,78.28629555688806
3189.755,83.71969507660513
3190.6979,83.64762708442075
3191.6402,81.62020108728771
3192.5818,79.88752575568259
3193.5229,88.44970894387988
3194.4633,91.6568577072789
3195.4031,86.65907821678182
3196.3423,85.55647572672225
3197.2809,89.14915462484304
3198.2189,86.83721844332224
3199.1563,88.87076982284641
3200.0931,91.29991053572988
3201.0292,90.47474146557929
3201.9648,92.69536258300217
3202.8997,91.26187295385866
3203.834,97.47437071705522
3204.7677,95.38295309887965
3205.7008,96.63771635087595
3206.6333,94.78875577075864
3207.5652,98.48616568986503
3208.4964,96.3300394916449
3209.4271,102.87046957468631
3210.3571,105.00754737427694
3211.2865,102.64136329699974
3212.2154,104.47200669936223
3213.1436,103.1995659114582
3214.0712,104.77412821866139
3214.9982,105.04577987434992
3215.9246,103.56460608416057
3216.8503,108.13069100327236
3217.7755,108.3441177512182
3218.7001,110.55496836622413
3219.624,111.1133238030749
3220.5473,113.41926391100574
3221.4701,114.72286742811849
3222.3922,116.17421195832245
3223.3137,116.72337395829811
3224.2346,116.37042872298395
3225.1549,114.91545038008454
3226.0746,117.75851189360017
3226.9937,120.19968507837663
3227.9121,121.88904057167461
3228.83,118.72664780875786
3229.7473,123.31257500599969
3230.6639,123.946889192507
3231.5799,124.4796561642608
3232.4954,122.4609404777733
3233.4102,127.29080544476004
3234.3244,125.41931315232719
3235.238,128.34652441467279
3236.151,128.0724987918017
3237.0634,135.2972945602536
3237.9752,128.37096871584308
3238.8864,128.49357690141187
3239.797,132.76517347609197
3240.7069,135.18581151407955
3241.6163,132.95554276191902
3242.5251,133.37441761429673
3243.4332,135.49248513634353
3244.3408,139.95979305944604
3245.2477,137.87638776006605
3246.154,134.8423142150674
3247.0598,140.8076160225499
3247.9649,141.32233543219024
3248.8694,141.7865132855889
3249.7733,143.95018901112303
3250.6766,142.7134006193045
3251.5793,140.3761846811434
3252.4814,148.18857634051565
3253.3829,148.00060933753537
3254.2838,148.4123159304308
3255.1841,146.87372689742418
3256.0838,148.73487153261445
3256.9829,149.59577766136331
3257.8814,151.30647162168367
3258.7792,152.9169782556305
3259.6765,154.77732089219413
3260.5731,150.587521331195
3261.4692,156.0475998246803
3262.3647,154.30757511882197
3263.2595,154.3174643993159
3264.1538,157.5272833087823
3265.0474,158.03704594666658
3265.9404,158.3467648371414
3266.8329,154.05645092400889
3267.7247,157.71611356760351
3268.616,157.67576058769507
3269.5066,152.68539822689218
3270.3966,156.29503115104575
3271.286,157.6046624991527
