RamanShift,CorrectedData
30.1047,486.072219041279
32.3739,446.37946980084143
34.6426,411.78671569968157
36.9109,377.1939474132826
39.1787,338.5511514992604
41.4461,299.95831074329124
43.7131,264.7654045455398
45.9796,230.27240930658752
48.2456,191.4792987793616
50.5112,155.68604441406487
52.7764,122.34261574610724
55.0411,84.79898075403808
57.3054,47.65510619298058
59.5692,9.81095797006806
61.8326,-18.633498484117197
64.0955,-54.328297837102525
66.3579,-86.07328860776546
68.6199,-117.86777657528822
70.8815,-141.91020764669983
73.1426,-128.3978502299415
75.4032,-44.1265550499802
77.6634,218.1591098627407
79.9231,877.9650173020625
82.1824,2267.3470378802367
84.4412,4680.261033429862
86.6995,7812.212843110072
88.9574,10805.408259277383
91.2148,12814.35299616619
93.4717,13678.202659956798
95.7282,13785.812728685993
97.9842,13634.788543608527
100.2398,13331.185308121023
102.4949,13022.808089272228
104.7495,12759.911820799027
107.0036,12443.301306210229
109.2573,12119.131221415524
111.5105,11725.206117891592
113.7632,11244.180425923796
116.0154,10730.05845854544
118.2672,10170.994416348029
120.5185,9566.342392622475
122.7693,8985.806378949756
125.0197,8446.940271247418
127.2696,7957.497875574953
129.519,7661.782913522439
131.7679,7380.949027104991
134.0163,7205.849781719884
136.2642,7095.788668954909
138.5117,7006.7691083393565
140.7587,6865.244448444631
143.0052,6663.217967774453
145.2512,6366.74287618009
147.4967,6020.572316880634
149.7417,5720.259369427751
151.9863,5473.507053167379
154.2304,5316.668330242868
156.4739,5208.846108062497
158.717,5251.393240867861
160.9596,5340.862530812095
163.2017,5456.406727534409
165.4433,5550.328527265378
167.6844,5525.33057167152
169.925,5381.015446916066
172.1651,5080.085683908939
174.4047,4762.843759749914
176.6439,4479.092100737905
178.8825,4257.88308554339
181.1206,4117.269048045931
183.3582,4010.002279546256
185.5954,3914.035030172408
187.832,3858.5695099524046
190.0681,3798.8578897739185
192.3037,3794.3023019389266
194.5388,3760.154840760831
196.7734,3767.0675626100083
199.0075,3803.0924862552906
201.2411,3879.8815927948363
203.4742,3964.9868252958777
205.7068,4072.960088026833
207.9389,4134.703245606253
210.1704,4199.318121923094
212.4015,4194.206499519272
214.632,4196.370118943531
216.862,4179.21067880255
219.0915,4202.12983573931
221.3205,4250.7292046046805
223.549,4270.610358228243
225.777,4266.874826932285
228.0044,4201.224098332992
230.2314,4129.559617377801
232.4578,4030.2327870019158
234.6837,3911.5949688449355
236.909,3810.9474842441396
239.1339,3695.6916154208557
241.3582,3612.378606486938
243.582,3535.7596645973263
245.8053,3551.785960783173
248.0281,3551.7086307180402
250.2503,3551.8287745576267
252.472,3573.2474569405485
254.6932,3579.7157069871328
256.9139,3540.5345180852364
259.134,3614.4048478255577
261.3536,3644.3276183934527
263.5727,3779.853715830231
265.7912,4019.9339897339273
268.0092,4330.66925190404
270.2267,4611.310273940731
272.4436,4898.007784137473
274.6601,5062.962464674638
276.8759,5178.124948752518
279.0913,5273.945818941786
281.3061,5341.675606031866
283.5204,5424.714788072724
285.7341,5540.263789697574
287.9473,5690.97298129248
290.16,5640.642677840871
292.3721,5441.473137416451
294.5837,5136.114561686498
296.7947,4884.817097903564
299.0052,4731.4308419590525
301.2152,4635.855840896198
303.4246,4558.142094443931
305.6334,4504.389555972622
307.8418,4438.598133271224
310.0495,4306.317689084793
312.2568,4125.848041772406
314.4635,3873.73896662997
316.6696,3576.640197694906
318.8752,3286.0014302672507
321.0802,3086.0223238806434
323.2847,3005.3025052087096
325.4887,2988.7415700648526
327.692,3064.2390842094537
329.8949,3278.2945835154783
332.0972,3537.357573213501
334.2989,3758.977525751149
336.5001,3786.9038782024786
338.7007,3634.7860300517664
340.9008,3345.9733429142593
343.1003,2989.5151420573416
345.2992,2650.710719288667
347.4976,2379.05933652074
349.6955,2154.9602291589595
351.8927,2017.562608818133
354.0895,1848.6156655634686
356.2856,1793.8185692845504
358.4812,1731.5204713848052
360.6763,1673.5705053294773
362.8707,1628.767787268605
365.0646,1639.5114166165267
367.258,1637.6504764999004
369.4508,1705.8340336502765
371.643,1840.9611384226992
373.8346,1978.8308241138761
376.0257,2190.4921056109006
378.2162,2358.0439780125625
380.4062,2458.3854145127316
382.5956,2386.7653647248385
384.7844,2187.632753678461
386.9726,1916.9864825355253
389.1603,1688.825430581628
391.3474,1556.5484579325084
393.5339,1515.8544078156528
395.7199,1545.8421078930696
397.9052,1697.110370668218
400.09,1926.7579931861428
402.2743,2199.8837555207847
404.4579,2392.2864184785076
406.641,2592.864720866839
408.8235,2817.917377570445
411.0054,3001.8930775453464
413.1868,3074.5904815683907
415.3675,2990.058220397499
417.5477,2931.64489404469
419.7273,2835.3990726214024
421.9064,2717.969296922627
424.0848,2507.2540793893686
426.2627,2153.3519052829333
428.4399,1805.761234792094
430.6166,1458.4805065721011
432.7928,1205.2581412205946
434.9683,1021.5925447504087
437.1432,869.7321111217998
439.3176,760.3252240791016
441.4914,714.770258669324
443.6645,668.7155823362309
445.8371,646.1595553758834
448.0091,632.8005313971889
450.1806,633.9868575474584
452.3514,626.2168746460056
454.5216,646.8889171722749
456.6913,649.4013133435456
458.8603,686.8023849082119
461.0288,703.1404471206615
463.1967,684.8138083672538
465.3639,679.220770002953
467.5306,665.3596265345805
469.6967,646.0286656767557
471.8622,597.2761684905026
474.0271,567.6004095765611
476.1914,548.4496575629137
478.3551,523.1721754015416
480.5182,517.1662205599296
482.6807,532.4300452738453
484.8426,640.3118966073935
487.0039,858.9100163003823
489.1647,1156.7726396895032
491.3248,1446.6979935223471
493.4843,1546.9842929787837
495.6432,1495.579738771703
497.8015,1353.2825161441542
499.9592,1099.6407953833868
502.1163,783.8027332438278
504.2728,506.3164754834952
506.4287,381.330160022384
508.5839,266.1919197173256
510.7386,227.29988361185042
512.8927,254.40217808757097
515.0461,274.5469272531018
517.199,389.73225267303405
519.3512,604.6562731664972
521.5029,996.0671036553022
523.6539,1383.7628530146985
525.8043,1480.8416201592663
527.9541,1207.9014901659593
530.1033,805.5905333033179
532.2519,495.4568077608692
534.3999,346.24836367223725
536.5472,290.06324621647764
538.694,292.49949711016416
540.8401,365.2551551692395
542.9856,460.5782562846516
545.1305,574.166832694802
547.2748,650.8689120323088
549.4185,694.8825161881259
551.5615,746.3056605445181
553.704,809.7363535349268
555.8458,912.1225961297387
557.987,1038.0623812019767
560.1276,1235.4036925034407
562.2675,1614.7945034053055
564.4069,2096.832774924712
566.5456,2427.3164519308557
568.6837,2283.8934583246073
570.8212,1804.811693733678
572.958,1211.6690349468417
575.0942,786.3133407047599
577.2299,542.2424576314052
579.3648,443.704224487622
581.4992,434.3964746118281
583.6329,496.1670369054027
585.766,674.6637359257602
587.8985,957.6343912686461
590.0304,1240.7268157831704
592.1616,1511.788812742101
594.2922,1613.5681730109427
596.4222,1479.7126723373085
598.5515,1148.9200703331362
600.6802,785.988111813238
602.8083,498.5145301032244
604.9358,382.84705066882816
607.0626,370.4833939906357
609.1888,404.5212767207686
611.3144,516.0584118065135
613.4393,758.2425081499505
615.5636,1100.2212694925756
617.6873,1398.3423919934658
619.8103,1638.7535608094877
621.9327,1686.1024471140872
624.0544,1549.9867056931744
626.1756,1184.5039744716369
628.2961,816.8518758744949
630.4159,632.2280204817353
632.5351,594.2300107048259
634.6537,559.1054426329574
636.7716,523.9519064130218
638.8889,493.71698660085804
641.0056,544.4982625127868
643.1216,655.993308527959
645.237,714.2996935805422
647.3518,628.0149800447734
649.4659,463.9367231518936
651.5793,314.0124718529996
653.6922,251.23977045981655
655.8043,161.51616014395086
657.9159,108.53917956461146
660.0268,55.45636576584775
662.137,61.51525470631714
664.2466,81.66338179011564
666.3556,94.89828180618815
668.4639,43.81748872684875
670.5716,30.468535575429087
672.6786,-20.901045062909816
674.785,-34.64372090769166
676.8907,-50.96175087699885
678.9958,-44.45704779814241
681.1002,-32.43101539054669
683.204,-18.584613247731795
685.3072,-20.31847697737885
687.4097,-5.233056526882137
689.5115,0.5714011379432122
691.6127,-35.6552986704869
693.7132,-23.713356348057005
695.8131,-28.102616094221048
697.9123,-12.222685212002489
700.0109,9.677109740708147
702.1089,78.3475643106417
704.2061,175.9894739477586
706.3028,293.5036333185458
708.3987,477.0408353295961
710.4941,593.2518699524694
712.5887,629.887522388316
714.6827,609.598571905774
716.7761,555.5857914746039
718.8688,525.8499479685861
720.9608,498.941802705639
723.0522,570.0621117451851
725.1429,659.7116261572291
727.233,860.9910913111544
729.3224,1227.0012459792338
731.4112,1599.5928203238282
733.4993,1744.2165322372862
735.5867,1546.323083616032
737.6735,1094.2631589143302
739.7596,675.4874271232147
741.845,419.1465462910901
743.9298,276.4411677114863
746.014,239.8719384864753
748.0974,240.53950295371533
750.1802,239.99450305214805
752.2624,241.5375783153172
754.3439,274.06936587682685
756.4247,313.3405004549054
758.5048,414.4016140270878
760.5843,539.503335437505
762.6631,760.2962893862737
764.7413,1091.1810951784755
766.8188,1573.8083645162346
768.8956,2139.578698189863
770.9718,2523.142681251593
773.0473,2531.95087735787
775.1221,2317.1538249337186
777.1962,2193.5520370846516
779.2697,2514.446003744652
781.3426,3164.3361929121793
783.4147,3701.773047441235
785.4862,3766.0569785424623
787.557,3312.9883604087718
789.6271,2559.017529572505
791.6966,1765.7447894361208
793.7654,1142.6704178119012
795.8335,739.9446748546884
797.901,507.8178092926196
799.9678,433.24006245438886
802.0339,432.3616705905142
804.0993,472.9828656191121
806.1641,472.7538751346897
808.2282,426.3249220019229
810.2916,313.9962243579512
812.3544,233.61799607666808
814.4164,176.54044789200498
816.4778,185.26378820171703
818.5385,284.0382236381547
820.5986,463.763958981031
822.658,795.6911961696765
824.7166,1183.1701325057852
826.7747,1695.6009573341412
828.832,2182.6838481678265
830.8886,2576.1689655639148
832.9446,2781.9064482526433
834.9999,2709.446409202561
837.0545,2323.4389335631527
839.1085,1810.584079389444
841.1618,1299.5318815020682
843.2143,950.7823566158218
845.2662,738.4355084501813
847.3175,612.1413312168029
849.368,552.7498117429905
851.4179,544.2109307346341
853.467,526.5246633701272
855.5155,575.6409793857556
857.5633,639.4598432525609
859.6105,624.7812136851762
861.6569,560.6550430036391
863.7027,468.2812772801749
865.7478,384.5598569804629
867.7922,335.49071788737183
869.8359,263.8237919381718
871.8789,242.25900771522674
873.9212,220.44629116266287
875.9629,263.3855658020202
878.0039,353.42675295038043
880.0441,428.2697712909694
882.0837,547.414535972749
884.1226,694.7609578619845
886.1609,902.2589423507984
888.1984,1221.5083878837077
890.2352,1532.1591838826425
892.2714,1632.6612075544517
894.3069,1517.21432078439
896.3416,1221.7683691311054
898.3757,948.8731829811036
900.4091,772.978580503207
902.4418,776.7843703775075
904.4739,915.6903535543156
906.5052,1056.9463232160974
908.5358,1089.5020633884187
910.5658,1001.7073475273805
912.595,806.0119381940704
914.6236,577.1155879325001
916.6515,409.61804122656304
918.6786,274.1690367889978
920.7051,245.81830923636335
922.7309,232.96559044352898
924.756,226.31060982718327
926.7804,297.1030944743602
928.8041,376.7927692089884
930.8272,504.37935588396886
932.8495,557.8625725842785
934.8711,604.0421323511014
936.892,654.7677426470004
938.9123,797.5891048941185
940.9318,969.1059139669187
942.9506,1100.1678567639756
944.9688,1091.2246104928035
946.9862,979.5758413592403
949.003,775.5712046568779
951.019,624.4603458835531
953.0344,518.4429027813926
955.0491,452.41850684792007
957.063,387.4367843962341
959.0763,384.2473572152494
961.0888,355.69984321951506
963.1007,341.0938564811099
965.1119,322.02900751511424
967.1223,276.00490342567036
969.1321,245.22114809663208
971.1412,215.6273426518046
973.1495,209.07308576278274
975.1572,209.057973944889
977.1641,228.08160162271543
979.1704,249.29356113027688
981.1759,258.3934425207717
983.1808,218.08083335446508
985.1849,178.50531860768933
987.1884,155.86648107597193
989.1911,177.56390176978675
991.1932,246.79716014094402
993.1945,303.8658338656146
995.1951,312.2194981519983
997.1951,299.207725169641
999.1943,261.3300839658932
1001.1928,270.9861405960337
1003.1906,344.82545850203996
1005.1877,490.5475984160307
1007.1841,669.3021176218704
1009.1798,787.488568497949
1011.1748,761.2064967296383
1013.1691,628.855440127425
1015.1627,445.73492888973306
1017.1556,273.7444869264332
1019.1477,158.9836336900471
1021.1392,76.9518858956526
1023.1299,25.648758668493883
1025.12,24.07376636429808
1027.1093,66.67642308230461
1029.0979,191.5562426810211
1031.0859,329.1627383521918
1033.0731,426.6954213719987
1035.0596,461.40379972500205
1037.0454,452.43737712880557
1039.0304,380.84565268697907
1041.0148,274.37812097871574
1042.9985,156.2842727747602
1044.9814,65.66359610207337
1046.9636,26.61557742477862
1048.9452,83.48970255036602
1050.926,186.08545702017136
1052.9061,304.3023255406356
1054.8855,376.4897909573483
1056.8642,381.5473330728764
1058.8421,357.0744279248938
1060.8194,352.0205477356003
1062.7959,350.53516115645425
1064.7717,337.6677333187099
1066.7469,332.2677258482736
1068.7213,362.6845969943738
1070.695,425.31780168356545
1072.6679,553.116791215557
1074.6402,740.18101263688
1076.6117,840.3099074629013
1078.5826,774.1029098071781
1080.5527,567.6594453801736
1082.5221,346.9789321513176
1084.4908,181.06078241345313
1086.4587,59.204404989633076
1088.426,18.759206892306338
1090.3925,-19.37540545812226
1092.3584,27.849974171162103
1094.3235,76.13494557327385
1096.2879,202.82910826282932
1098.2515,321.68206099309646
1100.2145,494.14340048905206
1102.1767,669.1127202588541
1104.1382,937.2896088692269
1106.099,1285.523648195769
1108.0591,1604.864410741182
1110.0185,1861.6614561529318
1111.9771,2104.514328029842
1113.9351,2382.2725513541222
1115.8923,2802.43563006284
1117.8488,3112.5530442703393
1119.8045,2980.174246066608
1121.7596,2424.548656416106
1123.7139,1743.975666481555
1125.6675,1302.8546431801878
1127.6204,1222.6349359894848
1129.5726,1335.165881358378
1131.524,1375.646803509453
1133.4748,1209.77701331364
1135.4248,859.005807885399
1137.3741,535.0824722414227
1139.3226,338.5062828083469
1141.2705,271.07651066198423
1143.2176,323.89242349308734
1145.164,441.45328628164543
1147.1097,465.4583607687264
1149.0546,378.55690428086746
1150.9989,229.94816949002688
1152.9424,82.43140528259391
1154.8852,-17.79414175452166
1156.8272,-67.5292258587233
1158.7686,-89.02442350394176
1160.7092,-80.52963654714131
1162.6491,-68.09387749129655
1164.5883,-0.4653543483127578
1166.5267,83.95840512773702
1168.4644,234.17987783166927
1170.4014,410.6515398187166
1172.3377,640.125864802314
1174.2732,932.1053223893823
1176.2081,1412.992375785584
1178.1421,2096.289478875529
1180.0755,2947.8490714139043
1182.0082,3542.973572192505
1183.9401,3634.165370524637
1185.8713,3136.726820293874
1187.8017,2400.6602390421326
1189.7315,1657.7679129440753
1191.6605,1082.802104167759
1193.5888,747.8150583035599
1195.5163,529.2090101138388
1197.4432,382.1861868828041
1199.3693,277.34881060257794
1201.2947,165.9490994434218
1203.2193,106.03926880211202
1205.1432,81.9715324159356
1207.0664,67.09810296178694
1208.9889,61.02119229684604
1210.9106,80.44301160731538
1212.8316,116.41577146918735
1214.7519,170.14168165402543
1216.6715,223.37295076923556
1218.5903,316.66178572080844
1220.5084,399.9603911810059
1222.4257,484.37096865547255
1224.3424,556.195715650254
1226.2583,646.8868248276831
1228.1735,802.9964832881396
1230.0879,1022.476871663137
1232.0016,1284.930162554223
1233.9146,1502.2085183381823
1235.8269,1636.5640885424973
1237.7384,1650.9490076725679
1239.6492,1626.915393868153
1241.5592,1693.165348759524
1243.4686,1921.5509577078
1245.3772,2345.074289142448
1247.285,2889.6373922774274
1249.1922,3385.542292875956
1251.0986,3830.7409878048784
1253.0042,4250.035440075617
1254.9092,4765.377574392184
1256.8134,5367.319272958241
1258.7169,5997.012370323672
1260.6196,6540.008647365173
1262.5216,6888.659824989319
1264.4229,6975.267558702595
1266.3234,6795.233435124897
1268.2232,6429.308971123442
1270.1223,6055.645615613115
1272.0207,5781.8447532157115
1273.9183,5630.057707996574
1275.8151,5595.435746202598
1277.7113,5752.830077780107
1279.6067,6208.39185672106
1281.5014,7035.622179489123
1283.3953,8206.772080464041
1285.2885,9540.442523669342
1287.181,10685.334391060831
1289.0727,11264.148469189888
1290.9637,11048.585437754555
1292.854,10334.995863811386
1294.7435,9417.030203931086
1296.6323,8543.6888113344
1298.5204,7753.371945071769
1300.4077,7151.679778756754
1302.2943,6733.662408469191
1304.1802,6435.669858772128
1306.0653,6190.802086891983
1307.9497,5989.158985698478
1309.8333,5822.090386153321
1311.7162,5659.5460593266225
1313.5984,5510.525718067601
1315.4798,5383.429018630008
1317.3605,5414.805562162344
1319.2405,5546.504895978822
1321.1197,5589.576513245599
1322.9982,5473.0198516637865
1324.876,5165.53429303873
1326.753,4668.369164445579
1328.6293,4053.0237413041427
1330.5048,3457.24725235054
1332.3796,2853.0388857906532
1334.2537,2389.6477952578907
1336.127,2060.723105855276
1337.9996,1834.1139187893568
1339.8714,1691.2193146594454
1341.7426,1545.48835572372
1343.6129,1446.9700873281645
1345.4826,1324.7135393638814
1347.3515,1220.6677272522752
1349.2196,1137.6316531676166
1351.087,1064.0543070774993
1352.9537,1052.8846675731997
1354.8197,1061.1717026054562
1356.6849,1133.1643695961602
1358.5493,1194.9116153554892
1360.4131,1342.662375361977
1362.276,1575.8155731450438
1364.1383,1833.2201188074869
1365.9998,1978.9249066939483
1367.8606,1953.2288128168711
1369.7206,1905.1806933994503
1371.5799,1952.4793851325958
1373.4384,1905.073705655409
1375.2962,1784.4124530822
1377.1533,1508.2944064765438
1379.0096,1221.6183270578922
1380.8652,1024.7829609627524
1382.7201,833.5870421114519
1384.5742,653.2792941764892
1386.4275,518.6584324944961
1388.2802,404.4731658693113
1390.132,317.3221979181926
1391.9832,265.354228213665
1393.8336,232.86795315503423
1395.6832,215.61206648806456
1397.5322,159.7852596298444
1399.3803,129.08622184134265
1401.2278,95.26364078567667
1403.0745,51.116202835103195
1404.9204,-4.607406590757819
1406.7656,-27.258502583445534
1408.6101,-47.08835420650894
1410.4538,-48.54795821105472
1412.2968,-37.187840935535405
1414.139,-26.558043724299296
1415.9805,25.29176358483255
1417.8213,93.56217646889536
1419.6613,196.0537901520106
1421.5006,370.0671989226789
1423.3391,612.202995108863
1425.1769,950.3617673378553
1427.0139,1442.69409811492
1428.8502,2014.0005604417056
1430.6858,2472.931712892923
1432.5206,2692.338093903274
1434.3547,2703.4702171781496
1436.188,2599.6785694995556
1438.0206,2538.0136106148
1439.8524,2468.475774274405
1441.6835,2449.5654688487593
1443.5139,2458.4830780234956
1445.3435,2505.27896098859
1447.1724,2533.1534523491932
1449.0005,2528.6568616576624
1450.8279,2491.989473134825
1452.6545,2465.251545714938
1454.4804,2444.093313412365
1456.3056,2391.314985588954
1458.13,2306.1667471656247
1459.9536,2172.9987591501445
1461.7766,1975.7111594886196
1463.5987,1751.4540643971677
1465.4202,1509.8775703347987
1467.2409,1265.8817562459808
1469.0608,1068.666685976411
1470.88,871.7824107129672
1472.6984,665.7789709558633
1474.5161,537.3563984874913
1476.3331,431.5647184324507
1478.1493,362.70395054177834
1479.9648,348.3741102508652
1481.7795,324.7252093680627
1483.5935,344.05725621798274
1485.4067,376.0202558779879
1487.2192,396.6142099848694
1489.031,410.88911641521827
1490.842,433.29496907948305
1492.6522,423.4817577792246
1494.4618,431.3994679830553
1496.2705,433.29808092477015
1498.0785,398.82757352417184
1499.8858,379.0379183680816
1501.6924,364.77908405504695
1503.4981,342.6510353932349
1505.3032,313.35373354302556
1507.1075,279.7371362382878
1508.911,257.1511980793548
1510.7138,224.99587086918882
1512.5159,179.6711038392409
1514.3172,148.97684397100375
1516.1178,134.2130364492632
1517.9176,122.1796249690351
1519.7166,79.27655188320932
1521.515,61.153758322877366
1523.3126,55.46118462636787
1525.1094,28.49877052047532
1526.9055,12.166455177382431
1528.7008,2.3641774842849372
1530.4954,-9.558123793283812
1532.2893,-2.4005099134301418
1534.0824,-0.3129466486070669
1535.8747,6.5546242098262155
1537.6663,-3.997739126362376
1539.4572,20.130021489053433
1541.2473,35.8380041397113
1543.0367,42.47630670794888
1544.8253,52.09502671772361
1546.6132,97.744261268233
1548.4003,117.22410693772463
1550.1867,189.73465932700628
1551.9723,248.27601286464505
1553.7572,341.7982600818623
1555.5414,475.85149102712194
1557.3247,637.6857923309049
1559.1074,864.8012458651806
1560.8893,1153.5979271250603
1562.6705,1420.075902957647
1564.4509,1651.885228674062
1566.2305,1752.0759453846717
1568.0094,1819.8980776809876
1569.7876,1828.851632633765
1571.565,1820.7365991147772
1573.3417,1842.5529477072828
1575.1176,1904.150630787175
1576.8928,2005.67958230482
1578.6672,2178.7897171690774
1580.4409,2378.630930232016
1582.2138,2632.603094557807
1583.986,2948.156059424312
1585.7575,3238.4896477833654
1587.5282,3495.7536531052406
1589.2981,3747.547836475317
1591.0673,3860.0719240214344
1592.8358,3930.025604395957
1594.6035,3968.0085276505292
1596.3704,3886.820304536541
1598.1366,3772.810506125297
1599.9021,3586.3286646199012
1601.6668,3416.3242744953504
1603.4308,3269.946794363357
1605.194,3233.445648672392
1606.9564,3375.020229171457
1608.7182,3702.9198952750985
1610.4791,4237.793972647663
1612.2394,4950.291749924301
1613.9988,5728.912473362219
1615.7576,6422.955339715714
1617.5156,6852.519488449952
1619.2728,6835.253994800551
1621.0293,6378.2078654779325
1622.785,5675.73003883998
1624.54,4842.9193894625
1626.2942,4004.5247351640023
1628.0477,3249.0948453337996
1629.8005,2624.8284493159613
1631.5525,2140.574243963607
1633.3037,1748.030899881574
1635.0542,1450.2970662689568
1636.804,1225.7713748445422
1638.553,1034.702442824147
1640.3013,919.7388751658757
1642.0488,791.3792664808084
1643.7955,692.8722021826386
1645.5416,623.6162597712666
1647.2868,556.110009817872
1649.0313,506.6520166574735
1650.7751,482.190839063991
1652.5181,463.8750307448238
1654.2604,462.6531405854646
1656.0019,506.6737128326549
1657.7427,593.2852871066088
1659.4828,706.2863979608014
1661.222,887.3255740158556
1662.9606,1157.3513368295307
1664.6984,1433.7121990863316
1666.4354,1613.7566618972483
1668.1717,1596.0332120361525
1669.9072,1375.490320139348
1671.642,1077.1264408828083
1673.3761,790.9400151876036
1675.1094,558.7294732035402
1676.8419,393.1932371710243
1678.5737,279.72972374316896
1680.3048,211.08734564115616
1682.0351,148.26451278887134
1683.7646,117.75963299932619
1685.4934,93.17111260288857
1687.2215,63.24735675233046
1688.9488,49.23676966871335
1690.6754,34.48775494062534
1692.4012,46.24871566428874
1694.1263,39.11805459104744
1695.8506,33.74417400975972
1697.5742,28.175475818103905
1699.297,12.060361576317746
1701.0191,11.74723256288371
1702.7404,10.68448993568245
1704.461,-6.579465264876717
1706.1808,10.103767894771408
1707.8999,-12.667343922951204
1709.6182,-17.094334156660125
1711.3358,-18.328609698206037
1713.0527,-21.421406667041765
1714.7688,-12.073778079809927
1716.4841,-8.836562953301154
1718.1987,-10.510479687263114
1719.9126,-20.796158404180233
1721.6257,-16.094124226844997
1723.338,-5.95469452442785
1725.0496,-14.828025885799434
1726.7605,-4.464215412431031
1728.4706,-2.56321207381734
1730.18,-4.824920241940845
1731.8886,-7.799218682296441
1733.5964,-10.535937959425837
1735.3036,-2.334830723676532
1737.0099,9.404455628625556
1738.7156,9.182297026114156
1740.4204,3.249069303380338
1742.1246,11.455148203192266
1743.8279,8.550909435827407
1745.5306,8.236728597012643
1747.2325,15.762981196965711
1748.9336,6.580042663538052
1750.634,15.388288266951577
1752.3336,20.538093211629075
1754.0325,23.479832548109925
1755.7307,21.813881121553322
1757.4281,32.140613542320125
1759.1247,30.110404202632935
1760.8206,32.023627173308796
1762.5158,42.03065622406143
1764.2102,50.38186480436866
1765.9039,41.77762594340311
1767.5968,45.718312166518444
1769.289,48.50429558129326
1770.9804,45.43594783812296
1772.6711,58.81364010236075
1774.361,59.887743084999784
1776.0502,55.35862690889621
1777.7386,63.876661098030354
1779.4263,65.14221462279579
1781.1132,75.6056558148216
1782.7994,61.11735235431411
1784.4849,75.97767116542354
1786.1696,66.18697856112749
1787.8535,86.14564009462674
1789.5367,72.20402065725398
1791.2192,96.86248427888472
1792.9009,80.97139426735475
1794.5818,82.93111296187612
1796.2621,74.04200189194717
1797.9415,86.35442175775415
1799.6202,95.06873251906495
1801.2982,87.98529327210258
1802.9755,80.45446216240316
1804.6519,90.02659645565063
1806.3277,91.2520526129839
1808.0027,104.28118619527629
1809.6769,99.2643518508819
1811.3504,92.50190318534305
1813.0231,108.19419281155865
1814.6951,102.49157241740977
1816.3664,111.14439260883591
1818.0369,114.30300296686175
1819.7067,106.96775196106898
1821.3757,121.53898691800907
1823.044,110.16705409455722
1824.7115,108.65229853219785
1826.3783,120.54506417074674
1828.0443,117.5456938634959
1829.7096,128.90452925828754
1831.3741,132.32191082750683
1833.0379,127.89817775449376
1834.701,122.18366789937
1836.3633,135.17871784327565
1838.0248,136.68366294551447
1839.6856,138.09883721360347
1841.3457,139.32457328822318
1843.005,145.61120242906532
1844.6636,139.7590545025771
1846.3214,140.11845791909354
1847.9785,148.13973969135986
1849.6349,148.7232254309365
1851.2904,150.8692392679875
1852.9453,155.52810384544455
1854.5994,159.05014029754796
1856.2528,160.88566820325696
1857.9054,156.78500555103005
1859.5572,151.59846872046887
1861.2083,158.12637252332513
1862.8587,166.26903025536637
1864.5084,160.0267536310971
1866.1572,163.34985270233187
1867.8054,162.58863592061869
1869.4528,148.69341010400763
1871.0994,170.86448044466226
1872.7453,164.70215064781257
1874.3905,161.3067227100437
1876.0349,164.27849698091927
1877.6786,166.0177721969369
1879.3215,174.02484545180937
1880.9637,171.55001217907238
1882.6051,168.94356607201325
1884.2458,172.55579910841948
1885.8858,168.88700157664277
1887.525,177.43746203947762
1889.1634,175.00746737084955
1890.8011,171.19730267030923
1892.4381,174.70725128733466
1894.0743,175.33759485943017
1895.7098,171.68861327702825
1897.3446,173.86058467718533
1898.9786,181.55378548007207
1900.6118,172.5184903672539
1902.2443,173.9049722047589
1903.8761,175.56350213343023
1905.5071,166.49434955506206
1907.1374,173.7477821158136
1908.7669,171.72406579690164
1910.3957,171.5234648420651
1912.0237,166.69624177780292
1913.651,172.74265741537954
1915.2776,166.91297089909733
1916.9034,170.35743964583241
1918.5285,167.876319403332
1920.1528,173.26986421576942
1921.7764,165.88832644855506
1923.3992,171.63195673440123
1925.0213,156.6010040471374
1926.6427,157.19571564427417
1928.2633,139.31633721731203
1929.8832,184.31311288579502
1931.5023,162.78628537610382
1933.1207,164.7360955714886
1934.7383,164.96278272733662
1936.3552,172.31658445167477
1937.9714,166.64773670290197
1939.5868,170.15647371625164
1941.2015,147.64302806048067
1942.8154,162.70763060278114
1944.4286,162.95051073391528
1946.041,147.02189621756918
1947.6528,154.8720131879238
1949.2637,152.2010863089414
1950.8739,151.1093386958645
1952.4834,157.94699194192447
1954.0921,152.36426612925982
1955.7001,158.36137976053953
1957.3074,157.43854981479035
1958.9139,149.94599168742582
1960.5197,152.18391919947453
1962.1247,155.90254467250531
1963.729,150.5520789062482
1965.3325,146.18273114140766
1966.9353,153.39470911316744
1968.5374,151.98821909488458
1970.1387,145.21346582596937
1971.7393,151.42065252595046
1973.3392,143.2099809622224
1974.9383,147.6816513879735
1976.5366,139.0858626242923
1978.1342,137.37281201545147
1979.7311,147.64269551486507
1981.3273,152.24570770221953
1982.9227,146.33204168077464
1984.5173,143.85188903133303
1986.1112,131.95543987137762
1987.7044,142.99288287987235
1989.2968,136.96440541622712
1990.8885,137.4201934099233
1992.4795,136.41043142079866
1994.0697,144.6353026344891
1995.6592,134.74498887252741
1997.2479,135.98967051009322
1998.8359,136.4195265749172
2000.4232,128.63473473483327
2002.0097,127.68547129348042
2003.5955,128.3219112681511
2005.1805,132.49422839928263
2006.7648,131.65259514409456
2008.3484,133.1471826348635
2009.9312,134.87816068734014
2011.5133,130.1956977858041
2013.0946,134.34996106575306
2014.6752,132.6911163607283
2016.2551,143.9693281607714
2017.8342,133.88475962901316
2019.4126,128.23757248889137
2020.9902,130.62792712499697
2022.5672,125.65598263954519
2024.1433,138.22189682847272
2025.7188,127.92582623115595
2027.2935,124.51792600475244
2028.8674,128.24835002716122
2030.4406,124.66725093110244
2032.0131,126.12478006681283
2033.5849,116.87108753785697
2035.1559,117.45632218655248
2036.7261,121.08063168650563
2038.2957,120.44416253676025
2039.8645,122.54706002555349
2041.4325,125.88946823668198
2042.9998,117.57153002847213
2044.5664,113.34338700035585
2046.1323,129.45517957604955
2047.6974,116.90704704583607
2049.2617,122.54912740544648
2050.8254,119.28155748154177
2052.3883,130.85447287529223
2053.9504,126.06800799505277
2055.5118,116.6722959406344
2057.0725,117.36746855116826
2058.6325,123.00365649906303
2060.1917,126.38098928305271
2061.7502,120.44959517183577
2063.3079,119.20960117030029
2064.8649,111.76113307883952
2066.4212,113.8543155057497
2067.9767,114.1392719417172
2069.5315,116.96612473888536
2071.0856,112.88499510800443
2072.6389,110.69600309016414
2074.1915,114.04926759760383
2075.7433,100.7949064356028
2077.2945,109.73303626894767
2078.8448,109.26377275447635
2080.3945,111.7872304516967
2081.9434,110.85352282747976
2083.4916,101.162762230824
2085.039,95.76505990219312
2086.5857,103.21052607042293
2088.1317,99.09927000669927
2089.677,101.83139995010265
2091.2215,96.5070231487216
2092.7652,106.42624583233089
2094.3083,96.63917326563467
2095.8506,107.34590964907511
2097.3921,100.34655821670299
2098.933,105.34122112911075
2100.4731,98.47999954342515
2102.0124,99.06299356336115
2103.5511,100.04030230783405
2105.089,105.61202390512983
2106.6261,93.47825548313119
2108.1626,99.73909311360114
2109.6983,101.44463193351999
2111.2332,108.59496608247764
2112.7675,94.49018868561757
2114.301,103.53039178213464
2115.8337,97.66566646632157
2117.3657,92.49610279716728
2118.897,96.87178985700484
2120.4276,97.04281580320674
2121.9575,99.05926782442816
2123.4866,96.27123213889752
2125.0149,90.97879397425095
2126.5426,91.98203759541298
2128.0695,91.33104635752
2129.5956,87.77590269588848
2131.1211,94.7666881325249
2132.6458,91.95348331167725
2134.1698,90.08636792992706
2135.693,86.21542076432058
2137.2155,88.640719691041
2138.7373,79.86234172411696
2140.2584,81.53036299117093
2141.7787,90.19485882120262
2143.2983,80.15590372790928
2144.8171,78.46357132303945
2146.3353,84.21793441678255
2147.8527,82.0690650346927
2149.3693,84.06703436014459
2150.8853,88.76191275582187
2152.4005,78.95376974373823
2153.9149,82.6426739582879
2155.4287,77.67869324432786
2156.9417,79.71189462028815
2158.454,82.14234432781222
2159.9655,83.5701078114264
2161.4764,78.44524969423321
2162.9865,72.46783376363408
2164.4958,80.53792302257887
2166.0045,75.40557974933847
2167.5124,71.07086541680542
2169.0195,73.88384074381725
2170.526,73.04456573850257
2172.0317,76.05309967015182
2173.5367,73.55950107760975
2175.0409,78.51382773919102
2176.5445,73.66613669761466
2178.0473,71.46648421046336
2179.5494,70.6149257986583
2181.0507,76.91151626845658
2182.5513,72.50630971996645
2184.0512,74.24935948418101
2185.5504,69.34071816703192
2187.0488,67.9304376319559
2188.5465,74.76856904898352
2190.0435,74.05516290884134
2191.5397,71.29026895457048
2193.0353,73.57393618866081
2194.5301,72.50621290069955
2196.0241,61.287146644534005
2197.5175,66.51678424894953
2199.0101,67.39517192986068
2200.502,68.47235523801407
2201.9931,66.89837905020556
2203.4835,64.92328755850815
2204.9733,60.7971242860109
2206.4622,62.11993210656999
2207.9505,58.69175328607173
2209.438,66.3126294692022
2210.9248,66.88260171373008
2212.4109,59.10171041429811
2213.8962,61.11999529672272
2215.3809,61.33749549580284
2216.8648,53.304249535137785
2218.3479,52.42029532495178
2219.8304,52.68567024242725
2221.3121,55.45041114054379
2222.7931,46.61455434542495
2224.2733,49.528135628690166
2225.7529,53.24119029581374
2227.2317,46.853753156988375
2228.7098,43.66585848999546
2230.1872,41.977540104078685
2231.6638,37.5888313718238
2233.1397,42.39976524604117
2234.6149,41.01037430365352
2236.0894,39.12069069758604
2237.5632,49.48074617066027
2239.0362,36.54057207449097
2240.5085,47.6501992658861
2241.9801,34.709658236248
2243.4509,44.21897900047736
2244.921,32.37819122637842
2246.3904,32.23732413956566
2247.8591,41.09640664187259
2249.3271,31.05546731275905
2250.7943,33.964534320721214
2252.2608,23.22363552370092
2253.7266,26.032798439994735
2255.1917,30.1420503556634
2256.656,23.901418296439942
2258.1197,30.66092898663726
2259.5826,25.970608911554052
2261.0447,38.83048424987987
2262.5062,25.040580920598245
2263.9669,25.55092445438771
2265.4269,21.76154013152143
2266.8862,24.322452976763714
2268.3448,30.883687797263747
2269.8026,28.495269156946392
2271.2598,27.80722131090033
2272.7162,30.66956822926153
2274.1719,25.03233360409382
2275.6268,18.49554082076577
2277.0811,23.959213014322586
2278.5346,23.52337313485424
2279.9874,31.73804389285874
2281.4395,25.303247763600837
2282.8908,24.61900690496509
2284.3414,29.28534322180417
2285.7914,24.20227837278037
2287.2406,21.61983372370321
2288.689,24.838030398359535
2290.1368,30.70688930433829
2291.5838,27.876431100848322
2293.0302,23.346676140029558
2294.4758,23.767644495257684
2295.9206,29.089356006441847
2297.3648,33.96183027581469
2298.8082,25.435086614715544
2300.251,25.55914399486545
2301.693,22.98402113363477
2303.1343,25.109736492802995
2304.5748,27.836308304309284
2306.0147,20.963754548996235
2307.4538,17.992092929343414
2308.8922,20.821340938192577
2310.3299,13.451515888465224
2311.7669,19.58263488486932
2313.2031,18.464714897598412
2314.6387,20.79777270101954
2316.0735,26.58182488485278
2317.5076,23.566887830840585
2318.941,20.352977654907534
2320.3737,24.490110237309636
2321.8056,21.428301254773146
2323.2369,22.61756613912337
2324.6674,21.557920107902987
2326.0972,23.04937815247905
2327.5263,29.891955048639943
2328.9547,22.03566534168027
2330.3823,20.38052327797533
2331.8092,18.276542883544096
2333.2355,15.32373798060064
2334.661,12.522122208593998
2336.0858,16.671709053736038
2337.5098,13.82251187701712
2338.9332,22.57454387271116
2340.3558,17.627818096866918
2341.7778,18.582347379787905
2343.199,14.988144375499985
2344.6195,13.995221552205635
2346.0393,17.453591228226344
2347.4583,16.563265581931887
2348.8767,15.874256617155993
2350.2943,16.886576172100092
2351.7113,14.950235926223286
2353.1275,13.365247390119407
2354.543,20.2816219248798
2355.9578,14.6493707579437
2357.3718,19.16850491393427
2358.7852,20.53903527098123
2360.1978,16.860972515529113
2361.6098,4.734327128632458
2363.021,18.25910942273589
2364.4315,11.985329662941183
2365.8413,19.662997931759264
2367.2504,20.49212419184812
2368.6587,19.822718209235973
2370.0664,16.304789545030133
2371.4733,22.68834756211072
2372.8795,15.523401460310083
2374.285,17.809960212577153
2375.6899,21.898032636626965
2377.0939,11.087627372075303
2378.4973,20.72875283955767
2379.9,16.07141734883305
2381.3019,20.115629002373282
2382.7032,19.4613957419362
2384.1037,15.308725308123428
2385.5035,16.757625246923055
2386.9027,14.95810295123556
2388.3011,13.760165646385929
2389.6987,14.363820408118158
2391.0957,9.819074174575178
2392.492,6.675933740261769
2393.8876,2.284405801491914
2395.2824,8.294496987820423
2396.6765,1.956191107587813
2398.07,5.619471886189899
2399.4627,10.384303506673177
2400.8547,3.950650095889216
2402.246,5.318475676846845
2403.6366,2.137744233048295
2405.0265,5.65841969481113
2406.4156,8.48046597107583
2407.8041,11.403846914198652
2409.1918,2.5785262917316345
2410.5789,8.254467757188308
2411.9652,3.231634938297475
2413.3508,13.509991380243207
2414.7358,8.38950059589348
2416.12,6.720125963016471
2417.5035,5.351830775485439
2418.8863,5.334578259972659
2420.2684,8.618331589632135
2421.6497,8.75305388427239
2423.0304,4.138708177518879
2424.4104,4.325257415466467
2425.7896,6.712664502823031
2427.1682,1.9508923010441777
2428.546,-1.5600963955409384
2429.9232,3.329661187888405
2431.2996,4.1201434115156985
2432.6753,15.1113286022279
2434.0503,8.70319504571114
2435.4246,9.84572087653794
2436.7982,4.68888414224898
2438.1711,11.182662791927783
2439.5433,6.777034727769319
2440.9148,12.621977740141915
2442.2856,5.61746955164358
2443.6557,12.013487758653127
2445.025,9.960009901374349
2446.3937,3.557013399876155
2447.7617,10.25447557462769
2449.1289,0.5523737105277178
2450.4955,3.40068498993071
2451.8613,6.149386589667074
2453.2265,10.948455652560938
2454.5909,13.147869259942809
2455.9546,3.2476043836588815
2457.3177,4.59763786407683
2458.68,1.4479465090884673
2460.0416,6.998507080609386
2461.4025,12.849296326075887
2462.7627,7.300290922938871
2464.1222,11.901467420157246
2465.4811,12.302802293686966
2466.8392,1.504271900469746
2468.1966,8.955852474419942
2469.5533,8.057520234409424
2470.9093,15.859251309752153
2472.2645,13.411021749187398
2473.6191,9.412807442861606
2474.973,14.464584146811603
2476.3262,11.0663275229453
2477.6787,14.268013088525208
2479.0305,12.319616250149977
2480.3816,14.17111227173848
2481.7319,27.522476294013927
2483.0816,18.573683315988205
2484.4306,16.774708061448564
2485.7789,18.77552506844546
2487.1264,18.72610870728215
2488.4733,21.976433160506872
2489.8195,21.476472423407245
2491.165,19.62620027150632
2492.5097,17.625590265562778
2493.8538,21.274615770073467
2495.1972,15.573249973279246
2496.5398,22.121465850675406
2497.8818,22.76923622202486
2499.2231,19.31653368587598
2500.5637,18.713330613085247
2501.9035,22.80959918134363
2503.2427,21.905311381209117
2504.5812,25.65043897514363
2505.919,23.144953506556078
2507.256,23.188826262351427
2508.5924,22.03202829798488
2509.9281,27.67453043702386
2511.2631,27.266303282715626
2512.5974,27.357317161562264
2513.9309,22.197542127403096
2515.2638,19.436947960504142
2516.596,23.17550421915621
2517.9275,19.413180267280723
2519.2583,23.749945237044358
2520.5884,22.335768066482046
2521.9178,29.220617456129105
2523.2465,22.204461883163333
2524.5745,24.187269532556513
2525.9018,26.419008367235676
2527.2284,29.24964610825566
2528.5543,24.02915021248083
2529.8796,26.407487844279558
2531.2041,20.484625927728757
2532.5279,31.11053112283082
2533.851,24.58516988474213
2535.1735,26.458508357514006
2536.4952,29.480512439346057
2537.8163,25.201147763853157
2539.1366,25.57037966984501
2540.4562,24.938173244120037
2541.7752,26.954493317772915
2543.0935,25.26930447251692
2544.411,24.732571020520254
2545.7279,26.79425702125843
2547.0441,21.354326286881474
2548.3596,33.01274236159679
2549.6744,22.769468576068903
2550.9885,26.324467930834828
2552.3019,30.627703198737436
2553.6146,29.579136889374638
2554.9266,27.72873120606755
2556.2379,25.976448056346385
2557.5485,26.32224907045361
2558.8585,30.466095618867712
2560.1677,27.907948808844708
2561.4762,28.447769442979677
2562.7841,26.535518044788546
2564.0913,25.921154853309645
2565.3977,28.80463984222655
2566.7035,31.53593272601114
2568.0086,38.164992931089444
2569.313,36.79177956852811
2570.6167,30.816251367744087
2571.9197,35.43836669023659
2573.222,35.708083589342664
2574.5236,32.62535976401597
2575.8246,35.7401525561292
2577.1248,36.65241898130171
2578.4244,37.01211569775154
2579.7232,36.26919899717245
2581.0214,38.373624801137225
2582.3189,33.6253486685265
2583.6157,40.47432577448512
2584.9118,38.02051095790455
2586.2072,48.26385865293304
2587.5019,51.35432291351401
2588.7959,44.34185731095215
2590.0893,43.92641490300929
2591.3819,51.257948304028844
2592.6739,47.93640968908994
2593.9652,47.91175072069251
2595.2557,57.78392258197243
2596.5456,59.852875976948155
2597.8348,60.4185610317989
2599.1234,57.78092727417544
2600.4112,60.78992362754292
2601.6983,67.99549843755739
2602.9848,66.54759944197582
2604.2705,71.14617369860014
2605.5556,62.14116759975633
2606.84,71.48252682630908
2608.1237,60.920196437711354
2609.4067,68.65412077859082
2610.689,60.63424358437351
2611.9707,60.810507903944256
2613.2516,62.13285617984542
2614.5319,60.651230246514615
2615.8115,56.615571317060926
2617.0903,57.725819998081306
2618.3685,54.48191633001704
2619.6461,51.88379977605166
2620.9229,60.08140925454944
2622.199,59.02468316503678
2623.4745,50.11355930622591
2624.7493,62.147974886582574
2626.0234,52.4778666134369
2627.2968,54.95317057263941
2628.5695,56.523822325262074
2629.8415,52.88975688284546
2631.1128,60.65090869169194
2632.3835,62.407211669206504
2633.6535,61.30859912628523
2634.9228,54.75500374975212
2636.1914,60.896357613345344
2637.4593,56.582592243253146
2638.7265,58.21363855670026
2639.9931,57.88942690508566
2641.259,59.15988705767208
2642.5242,59.12494820482834
2643.7887,58.834538945324255
2645.0525,56.488587286680485
2646.3156,56.88702064807242
2647.5781,49.52976588378934
2648.8398,50.56674927925053
2650.1009,47.09789662457777
2651.3613,46.223133204225576
2652.6211,51.24238383166954
2653.8801,48.00557285815424
2655.1385,45.212624122500415
2656.3961,53.76346098347372
2657.6531,51.0580063477135
2658.9094,46.746182584224755
2660.1651,47.427911551432686
2661.42,53.10311464030073
2662.6743,54.12171276751337
2663.9279,50.68362631872404
2665.1808,51.188775138369124
2666.433,63.737078564049
2667.6846,60.32845542147621
2668.9354,61.86282389899276
2670.1856,59.34010158165606
2671.4351,64.0102054358955
2672.6839,69.32305183473966
2673.9321,72.02855651111503
2675.1795,71.22663450471777
2676.4263,76.01720013495844
2677.6724,80.0001670089813
2678.9179,84.92544797375876
2680.1626,85.19295507626174
2681.4067,77.00259951420651
2682.6501,75.15429163338021
2683.8928,72.39794100954407
2685.1348,71.98345646691655
2686.3761,67.21074610573694
2687.6168,63.329717306410004
2688.8568,60.990276777233134
2690.0961,55.34233059320658
2691.3348,61.03578421942785
2692.5727,60.0205425675714
2693.81,48.49650993895372
2695.0466,52.21359003468612
2696.2826,51.82168607091492
2697.5178,51.8207007416506
2698.7524,57.16053622268714
2699.9863,54.141094171611314
2701.2195,58.61227567440466
2702.452,63.9239812756378
2703.6839,67.37611093375892
2704.9151,69.46856396797611
2706.1456,70.60123902373684
2707.3755,75.52403405180283
2708.6046,75.48684629692374
2709.8331,80.83957224860893
2711.0609,75.43210764149936
2712.2881,87.26434740184021
2713.5145,89.28618570155601
2714.7403,92.99751583992756
2715.9654,100.09823022337434
2717.1899,106.18822032834049
2718.4136,119.06737663028827
2719.6367,118.18558854279757
2720.8591,128.79274428877488
2722.0809,134.6387309092708
2723.3019,142.92343415740874
2724.5223,143.89673843992483
2725.7421,145.95852673432114
2726.9611,137.8586805791322
2728.1795,126.59708005330737
2729.3972,120.47360385720944
2730.6142,111.8881294252304
2731.8306,101.0405329870265
2733.0462,93.5806896533725
2734.2612,85.70847352463835
2735.4756,82.37375776538698
2736.6892,77.97641468309666
2737.9022,81.36631576150839
2739.1145,75.14333170459886
2740.3262,69.45733240268191
2741.5372,63.75818699463781
2742.7475,58.995763924773854
2743.9571,58.069930999815426
2745.1661,44.38055543653053
2746.3744,48.177503870987834
2747.582,42.46064249545063
2748.7889,31.529837020407285
2749.9952,34.084952731739946
2751.2008,34.12585460003237
2752.4057,32.20240725501901
2753.61,24.114474985175747
2754.8136,27.16192175695437
2756.0165,24.594611295661878
2757.2188,19.212407054986244
2758.4204,21.415172242669456
2759.6213,23.452769874329732
2760.8215,25.12506275143366
2762.0211,25.031913440920192
2763.22,18.67318425847776
2764.4182,26.34873726947569
2765.6158,22.5584343525515
2766.8127,15.402137122855436
2768.009,9.779706969953594
2769.2045,12.641005129390749
2770.3994,6.385892738914777
2771.5936,7.964230809863352
2772.7872,-4.074119710284435
2773.9801,-1.8292979536917926
2775.1723,3.0985976479338717
2776.3639,-5.440513062428295
2777.5548,-2.5467102727850772
2778.745,1.529980179582111
2779.9346,-1.2604421009726252
2781.1235,-5.26797752539477
2782.3117,-7.042613912813437
2783.4992,-1.984286455262236
2784.6861,-6.292859989061782
2785.8723,-10.018179527511109
2787.0579,-1.9100272182380706
2788.2428,-3.1680851272570294
2789.427,-1.442016239410549
2790.6106,-7.03145189037096
2791.7935,-1.9860090100683863
2792.9757,-1.6552342842288397
2794.1573,-3.788654558348412
2795.3382,2.76421985786709
2796.5184,-0.39608349662913156
2797.698,-3.019037110525801
2798.8769,1.895890484362269
2800.0551,-1.2007390835987621
2801.2327,-2.1583642050017318
2802.4096,2.9735887249438804
2803.5859,2.4457148730869562
2804.7615,12.508609376540619
2805.9364,13.962867347960952
2807.1106,19.20908377491793
2808.2842,17.19785350535318
2809.4572,23.779771195117405
2810.6294,32.95543132808302
2811.801,42.92542815032493
2812.972,55.79035557836363
2814.1423,62.150807099465624
2815.3119,83.80737564299409
2816.4808,90.06065351680394
2817.6491,117.06123219067683
2818.8167,131.60970223378797
2819.9837,168.70665304470026
2821.15,205.7526727058799
2822.3157,243.34834761272646
2823.4807,290.5942621031131
2824.645,341.2409980814295
2825.8086,392.6891345461232
2826.9716,449.2892470832313
2828.134,496.1919073519001
2829.2957,544.5476825183832
2830.4567,596.7071347870157
2831.617,626.7208209166554
2832.7767,630.7392916990893
2833.9358,637.6630916588963
2835.0941,625.692759013262
2836.2519,605.778825602742
2837.4089,580.6218170109637
2838.5653,565.9222527637669
2839.7211,533.730646580773
2840.8761,529.5975065223813
2842.0306,511.1733353116847
2843.1843,514.6586303758011
2844.3374,522.153884030115
2845.4899,535.9595834434249
2846.6417,548.4262105629908
2847.7928,560.0542419764763
2848.9433,573.0441487872838
2850.0931,584.9963964982728
2851.2422,572.7114448818613
2852.3907,575.0397478605041
2853.5385,583.1817536295414
2854.6857,594.0379046339153
2855.8323,607.9586374867515
2856.9781,620.7443828607956
2858.1233,632.5455653492073
2859.2679,656.8626033377029
2860.4118,691.5959088865432
2861.555,710.1458874873628
2862.6976,735.6629377158381
2863.8395,747.2474510461861
2864.9808,771.0498115959947
2866.1214,779.4703960103781
2867.2614,796.959573223952
2868.4007,796.0177043766291
2869.5393,805.5951426387253
2870.6773,834.6922332203808
2871.8146,853.7593132757836
2872.9513,868.0467116121999
2874.0874,882.8047484993033
2875.2227,906.3837355262999
2876.3574,908.6339754543487
2877.4915,924.3057619807713
2878.6249,920.29937971655
2879.7577,958.8151040296088
2880.8898,983.0532010848787
2882.0212,992.013927459139
2883.152,1012.097529898638
2884.2821,1025.9042452294839
2885.4116,1038.4343001568102
2886.5405,1057.8379111267084
2887.6686,1075.865284200927
2888.7962,1064.016614862835
2889.923,1069.8920878371496
2891.0493,1063.6918772084211
2892.1748,1063.2161463622797
2893.2997,1064.965048047437
2894.424,1059.288724380443
2895.5476,1060.4873068281977
2896.6706,1059.610916264714
2897.7929,1065.9096629591318
2898.9145,1068.233646584482
2900.0355,1074.132956154699
2901.1559,1058.7076700013813
2902.2756,1061.5078557147979
2903.3946,1037.633570298141
2904.513,1033.234860139524
2905.6308,1027.6117612507262
2906.7479,1026.364299311177
2907.8643,1031.9424897241897
2908.9801,1020.3463376294342
2910.0953,1021.8258378471555
2911.2098,1016.8309749941361
2912.3236,1015.7117234688994
2913.4368,1010.7680475016596
2914.5494,1018.2499011655143
2915.6613,986.5072284258803
2916.7725,987.7899630656752
2917.8831,973.3980290027451
2918.9931,946.0813402770362
2920.1024,926.0898011945144
2921.211,903.2233066003321
2922.319,892.5817420787446
2923.4264,883.7649841817739
2924.5331,873.3229005356247
2925.6391,873.3053499288517
2926.7445,875.2121824167814
2927.8493,870.6932393216862
2928.9534,875.2983532137171
2930.0569,889.8273479560928
2931.1597,892.2300386590489
2932.2619,908.3062315345476
2933.3634,917.2557238722507
2934.4643,927.7783038787574
2935.5645,933.5237505881107
2936.6641,944.5918337565704
2937.763,951.8323138051594
2938.8613,963.8449417089817
2939.959,941.3294589248189
2941.056,924.3855972710035
2942.1523,880.7630791525727
2943.248,839.4616177307087
2944.3431,786.8809173589623
2945.4375,722.7206739962688
2946.5313,680.280575732754
2947.6244,633.6603034313371
2948.7169,580.809531152132
2949.8087,533.6779266186492
2950.8999,496.26515174630407
2951.9904,449.72086311373334
2953.0803,418.944712336922
2954.1696,385.13634653464663
2955.2582,363.4454086362366
2956.3462,360.6715377196582
2957.4335,346.11436922842324
2958.5202,341.4235349993288
2959.6062,342.9986634080281
2960.6916,336.93937941593936
2961.7764,337.69530455449416
2962.8605,340.01605698573064
2963.9439,343.5512514947336
2965.0267,345.1504994664276
2966.1089,334.46340885022505
2967.1905,340.9895841440332
2968.2714,326.32862650112577
2969.3516,324.78013366488034
2970.4312,324.14370011538847
2971.5102,316.41891708494046
2972.5885,311.2053725643897
2973.6662,327.80265138040005
2974.7432,330.1103352475825
2975.8196,339.0780026025209
2976.8954,340.70522858069637
2977.9705,339.1915849268099
2979.045,332.7366399785104
2980.1188,336.5399586815312
2981.192,331.2511026542388
2982.2645,328.2696301496011
2983.3364,309.7950961080744
2984.4077,305.6770521874194
2985.4783,278.2650469474453
2986.5483,274.25862589119123
2987.6177,254.95733173904574
2988.6864,237.1107044688115
2989.7545,230.0182815087178
2990.8219,216.929597915887
2991.8887,198.0441864472587
2992.9548,189.51157769047657
2994.0204,171.3313002527426
2995.0852,155.50288084614309
2996.1495,129.57584446945128
2997.2131,117.499714566412
2998.276,99.02401328501156
2999.3383,89.19826159823918
3000.4,77.97197948884428
3001.4611,61.144686047593495
3002.5215,50.46589958553375
3003.5812,40.035137802265126
3004.6404,33.55191789272891
3005.6989,26.26575665151495
3006.7567,26.476170537694145
3007.8139,16.23267574768002
3008.8705,14.834788213124313
3009.9264,10.88202370335219
3010.9818,7.723897839341106
3012.0364,2.8099261332482683
3013.0905,-2.0103759800078933
3014.1439,-1.8374930936081455
3015.1966,-1.5218897170772436
3016.2487,-3.9640120033840844
3017.3002,-4.564290901819476
3018.3511,-2.723117761194402
3019.4013,-6.99083833305383
3020.4509,-0.8677711649963555
3021.4998,-3.3041649661456347
3022.5481,-7.350259776591571
3023.5958,-4.756262627816028
3024.6428,-4.322307122205785
3025.6892,-5.148479347084077
3026.735,-6.334822209925818
3027.7802,-0.3313271848975319
3028.8247,3.5120775387081835
3029.8685,1.1454670815570864
3030.9118,2.8689165291942516
3031.9544,1.432500955709969
3032.9963,1.4362954065055078
3034.0376,2.78037491265718
3035.0783,9.764814490878564
3036.1184,6.039689130079637
3037.1578,15.605073721522189
3038.1966,11.561043096071302
3039.2348,15.057671928541424
3040.2723,15.59503477813655
3041.3092,14.223206053484148
3042.3455,22.542260007261262
3043.3811,19.152270749912987
3044.4161,26.053312166462035
3045.4505,25.295457950408434
3046.4842,29.228781534719076
3047.5173,31.953356099406278
3048.5498,30.769254532194793
3049.5816,30.126549401275696
3050.6128,35.12531296714761
3051.6434,36.11561718904372
3052.6734,41.44753367494411
3053.7027,36.97113367167279
3054.7314,43.08648801157841
3055.7594,45.243667157298574
3056.7868,43.142741140605835
3057.8136,42.483779540836196
3058.8398,48.56685150589824
3059.8653,49.592025758862945
3060.8902,58.25937053713287
3061.9145,59.1189535821903
3062.9381,60.420842052923945
3063.9612,61.965102517032946
3064.9835,66.80180093800807
3066.0053,65.7810026596893
3067.0264,70.15277235789854
3068.0469,70.91717405064782
3069.0668,73.82427105442153
3070.086,69.27412597653229
3071.1046,70.96680068605005
3072.1226,68.65235635930355
3073.1399,68.23085346295353
3074.1567,70.10235177713727
3075.1727,67.66691039968362
3076.1882,62.7745877273979
3077.203,56.67544148041647
3078.2173,49.4695287511299
3079.2308,44.95690606517434
3080.2438,47.08762945349079
3081.2561,40.06175449745112
3082.2678,39.12933630755106
3083.2789,37.19042959366871
3084.2893,39.395088674388916
3085.2991,34.9433674963921
3086.3083,34.83531961240803
3087.3169,31.170998225732745
3088.3248,29.850456191309178
3089.3321,33.17374605237032
3090.3388,28.240920053644686
3091.3449,27.952030108123424
3092.3503,29.457127846388445
3093.3551,25.6562646195014
3094.3593,25.949491483952656
3095.3629,22.38685923967003
3096.3658,28.66841842708648
3097.3681,24.344219362766438
3098.3698,23.21431207659012
3099.3708,23.128746354995613
3100.3713,23.437571752277904
3101.3711,22.74083759144459
3102.3702,24.088592961127603
3103.3688,20.530886722550534
3104.3667,20.76776749605108
3105.364,20.499283696658125
3106.3607,16.17548353172289
3107.3568,18.646415003603806
3108.3522,17.81212595290448
3109.347,20.272664033764286
3110.3412,19.628076722201484
3111.3348,19.678411291507672
3112.3277,16.773714818693705
3113.32,13.91403418398636
3114.3117,14.799416099875302
3115.3028,16.379907139709914
3116.2932,14.005553728845456
3117.2831,19.32640212883817
3118.2723,14.44249846118879
3119.2608,12.753888654134073
3120.2488,16.110618491485837
3121.2361,13.562733629517027
3122.2229,16.810279563394502
3123.209,13.253301652657754
3124.1944,12.241845088743517
3125.1793,12.625954930555537
3126.1635,14.255676114579117
3127.1471,13.631053451040074
3128.1301,7.55213160760745
3129.1125,12.818955115639845
3130.0942,10.281568430974545
3131.0753,9.340015881259276
3132.0558,14.644341691326147
3133.0357,9.7945899926071
3134.015,12.340804770090756
3134.9936,14.833029910819832
3135.9716,18.721309178429067
3136.949,11.85568618822289
3137.9258,9.43620436829265
3138.902,12.962907028172893
3139.8775,8.385837383036161
3140.8524,8.605038518425928
3141.8267,12.720553436027338
3142.8004,11.532425051475165
3143.7735,17.940696153198672
3144.7459,13.845409414302857
3145.7178,12.446607328485818
3146.689,12.294332250991587
3147.6596,13.438626412598133
3148.6295,13.579531921140152
3149.5989,14.617090750066104
3150.5676,10.751344737029136
3151.5357,14.632335573511533
3152.5032,11.860104843482112
3153.4701,17.834693984586416
3154.4364,17.35614431586893
3155.402,15.374496978027274
3156.367,14.689792938197584
3157.3315,18.4020730097711
3158.2952,20.111377859241145
3159.2584,15.117747969080355
3160.221,14.67122362064756
3161.1829,15.071844944124159
3162.1442,14.219651922979303
3163.105,17.31468438996373
3164.065,19.40698203563167
3165.0245,14.896584377390532
3165.9834,19.0835307385779
3166.9416,15.317860293565573
3167.8993,16.249612025890066
3168.8563,19.37882476590925
3169.8127,17.905537181484917
3170.7684,19.279787746690594
3171.7236,18.951614756544483
3172.6782,19.721056313266935
3173.6321,18.83815032956215
3174.5854,20.602934520923778
3175.5381,19.615446414463992
3176.4902,19.125723331265633
3177.4417,19.183802396257104
3178.3926,20.18972054310957
3179.3428,20.24351451365621
3180.2924,20.945220847832978
3181.2415,21.244875883140754
3182.1899,21.042515747628183
3183.1377,25.288176356895153
3184.0848,20.231893416116428
3185.0314,25.123702377585015
3185.9773,22.863638491274997
3186.9227,21.901736755923448
3187.8674,23.238031941631064
3188.8115,24.322558599481205
3189.755,26.755351048176927
3190.6979,23.736443363195722
3191.6402,25.56586935246158
3192.5818,26.393662586534077
3193.5229,26.819856380314114
3194.4633,24.144483784765967
3195.4031,25.36757758265536
3196.3423,24.639170315303197
3197.2809,24.30929427035462
3198.2189,25.52798148906309
3199.1563,28.59526376958913
3200.0931,29.01117265481345
3201.0292,28.125739401664106
3201.9648,30.838994976957444
3202.8997,31.50097006625243
3203.834,28.511695046718096
3204.7677,28.071199980513775
3205.7008,28.779514644681885
3206.6333,27.686668535552876
3207.5652,27.892690861662047
3208.4964,30.14761055467806
3209.4271,32.05145626734263
3210.3571,29.304256350921424
3211.2865,29.006038836165555
3212.2154,31.556831460783545
3213.1436,29.05666167242358
3214.0712,31.455556603165533
3214.9982,33.25354309452264
3215.9246,33.050647673452595
3216.8503,33.64689653437765
3217.7755,33.942315541213596
3218.7001,34.38693022140725
3219.624,33.58076576298226
3220.5473,33.67384701009301
3221.4701,31.416198471086233
3222.3922,32.65784431757014
3223.3137,34.948808406990985
3224.2346,36.83911427021657
3225.1549,36.32878508862662
3226.0746,35.1178436752097
3226.9937,39.35631247966654
3227.9121,39.74421360051946
3228.83,36.481568742727596
3229.7473,42.56839921380796
3230.6639,33.654725956461874
3231.5799,37.59056948770666
3232.4954,41.42594998801236
3233.4102,38.91088726194334
3234.3244,39.69540069980436
3235.238,41.22950930279138
3236.151,40.21323167514626
3237.0634,42.49658600881583
3237.9752,37.87959009361458
3238.8864,40.91226129439114
3239.797,40.79461659719822
3240.7069,40.226672578965896
3241.6163,44.65844540867804
3242.5251,43.889950853051815
3243.4332,41.82120423221987
3244.3408,42.75222042741538
3245.2477,44.5830139016595
3246.154,41.81359869045113
3247.0598,42.093988383459035
3247.9649,44.97419615221596
3248.8694,43.45423474731478
3249.7733,43.28411646960636
3250.6766,47.963853185399245
3251.5793,45.343456328160784
3252.4814,45.27293685171978
3253.3829,45.35230525647045
3254.2838,46.88157159007768
3255.1841,47.66074544668328
3256.0838,44.38983595161335
3256.9829,46.86885175358651
3257.8814,48.44780105742302
3258.7792,44.676691599254646
3259.6765,45.95553063073509
3260.5731,46.434324956751155
3261.4692,47.11308092263431
3262.3647,48.14180440937277
3263.2595,47.62050082682393
3264.1538,49.84917510342717
3265.0474,48.52783169141688
3265.9404,50.50647454453566
3266.8329,49.28510713124779
3267.7247,51.5137324149528
3268.616,50.8423528661992
3269.5066,48.870970440398104
3270.3966,48.6495865845371
3271.286,47.17820225689408
