RamanShift,CorrectedData
30.1047,1004.2455414508996
32.3739,928.2583436286895
34.6426,850.3211357640238
36.9109,784.8838985318637
39.1787,707.1966041039589
41.4461,634.7592168032197
43.7131,563.2216938805906
45.9796,487.6839862394229
48.2456,420.396039150851
50.5112,345.75779300916906
52.7764,273.4191840047106
55.0411,204.630144870231
57.3054,132.59060560429396
59.5692,64.3504941591615
61.8326,-6.340262838810446
64.0955,-80.2317394067709
66.3579,-142.62394622264318
68.6199,-202.86609244927405
70.8815,-251.95596243628768
73.1426,-256.3393139010449
75.4032,-134.9593875208418
77.6634,288.0931368567707
79.9231,1375.3789276285233
82.1824,3784.3586503102147
84.4412,8122.842956663855
86.6995,14037.142460607869
88.9574,19701.067694832254
91.2148,23510.62905165558
93.4717,25063.586726385733
95.7282,25144.650679224327
97.9842,24743.5806197371
100.2398,23887.83600604328
102.4949,22893.926048826284
104.7495,21836.459719891194
107.0036,20859.29576210381
109.2573,19942.99269996534
111.5105,19102.20884938404
113.7632,18335.402326838233
116.0154,17750.381057784165
118.2672,17301.30278432404
120.5185,16815.475071056277
122.7693,16437.955309566245
125.0197,16124.300723284581
127.2696,15764.768371262362
129.519,15460.815151307666
131.7679,15094.897803580878
134.0163,14756.87291363424
136.2642,14322.096916071026
138.5117,13833.926097925758
140.7587,13424.516603012016
143.0052,13006.274436804104
145.2512,12553.805470531164
147.4967,12190.3654453596
149.7417,11861.25997691775
151.9863,11605.544558930314
154.2304,11380.174566509382
156.4739,11160.405258711606
158.717,10989.841780791892
160.9596,10717.889166401099
163.2017,10400.752339291661
165.4433,10042.486116037137
167.6844,9646.545209203552
169.925,9287.884230932079
172.1651,8884.70769689844
174.4047,8556.370029899512
176.6439,8219.475563885102
178.8825,7968.878547241315
181.1206,7744.133146159502
183.3582,7578.293447142232
185.5954,7408.8134592507495
187.832,7283.7471157633645
190.0681,7210.098275870253
192.3037,7116.9707259241295
194.5388,7030.818180176721
196.7734,7009.294281710056
199.0075,6977.202603297981
201.2411,7024.0966476214035
203.4742,7071.229847589205
205.7068,7135.005565869305
207.9389,7188.227094417322
210.1704,7294.79765383883
212.4015,7300.370392857129
214.632,7390.498387247552
216.862,7483.834639781722
219.0915,7496.082079326291
221.3205,7538.043559909562
223.549,7544.771860599023
225.777,7567.219685081733
228.0044,7585.589661597031
230.2314,7594.484342712068
232.4578,7607.856205138093
234.6837,7631.707649641522
236.909,7623.941000910204
239.1339,7545.758507314912
241.3582,7421.912340987019
243.582,7261.304598600309
245.8053,7169.4873026094465
248.0281,7085.6624028560545
250.2503,7074.681777486881
252.472,7077.347233792057
254.6932,7161.9605083148945
256.9139,7226.773266825233
259.134,7384.037103473314
261.3536,7582.053540141652
263.5727,7872.824024872386
265.7912,8113.349929887128
268.0092,8387.482548679254
270.2267,8555.723093608642
272.4436,8655.072693160357
274.6601,8610.432390262224
276.8759,8491.453141291358
279.0913,8328.185816520543
281.3061,8156.131201308041
283.5204,8026.639997730258
285.7341,7994.362826302284
287.9473,7942.95022727282
290.16,7928.202660946938
292.3721,7924.320508200214
294.5837,8092.904070626207
296.7947,8195.90357057527
299.0052,8322.119149468723
301.2152,8252.450866768846
303.4246,8071.998698716737
305.6334,7723.262539028982
307.8418,7329.79220070219
310.0495,6894.937419500341
312.2568,6434.6478578894985
314.4635,5982.273109386357
316.6696,5625.812703161133
318.8752,5343.116108561319
321.0802,5194.132738676283
323.2847,5168.411953164241
325.4887,5160.553059742084
327.692,5117.005314442582
329.8949,5019.31792169298
332.0972,4842.990034750469
334.2989,4585.970756679061
336.5001,4312.509142112866
338.7007,4094.504199826293
340.9008,3901.1048954686657
343.1003,3675.160153744265
345.2992,3539.468860346331
347.4976,3406.479864216506
349.6955,3276.8419789017435
351.8927,3217.203983884204
354.0895,3081.514625877636
356.2856,3058.3226194237513
358.4812,2934.426648249114
360.6763,2917.2753654970693
362.8707,2859.867394966692
365.0646,2865.951331284312
367.258,2891.575740477584
369.4508,2939.0891599146616
371.643,3019.290098047939
373.8346,3062.127033938921
376.0257,3145.498416456212
378.2162,3172.3026638471547
380.4062,3129.288162904102
382.5956,3013.8532686963954
384.7844,2888.1963050004833
386.9726,2720.4155654542938
389.1603,2617.5093148137894
391.3474,2506.725790630786
393.5339,2471.5632042820143
395.7199,2441.369742076953
397.9052,2459.143565609449
400.09,2531.382812059659
402.2743,2666.385594016303
404.4579,2803.649998754283
406.641,2988.6240868846453
408.8235,3123.8058909819374
411.0054,3234.943413734478
413.1868,3343.4346265925233
415.3675,3364.427468656906
417.5477,3308.5698455941147
419.7273,3234.8096294263687
421.9064,3117.394659090196
424.0848,3051.372741174029
426.2627,2885.9916510923576
428.4399,2645.0991337459363
430.6166,2334.7429051756153
432.7928,1995.2706549712511
434.9683,1712.3800493752715
437.1432,1480.7187346774008
439.3176,1287.68434004357
441.4914,1159.7244798325246
443.6645,1105.3367555261702
445.8371,1034.368757009166
448.0091,1006.3180631128162
450.1806,974.5322423247344
452.3514,942.058853069364
454.5216,958.6954440258269
456.6913,957.1395544526695
458.8603,1008.3887140214883
461.0288,1020.8404428324939
463.1967,993.2422509020089
465.3639,1016.0416380379611
467.5306,952.8860941158546
469.6967,947.973098850789
471.8622,916.2001224289943
474.0271,947.7146255569896
476.1914,963.2140597792913
478.3551,983.4458671632783
480.5182,1027.4074801441911
482.6807,1096.796321322814
484.8426,1278.6598030258683
487.0039,1582.0453266121094
489.1647,1921.2502806536995
491.3248,2234.2220379023565
493.4843,2334.0079518972925
495.6432,2264.1553538355147
497.8015,2092.811551573939
499.9592,1988.5238303279402
502.1163,1788.0394543847651
504.2728,1492.5556681464368
506.4287,1206.0696981345845
508.5839,915.1287559452812
510.7386,734.6800411139102
512.8927,640.4707440245638
515.0461,650.9480477145407
517.199,738.8591288164334
519.3512,916.0511574533557
521.5029,1193.0212963598478
523.6539,1447.5666991099442
525.8043,1553.1345073474604
527.9541,1474.1718482405595
530.1033,1257.2758334260616
532.2519,1088.9435597990669
534.3999,1020.2221116819292
536.5472,1056.4585625075615
538.694,1209.999975506662
540.8401,1435.543403345344
542.9856,1592.2358865897259
545.1305,1619.6244514504942
547.2748,1566.1061082159904
549.4185,1393.8278509783013
551.5615,1296.7866581684648
553.704,1307.0294942792389
555.8458,1427.2033108355263
557.987,1590.2050462919287
560.1276,1863.2816248310191
562.2675,2280.329954733319
564.4069,2831.296925646542
566.5456,3346.0794044151007
568.6837,3511.674229570446
570.8212,3122.178206183238
572.958,2428.4881042073994
575.0942,1763.4006623750738
577.2299,1287.2125951335347
579.3648,1082.370599296044
581.4992,1028.021358803755
583.6329,1057.8615467741074
585.766,1233.7378260443293
587.8985,1339.946848873038
590.0304,1444.285255181483
592.1616,1408.4996714914396
594.2922,1300.7367098818431
596.4222,1103.392968346634
598.5515,939.0650318723856
600.6802,773.9494744117528
602.8083,629.5428605267407
604.9358,615.2417470398559
607.0626,639.8926844781854
609.1888,744.6422172164057
611.3144,924.2368832302636
613.4393,1091.2232130490993
615.5636,1217.247727959886
617.6873,1268.3069383373731
619.8103,1214.4473423838426
621.9327,993.3654256185091
624.0544,790.2076614161197
626.1756,625.6205132177638
628.2961,455.8504365624631
630.4159,384.3938807330396
632.5351,393.39729045381864
634.6537,374.4571066051885
636.7716,352.269766133566
638.8889,372.6317022408002
641.0056,421.9393446060494
643.1216,418.73911918214617
645.237,366.47744770253667
647.3518,306.40074771328
649.4659,221.60543309566492
651.5793,187.0879146669722
653.6922,156.89460102843623
655.8043,117.12189891041271
657.9159,134.16621347431828
660.0268,133.87394871035394
662.137,175.54150726705848
664.2466,162.46529045423085
666.3556,172.24169782626814
668.4639,142.71712731291336
670.5716,104.83797512149431
672.6786,52.25063603217859
674.785,12.151503776758545
676.8907,-28.913028435477827
678.9958,-9.796567516750656
681.1002,-40.75243153813608
683.204,-51.933840703006354
685.3072,-52.14360809794562
687.4097,-66.83402799046416
689.5115,-51.406873733447355
691.6127,-25.613251007827785
693.7132,-43.90375193987893
695.8131,-28.27871277950362
697.9123,45.711968821877235
700.0109,45.21867771717916
702.1089,109.59179830221001
704.2061,180.3317145205947
706.3028,256.78880922004464
708.3987,316.2134634449503
710.4941,323.656055671825
712.5887,369.86696121505156
714.6827,444.89655215244966
716.7761,546.8951968631791
718.8688,696.3632592774429
720.9608,806.7510978564897
723.0522,979.6590640979393
725.1429,1069.3875014319128
727.233,1163.4867434919342
729.3224,1271.8571132176621
731.4112,1265.1989219138832
733.4993,1155.3124681668323
735.5867,942.0980379107459
737.6735,695.1559055267408
739.7596,519.8863359749521
741.845,372.2895872639583
743.9298,307.0159122034747
746.014,258.46555988032196
748.0974,243.98877631117466
750.1802,258.68580492805086
752.2624,282.7068867230846
754.3439,356.6022601015575
756.4247,470.5721606416828
758.5048,658.3668203556626
760.5843,941.5364665499765
762.6631,1349.631319947437
764.7413,1934.601591855504
766.8188,2612.3474800853273
768.8956,3210.569163102049
770.9718,3625.5167932473396
773.0473,3584.740490757178
775.1221,3371.890339612384
777.1962,3132.516387946378
779.2697,3080.6686501736876
781.3426,3137.3471093836815
783.4147,3271.051717859047
785.4862,3296.4323965090134
787.557,3088.03903353229
789.6271,2623.2714841632696
791.6966,2016.6295727559518
793.7654,1441.113097431633
795.8335,1035.0218361453226
797.901,719.755552440909
799.9678,565.7139995120579
802.0339,485.846923354884
804.0993,414.2540643083721
806.1641,382.6351578530339
808.2282,325.88993532684617
810.2916,246.36812424144046
812.3544,214.81944884954828
814.4164,159.44363094022265
816.4778,195.54039015433227
818.5385,235.90944453830707
820.5986,418.65051018317354
822.658,664.7133008208748
824.7166,1036.997525996847
826.7747,1586.1528886093893
828.832,2140.079081186841
830.8886,2590.425780396008
832.9446,2759.8426415029153
834.9999,2641.929293869327
837.0545,2321.0353392585894
839.1085,1958.8103530147528
841.1618,1615.5038872715213
843.2143,1337.5154745744985
845.2662,1125.944631314247
847.3175,993.2908605061803
849.368,896.0536539062705
851.4179,798.88249333758
853.467,739.8768516626442
855.5155,697.4361937551785
857.5633,657.0599770901317
859.6105,560.597652168095
861.6569,484.4986629190662
863.7027,417.4624476670688
865.7478,397.08843989114575
867.7922,344.3760688957136
869.8359,337.5747600143077
871.8789,342.08393513670853
873.9212,419.5030127769496
875.9629,521.531408028226
878.0039,661.8685317887157
880.0441,717.1137897412809
882.0837,793.1165809501053
884.1226,841.6762973082414
886.1609,930.5923227775793
888.1984,1051.8140329032503
890.2352,1250.740793924464
892.2714,1271.9719615622944
894.3069,1226.1568790304127
896.3416,1067.894876822782
898.3757,938.7352731717938
900.4091,844.7273756309023
902.4418,825.2704823662052
904.4739,862.6138830965347
906.5052,909.6068592880238
908.5358,921.3986837806669
910.5658,794.9886203183942
912.595,594.9259234311567
914.6236,381.9598396990168
916.6515,272.53960975278187
918.6786,155.46447040366002
920.7051,159.13365573747615
922.7309,218.5963982854155
924.756,252.40192898732312
926.7804,326.94947659708214
928.8041,326.5882673445649
930.8272,404.9675241901432
932.8495,378.1864668283133
934.8711,411.29431090390244
936.892,381.1402682798762
938.9123,409.2735467062703
940.9318,472.2433501217092
942.9506,473.19887837209353
944.9688,462.68932658088306
946.9862,348.31388513956426
949.003,231.12173981273008
951.019,100.71207288183996
953.0344,23.234064317136472
955.0491,29.23689308174926
957.063,86.21973790646553
959.0763,179.83177722970868
961.0888,210.5721886277106
963.1007,268.5401478783888
965.1119,272.3348286539376
967.1223,274.05540194115383
969.1321,271.2010360034865
971.1412,256.52089636384153
973.1495,242.76414583311907
975.1572,238.3299446570154
977.1641,299.06745065358973
979.1704,278.37581925760514
981.1759,267.2542029131537
983.1808,286.55175128057
985.1849,274.0676113476502
987.1884,325.1009272366673
989.1911,429.1008403292244
991.1932,482.5664887559142
993.1945,481.14700635632926
995.1951,489.69152214440055
997.1951,472.99916032259443
999.1943,449.21904019646536
1001.1928,468.6502763415747
1003.1906,540.9919788412999
1005.1877,666.6432530925185
1007.1841,762.8031990821955
1009.1798,829.5209101308656
1011.1748,753.2454719310372
1013.1691,626.7259618800099
1015.1627,443.41144984263155
1017.1556,270.9509994164973
1019.1477,151.793669765093
1021.1392,63.18851734239615
1023.1299,32.58459708444934
1025.12,64.6809632954155
1027.1093,135.1766699536156
1029.0979,257.3207703905646
1031.0859,362.2123165860148
1033.0731,389.0003579465174
1035.0596,357.6339402565027
1037.0454,285.9121054104071
1039.0304,211.4838917263296
1041.0148,95.99833466325799
1042.9985,0.30446756533910957
1044.9814,-25.298677183259315
1046.9636,-63.01206720140999
1048.9452,-69.58641737419839
1050.926,-36.37181309616426
1052.9061,1.682355406456736
1054.8855,57.47706126184221
1056.8642,85.96327758134703
1058.8421,134.04197690156343
1060.8194,165.51413089945618
1062.7959,232.53070991156983
1064.7717,303.14268261931375
1066.7469,390.25101537879254
1068.7213,485.30667151469333
1070.695,585.5106104491961
1072.6679,655.063786751417
1074.6402,679.7671491353676
1076.6117,646.6716397644277
1078.5826,538.8281940043016
1080.5527,374.1877407539869
1082.5221,267.4512035241978
1084.4908,238.96950208377802
1086.4587,234.9935535270597
1088.426,251.9742725586857
1090.3925,262.0125715333652
1092.3584,343.8093602860681
1094.3235,368.5655460316402
1096.2879,476.68203254683795
1098.2515,596.3097199227668
1100.2145,805.7495034837157
1102.1767,996.1022725908779
1104.1382,1243.1689085479557
1106.099,1488.500282697627
1108.0591,1687.0472539508792
1110.0185,1865.1106663337032
1111.9771,1931.6913470016189
1113.9351,1887.9901044590451
1115.8923,1800.1077278934918
1117.8488,1696.0949876125815
1119.8045,1534.7526359228568
1121.7596,1404.5314081699235
1123.7139,1281.8320243518647
1125.6675,1198.1051904214446
1127.6204,1241.9015995131213
1129.5726,1180.421932780292
1131.524,1136.916858957342
1133.4748,968.2370349744497
1135.4248,784.183106392622
1137.3741,627.3057090904967
1139.3226,497.9054711048948
1141.2705,451.4330141995797
1143.2176,363.68895515926397
1145.164,343.62390625433363
1147.1097,270.08847611828514
1149.0546,182.18326994838299
1150.9989,113.55889024100361
1152.9424,8.065937670696258
1154.8852,-45.894988223578366
1156.8272,-65.8732879835161
1158.7686,-56.267903659882904
1160.7092,-28.17711922930539
1162.6491,24.301343447947147
1164.5883,143.0700440010196
1166.5267,266.1315418160484
1168.4644,425.8883948484727
1170.4014,625.4931583924181
1172.3377,892.548383483132
1174.2732,1181.856614900934
1176.2081,1648.370388500658
1178.1421,2184.842228318572
1180.0755,2713.72464190725
1182.0082,3105.720114970848
1183.9401,3301.1311060762855
1185.8713,3179.610042733283
1187.8017,2826.1093194402565
1189.7315,2425.7812988995247
1191.6605,2026.4283155523099
1193.5888,1735.9526795820238
1195.5163,1564.7066809078024
1197.4432,1495.4425920892518
1199.3693,1453.7126700389208
1201.2947,1396.41915671493
1203.2193,1362.1642795382832
1205.1432,1361.3502519657904
1207.0664,1321.3792738326256
1208.9889,1278.403531360459
1210.9106,1289.4251975571724
1212.8316,1274.6464326466194
1214.7519,1317.2193839583988
1216.6715,1359.346186075658
1218.5903,1458.67896040935
1220.5084,1550.369814776962
1222.4257,1662.670842409203
1224.3424,1770.6341210330866
1226.2583,1887.9617117489233
1228.1735,2071.6556579506905
1230.0879,2220.9179841527466
1232.0016,2417.300694152901
1233.9146,2558.4557695397916
1235.8269,2655.8851677290504
1237.7384,2639.7408205517595
1239.6492,2557.224633280148
1241.5592,2576.6384847890376
1243.4686,2640.134228381011
1245.3772,2868.8136915922623
1247.285,3126.9286755576577
1249.1922,3373.2309527239304
1251.0986,3605.622264268529
1253.0042,3706.604317636592
1254.9092,3838.0787842170475
1256.8134,3938.09729833278
1258.7169,4103.71145592589
1260.6196,4236.522813557508
1262.5216,4471.282886751661
1264.4229,4649.743148667147
1266.3234,4815.905027749939
1268.2232,5004.119905948587
1270.1223,5123.239117052594
1272.0207,5152.7639448102655
1273.9183,5156.195621737518
1275.8151,5111.735328822634
1277.7113,5116.884195491942
1279.6067,5250.943300054423
1281.5014,5537.963669650222
1283.3953,6024.546278910049
1285.2885,6668.742047084992
1287.181,7249.801833180669
1289.0727,7844.876429515287
1290.9637,8232.116555909028
1292.854,8518.822853733316
1294.7435,8462.19588203841
1296.6323,8308.686114686338
1298.5204,8084.293940917172
1300.4077,7785.119666884126
1302.2943,7496.813517897476
1304.1802,7131.525641416312
1306.0653,6603.45610993159
1307.9497,6100.704924619005
1309.8333,5662.822020619695
1311.7162,5288.057272067745
1313.5984,5087.210496469028
1315.4798,4916.231458448848
1317.3605,4803.3698717604075
1319.2405,4632.0254009946
1321.1197,4390.447662708627
1322.9982,4029.936227139431
1324.876,3740.6406206194897
1326.753,3441.5103291819196
1328.6293,3204.2448014534357
1330.5048,2995.5434516456526
1332.3796,2830.45566192774
1334.2537,2706.480784513433
1336.127,2615.3181433119207
1337.9996,2596.2670351675806
1339.8714,2589.4267307716163
1341.7426,2588.646474852564
1343.6129,2638.7254862446953
1345.4826,2643.162957895819
1347.3515,2692.908056366494
1349.2196,2692.8099217856543
1351.087,2739.467667353156
1352.9537,2776.0303793407566
1354.8197,2878.74711662554
1356.6849,3063.4669103242895
1358.5493,3256.8887627663207
1360.4131,3449.4616456462845
1362.276,3627.7344980899506
1364.1383,3694.6062247284717
1365.9998,3554.875693915661
1367.8606,3258.891737059268
1369.7206,2893.6531500182928
1371.5799,2584.5086960628178
1373.4384,2325.857109526398
1375.2962,2110.8970988975034
1377.1533,1811.277349406033
1379.0096,1462.1965251729234
1380.8652,1160.6532722063366
1382.7201,868.0962218924706
1384.5742,651.1739940109937
1386.4275,496.28519966061685
1388.2802,376.27844342831213
1390.132,282.1023249382015
1391.9832,221.9054400516261
1393.8336,151.9863818089034
1395.6832,126.69374103130758
1397.5322,87.57610702024704
1399.3803,106.33206781019726
1401.2278,56.41021055987949
1403.0745,53.20912136469542
1404.9204,55.32738575595249
1406.7656,104.113588732871
1408.6101,112.56631474139976
1410.4538,167.23414718634922
1412.2968,211.66566834687455
1414.139,269.45945882978776
1415.9805,357.8640971252462
1417.8213,430.4281590288101
1419.6613,541.600216757407
1421.5006,681.5288382236813
1423.3391,882.2125859242806
1425.1769,1195.550015540568
1427.0139,1618.289673931784
1428.8502,2111.48009600167
1430.6858,2637.569800471071
1432.5206,3042.557284946027
1434.3547,3279.5410206568868
1436.188,3281.169448408422
1438.0206,3236.790976209999
1439.8524,3085.0539792592917
1441.6835,2976.0068003860642
1443.5139,2916.54775156954
1445.3435,2884.225115028884
1447.1724,2871.1371438177794
1449.0005,2862.4820621476647
1450.8279,2793.6080655186097
1452.6545,2822.5133208058724
1454.4804,2859.9959669486334
1456.3056,2880.9541146609445
1458.13,2839.035846056906
1459.9536,2721.689214441073
1461.7766,2484.562244727643
1463.5987,2215.8029346139238
1465.4202,1921.009256951611
1467.2409,1610.9791624343698
1469.0608,1376.7605825457758
1470.88,1150.901432659617
1472.6984,938.649614382075
1474.5161,779.05301781032
1476.3331,660.759523655036
1478.1493,552.417004836374
1479.9648,507.92332766689833
1481.7795,451.6763529350028
1483.5935,417.6239363498489
1485.4067,397.46392910383474
1487.2192,361.0941782131249
1489.031,354.46252671924594
1490.842,352.86681405278887
1492.6522,326.9548760997195
1494.4618,306.9745452173347
1496.2705,296.3236504933875
1498.0785,284.20001794588734
1499.8858,246.00147062960514
1501.6924,220.92582875731387
1503.4981,192.62091008177777
1505.3032,186.18453014650004
1507.1075,146.06450256877906
1508.911,136.30863910407334
1510.7138,101.86475004719432
1512.5159,61.9806443298703
1514.3172,54.45412986518568
1516.1178,38.18301394642003
1517.9176,16.765103322311916
1519.7166,-6.401795640224918
1521.515,-23.669876741931148
1523.3126,-10.441269829606426
1525.1094,-26.217868287985766
1526.9055,-44.00146119352212
1528.7008,-37.943575706167394
1530.4954,-48.74529941127639
1532.2893,-55.35734083788793
1534.0824,-43.62992154949825
1535.8747,-28.21271008977328
1537.6663,-14.954939139464841
1539.4572,0.29444046564549353
1541.2473,20.086627289618264
1543.0367,40.02281989357198
1544.8253,83.65421663776124
1546.6132,145.0320154822175
1548.4003,173.5074135504301
1550.1867,231.33160651557137
1551.9723,334.8057883157453
1553.7572,463.98115057573887
1555.5414,579.6088815722851
1557.3247,771.6901649423062
1559.1074,973.7761785266384
1560.8893,1166.2180924492159
1562.6705,1329.1170670962128
1564.4509,1482.874251191629
1566.2305,1583.4907801682884
1568.0094,1607.117774630281
1569.7876,1658.5563393467864
1571.565,1638.2075630158088
1573.3417,1633.672517749791
1575.1176,1661.4022592791034
1576.8928,1675.7478269973863
1578.6672,1700.260243684268
1580.4409,1775.7405153618947
1582.2138,1827.7896310498109
1583.986,1951.3085620101583
1585.7575,2084.598261227183
1587.5282,2228.559662172046
1589.2981,2360.743677469927
1591.0673,2457.8011974604096
1592.8358,2641.733088875644
1594.6035,2746.340193869769
1596.3704,2866.7233281795952
1598.1366,3016.683280078527
1599.9021,3123.6708091727437
1601.6668,3230.6366449015945
1603.4308,3373.131485467722
1605.194,3562.455996767409
1606.9564,3765.860810965626
1608.7182,4071.3965246027797
1610.4791,4416.6636965606685
1612.2394,4786.012845007121
1613.9988,5086.04444394333
1615.7576,5403.408919510365
1617.5156,5622.6066469888465
1619.2728,5725.687947625313
1621.0293,5589.503086440234
1622.785,5325.502271197201
1624.54,4974.285653764777
1626.2942,4559.403332756507
1628.0477,4095.7553570430755
1629.8005,3706.94172990114
1631.5525,3377.412413649802
1633.3037,3093.3173335387496
1635.0542,2840.056381043547
1636.804,2676.429416706587
1638.553,2521.0362726696985
1640.3013,2469.026754310419
1642.0488,2420.650641795926
1643.7955,2443.3576906031303
1645.5416,2494.89763200244
1647.2868,2609.2701728306847
1649.0313,2720.774994975724
1650.7751,2862.7617542327166
1652.5181,3045.4300791890732
1654.2604,3217.579569804591
1656.0019,3440.909795584767
1657.7427,3703.2202938593064
1659.4828,3943.210567548817
1661.222,4092.9800825417037
1662.9606,4125.828265294271
1664.6984,3937.354501333022
1666.4354,3521.7581349261836
1668.1717,3010.6384709684366
1669.9072,2473.444779136881
1671.642,2041.176299002234
1673.3761,1675.932245400763
1675.1094,1381.9118127569782
1676.8419,1145.4141787360663
1678.5737,979.0385071840997
1680.3048,824.0839504930091
1682.0351,730.7496512643424
1683.7646,601.8347438588075
1685.4934,537.4383553296202
1687.2215,474.45960671164767
1688.9488,428.24761366537587
1690.6754,376.15148710669655
1692.4012,350.02033366902697
1694.1263,304.20325622427026
1695.8506,283.0493541441256
1697.5742,242.307723758262
1699.297,231.87745856585616
1701.0191,195.95764964300997
1702.7404,175.34738574705216
1704.461,151.1957536757336
1706.1808,126.85183847333383
1707.8999,108.61472367217584
1709.6182,104.08349153606332
1711.3358,76.30722324265753
1713.0527,75.2349989287809
1714.7688,74.01589796819098
1716.4841,72.89899898229487
1718.1987,63.233379852345024
1719.9126,72.4181177306059
1721.6257,56.6522891370073
1723.338,77.33496986730097
1725.0496,36.1652351507164
1726.7605,44.49215944313619
1728.4706,64.81481683879065
1730.18,61.882280986992555
1731.8886,61.74362488890756
1733.5964,39.59792092688167
1735.3036,57.29424086582276
1737.0099,36.031656074661896
1738.7156,21.259237349389878
1740.4204,24.876055125680978
1742.1246,14.73117962662036
1743.8279,0.8736808265343825
1745.5306,-0.7973714475624547
1747.2325,-16.082907377388892
1748.9336,-4.283849178924356
1750.634,-19.750958399904448
1752.3336,-18.584953792413216
1754.0325,-23.736356796461678
1755.7307,-6.1055031883734046
1757.4281,9.307508381732532
1759.1247,-2.64735974228779
1760.8206,-2.870145309653708
1762.5158,4.089140377538115
1764.2102,-10.969485310057735
1765.9039,-13.546005042679099
1767.5968,-5.540291905405866
1769.289,-6.652083658731044
1770.9804,22.718937284369076
1772.6711,32.02315496523261
1774.361,10.360953198007792
1776.0502,28.28271547661552
1777.7386,34.93882519136787
1779.4263,16.729665449750883
1781.1132,37.655619009861766
1782.7994,20.067068462500174
1784.4849,38.66439602191258
1786.1696,21.897983701676367
1787.8535,41.4182131287248
1789.5367,38.87546571101393
1791.2192,32.82012244232146
1792.9009,28.102563927668143
1794.5818,26.123170443876916
1796.2621,50.83232198674568
1797.9415,56.13039829084164
1799.6202,56.71777858241148
1801.2982,48.74484152639707
1802.9755,65.31196522056507
1804.6519,64.51952727523121
1806.3277,64.61790464759542
1808.0027,34.80747364966055
1809.6769,62.98860994725919
1811.3504,59.8616888581455
1813.0231,76.37708507019124
1814.6951,87.13517267265115
1816.3664,83.08632499101304
1818.0369,79.6309144794127
1819.7067,87.56931276112346
1821.3757,102.05189066311141
1823.044,106.12901813664848
1824.7115,98.80106411249108
1826.3783,84.1683964601043
1828.0443,97.13138206094663
1829.7096,109.49038695479203
1831.3741,82.34577621010476
1833.0379,100.39791380044471
1834.701,106.14716287591637
1836.3633,105.04388558264509
1838.0248,109.73844300528572
1839.6856,119.28119517805771
1841.3457,133.27250103779534
1843.005,122.01271832852444
1844.6636,143.00220346154538
1846.3214,138.14131162803278
1847.9785,136.23039658913922
1849.6349,145.81981072460394
1851.2904,150.00990505186473
1852.9453,152.35102913016044
1854.5994,130.34353101863326
1856.2528,156.78775725291416
1857.9054,161.08405306520172
1859.5572,172.5327621198153
1861.2083,159.13422647023572
1862.8587,174.78878644461702
1864.5084,164.09678077977424
1866.1572,156.90854646463595
1867.8054,164.1744188471639
1869.4528,166.99473170623696
1871.0994,162.31981717898998
1872.7453,169.95000573261223
1874.3905,175.78562621109631
1876.0349,165.07700575893523
1877.6786,180.07446976276833
1879.3215,184.12834195846335
1880.9637,197.83894428114445
1882.6051,172.55659682465603
1884.2458,195.38161770445276
1885.8858,178.0643233104238
1887.525,176.80502807864377
1889.1634,182.35404466454384
1890.8011,185.3616839555084
1892.4381,197.32825501537945
1894.0743,208.30406505438623
1895.7098,200.63941930947294
1897.3446,200.2346209345451
1898.9786,200.68997107711357
1900.6118,191.255768882344
1902.2443,188.78231148850455
1903.8761,191.31989412130497
1905.5071,186.96881011863434
1907.1374,188.27935090518213
1908.7669,188.90180603595127
1910.3957,197.43646318315086
1912.0237,188.33360812997398
1913.651,183.94352468524926
1915.2776,188.61649477447213
1916.9034,183.60279848370374
1918.5285,172.15271401284008
1920.1528,164.21651772575296
1921.7764,179.99448426478466
1923.3992,189.68688663011608
1925.0213,171.69399602198246
1926.6427,170.26608174375178
1928.2633,164.6534113818534
1929.8832,184.55625082005827
1931.5023,178.02486429560463
1933.1207,152.7095142001699
1934.7383,182.3104611451845
1936.3552,162.42796421498224
1937.9714,177.8622806707956
1939.5868,169.61366614957706
1941.2015,166.6323745096579
1942.8154,164.41865791323198
1944.4286,166.9227668561698
1946.041,154.09495019015685
1947.6528,155.78545509765195
1949.2637,158.39452722016495
1950.8739,144.32241064135292
1952.4834,164.26934786092784
1954.0921,167.63557993537825
1955.7001,161.5713462785004
1957.3074,147.77688462773494
1958.9139,154.8524311048095
1960.5197,152.49822035368243
1962.1247,149.814485469788
1963.729,152.25145802357883
1965.3325,151.759368087364
1966.9353,130.88844421093881
1968.5374,144.78891342650672
1970.1387,142.4610014573875
1971.7393,124.10493257901248
1973.3392,138.62092964220346
1974.9383,127.70921425673282
1976.5366,138.67000664616512
1978.1342,153.60352575697402
1979.7311,131.65998914893316
1981.3273,137.28961284578122
1982.9227,147.6926115546578
1984.5173,137.51919860980775
1986.1112,125.6695858685498
1987.7044,135.84398381301116
1989.2968,123.94260166862409
1990.8885,119.21564730238197
1992.4795,120.91332734185198
1994.0697,139.78584722244705
1995.6592,120.63341117044706
1997.2479,126.35622201427577
1998.8359,122.8044813760232
2000.4232,128.6283896142188
2002.0097,132.32814585934648
2003.5955,124.85394795560728
2005.1805,127.45599242392154
2006.7648,134.984474536672
2008.3484,127.33958829168114
2009.9312,128.37152633692813
2011.5133,115.78048004699872
2013.0946,137.6166395127634
2014.6752,123.93019366728981
2016.2551,136.52133006748
2017.8342,125.39023503093426
2019.4126,132.38709351004172
2020.9902,129.06208920328982
2022.5672,121.16540448529508
2024.1433,125.1972204400538
2025.7188,126.05771693991073
2027.2935,125.59707260523919
2028.8674,116.21546479583571
2030.4406,112.76306961552814
2032.0131,117.64006200598965
2033.5849,119.69661578126306
2035.1559,115.18290357899173
2036.7261,117.59909683985279
2038.2957,127.89536585269548
2039.8645,120.3718797303784
2041.4325,124.82880630680734
2042.9998,120.81631221217003
2044.5664,123.58456282836619
2046.1323,116.43372232913362
2047.6974,120.81395365236449
2049.2617,121.37541857161477
2050.8254,118.76827765230246
2052.3883,131.14269024609166
2053.9504,119.04881451696588
2055.5118,122.08680731748268
2057.0725,110.45682430971146
2058.6325,119.909019934855
2060.1917,109.84354752954778
2061.7502,118.21055923133531
2063.3079,121.06020607932828
2064.8649,124.29263793053178
2066.4212,113.70800343135056
2067.9767,123.75644998526127
2069.5315,103.63812385866345
2071.0856,108.80317008039151
2072.6389,108.20173264289997
2074.1915,98.58395445061228
2075.7433,99.39997732593497
2077.2945,110.49994210543696
2078.8448,96.93398863168818
2080.3945,108.75225564225934
2081.9434,99.8048809053821
2083.4916,103.29200110176657
2085.039,98.01375191407396
2086.5857,97.72026799204696
2088.1317,106.71168300528961
2089.677,97.48812964620515
2091.2215,92.54973954008096
2092.7652,95.64664333732435
2094.3083,97.17897076284521
2095.8506,92.69685058508821
2097.3921,109.75041060070862
2098.933,94.78977767939386
2100.4731,99.46507759332735
2102.0124,98.52643516679495
2103.5511,107.0739742294329
2105.089,102.5078176256145
2106.6261,89.72808712897313
2108.1626,100.08490348806504
2109.6983,87.92838655416631
2111.2332,103.20865517770312
2112.7675,110.32582732981996
2114.301,107.48001994957554
2115.8337,101.62134887277011
2117.3657,108.09992886040527
2118.897,91.96587365726919
2120.4276,94.36929592715137
2121.9575,95.11030741418426
2123.4866,104.98901891880814
2125.0149,101.3055402903608
2126.5426,86.00998032829034
2128.0695,94.85244681898939
2129.5956,100.53304668875148
2131.1211,88.8518859153462
2132.6458,94.30906947121252
2134.1698,98.65470144027108
2135.693,89.8888849633529
2137.2155,101.01172219474233
2138.7373,93.32331438983533
2140.2584,87.07376179391258
2141.7787,87.2131637190214
2143.2983,94.39161860647255
2144.8171,82.70922402544625
2146.3353,83.61607660120535
2147.8527,103.46227213192219
2149.3693,79.44790557960846
2150.8853,82.17307087165591
2152.4005,73.93786114097588
2153.9149,88.9923686987513
2155.4287,94.43668511678493
2156.9417,90.12090107695758
2158.454,76.34510631678268
2159.9655,87.10938967256538
2161.4764,81.3638392171597
2162.9865,86.45854215232725
2164.4958,93.7935848661923
2166.0045,70.21905288229527
2167.5124,92.8350307862404
2169.0195,82.49160246144379
2170.526,79.43885086296996
2172.0317,74.92685812096965
2173.5367,86.10570557120536
2175.0409,79.52547380017177
2176.5445,79.086242533308
2178.0473,85.38809070079856
2179.5494,88.23109644196734
2181.0507,86.06533704225694
2182.5513,77.44088890480111
2184.0512,73.30782757208044
2185.5504,81.7662278121677
2187.0488,66.41616366005769
2188.5465,64.70770833308438
2190.0435,72.29093438441942
2191.5397,79.31591372015805
2193.0353,83.48271752348614
2194.5301,76.09141618443164
2196.0241,69.89207925819505
2197.5175,72.73477553906446
2199.0101,65.81957312240752
2200.502,67.24653937624453
2201.9931,81.9157410104001
2203.4835,60.47724406223483
2204.9733,77.03111374995297
2206.4622,63.077414686986685
2207.9505,61.01621071645809
2209.438,57.39756505071409
2210.9248,43.6715402919408
2212.4109,68.48819846834817
2213.8962,67.89760117143283
2215.3809,52.74980930780998
2216.8648,62.34488310512006
2218.3479,58.03288226350605
2219.8304,59.413865859663474
2221.3121,51.88789238995878
2222.7931,51.90501975662096
2224.2733,49.71530534300109
2225.7529,42.468806013400126
2227.2317,41.96557813496793
2228.7098,49.40567765016749
2230.1872,50.03916008180613
2231.6638,42.216080458634906
2233.1397,57.58649330901426
2234.6149,49.85045273914352
2236.0894,49.658012279357536
2237.5632,41.709224961486825
2239.0362,42.90414332078353
2240.5085,49.942819475406395
2241.9801,39.37530511447335
2243.4509,47.05165142767555
2244.921,33.52190921095075
2246.3904,29.586128789721442
2247.8591,32.64436015419142
2249.3271,36.59665299870471
2250.7943,45.793056691160245
2252.2608,36.383620233492366
2253.7266,31.46839216970443
2255.1917,35.34742067996444
2256.656,27.720753629757382
2258.1197,31.63843853109347
2259.5826,26.350522618776267
2261.0447,33.30705281122505
2262.5062,25.308075763355646
2263.9669,30.753637797013653
2265.4269,24.243784980963937
2266.8862,39.57856307643647
2268.3448,29.25801760222248
2269.8026,27.832193681329954
2271.2598,31.951136144186194
2272.7162,26.264889542897663
2274.1719,35.3734981100597
2275.6268,29.677005815620305
2277.0811,26.875456275791294
2278.5346,34.31889281001622
2279.9874,33.257358468984194
2281.4395,29.790895960194803
2282.8908,34.919547658575766
2284.3414,28.193355641145445
2285.7914,35.61236163572721
2287.2406,29.926607088211085
2288.689,23.23613308836434
2290.1368,38.64098042668684
2291.5838,32.29118966131932
2293.0302,36.7868009639933
2294.4758,36.57785418352887
2295.9206,36.01438880087858
2297.3648,40.6964439312178
2298.8082,27.524058329578338
2300.251,41.94727034402922
2301.693,28.916118047399323
2303.1343,45.38063909304469
2304.5748,31.140870845161544
2306.0147,32.796850214139226
2307.4538,29.698613798959286
2308.8922,25.596197870635365
2310.3299,25.489638403195727
2311.7669,29.078971114706178
2313.2031,23.564231468337653
2314.6387,20.89545463647164
2316.0735,15.022675555846604
2317.5076,27.94592895424762
2318.941,30.76524940923332
2320.3737,27.180671218903626
2321.8056,25.092228373705098
2323.2369,32.94995459227869
2324.6674,25.603883342343238
2326.0972,22.45404776211865
2327.5263,23.60048073378607
2328.9547,34.49321491498699
2330.3823,20.632282727359325
2331.8092,27.11771624760877
2333.2355,20.499547346119016
2334.661,26.677807622096793
2336.0858,25.152528469754316
2337.5098,24.97374101652622
2338.9332,23.79147613832265
2340.3558,12.655764461317062
2341.7778,25.516636373768165
2343.199,24.374122137376958
2344.6195,27.678251758678698
2346.0393,27.9290550004672
2347.4583,28.92656134875415
2348.8767,36.320800010259745
2350.2943,35.961799902438884
2351.7113,36.5495895795392
2353.1275,24.08419723619022
2354.543,34.965650701526215
2355.9578,36.743977563840076
2357.3718,40.71920506176741
2358.7852,21.39136006650517
2360.1978,24.660469042058708
2361.6098,39.576558238519965
2363.021,30.68965365937629
2364.4315,25.299780912349433
2365.8413,33.40696529826516
2367.2504,21.211231864951856
2368.6587,21.412605326169228
2370.0664,25.91111018356446
2371.4733,33.80677072466051
2372.8795,25.949610977869156
2374.285,27.33965463353502
2375.6899,16.77692512250519
2377.0939,21.711445602230015
2378.4973,24.743239062391353
2379.9,36.57232827555754
2381.3019,16.248735766864456
2382.7032,21.622483695724668
2384.1037,23.843594059065026
2385.5035,23.61208863758759
2386.9027,23.77798897356024
2388.3011,28.591316373130667
2389.6987,25.90209190466703
2391.0957,20.210336350625425
2392.492,21.31607023444053
2393.8876,9.669313877443301
2395.2824,28.420087387803505
2396.6765,11.968410776999349
2398.07,19.26430377230804
2399.4627,11.407785981324537
2400.8547,14.99887681900077
2402.246,16.68759558621082
2403.6366,8.323961433841305
2405.0265,13.457993345903333
2406.4156,19.039710223168754
2407.8041,18.719130831828465
2409.1918,15.796273747678242
2410.5789,15.621157359322183
2411.9652,10.243799897401345
2413.3508,10.414219436345888
2414.7358,6.73243394814881
2416.12,18.348461300662166
2417.5035,17.212319294415806
2418.8863,17.774025546453913
2420.2684,19.833597501697795
2421.6497,5.841052427328577
2423.0304,17.096407392190372
2424.4104,18.54962111301211
2425.7896,15.100652135559471
2427.1682,24.249458820102518
2428.546,13.795999375906717
2429.9232,18.39023176974331
2431.2996,24.832113830423964
2432.6753,26.721603202858205
2434.0503,12.00865728363442
2435.4246,15.093233202125703
2436.7982,18.075287967618806
2438.1711,15.454778438468566
2439.5433,18.581661292276976
2440.9148,18.25589305209894
2442.2856,24.277430055173113
2443.6557,18.196228456179483
2445.025,15.46224416702421
2446.3937,10.475432917651688
2447.7617,15.035750283384232
2449.1289,13.84315173479024
2450.4955,11.047592592082083
2451.8613,14.349028037040398
2453.2265,21.34741314097039
2454.5909,15.19270283168737
2455.9546,21.084851823532404
2457.3177,13.523814678919962
2458.68,19.00954574941568
2460.0416,20.941999251347625
2461.4025,18.47112921094879
2462.7627,14.546889445032775
2464.1222,15.319233585702591
2465.4811,15.538115119592817
2466.8392,23.90348738014609
2468.1966,23.215303545424035
2469.5533,24.27351655445375
2470.9093,28.67807911410989
2472.2645,26.028943688532877
2473.6191,31.27606245508241
2474.973,24.569387330829386
2476.3262,27.308869920084135
2477.6787,27.394461581463588
2479.0305,28.5761134004955
2480.3816,29.653776188763914
2481.7319,32.12740047209206
2483.0816,32.04693647976546
2484.4306,25.362334119796515
2485.7789,38.52354297972829
2487.1264,33.3805123934809
2488.4733,25.48319130974039
2489.8195,31.531528343387322
2491.165,30.425471854471084
2492.5097,30.51496988772601
2493.8538,28.299970183632126
2495.1972,25.53042017751966
2496.5398,24.30626702171992
2497.8818,26.4274576132608
2499.2231,27.293938606107304
2500.5637,33.055656389950514
2501.9035,25.11255708154215
2503.2427,31.66458646707804
2504.5812,24.361690081628353
2505.919,35.903813143618095
2507.256,35.29090062785542
2508.5924,27.72289715011118
2509.9281,37.999746973247056
2511.2631,36.1713940828962
2512.5974,36.83778208469505
2513.9309,26.048854222566433
2515.2638,35.55455337205569
2516.596,33.55482214822007
2517.9275,34.749602810571105
2519.2583,26.038837283073008
2520.5884,34.622467142193386
2521.9178,25.800433704012335
2523.2465,37.22267793838489
2524.5745,28.089140557162636
2525.9018,29.29976189997103
2527.2284,33.45448202554405
2528.5543,38.05324069961887
2529.8796,35.39597735338805
2531.2041,42.832631037511874
2532.5279,42.46314044869155
2533.851,39.88744385530197
2535.1735,37.50547910108662
2536.4952,35.01718363091527
2537.8163,41.72249451460311
2539.1366,36.27134847179332
2540.4562,38.363681804904786
2541.7752,42.39943045364271
2543.0935,52.72852997407597
2544.411,57.500915498279824
2545.7279,49.61652163104361
2547.0441,48.62528240214817
2548.3596,54.42713134520943
2549.6744,50.87200150759111
2550.9885,54.95982539238537
2552.3019,53.89053499396482
2553.6146,49.7640617571044
2554.9266,47.380336587673355
2556.2379,50.63928989390115
2557.5485,60.840851610213804
2558.8585,59.08495116464519
2560.1677,59.2715173768205
2561.4762,57.75047847551559
2562.7841,60.32176209679153
2564.0913,60.68529529920522
2565.3977,59.4410045380954
2566.7035,60.83881566194873
2568.0086,63.32865392484166
2569.313,66.46044397246351
2570.6167,55.284109817216745
2571.9197,67.59957480689923
2573.222,63.906761736468866
2574.5236,60.75559272488772
2575.8246,70.2959892520505
2577.1248,75.17787219029617
2578.4244,69.80116170900442
2579.7232,70.81577722577595
2581.0214,71.87163746020087
2582.3189,79.81866042371166
2583.6157,75.65676340902485
2584.9118,78.98586291067033
2586.2072,75.905874666611
2587.5019,75.76671362495142
2588.7959,80.61829397473764
2590.0893,81.91052914734928
2591.3819,86.24333176798336
2592.6739,90.41661364273159
2593.9652,96.93028571525281
2595.2557,96.63425802504048
2596.5456,91.02843964228532
2597.8348,90.36273867083537
2599.1234,93.28706230425473
2600.4112,90.20131683248042
2601.6983,97.20540761257905
2602.9848,96.9992390996041
2604.2705,92.78271477655551
2605.5556,102.15573715644098
2606.84,101.61820782444124
2608.1237,95.37002734417979
2609.4067,95.06109526309865
2610.689,96.44131017493964
2611.9707,92.7105697228343
2613.2516,89.51877058550087
2614.5319,91.61580851455233
2615.8115,99.30157836641422
2617.0903,90.37597408135412
2618.3685,85.1388886066245
2619.6461,93.29021398571814
2620.9229,92.42984141073964
2622.199,88.45766114089156
2623.4745,95.77356251107813
2624.7493,92.32743397162693
2626.0234,100.81916301513075
2627.2968,87.548636210908
2628.5695,90.41573912008596
2629.8415,88.22035642830537
2631.1128,89.36237191705004
2632.3835,90.24166848560031
2633.6535,101.45812813961277
2634.9228,86.96163198232733
2636.1914,95.95206010240298
2637.4593,99.12929171888248
2638.7265,95.09320509128816
2639.9931,91.29367748784955
2641.259,88.28058522586446
2642.5242,90.20380370969383
2643.7887,89.11320746089314
2645.0525,85.10867009898004
2646.3156,88.54006435234038
2647.5781,88.10726209827322
2648.8398,81.51013432867762
2650.1009,84.64855115438053
2651.3613,81.67238187110763
2652.6211,89.5814949280994
2653.8801,91.0757579578729
2655.1385,83.0550376971301
2656.3961,87.46919997181618
2657.6531,90.0181097773256
2658.9094,94.90163123436156
2660.1651,96.46962756344601
2661.42,97.57196103608482
2662.6743,98.5584929590878
2663.9279,101.37908366354537
2665.1808,103.68359249496342
2666.433,101.62187778505671
2667.6846,101.49379682870483
2668.9354,111.59920590456863
2670.1856,111.58796027637106
2671.4351,113.40991409184335
2672.6839,121.01492038283754
2673.9321,111.70283104710643
2675.1795,118.3734967722541
2676.4263,124.97676712885607
2677.6724,119.36249050375312
2678.9179,121.43051403401881
2680.1626,130.13068366310176
2681.4067,121.21284412014603
2682.6501,114.97683883298862
2683.8928,122.37251001733875
2685.1348,112.74969873913733
2686.3761,109.70824484059989
2687.6168,112.79798703644542
2688.8568,103.46876294431053
2690.0961,113.5704090538519
2691.3348,106.25276082003859
2692.5727,103.41565256213647
2693.81,103.60891753688333
2695.0466,102.78238796686117
2696.2826,103.38589503856298
2697.5178,103.81926891065802
2698.7524,101.13233870795699
2699.9863,107.0749325170778
2701.2195,110.24687741331502
2702.452,114.04799940121433
2703.6839,125.62812338285244
2704.9151,124.83707311982687
2706.1456,125.22467111745397
2707.3755,126.4407386326796
2708.6046,130.4850956702033
2709.8331,146.75756097031763
2711.0609,144.9079519684641
2712.2881,157.48608463250872
2713.5145,158.89177348123832
2714.7403,170.12483145857902
2715.9654,177.2850699195394
2717.1899,191.17229851787954
2718.4136,194.83632513450925
2719.6367,204.5769557386153
2720.8591,222.29399435102152
2722.0809,224.38724294678207
2723.3019,243.70650127801184
2724.5223,245.55156685295304
2725.7421,248.8222347427835
2726.9611,254.21829756316532
2728.1795,249.88954544153842
2729.3972,240.8357659631602
2730.6142,236.00674421439248
2731.8306,222.70226287323976
2733.0462,206.42210225763904
2734.2612,188.31604045850548
2735.4756,176.88385350253304
2736.6892,173.42531553325585
2737.9022,151.49019892536944
2739.1145,134.82827431931673
2740.3262,124.28931084063879
2741.5372,118.82307626659417
2742.7475,106.22933713154868
2743.9571,97.00785878163776
2745.1661,87.20840550070386
2746.3744,78.68074060251104
2747.582,71.97462652873946
2748.7889,61.0898249342622
2749.9952,61.82609675420622
2751.2008,40.88320231280039
2752.4057,48.56090131601292
2753.61,44.308953060979945
2754.8136,37.92711635922916
2756.0165,36.96514957919891
2757.2188,36.122810710056626
2758.4204,43.699857371318274
2759.6213,30.346046821272523
2760.8215,42.31113588120894
2762.0211,31.09488106895708
2763.22,26.19703847923506
2764.4182,24.517363895812252
2765.6158,25.705612840488016
2766.8127,19.51154058988834
2768.009,13.18490216358299
2769.2045,13.075452386026711
2770.3994,15.53294594982583
2771.5936,8.957137416832154
2772.7872,3.597781193568437
2773.9801,-5.64536840301389
2775.1723,-4.072557091940723
2776.3639,-12.03397419500783
2777.5548,-7.679768349166295
2778.745,-10.959967971965057
2779.9346,-12.374524760067004
2781.1235,-12.523280920055356
2782.3117,-8.355955037010915
2783.4992,-14.47214058843872
2784.6861,-15.871347575853008
2785.8723,-13.602941424083781
2787.0579,-8.816129003198967
2788.2428,-2.6599812898818413
2789.427,-7.633481187687039
2790.6106,0.21441497304311952
2791.7935,4.084827120443379
2792.9757,7.678875180505031
2794.1573,10.897679038370711
2795.3382,17.292358502394677
2796.5184,20.314033271953917
2797.698,23.513822873502306
2798.8769,31.1428466303538
2800.0551,38.0022236306844
2801.2327,51.99307265124202
2802.4096,57.71651208875255
2803.5859,65.57365982001079
2804.7615,74.01563314464721
2805.9364,96.69354870655508
2807.1106,119.1085224094719
2808.2842,128.3116691901999
2809.4572,155.3541027944566
2810.6294,174.0369356848429
2811.801,202.96127877041886
2812.972,231.62824121987535
2814.1423,267.98893017229125
2815.3119,313.9444504504627
2816.4808,354.5959041972973
2817.6491,390.3443904162581
2818.8167,433.5410045648496
2819.9837,490.18683819713203
2821.15,528.0829785317562
2822.3157,585.8305078855036
2823.4807,632.5805032943273
2824.645,696.5840359358746
2825.8086,751.8421706619883
2826.9716,802.1059653586708
2828.134,851.7264703935027
2829.2957,895.8547281130058
2830.4567,929.4917723464365
2831.617,948.9886279645048
2832.7767,952.8463105430025
2833.9358,953.4658261678362
2835.0941,943.9981713964492
2836.2519,925.6443332516274
2837.4089,914.7052893161751
2838.5653,890.6320079164537
2839.7211,865.4254482317721
2840.8761,868.2365605351197
2842.0306,873.9662864452315
2843.1843,890.8655588984775
2844.3374,908.5353020915654
2845.4899,945.2264313125468
2846.6417,991.5898527641206
2847.7928,1038.2764631967218
2848.9433,1086.8871494448872
2850.0931,1134.9727879603888
2851.2422,1196.034244326127
2852.3907,1248.2723727752743
2853.5385,1298.788015580662
2854.6857,1329.9320025323968
2855.8323,1370.9051504327058
2856.9781,1418.1082627844964
2858.1233,1477.5921293816252
2859.2679,1508.8075258368654
2860.4118,1560.2052129870694
2861.555,1595.735936581016
2862.6976,1639.5004267654315
2863.8395,1663.0493977296828
2864.9808,1703.3335472681338
2866.1214,1721.3035565446548
2867.2614,1732.1100896897808
2868.4007,1742.4037936210104
2869.5393,1759.4352979347436
2870.6773,1778.2052148033408
2871.8146,1778.9141388048117
2872.9513,1780.5126467351115
2874.0874,1780.3012976010566
2875.2227,1764.2806326043346
2876.3574,1753.5511751436215
2877.4915,1714.6134309747877
2878.6249,1681.367888318192
2879.7577,1674.2150182480586
2880.8898,1646.2552750249333
2882.0212,1637.4390961672125
2883.152,1634.5669027307385
2884.2821,1603.3890993969649
2885.4116,1610.4560745016756
2886.5405,1617.7182003467633
2887.6686,1634.9758331295611
2888.7962,1626.7293128702197
2889.923,1625.1789632391315
2891.0493,1642.6250916393965
2892.1748,1642.7179892223244
2893.2997,1650.0579307129756
2894.424,1671.6451744092296
2895.5476,1696.7299621083878
2896.6706,1702.312518891299
2897.7929,1711.6930528715134
2898.9145,1735.721755139456
2900.0355,1755.1487996686228
2901.1559,1795.82434307529
2902.2756,1810.498524424247
2903.3946,1842.721464822041
2904.513,1868.3432672702324
2905.6308,1892.6140163431694
2906.7479,1919.783777931766
2907.8643,1941.7025990007974
2908.9801,1962.0205073172003
2910.0953,1967.1875112308862
2911.2098,1963.0035994715618
2912.3236,1962.8687410970574
2913.4368,1960.8328855351697
2914.5494,1926.645962585007
2915.6613,1906.4078824373491
2916.7725,1880.9185360165175
2917.8831,1867.3777951827537
2918.9931,1814.4855129871144
2920.1024,1801.6915238068796
2921.211,1784.4456438744728
2922.319,1775.747671405404
2923.4264,1767.7973867707256
2924.5331,1763.0945525840157
2925.6391,1747.2389137808766
2926.7445,1755.330197665968
2927.8493,1759.8681140715582
2928.9534,1761.8023552766158
2930.0569,1761.632595961427
2931.1597,1767.9084931882558
2932.2619,1785.3796864030405
2933.3634,1804.6457973726342
2934.4643,1795.8064300100937
2935.5645,1781.7611701820165
2936.6641,1779.2595857969382
2937.763,1755.9512269457807
2938.8613,1706.485625926871
2939.959,1677.562297479024
2941.056,1630.8807392761978
2942.1523,1571.9404322167293
2943.248,1505.9408408901459
2944.3431,1426.8314141665737
2945.4375,1343.811585856729
2946.5313,1247.830775503014
2947.6244,1175.5383892097157
2948.7169,1075.383820602814
2949.8087,997.2164515529047
2950.8999,915.8356531767461
2951.9904,844.5907866189317
2953.0803,791.631203865699
2954.1696,729.8562484573779
2955.2582,686.1152560179858
2956.3462,649.1075548729787
2957.4335,622.0324664866596
2958.5202,583.1393058322565
2959.6062,564.2273816626735
2960.6916,553.1959968994208
2961.7764,533.4444488217364
2962.8605,517.1720291768974
2963.9439,509.0780243777365
2965.0267,497.2617156653671
2966.1089,496.2223791901224
2967.1905,498.8592861297184
2968.2714,489.1717026996479
2969.3516,494.258890126811
2970.4312,506.4201047463912
2971.5102,498.00459795098334
2972.5885,517.0616160689813
2973.6662,521.3904004487333
2974.7432,528.7401872679723
2975.8196,519.0102074905269
2976.8954,522.5496867928242
2977.9705,512.8578456611897
2979.045,515.5838993564525
2980.1188,508.82705801086314
2981.192,494.93652660083376
2982.2645,480.2615050145062
2983.3364,459.55118819065706
2984.4077,438.45476626544865
2985.4783,419.471424779531
2986.5483,394.00034488900667
2987.6177,372.69070355526424
2988.6864,344.19167379968883
2989.7545,315.90242491675895
2990.8219,290.42212275903603
2991.8887,258.849930020058
2992.9548,236.08500648914162
2994.0204,217.82650936710434
2995.0852,186.723593493914
2996.1495,161.47541153127293
2997.2131,146.33111427364827
2998.276,123.889850900753
2999.3383,106.60076912898899
3000.4,97.91301543585996
3001.4611,66.22573523286195
3002.5215,66.83807295236141
3003.5812,59.14917236446746
3004.6404,42.008176570908745
3005.6989,36.56422808192241
3006.7567,32.41646898766396
3007.8139,22.864041012646965
3008.8705,18.756085557220672
3009.9264,2.891743793093667
3010.9818,8.720156704414137
3012.0364,-5.109534753587013
3013.0905,-4.898189712880196
3014.1439,-7.796616261183999
3015.1966,-8.855573553301554
3016.2487,-4.2757428558397805
3017.3002,-10.207716968226123
3018.3511,-9.90204597521739
3019.4013,-10.909177986477744
3020.4509,-5.629462190232459
3021.4998,-8.463138792019095
3022.5481,-6.010391759048105
3023.5958,-3.3713205117734333
3024.6428,-0.44596442683598525
3025.6892,0.31567079861537195
3026.735,-4.736416077383524
3027.7802,4.997773700046423
3028.8247,2.2182862025809413
3029.8685,9.325167451917991
3030.9118,9.668463447573174
3031.9544,19.098220095810632
3032.9963,18.46448320620999
3034.0376,26.667298397369223
3035.0783,24.55671110324147
3036.1184,30.232766491106986
3037.1578,35.34550948267918
3038.1966,44.64498469734366
3039.2348,38.33123640103139
3040.2723,42.60430841322329
3041.3092,50.26424417008849
3042.3455,56.111086681752965
3043.3811,51.49487845570053
3044.4161,57.36566143830453
3045.4505,57.273477060989535
3046.4842,54.018366181523675
3047.5173,56.30036908494043
3048.5498,60.319525516090096
3049.5816,62.175874656819076
3050.6128,65.6694550857788
3051.6434,59.10030475986213
3052.6734,59.918460979267536
3053.7027,62.17396045319066
3054.7314,67.56683929164251
3055.7594,58.29713298289454
3056.7868,65.0148763395502
3057.8136,60.470103591241525
3058.8398,71.76284831745198
3059.8653,65.09314349296409
3060.8902,62.81102137493201
3061.9145,66.51651356957865
3062.9381,71.25965105501669
3063.9612,70.34046414419399
3064.9835,68.60898243746186
3066.0053,66.36523483176728
3067.0264,62.759249537967435
3068.0469,70.59105410326731
3069.0668,65.46067544727947
3070.086,62.018139783706005
3071.1046,63.91347267164252
3072.1226,58.69669905000319
3073.1399,54.36784321856766
3074.1567,57.576928890148594
3075.1727,51.52397923388048
3076.1882,44.85901684312839
3077.203,44.23206379601763
3078.2173,36.54314172208376
3079.2308,38.44227180854165
3080.2438,28.429474877174897
3081.2561,24.85477136534459
3082.2678,33.26818142611728
3083.2789,25.169724964011948
3084.2893,20.25942155086588
3085.2991,24.03729050681909
3086.3083,13.453350949417597
3087.3169,17.25762175583452
3088.3248,11.90012166870963
3089.3321,9.580869258106475
3090.3388,10.249882975087644
3091.3449,6.2071811749070775
3092.3503,7.802782110320038
3093.3551,5.636703972009883
3094.3593,4.258964872632305
3095.3629,6.669582868476056
3096.3658,6.918575973240422
3097.3681,2.005962133928932
3098.3698,0.6317592283593569
3099.3708,2.5459851142899765
3100.3713,4.348657643161573
3101.3711,0.8397946409551196
3102.3702,3.7194138901650717
3103.3688,-0.8624668351118601
3104.3667,-0.30582979797327425
3105.364,-3.7106486454730145
3106.3607,1.873106030574661
3107.3568,0.19550070773544803
3108.3522,-0.34339815515599525
3109.347,4.756473947682764
3110.3412,2.7951849525817067
3111.3348,3.2728027483060487
3112.3277,1.3393951956692831
3113.32,3.44503012275689
3114.3117,1.0897753442604312
3115.3028,0.8236986404212985
3116.2932,0.2468677805832158
3117.2831,7.159350525853057
3118.2723,-0.8887878288716706
3119.2608,-2.1974820602867453
3120.2488,4.533341933902221
3121.2361,2.903780208835343
3122.2229,1.1139287743194473
3123.209,7.163883611123595
3124.1944,1.153740688877491
3125.1793,5.733595905572145
3126.1635,4.10354514766118
3127.1471,6.163684244262285
3128.1301,8.364108983457811
3129.1125,1.0549150916933456
3130.0942,11.23619821177337
3131.0753,4.708053975953234
3132.0558,10.570577904126296
3133.0357,5.923865469105451
3134.015,6.068012037997832
3134.9936,9.153112918672008
3135.9716,9.929263358316476
3136.949,15.746558512588692
3137.9258,11.555093437853472
3138.902,14.704963033010173
3139.8775,14.046262081407235
3140.8524,12.37908521934348
3141.8267,13.553526942655097
3142.8004,14.469681623387544
3143.7735,16.17764349805104
3144.7459,15.977506658459035
3145.7178,16.869365034648624
3146.689,17.153312396881873
3147.6596,18.779442346727166
3148.6295,19.347848314219803
3149.5989,24.508623541600514
3150.5676,19.311861077631548
3151.5357,22.107653725988882
3152.5032,22.196094097229988
3153.4701,26.22727458083577
3154.4364,21.501287344326272
3155.402,23.918224292948835
3156.367,25.52817711693791
3157.3315,30.481237267345804
3158.2952,29.22749593994304
3159.2584,29.217044025687883
3160.221,32.54997212326363
3161.1829,25.42637053918314
3162.1442,30.396329254459623
3163.105,31.35993799584257
3164.065,33.267286186118234
3165.0245,33.11846293447355
3165.9834,33.21355701742257
3166.9416,30.95265688029479
3167.8993,35.08585063628408
3168.8563,36.013226089057824
3169.8127,37.18487069142492
3170.7684,35.35087153606202
3171.7236,38.21131534379706
3172.6782,39.21628848194928
3173.6321,40.465876935724786
3174.5854,42.31016629816688
3175.5381,45.2992417576601
3176.4902,43.18318807948738
3177.4417,40.762089575939235
3178.3926,40.78603012747431
3179.3428,42.25509320693037
3180.2924,45.96936187928488
3181.2415,50.128918786964434
3182.1899,46.43384611270198
3183.1377,51.88422553794129
3184.0848,46.68013827978773
3185.0314,47.0216650365044
3185.9773,49.95888603955304
3186.9227,49.3918810501788
3187.8674,50.52072933003794
3188.8115,51.345509646867896
3189.755,55.41630026319889
3190.6979,54.18317892810599
3191.6402,54.196222836501285
3192.5818,54.85550864146509
3193.5229,55.811112454115545
3194.4633,54.61310983701563
3195.4031,58.811575794617255
3196.3423,56.55658478524124
3197.2809,54.24821067909267
3198.2189,57.686526780810766
3199.1563,61.871605852552676
3200.0931,60.7535200796103
3201.0292,62.182341028559435
3201.9648,62.208139658440714
3202.8997,65.38098630647137
3203.834,64.90095068778722
3204.7677,61.51810186371425
3205.7008,67.73250824656893
3206.6333,66.3442376334867
3207.5652,65.35335714427798
3208.4964,72.15993323531075
3209.4271,66.71403170941943
3210.3571,68.76571764783914
3211.2865,70.06505546466464
3212.2154,73.21210888633355
3213.1436,71.70694093863293
3214.0712,71.64961391522871
3214.9982,69.94018939271747
3215.9246,73.72872823119961
3216.8503,74.76529059137363
3217.7755,77.29993589665077
3218.7001,74.48272282278931
3219.624,78.21370927254824
3220.5473,79.14295240385925
3221.4701,79.87050859251697
3222.3922,79.29643342288651
3223.3137,80.02078168062783
3224.2346,82.64360735843661
3225.1549,82.21496364880066
3226.0746,82.68490291777174
3226.9937,80.30347670925192
3227.9121,80.27073574029427
3228.83,84.73672992491706
3229.7473,84.7015083744312
3230.6639,91.26511935278029
3231.5799,85.8776102768928
3232.4954,86.43902765104605
3233.4102,92.79941712074123
3234.3244,91.25882346708921
3235.238,91.21729054320677
3236.151,88.97486128962234
3237.0634,92.23157773469146
3237.9752,90.78748101702108
3238.8864,92.54261135290228
3239.797,95.44700805075138
3240.7069,96.30070949355851
3241.6163,97.75375310984373
3242.5251,95.95617536511998
3243.4332,97.15801174736262
3244.3408,95.90929678498532
3245.2477,98.06006403482152
3246.154,98.41034609461175
3247.0598,100.6601745814958
3247.9649,103.40958012850999
3248.8694,101.45859236208884
3249.7733,104.45723987457106
3250.6766,107.5555502437094
3251.5793,106.10355000268416
3252.4814,104.00126460912014
3253.3829,105.74871845960658
3254.2838,105.49593491072011
3255.1841,103.29293626155012
3256.0838,108.3897437562267
3256.9829,108.08637760595047
3257.8814,109.13285693802467
3258.7792,112.8791997988887
3259.6765,109.02542314365331
3260.5731,113.87154279863728
3261.4692,108.36757349990506
3262.3647,110.66352884480564
3263.2595,114.45942134701228
3264.1538,109.35526241356284
3265.0474,113.651062306901
3265.9404,114.84683019591773
3266.8329,115.3425741129934
3267.7247,117.93830094203999
3268.616,115.13401641354363
3269.5066,112.87972507860744
3270.3966,113.52543033699425
3271.286,113.57113445966971
