RamanShift,CorrectedData
30.1047,1916.9983093750395
32.3739,1782.9932611212942
34.6426,1650.188193697565
36.9109,1523.8830701039376
39.1787,1389.8778368386127
41.4461,1263.2724251609616
43.7131,1136.316752431577
45.9796,1011.1607233783254
48.2456,880.9042313659061
50.5112,751.5471596474092
52.7764,625.1893826668834
55.0411,494.63076735290485
57.3054,365.1211743821557
59.5692,239.61045948501015
61.8326,111.69847474063084
64.0955,-8.414930167924496
66.3579,-131.07990667458273
68.6199,-247.5965221481184
70.8815,-347.3635344690386
73.1426,-403.6772280285943
75.4032,-333.18041705632726
77.6634,66.63811695372829
79.9231,1170.242920979904
82.1824,3770.448541334151
84.4412,8537.56951262599
86.6995,15170.620331760461
88.9574,21625.815410266907
91.2148,26032.869007968464
93.4717,28027.945168430124
95.7282,28453.95767488818
97.9842,28268.220030299493
100.2398,27656.99545308132
102.4949,26946.69687896874
104.7495,26139.636967126877
107.0036,25221.128107253873
109.2573,24382.132427651515
111.5105,23554.261804410307
113.7632,22705.327869799432
116.0154,21978.192020545448
118.2672,21443.815426321646
120.5185,20861.75903701939
122.7693,20390.6835880919
125.0197,19976.1996063748
127.2696,19564.36741479689
129.519,19338.247136524962
131.7679,19007.698699082146
134.0163,18746.081836609097
136.2642,18447.406093169495
138.5117,18133.230825366194
140.7587,17820.315205327995
143.0052,17512.168223851393
145.2512,17172.048693529734
147.4967,16796.965251834685
149.7417,16539.776364517416
151.9863,16319.790329359455
154.2304,16099.315278744572
156.4739,15874.409181858628
158.717,15721.179846894342
160.9596,15433.534923300347
163.2017,15114.981903313464
165.4433,14714.478124835186
167.6844,14273.680774617176
169.925,13838.196892266322
172.1651,13354.133374652707
174.4047,12939.296980264444
176.6439,12580.844334048317
178.8825,12253.631931558139
181.1206,11990.116142539293
183.3582,11723.053214200838
185.5954,11494.849273850672
187.832,11299.61033156616
190.0681,11200.492282476189
192.3037,11069.550908713536
194.5388,10973.091880406062
196.7734,10914.370756986127
199.0075,10877.742988155169
201.2411,10913.013914470917
203.4742,10868.838767713685
205.7068,10918.272670533644
207.9389,10967.920636892588
210.1704,11046.087571569586
212.4015,11030.978269664502
214.632,11111.497415816328
216.862,11230.049584354276
219.0915,11291.839238492588
221.3205,11397.620729145021
223.549,11569.498294306932
225.777,11780.276057997482
228.0044,12061.958028540852
230.2314,12419.048096458457
232.4578,12757.950031652146
234.6837,13003.267479833276
236.909,13149.653959133726
239.1339,13042.462857652692
241.3582,12745.39743199285
243.582,12287.060808332239
245.8053,11846.555985394936
248.0281,11459.135839034412
250.2503,11120.903126638583
252.472,10871.460491004013
254.6932,10727.360463718234
256.9139,10520.755467654193
259.134,10412.04781841124
261.3536,10312.489726381165
263.5727,10314.13329783528
265.7912,10106.78053592002
268.0092,10117.783340640466
270.2267,9975.043510933914
272.4436,9850.71274455983
274.6601,9682.94263952725
276.8759,9572.984695338078
279.0913,9493.540314664806
281.3061,9332.610804450082
283.5204,9321.847376701166
285.7341,9319.951150099203
287.9473,9397.173150106877
290.16,9574.164308987365
292.3721,9804.375465032126
294.5837,10161.857360790973
296.7947,10453.460640769983
299.0052,10547.585847856648
301.2152,10342.733420403865
303.4246,9950.803691288671
305.6334,9334.346889960783
307.8418,8740.263146361893
310.0495,8261.052497090222
312.2568,7856.614891341376
314.4635,7583.400195700437
316.6696,7428.008198186344
318.8752,7287.488610984054
321.0802,7282.491071998431
323.2847,7352.765146259471
325.4887,7317.260325972258
327.692,7198.426029814233
329.8949,6994.611603290223
332.0972,6685.216319920819
334.2989,6313.339383280494
336.5001,5990.329930091564
338.7007,5722.937033942959
340.9008,5562.30970852031
343.1003,5391.146910279889
345.2992,5311.497540054876
347.4976,5223.460444766981
349.6955,5106.734418222959
351.8927,5146.118201994954
354.0895,5051.410486587778
356.2856,5061.159911045073
358.4812,4970.86506389637
360.6763,4998.124483059621
362.8707,4902.0866567441335
365.0646,4879.250023177985
367.258,4848.612971568393
369.4508,4787.873842330087
371.643,4787.930927391661
373.8346,4729.932470802978
376.0257,4667.076668734608
378.2162,4552.711670057777
380.4062,4401.535576972958
382.5956,4213.796446153519
384.7844,4060.54229025749
386.9726,3877.621079804945
389.1603,3776.180744710544
391.3474,3668.369176112741
393.5339,3653.284227388196
395.7199,3510.5237152298705
397.9052,3530.4354197978864
400.09,3487.0170861471415
402.2743,3525.816424028186
404.4579,3511.881108321406
406.641,3670.3587786490225
408.8235,3839.9470395144454
411.0054,4076.793458717506
413.1868,4520.595565658574
415.3675,4794.500848970094
417.5477,4923.756752078554
419.7273,4921.460670465445
421.9064,4807.909950374695
424.0848,4583.501888835635
426.2627,4339.7837347985005
428.4399,4022.2526913785114
430.6166,3584.9559182930607
432.7928,3174.1405350370405
434.9683,2870.903625255789
437.1432,2598.2922408532395
439.3176,2403.403405024299
441.4914,2224.434114980959
443.6645,2167.1813439011785
445.8371,2056.2420427185716
448.0091,1959.8131406949615
450.1806,1898.1415465297396
452.3514,1777.274149324181
454.5216,1760.3078191981513
456.6913,1648.789408498771
458.8603,1672.9657519700922
461.0288,1715.1336678682637
463.1967,1708.2899577198004
465.3639,1797.681405899868
467.5306,1827.954779700758
469.6967,1962.8568284379362
471.8622,2078.534283147339
474.0271,2232.5338552363537
476.1914,2226.4022353270266
478.3551,2222.886091716078
480.5182,2178.0820704362122
482.6807,2118.836795291285
484.8426,2188.5968683043357
487.0039,2453.558870310051
489.1647,2826.3193602571555
491.3248,3267.924872558797
493.4843,3409.8719133649392
495.6432,3402.206956146314
497.8015,3288.376440274933
499.9592,3272.2267711007553
502.1163,3207.054321089974
504.2728,2947.4554299865304
506.4287,2679.676405463815
508.5839,2194.813525720696
510.7386,1837.9630421592738
512.8927,1641.9711842335164
515.0461,1514.2841630177718
517.199,1453.8481731666798
519.3512,1431.3593941920371
521.5029,1473.7139910671758
523.6539,1538.5081144518372
525.8043,1544.7379002686139
527.9541,1576.2494690550411
530.1033,1557.6889259012714
532.2519,1549.1523601349763
534.3999,1676.8358455069647
536.5472,1931.9854402765231
538.694,2396.3471859345773
540.8401,2986.96710465222
542.9856,3462.841194637076
545.1305,3574.6154242271114
547.2748,3474.3357271319
549.4185,3105.3980013148503
551.5615,2705.3981099960365
553.704,2580.7318853415527
555.8458,2505.3451324635244
557.987,2520.733630666753
560.1276,2480.8431342026015
562.2675,2465.2693721151154
564.4069,2500.4080486399216
566.5456,2480.204843359945
568.6837,2393.7554108540535
570.8212,2110.755380899074
572.958,1765.500359334288
575.0942,1505.1859308914318
577.2299,1290.407662647256
579.3648,1240.911106626656
581.4992,1293.191801950452
583.6329,1495.1452753303602
585.766,1719.4170405461955
587.8985,1841.002596426315
590.0304,1807.997424604917
592.1616,1764.646988306169
594.2922,1645.4967326742772
596.4222,1488.3420852069758
598.5515,1296.528456947046
600.6802,1134.9512440538492
602.8083,951.9558297214826
604.9358,915.1375857945277
607.0626,826.1418745980191
609.1888,830.0640493056308
611.3144,787.0994548296258
613.4393,625.5434277816385
615.5636,502.1412969023295
617.6873,410.5383846769437
619.8103,376.08000856931176
621.9327,294.9114819378992
624.0544,290.42811438036733
626.1756,237.7752125452862
628.2961,207.69808017694595
630.4159,144.74201864190763
632.5351,102.95232722974833
634.6537,3.8743037826207
636.7716,-1.4967548868153244
638.8889,43.634409329773916
641.0056,79.56306949329155
643.1216,84.23449822829934
645.237,108.54396736374474
647.3518,91.03674788623539
649.4659,114.40810969695303
651.5793,141.20332178673561
653.6922,140.9676520023313
655.8043,128.79636677848248
657.9159,140.58473114025765
660.0268,15.628008824765857
662.137,4.371462163293472
664.2466,-47.63964666914035
666.3556,-43.110099168417946
668.4639,-84.94420091035136
670.5716,-2.4458268008747837
672.6786,77.73199684663996
674.785,92.78626815260941
676.8907,175.9139844601341
678.9958,294.01214218447785
681.1002,255.97773598176354
683.204,250.65775756800576
685.3072,188.39919609945355
687.4097,125.7990382257849
689.5115,88.40426871270392
691.6127,65.11187106793659
693.7132,-36.58117208481781
695.8131,-52.27787877296578
697.9123,-3.6809015780163463
700.0109,-94.14237082545878
702.1089,-113.26438006857279
704.2061,-66.84808237836842
706.3028,-15.943499314700603
708.3987,26.55001537489443
710.4941,128.48326721844933
712.5887,292.00706147850724
714.6827,585.2222021327834
716.7761,942.4794902389403
718.8688,1298.8797210024095
720.9608,1478.2236802038278
723.0522,1571.7121406350634
725.1429,1393.64586030574
727.233,1134.8755815083969
729.3224,875.5020325991027
731.4112,560.8259305851934
733.4993,368.19798371899014
735.5867,240.76889464455962
737.6735,174.8893623240183
739.7596,97.51008331178309
741.845,60.73175241338686
743.9298,19.755063459258963
746.014,56.380709672539524
748.0974,87.1591869232725
750.1802,37.24099051769008
752.2624,50.376614890446945
754.3439,65.16655410378007
756.4247,113.16130171618352
758.5048,261.76135063450056
760.5843,489.2671926339681
762.6631,774.1293168722259
764.7413,1244.7482076142442
766.8188,1815.0243413837343
768.8956,2237.058182256922
770.9718,2567.300176159817
773.0473,2405.250746647842
775.1221,2094.310291603433
777.1962,1699.5791848565314
779.2697,1498.407779293997
781.3426,1572.3464108068874
783.4147,1823.2954003022132
785.4862,2161.9050529635133
787.557,2210.2256557413857
789.6271,1882.50747396738
791.6966,1325.6007508707844
793.7654,795.5557108558278
795.8335,531.8725650707565
797.901,347.1515167082616
799.9678,289.24276364232355
802.0339,294.4465002754114
804.0993,366.91291811759584
806.1641,356.19220573447456
808.2282,325.18454802252745
810.2916,248.99012631631922
812.3544,186.4091186985861
814.4164,50.84170076219016
816.4778,145.73804623588512
818.5385,103.39832834004483
820.5986,194.57271883767316
822.658,356.46138845779933
824.7166,441.1645059837356
826.7747,663.8822366342138
828.832,854.3647412163009
830.8886,934.6621738982831
832.9446,1118.8746803047943
834.9999,1180.1523967138673
837.0545,1181.6954482147921
839.1085,1191.2539480953455
841.1618,1180.6779978263585
843.2143,1159.5176869661482
845.2662,1047.1230932662547
847.3175,995.2442828830463
849.368,887.3313115016717
851.4179,807.7842248548368
853.467,673.9530598019373
855.5155,636.3878451245291
857.5633,522.4886028646688
859.6105,416.9053487005367
861.6569,363.53809308543714
863.7027,326.6868423036285
865.7478,314.7015990039872
867.7922,345.5823625685407
869.8359,424.62912923231124
871.8789,569.8918917744923
873.9212,715.4206387279992
875.9629,869.9653529268544
878.0039,1066.7260100508647
880.0441,1217.8525770802044
882.0837,1222.8950103277894
884.1226,1129.7032539280262
886.1609,1087.9272397863751
888.1984,981.6668885112631
890.2352,1031.6221098318565
892.2714,987.9928036606616
894.3069,1014.0288595939601
896.3416,904.0301573481411
898.3757,918.3465664992982
900.4091,888.5279475832322
902.4418,927.2241519522868
904.4739,944.9850220735461
906.5052,958.2603911418628
908.5358,877.5500829022421
910.5658,762.5539115170795
912.595,617.4216823733041
914.6236,466.5531932323065
916.6515,423.8482356812783
918.6786,418.85659664189734
920.7051,504.27805879736115
922.7309,661.0124006423066
924.756,710.559395628592
926.7804,847.9688105979585
928.8041,749.1404052865619
930.8272,854.2239309508877
932.8495,725.9691313560215
934.8711,727.9257417248264
936.892,559.4434900204906
938.9123,410.4720969269547
940.9318,303.6112775337242
942.9506,216.1107428255964
944.9688,91.22020075126056
946.9862,98.23935709830766
949.003,0.9679167421309103
951.019,34.80558357573318
953.0344,40.75205182262653
955.0491,105.50701535827102
957.063,213.02016765061126
959.0763,381.0412011125445
961.0888,396.2198060267474
963.1007,496.85566886552624
965.1119,559.6484721389752
967.1223,614.3478933886327
969.1321,652.6536045595749
971.1412,677.965271453395
973.1495,683.4325533451556
975.1572,769.6551027302776
977.1641,846.5825652698659
979.1704,830.7145789284841
981.1759,799.4507732048878
983.1808,908.8907692906905
985.1849,987.2841803830015
987.1884,1147.7806105900527
989.1911,1325.0296541472017
991.1932,1441.280893812058
993.1945,1527.6338990919248
995.1951,1456.1382250813367
997.1951,1411.7434115984797
999.1943,1386.1989839001653
1001.1928,1304.0044531257736
1003.1906,1318.2593165526996
1005.1877,1416.463058418296
1007.1841,1339.3151497773433
1009.1798,1290.5650475199946
1011.1748,1070.762195143263
1013.1691,938.0560232385142
1015.1627,692.6959516895004
1017.1556,472.031390999422
1019.1477,425.56174474453655
1021.1392,271.8364117807905
1023.1299,291.9547867085312
1025.12,361.6662614097404
1027.1093,395.37022484686895
1029.0979,509.41606236569714
1031.0859,536.2031553583329
1033.0731,558.930880122698
1035.0596,502.09860759469666
1037.0454,331.3557031209275
1039.0304,257.5515270270007
1041.0148,107.28543632498258
1042.9985,10.456785451431642
1044.9814,25.114927770056966
1046.9636,-20.04078345999733
1048.9452,-37.56099523073499
1050.926,1.2538456732509076
1052.9061,-56.79633229830506
1054.8855,-16.811613221580046
1056.8642,48.558486222573265
1058.8421,128.9646173013316
1060.8194,151.45743079629028
1062.7959,191.48757619942626
1064.7717,233.35570148815168
1066.7469,244.21245272498345
1068.7213,286.8584736389057
1070.695,328.44440551679145
1072.6679,228.27088677692154
1074.6402,192.58855255313756
1076.6117,227.34803569658834
1078.5826,249.49996713257133
1080.5527,283.04497551289387
1082.5221,330.2836869943749
1084.4908,535.466724903381
1086.4587,736.4947092634648
1088.426,905.2182547435077
1090.3925,846.2379686474669
1092.3584,864.4544492271198
1094.3235,724.2682862718648
1096.2879,635.780060926576
1098.2515,656.0903470934463
1100.2145,712.7497123168723
1102.1767,803.3587175803623
1104.1382,1005.8179167399248
1106.099,1245.027855618002
1108.0591,1417.889069978839
1110.0185,1563.952083136428
1111.9771,1605.5174042258768
1113.9351,1376.5855267427687
1115.8923,1159.2069281275362
1117.8488,836.7820720547606
1119.8045,579.3614106069617
1121.7596,480.34538749885905
1123.7139,390.5344406515651
1125.6675,432.0790031827346
1127.6204,508.82950430469646
1129.5726,510.8863689089849
1131.524,523.8000167988648
1133.4748,582.9208626687359
1135.4248,510.69931597499453
1137.3741,583.285780344846
1139.3226,541.5806542984901
1141.2705,486.03433052329274
1143.2176,411.1471962908108
1145.164,427.9696340122573
1147.1097,474.5520219874161
1149.0546,475.94473423636737
1150.9989,386.9981400336801
1152.9424,295.9626038944807
1154.8852,159.33848646394472
1156.8272,50.37614542762458
1158.7686,36.42593687770932
1160.7092,-15.461783597391332
1162.6491,-10.08666077351154
1164.5883,100.60181503671993
1166.5267,183.4542542864292
1168.4644,350.8212664227103
1170.4014,566.6534590581323
1172.3377,821.1014362970709
1174.2732,1098.7657965773615
1176.2081,1349.3471301258542
1178.1421,1574.3960161817304
1180.0755,1800.213020490719
1182.0082,1888.1486930546016
1183.9401,1895.6035658730398
1185.8713,1775.9781520642246
1187.8017,1567.0729457903035
1189.7315,1352.5384234536941
1191.6605,1047.3750457860588
1193.5888,871.0832599937057
1195.5163,755.813502809182
1197.4432,681.366202254223
1199.3693,635.5917787924409
1201.2947,552.9406460737882
1203.2193,569.3632113923159
1205.1432,624.1598765126728
1207.0664,668.2810375058762
1208.9889,692.477084201364
1210.9106,745.5483997457559
1212.8316,784.1453603609043
1214.7519,859.5683348132115
1216.6715,870.617684027613
1218.5903,921.3437603333914
1220.5084,932.8969073536646
1222.4257,926.3274594981194
1224.3424,872.1857418474829
1226.2583,946.8220702192266
1228.1735,1021.236751708966
1230.0879,1136.880083944121
1232.0016,1313.2523543397365
1233.9146,1331.353838942072
1235.8269,1253.8348006648594
1237.7384,1155.8954891083085
1239.6492,959.6361413342856
1241.5592,883.0569828457083
1243.4686,823.3082295491622
1245.3772,791.6400885206494
1247.285,811.9527586030999
1249.1922,757.5464307230541
1251.0986,782.2712876875339
1253.0042,819.3775047281124
1254.9092,873.6652492536523
1256.8134,935.4346804792476
1258.7169,1134.1359488833405
1260.6196,1244.969195590038
1262.5216,1540.3345503821001
1264.4229,1711.432130592595
1266.3234,1870.4620381512686
1268.2232,1968.3243578735455
1270.1223,1966.2691558702536
1272.0207,1996.3464785689648
1273.9183,1957.806352734584
1275.8151,1884.1987851685371
1277.7113,1821.8737630941905
1279.6067,1694.4312548929229
1281.5014,1614.771210727391
1283.3953,1627.1435638159383
1285.2885,1665.8482312292072
1287.181,1711.9351137664125
1289.0727,1839.0540955682773
1290.9637,1896.9050436561956
1292.854,2088.0378066610137
1294.7435,2224.9022142445465
1296.6323,2440.0980751882234
1298.5204,2659.0251760244537
1300.4077,2899.733278884676
1302.2943,3064.9221193100893
1304.1802,3150.941403844561
1306.0653,3049.290808382746
1307.9497,2864.169977309888
1309.8333,2761.778524518333
1311.7162,2723.4160352587423
1313.5984,2699.5320671639965
1315.4798,2773.4261506328385
1317.3605,2866.097789068668
1319.2405,2995.0464581406486
1321.1197,2941.371604856953
1322.9982,2835.372646275304
1324.876,2796.098970039704
1326.753,2755.7999354404383
1328.6293,2719.374873806806
1330.5048,2775.773088910104
1332.3796,2696.893857327894
1334.2537,2731.136427880003
1336.127,2709.4000224173287
1337.9996,2651.733835479423
1339.8714,2664.9370345118405
1341.7426,2592.858760442803
1343.6129,2635.5481275511556
1345.4826,2580.60422418718
1347.3515,2596.176112345687
1349.2196,2577.5128282154546
1351.087,2625.2133820234994
1352.9537,2646.126758221717
1354.8197,2828.2519150099033
1356.6849,3005.637784126584
1358.5493,3119.0832690277675
1360.4131,3159.3372431131047
1362.276,3142.848548591408
1364.1383,2999.8159960781177
1365.9998,2786.4883647602037
1367.8606,2490.2644038264825
1369.7206,2235.9428346008935
1371.5799,2033.6723535047513
1373.4384,1917.951634599929
1375.2962,1779.1293316116044
1377.1533,1528.8540790854313
1379.0096,1251.0744937758009
1380.8652,986.0391771485592
1382.7201,764.4467181588152
1384.5742,558.5956959012983
1386.4275,369.7846818262624
1388.2802,273.26224179800374
1390.132,197.07693798297805
1391.9832,150.17732981501467
1393.8336,61.06197475717818
1395.6832,18.329428770783124
1397.5322,3.528247206520973
1399.3803,-6.443014768201465
1401.2278,-29.98580202125777
1403.0745,21.448504945181412
1404.9204,-25.941174812887766
1406.7656,33.644077546055996
1408.6101,55.55344001586673
1410.4538,37.38609025396909
1412.2968,108.94120536226
1414.139,169.2179620687839
1415.9805,253.26553601218984
1417.8213,373.58310113895095
1419.6613,501.2198288629079
1421.5006,703.4248868620707
1423.3391,925.9974378022507
1425.1769,1278.9866373150035
1427.0139,1759.1916317719079
1428.8502,2347.911554754686
1430.6858,2953.99552225315
1432.5206,3354.042626778004
1434.3547,3619.1519313000117
1436.188,3702.6224652495057
1438.0206,3655.503221865316
1439.8524,3502.443157360047
1441.6835,3407.5911913912805
1443.5139,3375.596208592173
1445.3435,3307.9070595199737
1447.1724,3299.922560975987
1449.0005,3228.241496682438
1450.8279,3154.3126173623477
1452.6545,3133.7346414563235
1454.4804,3216.256255861854
1456.3056,3215.0761161391056
1458.13,3137.5428456856753
1459.9536,2942.3050357484117
1461.7766,2662.811246198744
1463.5987,2242.410007485063
1465.4202,1904.9998234276518
1467.2409,1593.829175422714
1469.0608,1346.8465258164542
1470.88,1097.8503210167928
1472.6984,939.3889939631881
1474.5161,730.8609666166067
1476.3331,576.8146515441349
1478.1493,489.34845400425
1479.9648,424.86077348729486
1481.7795,343.9000045901412
1483.5935,323.26453766105624
1485.4067,271.25275960931685
1487.2192,257.8130541115552
1489.031,238.94380213188742
1490.842,196.74338205629647
1492.6522,232.16016988133197
1494.4618,223.19253963611663
1496.2705,214.28886302818137
1498.0785,211.1475095331407
1499.8858,180.56684648372902
1501.6924,147.24523910121388
1503.4981,176.1810508012095
1505.3032,165.2226435268767
1507.1075,169.76837745958437
1508.911,150.61661112847833
1510.7138,136.96570136503578
1512.5159,114.11400349456926
1514.3172,68.00987147274645
1516.1178,68.75165811409352
1517.9176,73.08771555305975
1519.7166,35.166395236576136
1521.515,0.6860478807047912
1523.3126,23.545023849845165
1525.1094,35.54167350153875
1526.9055,13.074346957886519
1528.7008,-6.708606014413817
1530.4954,-39.95883577940731
1532.2893,-15.777925682166824
1534.0824,-40.26705987900641
1535.8747,-21.32726490476307
1537.6663,-8.709165026357368
1539.4572,4.986828548671838
1541.2473,-3.289608382661754
1543.0367,-3.7888000732073124
1544.8253,11.938962087369873
1546.6132,49.0934245595181
1548.4003,18.574333684298836
1550.1867,84.4814353118345
1551.9723,124.31447510651742
1553.7572,176.873197887915
1555.5414,217.6573472324635
1557.3247,323.26666494786696
1559.1074,401.3008906652685
1560.8893,497.5597607831405
1562.6705,550.7930076869543
1564.4509,657.1503587865827
1566.2305,725.4315359839729
1568.0094,839.9862546095792
1569.7876,900.8642227395449
1571.565,955.1151400501567
1573.3417,992.9386972090633
1575.1176,991.034575332782
1576.8928,980.5524456084386
1578.6672,892.7419693128268
1580.4409,839.4527979172199
1582.2138,714.534573965484
1583.986,664.0369316069609
1585.7575,619.1594978456524
1587.5282,599.301893045189
1589.2981,598.9637313776257
1591.0673,582.6446210219892
1592.8358,595.2941641676807
1594.6035,617.4619571776548
1596.3704,633.7475904619223
1598.1366,678.7006482558863
1599.9021,746.2207084574893
1601.6668,823.0573421776699
1603.4308,878.8601130651605
1605.194,1018.8785765381144
1606.9564,1174.0622792260983
1608.7182,1307.1107575698952
1610.4791,1447.0735362696796
1612.2394,1653.9501269545108
1613.9988,1859.5400267827317
1615.7576,2085.99271637317
1617.5156,2316.607657749273
1619.2728,2540.584292074567
1621.0293,2663.7220373465043
1622.785,2714.0702861567024
1624.54,2673.1784044595624
1626.2942,2531.495731068784
1628.0477,2280.521578066293
1629.8005,2080.005232219064
1631.5525,1858.195957488857
1633.3037,1713.142997037403
1635.0542,1591.7955754444665
1636.804,1505.502900158397
1638.553,1454.8141627095883
1640.3013,1469.5285395734136
1642.0488,1466.3951926771115
1643.7955,1523.8632692526426
1645.5416,1566.1319018680151
1647.2868,1687.0002078526122
1649.0313,1793.5672888744975
1650.7751,1966.4822297317442
1652.5181,2152.0940972867556
1654.2604,2351.9019387371245
1656.0019,2624.404779759505
1657.7427,2930.751622511534
1659.4828,3239.941442906802
1661.222,3474.723187551386
1662.9606,3496.5957706519694
1664.6984,3338.2580716680004
1666.4354,2951.4589350929764
1668.1717,2493.597172037824
1669.9072,2026.9715640988816
1671.642,1625.3308679365327
1673.3761,1281.4738199414423
1675.1094,1015.5491402509724
1676.8419,846.8555361877388
1678.5737,686.6417049188858
1680.3048,595.0063351429908
1682.0351,490.99810869223256
1683.7646,408.51570144872676
1685.4934,361.8077843846204
1687.2215,328.82302438690203
1688.9488,290.16008472449175
1690.6754,214.31762537808572
1692.4012,224.09430342677842
1694.1263,220.48877380650265
1695.8506,200.44968921224608
1697.5742,172.32570013411532
1699.297,171.51545505772083
1701.0191,107.31760074542763
1702.7404,110.43078224444616
1704.461,89.30364352881406
1706.1808,58.43482746826703
1707.8999,71.62297603950901
1709.6182,74.0667306348987
1711.3358,70.56473193056809
1713.0527,64.91561986198212
1714.7688,41.46803365897358
1716.4841,27.570611902214296
1718.1987,62.72199275769526
1719.9126,31.370814115714893
1721.6257,25.015713239345132
1723.338,44.2053270779561
1725.0496,12.688292330760305
1726.7605,-3.1867547450783604
1728.4706,-11.171178019267245
1730.18,-30.516309525844918
1731.8886,-10.823369698775423
1733.5964,-14.393274114099768
1735.3036,-11.576830222393255
1737.0099,-1.724701685427135
1738.7156,-2.8374365124473115
1740.4204,-24.165565482933744
1742.1246,-11.45959103037967
1743.8279,-15.169774174286431
1745.5306,23.95373854715399
1747.2325,2.9109521417922224
1748.9336,-9.098128622059448
1750.634,-37.62349900518893
1752.3336,-7.715063378089326
1754.0325,3.4276497475057113
1755.7307,-0.694811066656257
1757.4281,50.168102706897116
1759.1247,28.116946536794785
1760.8206,27.60227538999243
1762.5158,42.02464395227253
1764.2102,38.03460663340138
1765.9039,44.132717422900896
1767.5968,34.11952992995157
1769.289,37.195597322402136
1770.9804,39.46147242691404
1772.6711,45.56770769819195
1774.361,54.71485519633188
1776.0502,55.60346652575299
1777.7386,67.08409274372661
1779.4263,87.05728435150104
1781.1132,83.12359117948381
1782.7994,75.93356218751796
1784.4849,78.23774550421331
1786.1696,94.08668849884089
1787.8535,122.58093775829366
1789.5367,101.32103892859504
1791.2192,133.3075364299566
1792.9009,102.74097366938622
1794.5818,120.47189272082142
1796.2621,108.80083463079063
1797.9415,102.37833924111419
1799.6202,112.15494530560773
1801.2982,124.9811905543038
1802.9755,137.6576115956923
1804.6519,140.78474378845658
1806.3277,142.8131211147138
1808.0027,120.49327614873346
1809.6769,150.62574003666214
1811.3504,144.9610427197158
1813.0231,148.74971263285897
1814.6951,125.34227676144656
1816.3664,173.1392606033387
1818.0369,164.79118840297815
1819.7067,152.84858267341406
1821.3757,165.11196427978484
1823.044,178.28185255874905
1824.7115,195.758765195852
1826.3783,186.5432180938251
1828.0443,173.53572519780846
1829.7096,180.6367985875213
1831.3741,185.09694860732725
1833.0379,186.81668379522216
1834.701,179.29651083823956
1836.3633,184.88693455524572
1838.0248,185.63845797215072
1839.6856,191.7015822659887
1841.3457,215.37680675742195
1843.005,230.91462885010242
1844.6636,231.21554379391455
1846.3214,251.43004452959667
1847.9785,257.35862168573294
1849.6349,261.1017633766096
1851.2904,280.5599551429268
1852.9453,276.23367991437317
1854.5994,269.7734178150431
1856.2528,293.8296462066919
1857.9054,296.2028397533486
1859.5572,301.49347018074786
1861.2083,290.60200625259677
1862.8587,301.7289137176749
1864.5084,294.92465541874935
1866.1572,291.88969118129717
1867.8054,275.1744778815573
1869.4528,287.5794694768774
1871.0994,298.4051171728588
1872.7453,316.9518692993124
1874.3905,316.7701712019925
1876.0349,305.6104650571433
1877.6786,331.17318987331146
1879.3215,324.8587816029385
1880.9637,352.9676728867398
1882.6051,349.45029311684084
1884.2458,329.4570681556952
1885.8858,319.5884203712558
1887.525,329.54476883690495
1889.1634,306.6765294301431
1890.8011,319.8341147330193
1892.4381,328.7179342608215
1894.0743,354.97839433049467
1895.7098,368.6658979718086
1897.3446,349.08084466475157
1898.9786,338.02363020265875
1900.6118,349.09464688805565
1902.2443,331.8442836432305
1903.8761,331.8729258995336
1905.5071,311.1809557698698
1907.1374,311.818752048418
1908.7669,288.7366904175515
1910.3957,324.4851434414604
1912.0237,321.6644807969669
1913.651,328.07506891604044
1915.2776,324.4672710140085
1916.9034,321.49144702544436
1918.5285,302.44795364025595
1920.1528,297.43714433343575
1921.7764,293.30936955550715
1923.3992,287.5149767826206
1925.0213,266.704310557845
1926.6427,265.8277125491004
1928.2633,247.6355217572691
1929.8832,263.9780745249618
1931.5023,267.30570471843475
1933.1207,264.31874356416756
1934.7383,283.66751961558475
1936.3552,256.0523587829257
1937.9714,274.62358413975744
1939.5868,239.18151619912533
1941.2015,243.02647272784088
1942.8154,261.15876910090265
1944.4286,229.928718263046
1946.041,210.53663054742356
1947.6528,221.7328139879046
1949.2637,202.21757451299527
1950.8739,202.59121583387696
1952.4834,212.80403963955723
1954.0921,233.4063455931373
1955.7001,224.14843122967795
1957.3074,209.83059175018207
1958.9139,200.65312011416881
1960.5197,195.5163071828547
1962.1247,190.4704418109286
1963.729,184.86581089791798
1965.3325,169.65269943864496
1966.9353,184.48139057927983
1968.5374,190.50216576946514
1970.1387,160.41530461403727
1971.7393,157.92108481280866
1973.3392,155.46978246144408
1974.9383,144.21167207639883
1976.5366,132.89702661943647
1978.1342,152.4261176102118
1979.7311,163.4492152394041
1981.3273,154.46658817343905
1982.9227,167.5785034442515
1984.5173,150.8352265391095
1986.1112,151.48702126949865
1987.7044,129.8841499385544
1989.2968,139.8268733345476
1990.8885,133.01545094690755
1992.4795,136.30014086679967
1994.0697,137.18119985523845
1995.6592,130.75888331023816
1997.2479,135.13344525800585
1998.8359,139.10513841715783
2000.4232,126.92421415497756
2002.0097,130.79092244770436
2003.5955,119.25551200233349
2005.1805,136.1182302179559
2006.7648,131.87932330110834
2008.3484,121.78903609714689
2009.9312,152.09761213263664
2011.5133,111.40529371625325
2013.0946,122.91232163569748
2014.6752,120.81893556462092
2016.2551,131.875373947556
2017.8342,99.08187402084877
2019.4126,112.68867170209523
2020.9902,110.74600191807531
2022.5672,119.85409846867879
2024.1433,120.61319404634287
2025.7188,132.22352014496482
2027.2935,114.43530705231387
2028.8674,114.29878373392421
2030.4406,116.11417801098014
2032.0131,91.48171656168415
2033.5849,90.60162490309722
2035.1559,98.07412763746925
2036.7261,121.14944846103026
2038.2957,109.02781008927286
2039.8645,137.5094340261985
2041.4325,128.9945406855304
2042.9998,128.2833491058991
2044.5664,128.47607703599442
2046.1323,111.02294094167337
2047.6974,128.17415600403547
2049.2617,97.12993629395078
2050.8254,133.74049460055085
2052.3883,131.10604274167054
2053.9504,121.52679119773984
2055.5118,102.30294913813395
2057.0725,112.98472451696762
2058.6325,126.42232426532428
2060.1917,124.51595418444413
2061.7502,108.26581881134189
2063.3079,118.52212143787892
2064.8649,105.18506427325792
2066.4212,101.45484834146191
2067.9767,110.2316736146222
2069.5315,104.16573905032328
2071.0856,108.05724250383264
2072.6389,87.75638078875909
2074.1915,90.01334963814224
2075.7433,86.67834390745429
2077.2945,89.8515575520405
2078.8448,78.53318366046187
2080.3945,78.32341442276993
2081.9434,98.87244124368499
2083.4916,88.78045474469218
2085.039,68.14764455855766
2086.5857,89.42419943025016
2088.1317,87.81030742326129
2089.677,78.80615570683949
2091.2215,76.41193057213513
2092.7652,93.72781752223727
2094.3083,78.9540012961179
2095.8506,87.64066569547504
2097.3921,86.78799373246875
2098.933,117.19616754285744
2100.4731,99.16536839451965
2102.0124,88.5457763833756
2103.5511,104.63757061369233
2105.089,110.99092930428196
2106.6261,125.45602962758312
2108.1626,100.63304764612985
2109.6983,87.42215816789667
2111.2332,112.22353499452583
2112.7675,111.63735105344449
2114.301,86.91377814984571
2115.8337,107.00298697255312
2117.3657,111.955147341253
2118.897,111.72042800560439
2120.4276,125.6989965957141
2121.9575,119.94101962448713
2123.4866,123.34666234784027
2125.0149,131.71608882228247
2126.5426,106.84946187085961
2128.0695,108.64694299945404
2129.5956,98.15869264545836
2131.1211,107.98487015979299
2132.6458,112.47563391179528
2134.1698,108.0811411909549
2135.693,120.0015481620062
2137.2155,105.93700990887419
2138.7373,113.13768031547215
2140.2584,115.90371220634597
2141.7787,110.53525727466194
2143.2983,95.88246605455333
2144.8171,96.79548797480084
2146.3353,83.32447150536609
2147.8527,100.21956414825718
2149.3693,117.73091257223814
2150.8853,115.85866244387853
2152.4005,101.95295825244057
2153.9149,111.16394332860273
2155.4287,110.89175998351175
2156.9417,126.43654941667683
2158.454,109.59845171868983
2159.9655,113.22760571578056
2161.4764,111.37414913819384
2162.9865,102.38821858390384
2164.4958,99.96994953714284
2166.0045,101.6694764582603
2167.5124,110.3869328079104
2169.0195,126.27245103005316
2170.526,113.82616246477846
2172.0317,110.89819718945137
2173.5367,118.98868414317894
2175.0409,128.3977511560879
2176.5445,132.87552486841832
2178.0473,123.72213063643949
2179.5494,110.08769248766157
2181.0507,107.57233321237709
2182.5513,95.9761745000028
2184.0512,125.94933696423413
2185.5504,94.49194025900715
2187.0488,96.85410277876326
2188.5465,87.135941973027
2190.0435,92.58757432278344
2191.5397,95.15911543766197
2193.0353,114.1006800014161
2194.5301,88.56238174621285
2196.0241,77.99433326321105
2197.5175,82.44664625794712
2199.0101,86.41943165601606
2200.502,87.76279955854852
2201.9931,89.22685920248387
2203.4835,76.16171894713807
2204.9733,69.26748625955634
2206.4622,75.49426784516845
2207.9505,82.69216971673313
2209.438,71.91129713206874
2210.9248,68.10175452207295
2212.4109,69.46364559853464
2213.8962,79.34707339222587
2215.3809,64.60214023928393
2216.8648,87.47894768237848
2218.3479,75.92759661815671
2219.8304,63.04818706847982
2221.3121,66.99081829593251
2222.7931,78.60558893262305
2224.2733,67.0925969407499
2225.7529,63.35193949646009
2227.2317,51.083713104977505
2228.7098,69.93801363800594
2230.1872,71.96493645641476
2231.6638,63.4645762216951
2233.1397,54.537026875692845
2234.6149,55.18238172561087
2236.0894,59.200733533285074
2237.5632,64.94217450872793
2239.0362,62.75679626994588
2240.5085,47.94468978552413
2241.9801,53.105945396481275
2243.4509,43.34065296438985
2244.921,33.59890181976334
2246.3904,45.7807808597081
2247.8591,48.23637864534203
2249.3271,49.16578327997695
2250.7943,28.819082384560716
2252.2608,28.696363088386533
2253.7266,48.89771223255548
2255.1917,31.423216371209946
2256.656,40.72296156951643
2258.1197,43.24703357841145
2259.5826,40.895517741602816
2261.0447,51.51849897032935
2262.5062,37.016061766876646
2263.9669,44.43829011834896
2265.4269,53.63526764169001
2266.8862,42.407077509463306
2268.3448,47.503802357880886
2269.8026,59.77552439908595
2271.2598,51.72232537018408
2272.7162,52.144286410531095
2274.1719,55.14148814225882
2275.6268,46.41401066605931
2277.0811,77.6619335312098
2278.5346,49.93533582285136
2279.9874,66.28429584950936
2281.4395,57.90889142035485
2282.8908,45.00919968171729
2284.3414,55.985297200841615
2285.7914,69.48726009487928
2287.2406,54.36516392112844
2288.689,53.46908354201605
2290.1368,62.749093276319854
2291.5838,49.10526690812594
2293.0302,66.43767759403318
2294.4758,53.096397999586316
2295.9206,46.2315001259567
2297.3648,54.99305544335266
2298.8082,63.93113495966645
2300.251,60.09580913286209
2301.693,65.43714778159529
2303.1343,65.00522012356805
2304.5748,66.3000947221094
2306.0147,63.07183949049795
2307.4538,52.57052167901202
2308.8922,55.04620790721174
2310.3299,67.24896426895066
2311.7669,70.72885630761675
2313.2031,68.38594889411479
2314.6387,68.17030619206116
2316.0735,58.331991681215186
2317.5076,55.621068159630795
2318.941,66.88759784204058
2320.3737,59.53164238696763
2321.8056,64.40326278406064
2323.2369,56.502519427652715
2324.6674,46.1794720680432
2326.0972,57.38417989050686
2327.5263,47.56670161852708
2328.9547,58.777095401744646
2330.3823,58.36541891413299
2331.8092,69.58172924189466
2333.2355,51.37608288757747
2334.661,60.29853565791291
2336.0858,73.94914284587549
2337.5098,70.67795914145245
2338.9332,71.63503849514291
2340.3558,74.22043415066719
2341.7778,56.68419863539475
2343.199,75.07638373449481
2344.6195,64.29704066629301
2346.0393,65.09621989835432
2347.4583,89.17397125527441
2348.8767,65.08034391068668
2350.2943,77.06538614648844
2351.7113,83.17914559377596
2353.1275,83.77166911299219
2354.543,77.44300273278895
2355.9578,83.04319164410072
2357.3718,83.12228026343382
2358.7852,64.33031217686357
2360.1978,70.76733013923831
2361.6098,62.98337626210741
2363.021,66.72849194934906
2364.4315,75.80271797500609
2365.8413,85.20609444583624
2367.2504,69.63866071056918
2368.6587,60.95045526587501
2370.0664,68.84151591204
2371.4733,62.16187983984719
2372.8795,54.161583551671356
2374.285,60.690662928270285
2375.6899,71.44915330878484
2377.0939,71.18708942545072
2378.4973,58.95450529601385
2379.9,61.15143422635174
2381.3019,57.17790893279698
2382.7032,66.88396152016503
2384.1037,53.169623521494486
2385.5035,56.934925800984274
2386.9027,46.87989869113562
2388.3011,55.154571955104075
2389.6987,66.95897488724495
2391.0957,59.34313623036678
2392.492,43.157084057686916
2393.8876,48.75084584899378
2395.2824,50.02444865250118
2396.6765,39.627919028923316
2398.07,29.211283038730016
2399.4627,43.72456634611126
2400.8547,48.517794323144244
2402.246,38.440991904656585
2403.6366,51.94418354030404
2405.0265,46.227393295331694
2406.4156,50.440644715544295
2407.8041,49.433960884475255
2409.1918,30.807364381249954
2410.5789,51.41087729065748
2411.9652,42.44452138941415
2413.3508,30.708317940126108
2414.7358,33.80228778095761
2416.12,42.02645144298867
2417.5035,52.680829119277405
2418.8863,24.56544058262125
2420.2684,38.88030507901021
2421.6497,32.0754416087816
2423.0304,29.500868783470878
2424.4104,41.95660489385864
2425.7896,32.6426679357196
2427.1682,45.55907548526329
2428.546,36.9558447922725
2429.9232,36.58299265094024
2431.2996,44.340535485901455
2432.6753,39.87848935596253
2434.0503,52.59686987652435
2435.4246,39.4956922642059
2436.7982,32.274971209657224
2438.1711,39.0847210085733
2439.5433,44.42495563390162
2440.9148,38.99568866774189
2442.2856,33.6469332479453
2443.6557,44.77870212240646
2445.025,31.39100770255277
2446.3937,39.38386195202361
2447.7617,41.30727652054952
2449.1289,51.31126266402384
2450.4955,35.09583122526669
2451.8613,45.71099253398711
2453.2265,37.206756568935816
2454.5909,45.083132851755636
2455.9546,53.49013053202316
2457.3177,30.427758308484727
2458.68,40.34602434498606
2460.0416,57.99493650109753
2461.4025,59.57450223292744
2462.7627,53.3347284166357
2464.1222,51.02562133263859
2465.4811,48.297186728005954
2466.8392,46.049429839551294
2468.1966,56.98235542111661
2469.5533,58.14596776604958
2470.9093,57.79027059787472
2472.2645,50.06526705865781
2473.6191,65.72095971256249
2474.973,67.95735062310087
2476.3262,61.32444119657566
2477.6787,69.22223215971644
2479.0305,49.20072362600945
2480.3816,62.959915016718924
2481.7319,60.0498052611008
2483.0816,49.37039265881481
2484.4306,52.42167490902284
2485.7789,60.20364921718351
2487.1264,57.216312264540875
2488.4733,60.3096601303032
2489.8195,45.333688321515865
2491.165,43.78839174213067
2492.5097,54.77376484276124
2493.8538,39.53980163614028
2495.1972,45.18649558726156
2496.5398,43.46383976572315
2497.8818,48.02182678925715
2499.2231,45.260448840958134
2500.5637,34.72969762370303
2501.9035,50.47956438776578
2503.2427,46.260040036122746
2504.5812,53.8711149669557
2505.919,51.66277911584689
2507.256,44.4350218796676
2508.5924,51.037832138662225
2509.9281,61.921198328724586
2511.2631,48.78510837537351
2512.5974,54.27954958491409
2513.9309,46.65450877580338
2515.2638,52.40997222370265
2516.596,53.845925737728976
2517.9275,61.21235460289972
2519.2583,55.80924356577498
2520.5884,58.13657676079151
2521.9178,47.79433776429528
2523.2465,55.13250957126661
2524.5745,52.80107469874338
2525.9018,58.05001511243972
2527.2284,50.129312250059
2528.5543,57.73894696880575
2529.8796,40.828899624593305
2531.2041,53.44914999594562
2532.5279,61.0496774530975
2533.851,63.730460831793835
2535.1735,58.89147835728272
2536.4952,64.58270761750873
2537.8163,61.654125611500604
2539.1366,59.60570869246203
2540.4562,53.18743259705502
2541.7752,69.69927246588622
2543.0935,70.14120290768824
2544.411,71.61319783420186
2545.7279,71.31523045575682
2547.0441,76.64727326655066
2548.3596,78.65929804762914
2549.6744,87.15127581356637
2550.9885,79.12317679234411
2552.3019,76.07497034043126
2553.6146,80.80662502306586
2554.9266,74.518108644736
2556.2379,82.75938820186525
2557.5485,72.23042994569619
2558.8585,72.1311992998792
2560.1677,71.01166096576048
2561.4762,80.42177892337577
2562.7841,83.91151644264437
2564.0913,105.53083598926742
2565.3977,77.92969918983272
2566.7035,93.00806661561865
2568.0086,100.06589805860744
2569.313,95.55315238070216
2570.6167,90.56978744314756
2571.9197,98.5157601516571
2573.222,87.74102650624695
2574.5236,100.1455415217747
2575.8246,93.97925933569036
2577.1248,106.74213308398794
2578.4244,97.4341149628699
2579.7232,116.65515610111743
2581.0214,106.85520665317017
2582.3189,120.78421560691618
2583.6157,122.84213088169281
2584.9118,117.77889918899564
2586.2072,117.69446601189998
2587.5019,118.03877565569155
2588.7959,123.16177124871206
2590.0893,135.2133947389159
2591.3819,131.99358684264052
2592.6739,134.6522869240914
2593.9652,143.73943302753628
2595.2557,141.80496185072138
2596.5456,132.698808654
2597.8348,135.52090727967607
2599.1234,136.32119024306598
2600.4112,148.09958870427772
2601.6983,143.7060324602087
2602.9848,138.34044982675982
2604.2705,139.55276768277304
2605.5556,145.4929115236862
2606.84,144.91080544940996
2608.1237,135.60637210492678
2609.4067,131.37953268611113
2610.689,137.23020703277325
2611.9707,130.7083136709291
2613.2516,129.71376975429303
2614.5319,126.64649112949587
2615.8115,134.1563923460319
2617.0903,117.79338668692981
2618.3685,136.3573860936558
2619.6461,130.7483013297442
2620.9229,128.21604179515384
2622.199,128.91051558236245
2623.4745,137.93162950168607
2624.7493,127.92928907433702
2626.0234,134.60339844221085
2627.2968,125.20386046790964
2628.5695,134.9805766680024
2629.8415,140.73344730701933
2631.1128,131.2123712996863
2632.3835,129.1672461533949
2633.6535,134.99796806341396
2634.9228,136.10443193334095
2636.1914,135.2865313167947
2637.4593,134.09415840634938
2638.7265,140.57720404171482
2639.9931,147.68555772165973
2641.259,137.319107539181
2642.5242,125.77774011042061
2643.7887,126.36134067833018
2645.0525,134.0697932280857
2646.3156,124.80298048124928
2647.5781,127.7107838186871
2648.8398,128.0430833732346
2650.1009,134.64975800061984
2651.3613,128.63068527614064
2652.6211,121.63574142859693
2653.8801,123.86480140048343
2655.1385,119.16773891793673
2656.3961,123.544426468447
2657.6531,134.69473534782696
2658.9094,135.26853561644566
2660.1651,137.71569598772544
2661.42,137.88608382240318
2662.6743,134.77956510406034
2663.9279,141.14600443741733
2665.1808,146.93526507939987
2666.433,145.3472088754745
2667.6846,144.0316962017555
2668.9354,151.18858598088582
2670.1856,150.01773569519173
2671.4351,150.91900131511488
2672.6839,157.7922373109202
2673.9321,162.13729664368338
2675.1795,159.55403069655813
2676.4263,166.14228923132555
2677.6724,159.20192041422752
2678.9179,165.73277075008332
2680.1626,159.88468515169393
2681.4067,157.65750687453237
2682.6501,167.50107757522687
2683.8928,172.71523733382992
2685.1348,153.29982455538493
2686.3761,155.35467591778172
2687.6168,138.52962656591376
2688.8568,144.52451009112735
2690.0961,152.08915869947248
2691.3348,138.27340315175593
2692.5727,142.0270726878922
2693.81,143.89999516506214
2695.0466,133.6919970201768
2696.2826,136.95290325114797
2697.5178,141.78253751896864
2698.7524,143.43072211510275
2699.9863,138.84727791319028
2701.2195,138.83202435256499
2702.452,153.63477948408763
2703.6839,155.40535997029974
2704.9151,147.09358093739525
2706.1456,145.449255957515
2707.3755,160.22219713186587
2708.6046,163.96221510716157
2709.8331,175.9191189278955
2711.0609,176.79271599893923
2712.2881,196.48281196597327
2713.5145,194.28921070675278
2714.7403,211.11171413420516
2715.9654,211.95012221836566
2717.1899,229.1542328181538
2718.4136,243.37384167298728
2719.6367,246.70874223074304
2720.8591,250.3587255055602
2722.0809,268.3735800444913
2723.3019,269.05309189100194
2724.5223,286.7470444048223
2725.7421,284.7052182551522
2726.9611,285.22739124372185
2728.1795,284.6633383252089
2729.3972,263.21283160201733
2730.6142,258.52564032991893
2731.8306,246.60153113255683
2733.0462,228.84026804831853
2734.2612,210.3916126495766
2735.4756,199.45532422030044
2736.6892,185.63115994054408
2737.9022,182.61887499580916
2739.1145,144.61822271528615
2740.3262,146.17895460197735
2741.5372,121.70082071270303
2742.7475,120.58356964249401
2743.9571,108.87694876937417
2745.1661,87.88070426553236
2746.3744,90.49458121438761
2747.582,68.1183238205524
2748.7889,65.50167538369476
2749.9952,64.09437852229973
2751.2008,53.49617519983531
2752.4057,49.2068067388268
2753.61,41.27601392683721
2754.8136,43.05353705936136
2756.0165,45.139116019134576
2757.2188,33.73249025835696
2758.4204,45.78339877783776
2759.6213,35.441580241061274
2760.8215,37.206772853678444
2762.0211,33.52871446692507
2763.22,34.60714255996959
2764.4182,21.19179427669428
2765.6158,25.2324064149102
2766.8127,13.62871556051141
2768.009,8.780458047068123
2769.2045,2.1373700718644386
2770.3994,1.5991877443802878
2771.5936,-2.584352847277387
2772.7872,-14.013515630994107
2773.9801,-5.338538716970675
2775.1723,-7.6595202203876624
2776.3639,-13.826504924424512
2777.5548,-8.889461093654631
2778.745,-19.598218865867352
2779.9346,-15.352519573136647
2781.1235,-15.401908761329992
2782.3117,-6.595778604644465
2783.4992,-15.683367412209009
2784.6861,-14.31384760132471
2785.8723,-13.086234912452824
2787.0579,-8.049402090717763
2788.2428,1.3979088502425157
2789.427,0.9070363103170394
2790.6106,15.129318675415902
2791.7935,21.56609432237974
2792.9757,26.268701476755837
2794.1573,30.73847814843134
2795.3382,44.226762084605866
2796.5184,51.1848907250951
2797.698,61.71420106744665
2798.8769,73.36602959735967
2800.0551,94.29171218339263
2801.2327,95.19258396044245
2802.4096,124.96997912049221
2803.5859,134.22523090360085
2804.7615,147.75967130012782
2805.9364,167.4746309581817
2807.1106,198.8714390482744
2808.2842,222.35142306617274
2809.4572,248.06590851892952
2810.6294,280.4162186900834
2811.801,324.5536743825148
2812.972,357.479593594942
2814.1423,408.8952910805467
2815.3119,442.05207801771473
2816.4808,477.65126149588025
2817.6491,530.444144183957
2818.8167,581.7320239743469
2819.9837,625.4161934550107
2821.15,672.4479393965889
2822.3157,699.8785423155616
2823.4807,760.4592760039292
2824.645,800.841407254907
2825.8086,845.5261952571187
2826.9716,872.3648911907746
2828.134,928.3587377808241
2829.2957,958.8089690285682
2830.4567,987.0668096517209
2831.617,1009.1834747799065
2832.7767,1023.2101696720822
2833.9358,1015.2980894953706
2835.0941,1011.4484191847928
2836.2519,987.3623335223906
2837.4089,973.8409971757212
2838.5653,972.0355649387192
2839.7211,980.7971818669104
2840.8761,967.6769832954643
2842.0306,984.8760947515798
2843.1843,1028.3456320856858
2844.3374,1073.736701299451
2845.4899,1124.1003981110885
2846.6417,1200.8878075014445
2847.7928,1265.8500032103625
2848.9433,1341.338046968807
2850.0931,1423.5029878492444
2851.2422,1491.19586151076
2852.3907,1550.467689377411
2853.5385,1612.0194779612962
2854.6857,1658.2022182698367
2855.8323,1716.8168851902628
2856.9781,1759.1644370277809
2858.1233,1806.9958149194297
2859.2679,1864.2619424106033
2860.4118,1899.663724976739
2861.555,1943.702049450656
2862.6976,1971.0277836685364
2863.8395,1998.191776029541
2864.9808,2013.194855222554
2866.1214,2024.7378299545433
2867.2614,2038.7714888005264
2868.4007,2049.3466000881444
2869.5393,2077.7639117573226
2870.6773,2081.2241512545224
2871.8146,2088.828025248564
2872.9513,2079.826219596028
2874.0874,2074.269399265215
2875.2227,2075.408208426162
2876.3574,2067.1432705062157
2877.4915,2051.075188178637
2878.6249,2013.454543445257
2879.7577,1988.7818977971556
2880.8898,1961.7577925908658
2882.0212,1950.0827492951043
2883.152,1945.6572697610097
2884.2821,1925.4818363388938
2885.4116,1918.7069119224961
2886.5405,1918.9329401507384
2887.6686,1935.5603454754732
2888.7962,1927.5395331592244
2889.923,1938.9708891089128
2891.0493,1940.3047799560652
2892.1748,1948.441552942499
2893.2997,1963.7815359069864
2894.424,1975.3750372038826
2895.5476,2006.2723455497285
2896.6706,2031.0237299073165
2897.7929,2046.8294391767129
2898.9145,2083.3897019477495
2900.0355,2116.554726341963
2901.1559,2151.474699646995
2902.2756,2175.1997879849378
2903.3946,2212.93013596314
2904.513,2229.515866436951
2905.6308,2263.7570801324196
2906.7479,2283.8538554804354
2907.8643,2317.506248274319
2908.9801,2320.464291468853
2910.0953,2331.8279948437566
2911.2098,2330.8473449741077
2912.3236,2325.372305116704
2913.4368,2326.4528152198714
2914.5494,2284.7887919782124
2915.6613,2284.5801288218017
2916.7725,2261.826696332826
2917.8831,2228.2783422476737
2918.9931,2205.534891684466
2920.1024,2168.6961474785403
2921.211,2145.561890409888
2922.319,2120.2318795715382
2923.4264,2105.105852600903
2924.5331,2092.233525933075
2925.6391,2086.8645949520887
2926.7445,2075.6487341196453
2927.8493,2079.3855970287987
2928.9534,2081.2248165161172
2930.0569,2057.3160046243124
2931.1597,2074.358752583848
2932.2619,2069.10263105203
2933.3634,2055.2471899425746
2934.4643,2055.1919584781745
2935.5645,2028.8864453290473
2936.6641,1998.430138613494
2937.763,1970.9725061609502
2938.8613,1933.5129958165512
2939.959,1871.2010357157071
2941.056,1794.1860346586993
2942.1523,1713.2673827337978
2943.248,1622.094452087414
2944.3431,1545.416597733285
2945.4375,1438.1831584642048
2946.5313,1349.6934576188005
2947.6244,1239.0968041538692
2948.7169,1153.3924935292737
2949.8087,1063.2298088139082
2950.8999,972.2580215427429
2951.9904,900.3263926184507
2953.0803,827.2841732211249
2954.1696,772.6306055275949
2955.2582,721.3649234418492
2956.3462,687.3863531415705
2957.4335,634.0441135907927
2958.5202,617.5874168796868
2959.6062,587.4154687579833
2960.6916,569.3274687995388
2961.7764,548.4726107040558
2962.8605,536.3000824779622
2963.9439,538.6090666429609
2965.0267,515.7987403577531
2966.1089,523.7682753949512
2967.1905,514.7168383691794
2968.2714,529.2935906573812
2969.3516,516.9476884893315
2970.4312,517.3782828018702
2971.5102,526.5345193623609
2972.5885,524.3655387643847
2973.6662,550.9704763361786
2974.7432,544.3484621623238
2975.8196,534.4986208176975
2976.8954,536.2700714336928
2977.9705,523.7619277967167
2979.045,513.0232983304752
2980.1188,500.15328622105585
2981.192,479.15098952431356
2982.2645,462.9155012945697
2983.3364,438.4459097946368
2984.4077,419.0912986581718
2985.4783,386.1507471343741
2986.5483,367.3233302815287
2987.6177,341.2581192964143
2988.6864,295.3541817025773
2989.7545,276.96058161098244
2990.8219,250.3763801790542
2991.8887,222.20063579461134
2992.9548,184.6324043417095
2994.0204,166.020739482399
2995.0852,145.714693032406
2996.1495,118.41331514724993
2997.2131,101.21565452530365
2998.276,86.12075868080785
2999.3383,70.37767411584707
3000.4,52.13544647129811
3001.4611,47.443120684261885
3002.5215,29.349741170484776
3003.5812,22.454351871282597
3004.6404,9.905996434473423
3005.6989,12.853718283332228
3006.7567,1.9465607420746665
3007.8139,-9.71643299362097
3008.8705,-9.836219747541463
3009.9264,-12.363659276308113
3010.9818,-15.59951307270751
3012.0364,-13.24441911657027
3013.0905,-1.6988595485921678
3014.1439,-12.863184197722262
3015.1966,-2.6377259213032858
3016.2487,-6.672689073468177
3017.3002,4.7817483425315
3018.3511,0.9254749836076144
3019.4013,8.808379458854688
3020.4509,10.580350368112363
3021.4998,15.741276223136424
3022.5481,17.491045429879705
3023.5958,17.679546236883198
3024.6428,24.50666671777776
3025.6892,31.12229476939865
3026.735,42.97631804351545
3027.7802,36.71862388067416
3028.8247,35.649099191658365
3029.8685,50.66763052006547
3030.9118,56.724104053002065
3031.9544,62.368405470898324
3032.9963,72.00041988694397
3034.0376,78.02003179064371
3035.0783,86.1271249514989
3036.1184,100.37158235881054
3037.1578,107.30328614060863
3038.1966,106.82211742120734
3039.2348,115.42795625188836
3040.2723,117.57068161571254
3041.3092,118.90017134146098
3042.3455,123.41630208220863
3043.3811,121.4189493020287
3044.4161,122.95798723083146
3045.4505,123.08328888433789
3046.4842,120.69472604868963
3047.5173,114.84216927919545
3048.5498,114.0754879242171
3049.5816,108.59455018369476
3050.6128,118.79922311681378
3051.6434,107.98937269681448
3052.6734,101.5148637089452
3053.7027,102.17555985856069
3054.7314,105.22132383586705
3055.7594,99.25201730931553
3056.7868,108.3175008951439
3057.8136,93.06763421706967
3058.8398,94.70227581563535
3059.8653,89.02128330070741
3060.8902,97.52451333512948
3061.9145,92.56182169153283
3062.9381,89.33306316730346
3063.9612,80.88809163420956
3064.9835,96.47676007068867
3066.0053,81.64892064629782
3067.0264,88.85442456582655
3068.0469,87.64312221757564
3069.0668,74.16486310130176
3070.086,73.71949584033041
3071.1046,66.6568683163386
3072.1226,63.676827673808646
3073.1399,56.779220390653904
3074.1567,52.11389230801984
3075.1727,41.930688699259804
3076.1882,44.62945431658841
3077.203,39.810033492913476
3078.2173,31.22227011484847
3079.2308,33.966007670906606
3080.2438,20.691089337378628
3081.2561,18.04735795089516
3082.2678,16.73465614117646
3083.2789,11.602826357468984
3084.2893,11.951710881672852
3085.2991,14.331151879659842
3086.3083,4.240991397784967
3087.3169,-1.2189286609084888
3088.3248,0.8012335642137032
3089.3321,5.1513321108824925
3090.3388,-1.3687789911831487
3091.3449,-0.5092457637773578
3092.3503,-2.920200554592384
3093.3551,-6.001770623955565
3094.3593,-5.30405405939058
3095.3629,0.12291100926699983
3096.3658,-0.6708605603183173
3097.3681,-1.8353551383630133
3098.3698,-2.370552393187097
3099.3708,0.5735863420874239
3100.3713,1.697123416156785
3101.3711,0.15011544758948503
3102.3702,-3.467380962017046
3103.3688,-1.6053107107188396
3104.3667,1.686415942563542
3105.364,-5.84209522403637
3106.3607,5.609261550750915
3107.3568,4.040650390726029
3108.3522,-0.6477646364026555
3109.347,5.094180496666951
3110.3412,7.116656288405608
3111.3348,2.7698331863422823
3112.3277,6.60388156683959
3113.32,3.318971778561888
3114.3117,8.365274104135011
3115.3028,12.942958792995086
3116.2932,9.902196010925621
3117.2831,10.39315579428063
3118.2723,14.366008080392191
3119.2608,12.320922702661022
3120.2488,11.508069350827725
3121.2361,15.927617591423825
3122.2229,17.829736875900238
3123.209,13.964596496431938
3124.1944,21.332365566896613
3125.1793,15.033213061526055
3126.1635,23.117307741227904
3127.1471,19.034818216577776
3128.1301,26.6859128669779
3129.1125,23.170759881482553
3130.0942,31.339527182287128
3131.0753,30.642382459879286
3132.0558,34.479493091351685
3133.0357,28.20102614737317
3134.015,28.957148353817644
3134.9936,29.49802615454888
3135.9716,33.923825703859336
3136.949,40.48471286106121
3137.9258,36.430853146228515
3138.902,35.71241167458834
3139.8775,41.32955319705923
3140.8524,37.582442107435554
3141.8267,41.871242386216295
3142.8004,35.84611763807598
3143.7735,43.007231048976735
3144.7459,42.75474544641969
3145.7178,46.7888232278336
3146.689,43.859626363099835
3147.6596,48.317316354211584
3148.6295,44.312054264565774
3149.5989,47.244000674386314
3150.5676,48.763315720776404
3151.5357,57.07015906839939
3152.5032,55.46468989428551
3153.4701,50.647066804763455
3154.4364,48.16744785151495
3155.402,59.075990579751135
3156.367,53.97285205300864
3157.3315,58.90818874406429
3158.2952,61.43215658596651
3159.2584,61.34491092268186
3160.221,57.99660648385547
3161.1829,57.187397385683354
3162.1442,62.71743716439545
3163.105,62.086878784347746
3164.065,61.09587458272202
3165.0245,66.64457627583121
3165.9834,67.63313496902953
3166.9416,66.36170110122544
3167.8993,66.98042443499612
3168.8563,66.03945406930175
3169.8127,72.43893843329829
3170.7684,70.77902529574733
3171.7236,71.65986170102104
3172.6782,73.48159398570138
3173.6321,79.69436776977177
3174.5854,73.19832793839971
3175.5381,79.34361857980909
3176.4902,78.2803830502405
3177.4417,82.95876391249838
3178.3926,77.17890294658338
3179.3428,81.14094110290858
3180.2924,81.84501856009797
3181.2415,83.09127468536617
3182.1899,82.27984802747767
3183.1377,90.91087630428416
3184.0848,85.38449641083895
3185.0314,91.55084433308659
3185.9773,86.81005520312664
3186.9227,85.76226323755031
3187.8674,91.15760178484828
3188.8115,89.44620333588853
3189.755,94.92819946996313
3190.6979,94.50372087190209
3191.6402,98.92289727725354
3192.5818,98.73585747652834
3193.5229,102.84272927100838
3194.4633,103.44363947461699
3195.4031,103.58871387285026
3196.3423,104.52807721676785
3197.2809,100.06185322154232
3198.2189,104.44016455706546
3199.1563,105.9631328926105
3200.0931,106.88087885304908
3201.0292,104.99352200362145
3201.9648,108.30118084075914
3202.8997,108.85397281095845
3203.834,113.65201427770386
3204.7677,110.19542051594011
3205.7008,114.03430566409185
3206.6333,111.41878275862945
3207.5652,122.59896369568027
3208.4964,117.77495925718384
3209.4271,115.94687899909
3210.3571,117.71483129959907
3211.2865,123.82892337744252
3212.2154,121.28926127420355
3213.1436,122.19594979317611
3214.0712,120.14909252476158
3214.9982,128.44879183740176
3215.9246,129.9951488980476
3216.8503,126.7382635891621
3217.7755,131.27823449325672
3218.7001,130.26515892546036
3219.624,132.54913288811952
3220.5473,132.98025108092912
3221.4701,135.4086068780927
3222.3922,135.5842923240113
3223.3137,139.2073981089999
3224.2346,140.12801356753053
3225.1549,143.64622664200118
3226.0746,142.66212387352982
3226.9937,140.92579036677202
3227.9121,143.5873097997622
3228.83,143.8967644412768
3229.7473,147.5542351242192
3230.6639,149.75980124252496
3231.5799,146.01354071458746
3232.4954,152.71552996120198
3233.4102,147.0658439430283
3234.3244,151.81455609357104
3235.238,154.36173837567617
3236.151,154.0574612340442
3237.0634,152.50179356975818
3237.9752,157.34480274332657
3238.8864,155.68655459023975
3239.797,151.9271133725402
3240.7069,160.66654179540473
3241.6163,162.10490104473905
3242.5251,159.59225069978325
3243.4332,164.32864871872846
3244.3408,161.9141514638432
3245.2477,166.94881365410959
3246.154,167.18268838936794
3247.0598,162.86582709997066
3247.9649,165.1982795444431
3248.8694,166.4800938526525
3249.7733,173.261316502483
3250.6766,170.49199230701802
3251.5793,170.8221643467276
3252.4814,169.5018739971618
3253.3829,171.0311609256492
3254.2838,170.8100631044994
3255.1841,177.5886167957104
3256.0838,176.5168565531796
3256.9829,176.14481515491792
3257.8814,179.77252361376787
3258.7792,175.4000111811236
3259.6765,183.57730531065408
3260.5731,184.40443170202815
3261.4692,182.28141421914148
3262.3647,180.00827488184552
3263.2595,179.63503388717746
3264.1538,182.61170963209167
3265.0474,183.68831871719226
3265.9404,181.11487591696607
3266.8329,185.2413941690168
3267.7247,184.31788459979936
3268.616,186.99435648335458
3269.5066,184.7208172505444
3270.3966,187.19727246228697
3271.286,184.17372583229232
