RamanShift,CorrectedData
30.1047,162.7284418585977
32.3739,148.78138109775372
34.6426,137.6343187096253
36.9109,125.9872515791142
39.1787,112.74017521477899
41.4461,98.09308386530567
43.7131,88.69597065197848
45.9796,74.24882771515075
48.2456,62.151646308216044
50.5112,48.904416942079564
52.7764,36.05712950613007
55.0411,24.25977340071213
57.3054,10.61233766559899
59.5692,0.4148110979661688
61.8326,-9.3328176111342
64.0955,-22.08055977479809
66.3579,-34.17833347127359
68.6199,-42.42583619401664
70.8815,-46.52242399493182
73.1426,-40.71702909182018
75.4032,-6.708118943467113
77.6634,87.8062457544625
79.9231,335.62807132041206
82.1824,883.5093631947625
84.4412,1759.1521234616143
86.6995,2933.658345369974
88.9574,4021.4300045773275
91.2148,4784.769047404576
93.4717,5089.027379958323
95.7282,5086.75686049748
97.9842,5009.009296390685
100.2398,4839.836444139008
102.4949,4653.790010153425
104.7495,4481.671652446549
107.0036,4262.482982493093
109.2573,4078.5755669510527
111.5105,3910.150929853594
113.7632,3720.5605544481277
116.0154,3543.0558848805563
118.2672,3390.5383280911756
120.5185,3265.059255589723
122.7693,3144.5200049805526
125.0197,3043.221881217428
127.2696,2947.66615780891
129.519,2877.704077831343
131.7679,2803.68685488441
134.0163,2725.5156737907523
136.2642,2639.991691336145
138.5117,2553.766037051204
140.7587,2470.189814066631
143.0052,2365.3640999754653
145.2512,2273.1899476688495
147.4967,2192.818386384285
149.7417,2122.100422627374
151.9863,2076.2370409755354
154.2304,2036.4792047851824
156.4739,1986.7778566503603
158.717,1979.4339188003219
160.9596,1948.3482935965417
163.2017,1909.4718636061548
165.4433,1847.6554919128153
167.6844,1782.400022505457
169.925,1719.956280896462
172.1651,1610.675074774209
174.4047,1527.0571946275174
176.6439,1470.5534148384536
178.8825,1411.7644945185136
181.1206,1366.7411780736595
183.3582,1336.4341957922093
185.5954,1307.394264295069
187.832,1277.8720868388036
190.0681,1269.468353606036
192.3037,1257.7337420006688
194.5388,1245.318916731921
196.7734,1250.4245299316763
199.0075,1257.5512212786275
201.2411,1272.9496179472244
203.4742,1290.9203345364037
205.7068,1307.2139729156065
207.9389,1315.8311220450714
210.1704,1334.872357812898
212.4015,1338.4382429488742
214.632,1355.4793268340661
216.862,1375.3461454651579
219.0915,1372.3892212840396
221.3205,1372.1590629791426
223.549,1367.0061655150046
225.777,1370.8810101345753
228.0044,1357.434064410742
230.2314,1357.0657822075832
232.4578,1320.576603814836
234.6837,1297.9169559515817
236.909,1293.0872521311348
239.1339,1245.8878928876402
241.3582,1242.6192658243713
243.582,1210.0317460857232
245.8053,1211.7756963898973
248.0281,1209.8514673547807
250.2503,1213.559397480501
252.472,1209.9498131686735
254.6932,1242.1730286853178
256.9139,1249.6293461969583
259.134,1300.7690554483886
261.3536,1350.6924336881075
263.5727,1418.3497451569274
265.7912,1479.8412405887343
268.0092,1559.6671565339175
270.2267,1622.2777147444565
272.4436,1681.5231213756585
274.6601,1677.6035663600544
276.8759,1684.2692228149454
279.0913,1683.5202470815966
281.3061,1658.9567786585812
283.5204,1667.2789402092722
285.7341,1678.8868378074728
287.9473,1691.4305608541986
290.16,1663.7101819615973
292.3721,1627.6257568275128
294.5837,1635.8773245126865
296.7947,1643.014907801605
299.0052,1643.2885131199807
301.2152,1640.8481304633767
303.4246,1612.9937333944733
305.6334,1555.9752790674688
307.8418,1476.9427085066252
310.0495,1398.2959471764516
312.2568,1294.4849057720305
314.4635,1200.3094810054865
316.6696,1096.6195566440954
318.8752,1032.8150044520385
321.0802,992.9956852273024
323.2847,964.4614494397251
325.4887,970.5121376291886
327.692,965.3475806909598
329.8949,994.917599815185
332.0972,993.672006538535
334.2989,961.8106024485039
336.5001,918.7831791958665
338.7007,867.089518813292
340.9008,803.0293941456187
343.1003,746.7525693667899
345.2992,682.0588006204573
347.4976,639.9978365827455
349.6955,599.319419109193
351.8927,583.0732836553595
354.0895,537.6091596836127
356.2856,525.1767708255873
358.4812,510.0758353368269
360.6763,503.5060662211083
362.8707,493.31717138144904
365.0646,483.10885368580784
367.258,509.13081106897175
369.4508,523.7827366346405
371.643,563.2143183952062
373.8346,579.6752391252335
376.0257,622.0151759671444
378.2162,642.5338002666088
380.4062,636.730777149146
382.5956,613.6557653149375
384.7844,551.8084170968577
386.9726,507.4383786912226
389.1603,485.69529077626567
391.3474,460.1287889558371
393.5339,464.3885039768361
395.7199,461.1740619848749
397.9052,490.1850844816804
400.09,531.2211883572402
402.2743,578.2319855996914
404.4579,623.1170828849599
406.641,670.076081106653
408.8235,726.0585749272066
411.0054,768.7141523082983
413.1868,829.6923939510182
415.3675,849.2928728693182
417.5477,807.6151537802261
419.7273,731.6587929078423
421.9064,683.4733384001154
424.0848,641.6083310884078
426.2627,579.8633049693467
428.4399,525.5377876234793
430.6166,420.38130083271744
432.7928,351.64336112359615
434.9683,304.3734808188374
437.1432,252.32116872473102
439.3176,214.18593060383228
441.4914,183.7172696954849
443.6645,177.664687097174
445.8371,170.22768206921296
448.0091,176.6057520952686
450.1806,170.59839295673146
452.3514,166.8050986689359
454.5216,163.32536154123386
456.6913,160.35867221492617
458.8603,164.7545196980625
461.0288,172.1623913951064
463.1967,173.43177306297707
465.3639,169.46214873697068
467.5306,155.6030007180659
469.6967,153.25380961262135
471.8622,146.61405447096513
474.0271,144.53321281088915
476.1914,140.8107606840465
478.3551,145.6461726967575
480.5182,153.18892204723693
482.6807,172.78848047723773
484.8426,208.04431819662523
487.0039,274.95590368737953
489.1647,349.8727033510388
491.3248,421.5441808395831
493.4843,425.6697963062659
495.6432,418.64900568889993
497.8015,372.03126066859977
499.9592,322.1160087399903
502.1163,265.2526936773836
504.2728,200.99075603393226
506.4287,143.32963371026267
508.5839,106.91876259709443
510.7386,79.05757715185132
512.8927,71.39551076276985
515.0461,81.78199602750988
517.199,115.51646482977799
519.3512,170.64834823546153
521.5029,258.9770761552843
523.6539,304.20207679348914
525.8043,336.2227757645469
527.9541,277.4385956409096
530.1033,225.04895563280138
532.2519,171.40327217606205
534.3999,143.3509594560419
536.5472,137.89142994405847
538.694,157.374094677921
540.8401,181.54836331652405
542.9856,224.06364394502202
545.1305,214.21934283308678
547.2748,216.7148640097546
549.4185,213.24960936186858
551.5615,207.67297860912367
553.704,238.33436933871917
555.8458,257.13317706112616
557.987,319.0687949034709
560.1276,359.9406134215492
562.2675,456.94801998046864
564.4069,571.2903983459316
566.5456,662.1171277141605
568.6837,703.6775815684744
570.8212,601.1211267710219
572.958,468.4471231471771
575.0942,322.3049245111033
577.2299,236.09387999249248
579.3648,209.01333549799006
581.4992,186.86263457330165
583.6329,205.19111867400125
585.766,252.19812738703558
587.8985,300.73299824744095
590.0304,335.84506626827397
592.1616,356.4836634552614
594.2922,328.99811845568
596.4222,279.9377563519706
598.5515,211.40189893659408
600.6802,159.78986520263402
602.8083,122.6509720291549
604.9358,113.7845346973238
607.0626,123.73986726179805
609.1888,153.9162826393906
611.3144,201.31309250951676
613.4393,260.12960701243037
615.5636,309.41513427525433
617.6873,344.018979823818
619.8103,363.44044608980016
621.9327,333.12883206469087
624.0544,281.6834331055759
626.1756,216.45354123825223
628.2961,165.23844567168453
630.4159,142.0374334503024
632.5351,138.44978996615237
634.6537,118.62479919090651
636.7716,117.01174371174034
638.8889,118.85990492958126
641.0056,123.16856307523994
643.1216,121.98699719092792
645.237,122.81448508717108
647.3518,98.9503033546257
649.4659,84.54372735580455
651.5793,57.4940314637181
653.6922,42.50048920593872
655.8043,29.11237353510046
657.9159,24.378956978833003
660.0268,30.249511773642098
662.137,37.87330991224508
664.2466,48.14962308486338
666.3556,34.52772260298775
668.4639,18.356879296612078
670.5716,25.586363650454814
672.6786,15.96544596566514
674.785,9.093396287530823
676.8907,-15.98051549831439
678.9958,1.2429804028292892
681.1002,-16.136686568989035
683.204,-13.120086986149772
685.3072,-10.057630215534346
687.4097,-9.599594554356372
689.5115,-4.396157824104193
691.6127,-11.09740194631695
693.7132,-7.253364924917378
695.8131,-2.4139739007844128
697.9123,14.67091644631796
700.0109,18.401475552224838
702.1089,31.927872706062317
704.2061,57.500277012941524
706.3028,90.06885725869597
708.3987,105.93378165415606
710.4941,106.29521750946424
712.5887,119.15333107542551
714.6827,130.00828753989322
716.7761,135.160250899188
718.8688,145.9593838495482
720.9608,181.35584773561027
723.0522,191.5998024424182
725.1429,246.3914060414579
727.233,301.8808146882184
729.3224,382.2181820742735
731.4112,400.9036588723909
733.4993,370.4373919331572
735.5867,300.4695240981232
737.6735,233.5501945044664
739.7596,173.8295392846701
741.845,140.55769223571588
743.9298,120.88478541629024
746.014,126.510949479504
748.0974,123.33631386962134
750.1802,124.36100676579736
752.2624,115.43515511382498
754.3439,117.45888461588765
756.4247,143.9823198198187
758.5048,172.5055840988639
760.5843,229.22879938644542
762.6631,305.8020858909317
764.7413,429.22556152840207
766.8188,582.2493411569167
768.8956,719.4735353422811
770.9718,811.898248827808
773.0473,801.3735791620747
775.1221,771.8996157746785
777.1962,749.6764400814814
779.2697,776.4541257793487
781.3426,849.232739068382
783.4147,884.7623383841417
785.4862,876.9929736698605
787.557,758.424686021149
789.6271,615.657507763691
791.6966,457.8414636389216
793.7654,316.7265722317038
795.8335,237.61284754848566
797.901,184.25030042845037
799.9678,159.5889393346531
802.0339,136.47877088764653
804.0993,122.66980011209466
806.1641,106.11203066787493
808.2282,86.15546498816752
810.2916,72.10010444503246
812.3544,62.69594954897639
814.4164,60.99300008950627
816.4778,70.49125522917097
818.5385,84.19071352058904
820.5986,122.64137281146805
822.658,209.99323010760872
824.7166,309.14628118839823
826.7747,455.7005197332919
828.832,602.7059363302835
830.8886,714.3625170103628
832.9446,723.9702417774615
834.9999,690.1790834918859
837.0545,570.2890077742409
839.1085,455.99997334334057
841.1618,358.7119332151108
843.2143,292.82483584547685
845.2662,240.48862610324613
847.3175,213.70324592897873
849.368,193.01863485834974
851.4179,175.43473029000188
853.467,161.3514676923926
855.5155,168.76878077963238
857.5633,149.88660165231795
859.6105,147.30486072335816
861.6569,124.32348690679805
863.7027,109.39240764363444
865.7478,111.56154913163027
867.7922,98.0808364746249
869.8359,90.10019366084293
871.8789,93.51954369770078
873.9212,93.3388086916134
875.9629,110.35790981380023
878.0039,118.82676730209437
880.0441,157.24530029075095
882.0837,180.36342672575734
884.1226,212.88106298064872
886.1609,252.09812362532648
888.1984,312.86452110088135
890.2352,353.93016532742513
892.2714,360.1949630964232
894.3069,345.95881766004027
896.3416,275.52162866849176
898.3757,229.38329231240573
900.4091,216.14370202719488
902.4418,218.0527489544388
904.4739,217.7103220742813
906.5052,248.5163081863377
908.5358,230.9205919131207
910.5658,205.3230553919807
912.595,157.7735784510619
914.6236,118.92203886527886
916.6515,72.31831283181077
918.6786,47.2622753586179
920.7051,33.153800730476405
922.7309,46.94276275954121
924.756,50.279034926428494
926.7804,61.71249024232861
928.8041,77.0930012156407
930.8272,100.22043973764244
932.8495,107.14467692868016
934.8711,111.41558290689773
936.892,122.933026718993
938.9123,135.99687629750815
940.9318,162.2069983456563
942.9506,180.01325820668126
944.9688,169.3655196017578
946.9862,125.96364445192785
949.003,86.1074929845795
951.019,62.69692416746352
953.0344,38.28179610725783
955.0491,37.26196628367006
957.063,41.337291793591476
959.0763,35.207629361294494
961.0888,47.57283529767824
963.1007,48.43276556156775
965.1119,59.987275636059394
967.1223,53.73622051992379
969.1321,51.37945461205891
971.1412,54.81683177400009
973.1495,50.14820535348986
975.1572,47.5734281501027
977.1641,51.54235246193207
979.1704,42.60483011133783
981.1759,36.560712405256936
983.1808,33.859850224578395
985.1849,39.20209408458459
987.1884,38.93729416196061
989.1911,53.06530024136987
991.1932,73.53596171810432
993.1945,59.49912745680331
995.1951,66.00464558674707
997.1951,70.35236364222578
999.1943,64.34212849748428
1001.1928,74.17378632324358
1003.1906,85.09718264680396
1005.1877,122.9121622537291
1007.1841,145.86856907861124
1009.1798,166.16624582692089
1011.1748,145.55503374544492
1013.1691,120.13477241930764
1015.1627,79.15529997808426
1017.1556,38.366453350002985
1019.1477,27.168068671739093
1021.1392,-0.7900183036967974
1023.1299,-13.30797209497473
1025.12,-5.385949328482866
1027.1093,27.17602631603154
1029.0979,46.6779849644538
1031.0859,71.66995647090903
1033.0731,86.80197022274365
1035.0596,77.8240548906042
1037.0454,62.2362382771189
1039.0304,39.338547406676525
1041.0148,19.631008681303683
1042.9985,9.463648109642236
1044.9814,3.0864915040251617
1046.9636,-2.5504354178517588
1048.9452,1.2528930308440067
1050.926,12.196528015794229
1052.9061,24.68052069015107
1054.8855,32.0549220851035
1056.8642,45.71978298503427
1058.8421,36.92515385377783
1060.8194,46.92108469797245
1062.7959,61.85762515500505
1064.7717,67.08482439305226
1066.7469,78.7027309617149
1068.7213,92.46139273974654
1070.695,131.66085681887307
1072.6679,148.10116936620716
1074.6402,164.53237523225357
1076.6117,165.2045177865059
1078.5826,124.51763875313418
1080.5527,95.97177820426441
1082.5221,42.16697496684674
1084.4908,30.30326690811421
1086.4587,14.080691473630623
1088.426,17.699285805926365
1090.3925,17.909086906725634
1092.3584,34.06013160075895
1094.3235,50.302456533666145
1096.2879,75.58609801048624
1098.2515,128.81109183323383
1100.2145,165.72747304806376
1102.1767,213.88527541302165
1104.1382,298.73453102887765
1106.099,365.17526985755103
1108.0591,412.3575188736156
1110.0185,469.4313013998933
1111.9771,514.8966366356315
1113.9351,544.5035390857647
1115.8923,568.6020181062622
1117.8488,549.8420776080584
1119.8045,484.92371581606744
1121.7596,406.54692545678404
1123.7139,338.8616944074661
1125.6675,304.21800647990267
1127.6204,307.01584209726707
1129.5726,309.8551786405519
1131.524,293.4359904205926
1133.4748,239.25824864967308
1135.4248,174.32192160571708
1137.3741,130.82697517406655
1139.3226,92.77337349684512
1141.2705,92.31107940790776
1143.2176,93.94005481337558
1145.164,93.86026069626041
1147.1097,81.67165710017343
1149.0546,44.524203130125215
1150.9989,7.817857074410085
1152.9424,-5.847423223919122
1154.8852,-27.371679999985872
1156.8272,-15.654897073158054
1158.7686,-13.896784819719642
1160.7092,-4.296897223534643
1162.6491,4.545350560413226
1164.5883,34.98058630314267
1166.5267,58.55943773021886
1168.4644,109.68253221740179
1170.4014,162.55049655485755
1172.3377,217.96395643592723
1174.2732,310.323535928449
1176.2081,438.07985692062084
1178.1421,605.5835381974057
1180.0755,753.3851941629694
1182.0082,819.3854331656423
1183.9401,818.2848560199038
1185.8713,717.9340553463799
1187.8017,578.3336155828486
1189.7315,466.3841139877479
1191.6605,357.68612203618045
1193.5888,285.290206539408
1195.5163,251.6969307318309
1197.4432,212.65685499494862
1199.3693,206.57053719329065
1201.2947,196.58853306481979
1203.2193,193.56139628179244
1205.1432,180.68967855058122
1207.0664,177.12392964194441
1208.9889,175.61469751974482
1210.9106,185.6125283766064
1212.8316,183.16796664900562
1214.7519,198.23155491729563
1216.6715,207.55383393015018
1218.5903,239.63534245392725
1220.5084,266.3766171794482
1222.4257,294.1781924011809
1224.3424,325.1905997498277
1226.2583,365.96436791430983
1228.1735,416.4500223316418
1230.0879,467.59808477919614
1232.0016,528.6090728698452
1233.9146,581.4334995404811
1235.8269,615.3218724419055
1237.7384,635.474693410586
1239.6492,612.5424581297721
1241.5592,645.4256559279654
1243.4686,697.6747700082437
1245.3772,797.8902771194275
1247.285,901.3226470335912
1249.1922,1009.0223415439059
1251.0986,1094.8898134303167
1253.0042,1194.0755053825458
1254.9092,1257.229849141418
1256.8134,1318.453264507004
1258.7169,1355.2461587070754
1260.6196,1365.4589257848734
1262.5216,1399.2419462311766
1264.4229,1380.7455868821746
1266.3234,1398.7702005816382
1268.2232,1375.1661263658825
1270.1223,1380.8336892835214
1272.0207,1357.9232006315083
1273.9183,1347.88495789846
1275.8151,1369.5192449937622
1277.7113,1421.926332347951
1279.6067,1498.1564766963704
1281.5014,1662.8599205551009
1283.3953,1851.0368914586588
1285.2885,2040.8376003129615
1287.181,2199.9622395135575
1289.0727,2328.1609810476198
1290.9637,2342.6339749027
1292.854,2345.7813477847394
1294.7435,2284.4032029733426
1296.6323,2202.9996202902994
1298.5204,2108.720656713369
1300.4077,2008.9163471903157
1302.2943,1918.1867055816974
1304.1802,1841.5317256589085
1306.0653,1727.5013820114775
1307.9497,1602.695630813616
1309.8333,1513.6144109645215
1311.7162,1422.9076453364369
1313.5984,1357.1252416654597
1315.4798,1309.417093458614
1317.3605,1283.4330806516705
1319.2405,1241.3230700862289
1321.1197,1161.4869157695598
1322.9982,1079.6244592957023
1324.876,960.485530643826
1326.753,856.8699489968576
1328.6293,761.1275239328684
1330.5048,691.258056461229
1332.3796,610.1113399800372
1334.2537,574.6371609748098
1336.127,515.2352998299509
1337.9996,516.2055311834936
1339.8714,491.3976245211177
1341.7426,472.01134416644845
1343.6129,481.4964495291349
1345.4826,473.252695298713
1347.3515,463.429831349755
1349.2196,449.52760282430654
1351.087,461.2957502301156
1352.9537,469.23400957965396
1354.8197,492.94211227243727
1356.6849,519.9697850156408
1358.5493,552.3667495870195
1360.4131,611.3327225646296
1362.276,662.9674150028607
1364.1383,699.0205318427752
1365.9998,690.3917713957616
1367.8606,639.0308249830042
1369.7206,594.3373770217696
1371.5799,539.1111055390164
1373.4384,507.6516826183297
1375.2962,448.6087749521837
1377.1533,365.6820441565362
1379.0096,298.57114736125686
1380.8652,232.27573803939526
1382.7201,186.54546667828993
1384.5742,129.42998144252203
1386.4275,113.12892863121886
1388.2802,85.54195324920875
1390.132,56.31869917003007
1391.9832,45.358809411802895
1393.8336,41.161926429460095
1395.6832,37.02769222434779
1397.5322,24.305748386193045
1399.3803,14.395736134446338
1401.2278,11.59729644550157
1403.0745,-6.689929848203747
1404.9204,-6.916302030205429
1406.7656,-1.2821125516397842
1408.6101,-9.03758476978669
1410.4538,3.267070766377742
1412.2968,11.08173379334869
1414.139,18.95628401495071
1415.9805,50.94060102419121
1417.8213,48.03456422451541
1419.6613,86.93805250996274
1421.5006,119.70094429422772
1423.3391,186.07311712162436
1425.1769,251.10444733945803
1427.0139,347.04480943430406
1428.8502,470.4440753816932
1430.6858,571.4021136867092
1432.5206,646.7687881499958
1434.3547,661.5439568581749
1436.188,656.6774714301814
1438.0206,633.3691768695103
1439.8524,615.1189116128817
1441.6835,600.0765077633248
1443.5139,589.6917912726806
1445.3435,600.2145820920246
1447.1724,595.5446942755158
1449.0005,591.6819358751675
1450.8279,585.576108987546
1452.6545,587.3770097923993
1454.4804,594.7344286137139
1456.3056,592.298149901707
1458.13,586.2679521592522
1459.9536,550.093607966242
1461.7766,497.52488403989014
1463.5987,440.16154159647385
1465.4202,367.10333687702246
1467.2409,318.6500217209501
1469.0608,272.4013442966384
1470.88,228.25704958596862
1472.6984,182.61687984680862
1474.5161,153.5805750544563
1476.3331,121.94787335804074
1478.1493,109.06851137088586
1479.9648,99.34222448683738
1481.7795,99.4687470090563
1483.5935,91.5478122472822
1485.4067,85.42915251656746
1487.2192,102.16249921648682
1489.031,96.9975828923233
1490.842,92.88413306773532
1492.6522,103.67187829640648
1494.4618,85.76054620317905
1496.2705,80.79986337617663
1498.0785,70.3895555459186
1499.8858,72.62934763492558
1501.6924,67.66896386182282
1503.4981,50.358127718942
1505.3032,46.2465620219258
1507.1075,42.23398908283593
1508.911,39.12013075126936
1510.7138,31.804708454483716
1512.5159,25.98744322853554
1514.3172,17.56805579143554
1516.1178,8.296266601320212
1517.9176,1.8217959406458704
1519.7166,11.194364008906518
1521.515,-8.7363090126222
1523.3126,-1.870503054608207
1525.1094,6.591589228007365
1526.9055,2.6997938666083883
1528.7008,-5.296063173336734
1530.4954,-10.146155953357038
1532.2893,-5.900605627311165
1534.0824,-5.259431988960387
1535.8747,-5.922595885016449
1537.6663,-3.790005620466104
1539.4572,-0.3615103335638423
1541.2473,12.06307869959187
1543.0367,19.383953814390225
1544.8253,29.701307225590085
1546.6132,37.715330954110755
1548.4003,41.87621672385933
1550.1867,62.88415588158955
1551.9723,98.0393393552929
1553.7572,121.54195744411982
1555.5414,171.39219946682726
1557.3247,216.5902535267527
1559.1074,272.28630601331145
1560.8893,330.4305411500168
1562.6705,377.5231404375195
1564.4509,409.8142820721646
1566.2305,434.4041404750667
1568.0094,441.2428859691976
1569.7876,454.68068453348747
1571.565,445.41769773443957
1573.3417,456.10408259174926
1575.1176,462.33999167093566
1576.8928,496.5755729764775
1578.6672,522.9609698894538
1580.4409,563.3963208251887
1582.2138,595.9817589693967
1583.986,644.1674118738302
1585.7575,705.3534011304237
1587.5282,743.8898418894379
1589.2981,777.5768422476004
1591.0673,824.4645028627402
1592.8358,859.452916616919
1594.6035,880.8421681475533
1596.3704,888.1323334975303
1598.1366,906.7734799013169
1599.9021,907.1156657120559
1601.6668,910.6589402151569
1603.4308,924.0033436248729
1605.194,961.2989070488669
1606.9564,1020.6456523547698
1608.7182,1108.2435917972239
1610.4791,1221.042727424414
1612.2394,1337.0430502020904
1613.9988,1444.8445388855764
1615.7576,1517.6971588597653
1617.5156,1551.3008610611046
1619.2728,1520.3555812490715
1621.0293,1430.5112396701343
1622.785,1309.1177413672049
1624.54,1157.8749770780846
1626.2942,1021.6328244493964
1628.0477,880.1911495490139
1629.8005,768.3498082284825
1631.5525,681.4586475374366
1633.3037,582.5175068420131
1635.0542,527.526218693762
1636.804,488.584609819059
1638.553,445.04250166901704
1640.3013,419.5497108089046
1642.0488,387.6560493535645
1643.7955,391.3113252223426
1645.5416,385.8153424580245
1647.2868,386.66790119028235
1649.0313,400.0187976906352
1650.7751,411.01782436392364
1652.5181,444.81476961480064
1654.2604,468.9094177377417
1656.0019,497.9015485790741
1657.7427,542.4909372960312
1659.4828,609.1773540668313
1661.222,644.410563644783
1662.9606,686.8403246914222
1664.6984,664.7163894241787
1666.4354,608.8885031920802
1668.1717,515.7564046969903
1669.9072,419.21982655188776
1671.642,325.0784962121875
1673.3761,259.3321369411068
1675.1094,201.0304687510777
1676.8419,158.77320906121133
1678.5737,142.51007328031392
1680.3048,109.74077522946004
1682.0351,102.0150273046238
1683.7646,72.03254080437182
1685.4934,74.59302600712078
1687.2215,58.146192470961864
1688.9488,52.09174900805658
1690.6754,48.829403849105006
1692.4012,43.25886470388991
1694.1263,38.729838793900285
1695.8506,25.14203290803664
1697.5742,25.745153447901316
1699.297,25.988906563676665
1701.0191,20.022998148093734
1702.7404,18.397133833994303
1704.461,11.361019053991186
1706.1808,9.764359056725425
1707.8999,3.406858977228694
1709.6182,5.3882238528889275
1711.3358,3.3081586870257524
1713.0527,8.866368429076942
1714.7688,0.5625579953990609
1716.4841,-1.203567786315034
1718.1987,2.7176959060021773
1719.9126,0.476065918060101
1721.6257,8.671259068391407
1723.338,-5.0970078292318135
1725.0496,-0.8790180477500371
1726.7605,-4.475003940995634
1728.4706,7.164810918588842
1730.18,2.5902476638498797
1731.8886,2.1011273559865344
1733.5964,-6.05272896970456
1735.3036,-0.47150029893788314
1737.0099,4.194694849334496
1738.7156,0.6957426664480408
1740.4204,7.3315293017912495
1742.1246,0.051940897795475394
1743.8279,-5.343136476423069
1745.5306,5.946183247732677
1747.2325,-3.4301604832073167
1748.9336,-1.322228282174649
1750.634,-1.580046494798296
1752.3336,0.44637174235350585
1754.0325,-3.8429709226236923
1755.7307,1.2519281539020994
1757.4281,0.33111000684260716
1759.1247,1.7946156585904305
1760.8206,-3.5075138717729715
1762.5158,1.0247624168881657
1764.2102,3.2915205657726574
1765.9039,-1.957163394167651
1767.5968,6.128786535104098
1769.289,5.04946590368661
1770.9804,3.6549702003911193
1772.6711,9.995394863534102
1774.361,9.570835294883409
1776.0502,14.18138679625315
1777.7386,9.777144573749638
1779.4263,10.258203691665244
1781.1132,13.024659116521207
1782.7994,11.626605712257174
1784.4849,6.814138212566206
1786.1696,10.937351234875564
1787.8535,14.796339328471106
1789.5367,19.49119693326537
1791.2192,16.472018341207843
1792.9009,11.88889764933657
1794.5818,19.491928789969734
1796.2621,20.98120557653658
1797.9415,14.356821627547504
1799.6202,21.718870351701128
1801.2982,20.967445014127634
1802.9755,16.252638662768902
1804.6519,17.924544135892233
1806.3277,19.933254109238703
1808.0027,12.978861079304238
1809.6769,19.61145734325231
1811.3504,18.181135068457706
1813.0231,18.687986226180783
1814.6951,24.232102605870466
1816.3664,23.7635758100962
1818.0369,28.082497199106797
1819.7067,21.438957895515216
1821.3757,18.38304874110969
1823.044,25.66486036328928
1824.7115,22.58448320562229
1826.3783,20.892007455028818
1828.0443,33.137523072584315
1829.7096,28.42111981044451
1831.3741,30.092887089390103
1833.0379,25.652914045990485
1834.701,38.60128951588683
1836.3633,30.08810207819107
1838.0248,33.06343992600256
1839.6856,27.527390951539758
1841.3457,34.38004271638681
1843.005,30.9714825068541
1844.6636,37.401797265451876
1846.3214,31.821073624975725
1847.9785,30.879397844203424
1849.6349,43.62685586370213
1851.2904,35.41353331524573
1852.9453,37.83951539433923
1854.5994,35.45488694235274
1856.2528,42.30973242226145
1857.9054,32.75413594249193
1859.5572,41.28818118837353
1861.2083,39.361951517694706
1862.8587,44.17552987536192
1864.5084,40.628998812662246
1866.1572,45.32244043912738
1867.8054,44.30593645799945
1869.4528,35.27956811929624
1871.0994,41.69341622997604
1872.7453,41.8475612442017
1874.3905,48.392083199202204
1876.0349,39.577061713730814
1877.6786,43.75257592262017
1879.3215,38.41870456493251
1880.9637,45.4755259422048
1882.6051,54.0731179717871
1884.2458,36.16155811627425
1885.8858,45.640923297530264
1887.525,46.96129007580356
1889.1634,41.57273455493373
1890.8011,39.32533236914742
1892.4381,40.96915873694434
1894.0743,45.55428848357076
1895.7098,42.83079602458139
1897.3446,42.99875531998828
1898.9786,47.60823990149572
1900.6118,46.5093228708206
1902.2443,42.75207685359794
1903.8761,43.53657401036935
1905.5071,43.8128860741561
1907.1374,47.481084342613826
1908.7669,43.84123967526938
1910.3957,43.74342245683897
1912.0237,42.53770263362645
1913.651,46.77414971450156
1915.2776,42.15283278295726
1916.9034,41.32382045474503
1918.5285,43.83718092408833
1920.1528,40.89298197197246
1921.7764,46.99129094101107
1923.3992,45.73217476488833
1925.0213,49.56569990737535
1926.6427,45.441932374921976
1928.2633,40.11093767832074
1929.8832,43.722780873945396
1931.5023,43.02752661706023
1933.1207,37.375239125701626
1934.7383,40.31598218763111
1936.3552,39.09981921685784
1937.9714,40.226813224230966
1939.5868,45.44702682960195
1941.2015,45.76052225055406
1942.8154,37.96736125020038
1944.4286,40.117605134048915
1946.041,37.161314827934234
1947.6528,40.048550856514794
1949.2637,45.129373372836426
1950.8739,39.25384212945943
1952.4834,38.82201642765034
1954.0921,41.283955176137624
1955.7001,37.43971689542957
1957.3074,42.08935969319509
1958.9139,40.63294130270589
1960.5197,34.87051903634017
1962.1247,35.15214980014645
1963.729,41.877890151468364
1965.3325,36.14779629612838
1966.9353,40.31192402116989
1968.5374,39.72032875215888
1970.1387,44.47306551154179
1971.7393,40.870188924562115
1973.3392,40.461753171732596
1974.9383,36.59781202486431
1976.5366,34.578418851150786
1978.1342,32.10362665180759
1979.7311,33.873488082266306
1981.3273,35.78805547692241
1982.9227,32.24738083143643
1984.5173,33.351515783588724
1986.1112,32.700511648685904
1987.7044,38.74441940851938
1989.2968,37.133289717875584
1990.8885,28.567172844097144
1992.4795,41.34611868319391
1994.0697,31.32017684550408
1995.6592,39.0393965279047
1997.2479,36.40382661407119
1998.8359,39.41351559728503
2000.4232,33.36851160678967
2002.0097,30.368862377693233
2003.5955,33.96461531141898
2005.1805,36.10581750570151
2006.7648,34.54251571862946
2008.3484,29.67475634723337
2009.9312,36.75258544311862
2011.5133,32.82604876114323
2013.0946,31.945191688639284
2014.6752,41.160059284678596
2016.2551,35.020696288881055
2017.8342,30.17714702926611
2019.4126,33.279455483646416
2020.9902,29.627665328063358
2022.5672,27.071819905763732
2024.1433,33.11196226371791
2025.7188,36.69813517817806
2027.2935,37.830381094277044
2028.8674,35.20874209016648
2030.4406,27.833259865694288
2032.0131,28.503975768621075
2033.5849,30.920930868375024
2035.1559,28.434165949344788
2036.7261,34.5437214867095
2038.2957,31.59963767130722
2039.8645,30.201954348538777
2041.4325,27.250711047808977
2042.9998,32.245946996503164
2044.5664,33.487701149499685
2046.1323,28.62601213921772
2047.6974,28.760918263199358
2049.2617,33.14245753272672
2050.8254,29.020667671473007
2052.3883,31.89558607168661
2053.9504,29.667249835409564
2055.5118,28.385695745728157
2057.0725,27.90096028905623
2058.6325,27.96307966795061
2060.1917,29.172089805958848
2061.7502,21.828026346997717
2063.3079,28.630924643263143
2064.8649,28.880819828670894
2066.4212,33.52774675082762
2067.9767,35.07173996853183
2069.5315,25.062833705304655
2071.0856,30.801061833949973
2072.6389,26.93645797664368
2074.1915,26.869055447551034
2075.7433,25.34888729147275
2077.2945,28.525986284519178
2078.8448,28.150384949311956
2080.3945,23.02211552321296
2081.9434,25.241209962080234
2083.4916,32.50769999155085
2085.039,23.02161708484988
2086.5857,27.63299239012545
2088.1317,26.691856825309543
2089.677,27.098241032004182
2091.2215,22.75217538489315
2092.7652,26.853689987677967
2094.3083,21.95281471653837
2095.8506,25.249579179117433
2097.3921,24.444012763530026
2098.933,27.6861446053953
2100.4731,23.17600359589241
2102.0124,29.313618349339265
2103.5511,24.299017248293808
2105.089,23.382228382178
2106.6261,30.363279597423713
2108.1626,29.74219850664076
2109.6983,26.469012418806244
2111.2332,27.39374834547533
2112.7675,27.366433033513317
2114.301,24.83709295584788
2115.8337,26.305754311742533
2117.3657,21.97244305209
2118.897,21.887184864725526
2120.4276,25.15000521775994
2121.9575,24.110929360432408
2123.4866,22.619982290482028
2125.0149,30.727188764538795
2126.5426,26.232573313032987
2128.0695,24.136160159123136
2129.5956,24.087973263642056
2131.1211,25.83803634606113
2132.6458,25.686372884972144
2134.1698,21.333006100586346
2135.693,25.327958956251365
2137.2155,26.871254201984897
2138.7373,22.912914334525055
2140.2584,19.452961581897256
2141.7787,21.09141794299788
2143.2983,23.728305222193796
2144.8171,22.563645012937684
2146.3353,26.997458671399272
2147.8527,20.42976732811195
2149.3693,19.86059184363461
2150.8853,17.13995287422864
2152.4005,20.91787087754966
2153.9149,22.594366139853918
2155.4287,17.119458738219038
2156.9417,16.243168523778962
2158.454,20.315515176473212
2159.9655,18.88651821380978
2161.4764,18.60619695014165
2162.9865,22.42457051095667
2164.4958,21.891657835680974
2166.0045,23.107477639494903
2167.5124,21.57204841866246
2169.0195,20.785388438372934
2170.526,20.89751574809509
2172.0317,19.60844818944392
2173.5367,17.568203395059413
2175.0409,21.626798801497188
2176.5445,18.234251669630908
2178.0473,20.440579044066283
2179.5494,16.945797787066738
2181.0507,17.399924556489992
2182.5513,21.20297584073583
2184.0512,19.504967954204886
2185.5504,22.755916999268067
2187.0488,18.255838883246696
2188.5465,20.954749285903205
2190.0435,11.702663704441733
2191.5397,22.299597426518943
2193.0353,23.895565622765133
2194.5301,13.640583240814607
2196.0241,20.134664989346135
2197.5175,19.327825440632836
2199.0101,12.070078965601141
2200.502,20.461439741899255
2201.9931,21.45192182647466
2203.4835,18.941539071660458
2204.9733,16.380305115270716
2206.4622,18.21823340570424
2207.9505,12.955337227556896
2209.438,13.091629683242274
2210.9248,16.22712374562076
2212.4109,16.7118322566364
2213.8962,14.445767895962092
2215.3809,17.928943176152558
2216.8648,12.661370465304742
2218.3479,12.99306195222627
2219.8304,11.074029699111065
2221.3121,8.304285638222552
2222.7931,18.833841591083967
2224.2733,11.812709296175626
2225.7529,14.690900303639609
2227.2317,16.718426045490986
2228.7098,10.895297806835856
2230.1872,15.421526705596108
2231.6638,9.047123750740894
2233.1397,12.672099797024117
2234.6149,16.146465608728676
2236.0894,12.97023182341644
2237.5632,18.79340891718479
2239.0362,17.116007236428686
2240.5085,13.43803693960902
2241.9801,12.109508014026744
2243.4509,10.380430312602414
2244.921,10.800813567161555
2246.3904,11.370667405725555
2247.8591,6.790001348307584
2249.3271,8.708824801214433
2250.7943,6.02714710285295
2252.2608,10.04497750454172
2253.7266,8.112325197327948
2255.1917,5.579199271809301
2256.656,8.09560873746014
2258.1197,6.711562547963126
2259.5826,7.027069576044937
2261.0447,10.992138627316479
2262.5062,13.256778437118157
2263.9669,8.170997630869095
2265.4269,7.034804701420711
2266.8862,12.098208059914697
2268.3448,5.611216047144751
2269.8026,11.123836882922774
2271.2598,9.236078730948492
2272.7162,8.247949643683285
2274.1719,3.85945758122773
2275.6268,9.570610421202815
2277.0811,9.631416002635262
2278.5346,9.191882068845501
2279.9874,4.902016266840036
2281.4395,6.011826151706458
2282.8908,8.621319229512267
2284.3414,12.780502946206667
2285.7914,5.889384661525469
2287.2406,10.647971607399512
2288.689,6.706270956865865
2290.1368,10.964289776481905
2291.5838,9.12203506574204
2293.0302,8.229513714497728
2294.4758,11.336732521380327
2295.9206,6.793698202726148
2297.3648,8.550417361504373
2298.8082,7.706896532747379
2300.251,9.61314216598339
2301.693,11.769160633671618
2303.1343,6.424958212139984
2304.5748,9.630541060024683
2306.0147,10.335915271712452
2307.4538,2.641086845284889
2308.8922,15.94606167546462
2310.3299,8.15084563056351
2311.7669,7.105444419432899
2313.2031,7.659863669415444
2314.6387,11.514108936799886
2316.0735,11.46818570127644
2317.5076,10.472099327394545
2318.941,9.475855065021818
2320.3737,9.779458059305114
2321.8056,11.932913360632853
2323.2369,7.386225921598793
2324.6674,9.839400575467835
2326.0972,9.842442081642446
2327.5263,11.695355101131014
2328.9547,13.89814419651782
2330.3823,13.500813813433552
2331.8092,11.303368258527712
2333.2355,11.605811703441589
2334.661,6.808148206783017
2336.0858,1.7603817111016724
2337.5098,6.8625160908658245
2338.9332,9.264555202939988
2340.3558,4.616502835563665
2341.7778,6.068362684330879
2343.199,8.170138398670701
2344.6195,6.571833567328582
2346.0393,5.973451697348395
2347.4583,0.4749962300560924
2348.8767,5.72647054704305
2350.2943,3.777873284687985
2351.7113,10.979203022104969
2353.1275,6.380458300629442
2354.543,7.381637551804658
2355.9578,6.6327391433694345
2357.3718,3.1337613692460877
2358.7852,7.634702457029761
2360.1978,7.485560602978097
2361.6098,6.536333927001834
2363.021,7.087020474156162
2364.4315,6.337618224133081
2365.8413,7.238125085754376
2367.2504,7.338538904465736
2368.6587,7.388857453331582
2370.0664,6.789078432030976
2371.4733,6.139199466354512
2372.8795,14.2892181142021
2374.285,6.489131872081771
2375.6899,4.288938093609431
2377.0939,11.538634067509662
2378.4973,4.938217039617825
2379.9,7.437684140382942
2381.3019,6.887032450871942
2382.7032,7.0862589777750316
2384.1037,7.435360658912174
2385.5035,5.4843343612409114
2386.9027,6.233176877365139
2388.3011,6.831884945045488
2389.6987,6.980455239710949
2391.0957,9.578884368471734
2392.492,11.027168868633453
2393.8876,3.6253051817130597
2395.2824,3.8232896389559414
2396.6765,5.171118535354424
2398.07,4.918788127668023
2399.4627,7.766294620945189
2400.8547,2.8136341710464308
2402.246,5.6108028561694425
2403.6366,5.0577967263756705
2405.0265,5.154611775618605
2406.4156,8.90124394727377
2407.8041,3.997689133170695
2409.1918,4.3939431361265235
2410.5789,4.84000171898154
2411.9652,5.135860600636676
2413.3508,3.131515451592847
2414.7358,2.176961890992416
2416.12,1.1721955066626606
2417.5035,4.267211864661419
2418.8863,4.262006519324544
2420.2684,5.30657498231588
2421.6497,8.200912722679163
2423.0304,1.7450151563925402
2424.4104,3.688877617425021
2425.7896,6.032495422295526
2427.1682,3.6758638506343004
2428.546,4.418978121746733
2429.9232,3.3618334181796143
2431.2996,2.504424878289967
2432.6753,8.946747606816615
2434.0503,3.588796683454248
2435.4246,7.730567098430086
2436.7982,6.272053806083619
2438.1711,6.863251683448482
2439.5433,6.504155544837943
2440.9148,3.7447601359328075
2442.2856,3.7850601373723975
2443.6557,6.6250501923485245
2445.025,5.5647249062024144
2446.3937,3.504078818024851
2447.7617,3.7931064112595294
2449.1289,3.131802134309339
2450.4955,9.77016039764618
2451.8613,3.758175580424009
2453.2265,9.845841964095186
2454.5909,9.183153792530433
2455.9546,3.8201052111421347
2457.3177,6.456690273511185
2458.68,5.592902995017596
2460.0416,2.7287373264745156
2461.4025,6.064187162766089
2462.7627,9.949246371489195
2464.1222,2.933908759598836
2465.4811,2.6181680345577263
2466.8392,3.9020178744894025
2468.1966,7.185451931335905
2469.5533,6.568463818019026
2470.9093,4.951047075606198
2472.2645,3.48319517948012
2473.6191,7.664901555513168
2474.973,8.946159594745708
2476.3262,7.176962611569181
2477.6787,9.2573038309135
2479.0305,7.387176405939016
2480.3816,8.516573397233117
2481.7319,6.545487791511448
2483.0816,9.42391249032407
2484.4306,9.151840329766088
2485.7789,3.3792640516935677
2487.1264,8.156176306444237
2488.4733,11.632569710563232
2489.8195,12.058436799034027
2491.165,10.533769990514358
2492.5097,8.10856158307773
2493.8538,9.48280376945992
2495.1972,6.2564886613111526
2496.5398,7.979608275453714
2497.8818,9.902154566145072
2499.2231,12.07411940784668
2500.5637,9.195494575998453
2501.9035,9.916271725299183
2503.2427,9.186442418492788
2504.5812,8.105998119160503
2505.919,12.224930199019198
2507.256,10.29322994872588
2508.5924,8.16088853668829
2509.9281,6.4778970283819035
2511.2631,7.444246407673376
2512.5974,6.059927593650443
2513.9309,8.624931430958412
2515.2638,8.63924870364339
2516.596,8.602870109502092
2517.9275,6.715786259938895
2519.2583,6.077987680329471
2520.5884,4.589464828891636
2521.9178,6.800208103063483
2523.2465,11.110207854388449
2524.5745,12.019454366407999
2525.9018,9.027937811561586
2527.2284,9.285648242094126
2528.5543,9.442575619971137
2529.8796,10.498709814301762
2531.2041,12.90404059976936
2532.5279,12.058557646070199
2533.851,10.512250493860208
2535.1735,9.565108563209861
2536.4952,7.867121169067133
2537.8163,11.168277530728986
2539.1366,8.818566788821187
2540.4562,8.517977972286786
2541.7752,8.866500021883212
2543.0935,8.414121793188187
2544.411,12.610832053114436
2545.7279,11.556619484433497
2547.0441,11.301472643808609
2548.3596,13.045379972336832
2549.6744,10.588329798100574
2550.9885,9.030310318728453
2552.3019,11.171309625965904
2553.6146,12.611315721255096
2554.9266,9.950316494325335
2556.2379,9.438299708792655
2557.5485,11.62525302877006
2558.8585,15.461164023987521
2560.1677,8.546020147922533
2561.4762,13.079808699441003
2562.7841,8.512516891948621
2564.0913,10.494131808053012
2565.3977,14.17464044523669
2566.7035,12.604029696040925
2568.0086,11.83228631126056
2569.313,12.509396915650171
2570.6167,11.385348015641611
2571.9197,16.660125992572745
2573.222,15.433717113927969
2574.5236,14.906107480590478
2575.8246,11.677283039106314
2577.1248,16.197229586960503
2578.4244,15.715932804865318
2579.7232,12.033378211560759
2581.0214,17.299551168627474
2582.3189,15.264436917312395
2583.6157,17.978020525866924
2584.9118,14.740286909898145
2586.2072,14.20122080523295
2587.5019,14.460806800295344
2588.7959,14.419029341497236
2590.0893,15.175872730642425
2591.3819,15.131321125344456
2592.6739,22.335358531458297
2593.9652,19.287968803525715
2595.2557,17.539135572734992
2596.5456,21.08884227739476
2597.8348,19.787072180422257
2599.1234,25.28380833384645
2600.4112,20.329033591825578
2601.6983,20.622730555679794
2602.9848,19.864881623439004
2604.2705,19.355468986905862
2605.5556,23.14447463923426
2606.84,22.281880380023495
2608.1237,21.767667777428116
2609.4067,20.501818176783985
2610.689,22.58431270575025
2611.9707,17.815132286967966
2613.2516,20.194257617235053
2614.5319,18.321669215198185
2615.8115,19.14734739756156
2617.0903,20.671272297812664
2618.3685,18.59342385796552
2619.6461,18.163781813321435
2620.9229,21.732325713247604
2622.199,15.649034925473444
2623.4745,18.36388860040516
2624.7493,21.676865731958685
2626.0234,15.287945130411032
2627.2968,15.897105389270706
2628.5695,15.804324949166784
2629.8415,20.30958209175735
2631.1128,15.912854940657255
2632.3835,18.314121416385575
2633.6535,20.91335928033284
2634.9228,18.110546110748416
2636.1914,17.8556592767481
2637.4593,19.49867596634226
2638.7265,18.98957318898465
2639.9931,16.42832775914235
2641.259,13.864916301386756
2642.5242,17.599315276006095
2643.7887,18.481501004639384
2645.0525,19.311449632932565
2646.3156,14.289137121716578
2647.5781,15.064539238707908
2648.8398,18.237631608731718
2650.1009,19.858389705967838
2651.3613,18.426788822219834
2652.6211,18.3428040507074
2653.8801,20.15641030038239
2655.1385,16.81758229676862
2656.3961,20.826294563825797
2657.6531,13.982521457337867
2658.9094,16.036237124825846
2660.1651,17.237415573985572
2661.42,16.436030652150606
2662.6743,16.832056034280328
2663.9279,19.425465230973884
2665.1808,21.066231584509907
2666.433,18.504328242912408
2667.6846,26.18972814354308
2668.9354,20.422404038720387
2670.1856,18.25232841886553
2671.4351,18.529473570175725
2672.6839,28.503811596324866
2673.9321,23.775314415692165
2675.1795,24.14395366161871
2676.4263,21.209700729692514
2677.6724,25.0225267740621
2678.9179,23.332402736779002
2680.1626,27.489299309669562
2681.4067,20.743186951236083
2682.6501,21.69403584508791
2683.8928,24.2918159674026
2685.1348,22.136497077417303
2686.3761,20.628048691451085
2687.6168,18.816440104458067
2688.8568,21.20164040511189
2690.0961,20.73361849392181
2691.3348,18.062343059380723
2692.5727,20.23778258264541
2693.81,21.409905364249212
2695.0466,19.178679502347748
2696.2826,17.644072880997527
2697.5178,20.856053192468337
2698.7524,21.114587952589233
2699.9863,21.119644468628792
2701.2195,19.671189836709843
2702.452,23.869190941758802
2703.6839,22.61361447199026
2704.9151,23.354426876926837
2706.1456,23.44159437995502
2707.3755,24.17508297091716
2708.6046,23.604858405239597
2709.8331,24.730886196597908
2711.0609,28.653131622619043
2712.2881,29.92155971362118
2713.5145,27.836135213391202
2714.7403,33.04682256650041
2715.9654,36.25358593915884
2717.1899,33.40638916710826
2718.4136,41.60519572355466
2719.6367,38.14996874764013
2720.8591,41.490670962454914
2722.0809,47.42726470958951
2723.3019,45.059711915727775
2724.5223,46.33797403328093
2725.7421,47.562012064063154
2726.9611,48.98178654650894
2728.1795,44.84725754343272
2729.3972,44.60838462783113
2730.6142,41.61512692422825
2731.8306,42.06744311106441
2733.0462,39.11529145062863
2734.2612,31.958629784535617
2735.4756,30.897415563247122
2736.6892,28.93160591763869
2737.9022,26.961157669611694
2739.1145,24.13602735175145
2740.3262,22.40617122703182
2741.5372,20.721545317066386
2742.7475,19.182105419407122
2743.9571,19.787807124390568
2745.1661,16.988605830532236
2746.3744,14.834456738469655
2747.582,12.075314878954273
2748.7889,15.561135134393055
2749.9952,11.441872266439816
2751.2008,10.767480881137175
2752.4057,8.33791547010911
2753.61,8.903130417304794
2754.8136,9.61308002329433
2756.0165,10.467718499616552
2757.2188,8.616999961679511
2758.4204,10.16087842021409
2759.6213,3.5993077997813288
2760.8215,4.632241923333424
2762.0211,9.409634577829607
2763.22,2.5314395039067534
2764.4182,8.147610348105346
2765.6158,2.3581007316516036
2766.8127,4.362864194295639
2768.009,4.811854252206572
2769.2045,6.605024377924892
2770.3994,0.19232799587257432
2771.5936,3.8737184644214437
2772.7872,4.54914914002002
2773.9801,-1.9314266596202145
2775.1723,-4.618055662279261
2776.3639,0.6892346992152056
2777.5548,-1.8595368735885671
2778.745,-0.5143516860345443
2779.9346,0.5748275333065607
2781.1235,-1.191956805762672
2782.3117,-0.9646622991879639
2783.4992,-4.193234635266606
2784.6861,-3.677609865319525
2785.8723,-0.11768215025371376
2787.0579,-1.0133089116536382
2788.2428,-1.8643463954591653
2789.427,3.329359275345851
2790.6106,2.417980602597993
2791.7935,-1.9483099451597639
2792.9757,-1.369339923564226
2794.1573,1.5050825753641988
2795.3382,1.1251631393108852
2796.5184,5.741107340910361
2797.698,4.003120741545558
2798.8769,5.611408845188379
2800.0551,4.416177115779547
2801.2327,2.9676309611457157
2802.4096,9.0659757449519
2803.5859,9.461416801186743
2804.7615,15.004159373179206
2805.9364,11.594408609644063
2807.1106,16.082369509254633
2808.2842,19.86824695474013
2809.4572,23.552245668006194
2810.6294,28.034570172275977
2811.801,32.56542475525032
2812.972,32.29501342428435
2814.1423,45.973539861079104
2815.3119,49.901207424385404
2816.4808,60.92821901321878
2817.6491,65.35477702758267
2818.8167,76.18108325819836
2819.9837,79.95733884223947
2821.15,91.68374415506875
2822.3157,104.8604987724757
2823.4807,118.83780135341229
2824.645,131.1158495082256
2825.8086,142.49483965888476
2826.9716,154.92496691620033
2828.134,164.45642496603455
2829.2957,172.739405945
2830.4567,187.3241003451452
2831.617,195.11069693112452
2832.7767,193.99938259435146
2833.9358,199.1403422751326
2835.0941,200.08375897378073
2836.2519,189.07981369920515
2837.4089,182.5786854594779
2838.5653,173.4305513718727
2839.7211,173.68558672787657
2840.8761,167.94396508467094
2842.0306,161.4558582625816
2843.1843,164.7714364024946
2844.3374,171.44086803073765
2845.4899,177.86432002592392
2846.6417,185.89195755225808
2847.7928,186.8739439953015
2848.9433,205.710440881696
2850.0931,213.35160786934415
2851.2422,219.19760255904407
2852.3907,222.79858041807773
2853.5385,226.20469472175125
2854.6857,238.8160965173849
2855.8323,242.43293459025193
2856.9781,251.75535533746492
2858.1233,260.28350273180706
2859.2679,268.467518228508
2860.4118,278.25754067996263
2861.555,281.90370625389045
2862.6976,296.40614833543583
2863.8395,296.9149974907059
2864.9808,300.2803813217465
2866.1214,305.1524244614534
2867.2614,303.6312485399187
2868.4007,306.1169721357105
2869.5393,310.0097107910841
2870.6773,322.7595769871255
2871.8146,319.2166801048235
2872.9513,317.43112629757115
2874.0874,320.7530185265948
2875.2227,320.6324565788096
2876.3574,323.31953703360034
2877.4915,318.9143532640277
2878.6249,310.4669954099566
2879.7577,309.32755042210897
2880.8898,309.4461021465364
2882.0212,318.02273133601517
2883.152,312.8575156488606
2884.2821,315.5005295631609
2885.4116,313.5518444284291
2886.5405,313.2615284391729
2887.6686,319.7296466543817
2888.7962,318.00626100042973
2889.923,319.44143020639456
2891.0493,319.9352098212913
2892.1748,320.1376521997207
2893.2997,323.99880649693165
2894.424,324.1687186667964
2895.5476,324.79743142319927
2896.6706,330.5349842383375
2897.7929,331.43141333643393
2898.9145,335.6867516363617
2900.0355,335.10102874267983
2901.1559,334.0242709030798
2902.2756,340.15650101424296
2903.3946,341.44773863260804
2904.513,351.54799991304867
2905.6308,346.10729759596126
2906.7479,355.4256409062622
2907.8643,358.5530356077949
2908.9801,361.4394839101466
2910.0953,365.984984437374
2911.2098,362.5895321991394
2912.3236,362.1031185452549
2913.4368,359.07573119963774
2914.5494,356.30735426517356
2915.6613,349.2479682539911
2916.7725,339.4975501151454
2917.8831,339.90607330521175
2918.9931,332.22350788579035
2920.1024,328.29982051942056
2921.211,327.78497454640654
2922.319,325.1789300240546
2923.4264,318.1816437318212
2924.5331,318.2930691973736
2925.6391,320.51315676656264
2926.7445,320.44185360230836
2927.8493,322.8791036623995
2928.9534,324.2248477002061
2930.0569,314.7290232403073
2931.1597,325.49156456503385
2932.2619,327.61240280942616
2933.3634,329.9414658536091
2934.4643,332.6786783015838
2935.5645,324.7239614579364
2936.6641,328.4772333004667
2937.763,328.48840855973475
2938.8613,325.3073986815283
2939.959,316.7841118267511
2941.056,314.5184529032332
2942.1523,294.7103236509631
2943.248,283.55962266474535
2944.3431,262.26624559228094
2945.4375,249.08008524567475
2946.5313,229.0010318143694
2947.6244,210.82897299700656
2948.7169,198.46379420221768
2949.8087,180.6553787303445
2950.8999,168.90360789709086
2951.9904,156.7083612116068
2953.0803,140.5195164940065
2954.1696,135.5869499973203
2955.2582,125.96053656938358
2956.3462,115.3901497021622
2957.4335,112.02566162801668
2958.5202,103.46694342540604
2959.6062,104.41386505253274
2960.6916,98.7662954329298
2961.7764,100.52410244599156
2962.8605,100.63715298344952
2963.9439,99.00531293179418
2965.0267,98.87844717114459
2966.1089,100.0564195915666
2967.1905,97.03909309434167
2968.2714,95.42632958018714
2969.3516,90.96798997942952
2970.4312,96.41393426813188
2971.5102,96.71402151267763
2972.5885,95.96810981531073
2973.6662,102.02605631113505
2974.7432,102.73771717557341
2975.8196,98.15294756378819
2976.8954,103.52160160356462
2977.9705,100.74353244115848
2979.045,100.81859218760965
2980.1188,99.24663194652274
2981.192,100.47750181331651
2982.2645,87.91105089094347
2983.3364,87.2971272775811
2984.4077,85.58557819229642
2985.4783,84.57624998118524
2986.5483,82.71898813448757
2987.6177,72.11363729668098
2988.6864,63.26004128505315
2989.7545,68.35804319575544
2990.8219,61.05748549233883
2991.8887,52.95820995477388
2992.9548,51.56005775245639
2994.0204,44.41286952520008
2995.0852,36.966485397218165
2996.1495,31.570745048595143
2997.2131,25.025487789750727
2998.276,24.0305526153972
2999.3383,20.135778269991974
3000.4,19.04100325768694
3001.4611,18.19606588127624
3002.5215,14.650804253143988
3003.5812,8.755056303713715
3004.6404,9.10865981690091
3005.6989,5.11145248907053
3006.7567,4.463271925501061
3007.8139,3.113955680356412
3008.8705,1.513341263167888
3009.9264,3.161266152327258
3010.9818,1.4575678110929005
3012.0364,-1.7479163288893602
3013.0905,-0.4553488505494414
3014.1439,-0.6648748751331368
3015.1966,-0.3266349749512045
3016.2487,-2.640763080214441
3017.3002,2.6926101419497144
3018.3511,-2.8266195943630663
3019.4013,-2.3985566019831595
3020.4509,-2.123276955811207
3021.4998,-0.700832769167377
3022.5481,-0.8812549438351311
3023.5958,1.2354326197214078
3024.6428,0.3992148247749796
3025.6892,-0.28992343775601626
3026.735,1.9180027190546838
3027.7802,-0.2770189215315497
3028.8247,-1.8750005954333275
3029.8685,1.9240482288497276
3030.9118,-0.7798631859261036
3031.9544,2.4132744037549756
3032.9963,4.153478032241978
3034.0376,0.5907647097512339
3035.0783,7.575151404964274
3036.1184,3.0066550806550367
3037.1578,2.8852926238459773
3038.1966,6.211080891493047
3039.2348,6.034036711699301
3040.2723,5.5541768504570115
3041.3092,8.171518013418094
3042.3455,6.9360768506927
3043.3811,6.847869930675898
3044.4161,10.256913752401964
3045.4505,12.96322474642654
3046.4842,11.366819240736142
3047.5173,13.5677134336851
3048.5498,8.865923409959557
3049.5816,9.511465118568523
3050.6128,13.154354419861832
3051.6434,11.64460707907466
3052.6734,13.632238729898688
3053.7027,11.867264889579545
3054.7314,16.04970093904049
3055.7594,9.479562140532124
3056.7868,12.106863595808043
3057.8136,12.881620311826254
3058.8398,14.80384717447619
3059.8653,16.373558940831067
3060.8902,16.140770219925685
3061.9145,17.15549545705928
3062.9381,13.517748936123432
3063.9612,16.777544769454778
3064.9835,15.284896934212483
3066.0053,18.13981923978031
3067.0264,16.942325342693024
3068.0469,14.09242871808722
3069.0668,14.640142671676237
3070.086,17.035480368249154
3071.1046,16.628454826193654
3072.1226,15.619078893542643
3073.1399,14.10736525204446
3074.1567,15.893326427256682
3075.1727,12.876974803663252
3076.1882,13.158322606814856
3077.203,13.637381933492478
3078.2173,9.664164748893853
3079.2308,11.238682881842948
3080.2438,8.060948064522087
3081.2561,8.280971916726763
3082.2678,9.298765977643
3083.2789,6.364341703647156
3084.2893,11.677710458127919
3085.2991,5.938883540830616
3086.3083,10.047872134723448
3087.3169,9.304687363385796
3088.3248,8.509340249918338
3089.3321,4.761841724374911
3090.3388,6.362202631715924
3091.3449,2.460433769283391
3092.3503,5.556545870797315
3093.3551,5.550549645373373
3094.3593,3.0924557465617895
3095.3629,4.982274772407301
3096.3658,6.1700172900300885
3097.3681,5.705693816727603
3098.3698,4.989314808097152
3099.3708,4.770890662679101
3100.3713,3.4004317291207187
3101.3711,-0.07205169163966119
3102.3702,3.003450667332018
3103.3688,2.626949792766183
3104.3667,4.49845664135875
3105.364,-0.48201785646383755
3106.3607,3.6355371847403077
3107.3568,1.9511374657714704
3108.3522,2.664798651074566
3109.347,1.726536385583156
3110.3412,3.286366287582826
3111.3348,2.9943039580938056
3112.3277,5.100364965272693
3113.32,1.654564847333063
3114.3117,1.3069190914848505
3115.3028,3.2074431683923414
3116.2932,1.6561525356506621
3117.2831,4.3530626187805055
3118.2723,1.6981888267410596
3119.2608,1.341546524960883
3120.2488,4.883151061886686
3121.2361,1.5730177725497043
3122.2229,1.7111619431496834
3123.209,-0.15240115584377634
3124.1944,1.382343728927303
3125.1793,4.96541337330844
3126.1635,1.8468245393217089
3127.1471,2.326593939335069
3128.1301,3.604738267248244
3129.1125,1.6312741936950275
3130.0942,4.606218353261841
3131.0753,5.179587364222375
3132.0558,5.301397798788127
3133.0357,4.6216661773747525
3134.015,3.9404089673839486
3134.9936,6.1576425900007585
3135.9716,4.67338342700614
3136.949,8.037647798604638
3137.9258,2.8504519782669746
3138.902,2.3618121590874104
3139.8775,1.8217445056557011
3140.8524,0.6802651589434738
3141.8267,4.887390241704928
3142.8004,4.8431358698916185
3143.7735,4.597518110581188
3144.7459,6.050552982419935
3145.7178,3.1522564580789734
3146.689,3.1026444497239094
3147.6596,1.601732837997785
3148.6295,3.3995374725171974
3149.5989,5.796074186881439
3150.5676,4.991358780694419
3151.5357,3.535406995599317
3152.5032,8.128234523325734
3153.4701,4.569857020249225
3154.4364,6.910290061462971
3155.402,7.349549176361608
3156.367,4.837649825236882
3157.3315,6.424607394885056
3158.2952,6.110437223725905
3159.2584,3.845154585933148
3160.221,3.0287746945761373
3161.1829,5.911312724272692
3162.1442,6.042783819352891
3163.105,5.623203065033678
3164.065,7.752585486104143
3165.0245,4.580946051121355
3165.9834,8.108299651116523
3166.9416,5.034661131311408
3167.8993,7.860045255844792
3168.8563,6.784466738508847
3169.8127,6.957940214495297
3170.7684,7.530480251151207
3171.7236,8.202101346244252
3172.6782,6.622817922237282
3173.6321,9.192644319572139
3174.5854,8.461594812462497
3175.5381,4.529683583195606
3176.4902,4.496924729442778
3177.4417,4.113332303578499
3178.3926,6.97892031300802
3179.3428,8.693702724003249
3180.2924,8.957693433046892
3181.2415,11.820906249684642
3182.1899,11.08335489388524
3183.1377,8.345052967408348
3184.0848,8.606013961180093
3185.0314,11.866251282676073
3185.9773,10.975778253311745
3186.9227,7.834608075840068
3187.8674,7.692753843256202
3188.8115,9.950228570209244
3189.755,11.207045194420745
3190.6979,10.813216554109973
3191.6402,8.16875537542575
3192.5818,6.323674276384733
3193.5229,10.227985793316027
3194.4633,10.331702399311997
3195.4031,9.934836465185157
3196.3423,5.087400258430996
3197.2809,9.589405947196642
3198.2189,12.040865648755226
3199.1563,9.341791384485814
3200.0931,11.142195055358824
3201.0292,8.49208846892676
3201.9648,11.44148332132017
3202.8997,10.390391223748725
3203.834,7.33882367300726
3204.7677,11.036792061986702
3205.7008,9.584307710189739
3206.6333,10.481381826751141
3207.5652,11.628025524962604
3208.4964,9.324249813302004
3209.4271,12.620065583966962
3210.3571,12.615483635912607
3211.2865,11.7105146418934
3212.2154,15.005169148508983
3213.1436,10.849457585253836
3214.0712,9.393390231570757
3214.9982,12.836977258407966
3215.9246,12.38022874277978
3216.8503,11.823154633330743
3217.7755,11.365764754903113
3218.7001,11.658068814107601
3219.624,12.000076403897271
3220.5473,13.691797000644499
3221.4701,14.433239960720892
3222.3922,13.82441450358009
3223.3137,14.81532970434334
3224.2346,16.35599449988773
3225.1549,13.196417678937058
3226.0746,13.986607866655175
3226.9937,12.976573556241753
3227.9121,15.616323101030385
3228.83,17.405864724588923
3229.7473,11.59520649432199
3230.6639,15.88435630357556
3231.5799,13.97332192974354
3232.4954,17.21211099137627
3233.4102,15.600730967290875
3234.3244,12.38918916418336
3235.238,14.577492732742428
3236.151,16.465648699764877
3237.0634,14.403663946272587
3237.9752,15.191545188630945
3238.8864,13.279298999168695
3239.797,14.866931798299126
3240.7069,16.054449873642536
3241.6163,16.591859364149904
3242.5251,13.079166248227702
3243.4332,16.766376338363813
3244.3408,18.053495316254455
3245.2477,13.69052869593207
3246.154,15.427481810894147
3247.0598,15.164359857732892
3247.9649,15.501167878765681
3248.8694,18.23791076466629
3249.7733,18.224593251096813
3250.6766,18.761219891340243
3251.5793,17.19779505643362
3252.4814,17.73432292980179
3253.3829,14.370807522891655
3254.2838,17.907252669806866
3255.1841,15.143662060943004
3256.0838,17.930039207623118
3256.9829,17.766387469733623
3257.8814,15.552710027860542
3258.7792,19.589009884926003
3259.6765,19.575289888325045
3260.5731,20.91155268956259
3261.4692,16.947800744390673
3262.3647,18.73403629944579
3263.2595,20.47026143188643
3264.1538,16.706478031530715
3265.0474,20.692687783494147
3265.9404,18.528892205827443
3266.8329,16.165092609654444
3267.7247,18.901290120810067
3268.616,18.987485703478292
3269.5066,20.423680132830206
3270.3966,19.40987399416203
3271.286,18.696067668533175
