RamanShift,CorrectedData
30.1047,127.38729182130025
32.3739,118.61575219392911
34.6426,106.89421129268504
36.9109,98.62266665753761
39.1787,89.90111475951424
41.4461,79.77955108341564
43.7131,74.25797021503139
45.9796,63.2863659423555
48.2456,49.46473131080221
50.5112,43.34305873292206
52.7764,29.471340126618273
55.0411,21.349566976363462
57.3054,13.027730471916833
59.5692,2.8558215895419075
61.8326,-5.916168824775095
64.0955,-12.538249953606183
66.3579,-19.460371876996813
68.6199,-29.132359417875413
70.8815,-33.00384299005539
73.1426,-29.47416197507959
75.4032,-10.342326046099416
77.6634,44.29294957061178
79.9231,186.43305296861786
82.1824,503.5793717985533
84.4412,1033.083291846722
86.6995,1690.9961938636338
88.9574,2328.169448268967
91.2148,2732.3544085724357
93.4717,2904.552405002062
95.7282,2918.214740462323
97.9842,2884.992688812171
100.2398,2840.4374947284123
102.4949,2772.300374037926
104.7495,2724.3325141632154
107.0036,2683.0850748037815
109.2573,2596.7591884157996
111.5105,2497.7059606245944
113.7632,2413.9764710878985
116.0154,2298.9217744863854
118.2672,2207.442901360964
120.5185,2103.5908592633255
122.7693,1991.9166336707317
125.0197,1898.3711890245365
127.2696,1810.905469846928
129.519,1756.7204016763817
131.7679,1724.41689194232
134.0163,1688.4958305069604
136.2642,1670.2580899883515
138.5117,1661.8545261195843
140.7587,1620.335977931169
143.0052,1571.3032678350705
145.2512,1501.307202039894
147.4967,1444.0485710412124
149.7417,1388.028150321526
151.9863,1363.5467009228505
154.2304,1324.5049700069196
156.4739,1306.5536911000002
158.717,1316.6935844833101
160.9596,1318.2253573725309
163.2017,1340.4497038164075
165.4433,1343.8173046814322
167.6844,1323.178827429601
169.925,1299.0349260847358
172.1651,1216.2862414388721
174.4047,1183.083401293695
176.6439,1128.2770212880282
178.8825,1066.667705229861
181.1206,1058.156045644413
183.3582,1026.5426243902277
185.5954,1026.2780127442877
187.832,1014.8127717181501
190.0681,1004.7474520605925
192.3037,1008.0325943722648
194.5388,986.6187292063432
196.7734,981.7063770356779
199.0075,999.3460484669326
201.2411,1020.1882442897073
203.4742,1018.1334553001416
205.7068,1032.582162092493
207.9389,1055.1348350796852
210.1704,1059.9419343488203
212.4015,1051.9539094356523
214.632,1037.021199276517
216.862,1052.8942322882108
219.0915,1050.8234265173187
221.3205,1042.5091894814846
223.549,1043.3019181901172
225.777,1038.7019992275355
228.0044,1019.3598087450388
230.2314,1001.0257125069064
232.4578,985.7500660838209
234.6837,953.6332150362069
236.909,955.6254950669893
239.1339,917.9272323427609
241.3582,916.83874347386
243.582,897.2103358913521
245.8053,906.4423078579165
248.0281,895.434948664129
250.2503,899.5385385361429
252.472,884.403348745762
254.6932,893.1796415694046
256.9139,892.2176704394569
259.134,888.817679856508
261.3536,913.9799053989713
263.5727,944.7545737570836
265.7912,972.0419024812835
268.0092,1024.0420996744633
270.2267,1063.5553637190983
272.4436,1113.0818827572425
274.6601,1126.121834295397
276.8759,1144.4753847092443
279.0913,1171.8426891132494
281.3061,1167.4738911771237
283.5204,1180.7691228521517
285.7341,1190.2285044148796
287.9473,1206.502144334163
290.16,1200.8901391765721
292.3721,1159.642573443658
294.5837,1120.609519628069
296.7947,1072.5910386260307
299.0052,1068.9871801276715
301.2152,1040.097983097211
303.4246,1032.823475808997
305.6334,1006.7636761363984
307.8418,979.7185916245489
310.0495,948.7882197509463
312.2568,908.4225481959022
314.4635,862.1215551518474
316.6696,812.7352097269875
318.8752,772.1634724083125
321.0802,728.4562955554613
323.2847,714.4636238064396
325.4887,710.6353945146892
327.692,737.3715378890166
329.8949,759.971977031875
332.0972,795.3866276720017
334.2989,827.2153979384144
336.5001,807.5081880062639
338.7007,785.7648897785485
340.9008,733.2353870831854
343.1003,676.6195558904424
345.2992,617.017264838235
347.4976,573.3783757982825
349.6955,531.5527444721331
351.8927,517.3402208275508
354.0895,497.19064951677353
356.2856,481.2538700186374
358.4812,462.629716840072
360.6763,455.96801967546867
362.8707,443.6186035929218
365.0646,446.08128910084633
367.258,470.355892271471
369.4508,463.1422247162129
371.643,480.89009334293087
373.8346,499.14930042806077
376.0257,524.4196434391379
378.2162,549.1009148522057
380.4062,568.0929018991112
382.5956,551.395386320693
384.7844,518.50814417686
386.9726,458.4809460135684
389.1603,422.5635571916937
391.3474,413.85573848730087
393.5339,407.8572464508229
395.7199,397.817833494134
397.9052,425.73724795053727
400.09,466.5652341751579
402.2743,516.8015322657491
404.4579,539.5958776544117
406.641,581.0980006052325
408.8235,619.8576259863396
411.0054,664.9744728548817
413.1868,715.1982540694314
415.3675,753.7286758388184
417.5477,777.8654372198894
419.7273,712.6082297322048
421.9064,614.6567371166725
424.0848,557.6106359881173
426.2627,493.76959681479775
428.4399,432.0332844888651
430.6166,370.80135896477555
432.7928,328.2734758766521
434.9683,286.2492871506047
437.1432,260.67844143000934
439.3176,235.5605844957497
441.4914,223.39535952192455
443.6645,217.18240732702725
445.8371,215.0213664955993
448.0091,228.51187344035702
450.1806,207.80356242380526
452.3514,196.44606542332917
454.5216,193.48901233828042
456.6913,180.63203110355016
458.8603,189.37474771914071
461.0288,199.9167863787345
463.1967,196.25776938226772
465.3639,198.09731703050875
467.5306,190.53504766164906
469.6967,176.2705776329076
471.8622,186.35352139615202
474.0271,170.9834916405464
476.1914,167.61009919172102
478.3551,163.33295316547014
480.5182,164.2516610014884
482.6807,158.16582850614168
484.8426,188.32505984327963
487.0039,224.62895759509433
489.1647,258.3771224605275
491.3248,303.11915289223157
493.4843,321.00464475908825
495.6432,310.83319089878955
497.8015,275.95438093897997
499.9592,238.6178013989727
502.1163,198.12303603853616
504.2728,139.66966623126223
506.4287,130.65727136951318
508.5839,113.38542944895448
510.7386,102.50371715867868
512.8927,105.71171005392557
515.0461,107.00898266489685
517.199,128.89510846467806
519.3512,164.36965985626557
521.5029,222.8822079537058
523.6539,280.0823222273498
525.8043,295.4195699187262
527.9541,232.94351546854182
530.1033,178.20372036330787
532.2519,128.84974376010086
534.3999,103.73114303396096
536.5472,94.39747427143038
538.694,89.99829252174095
540.8401,106.78315189014938
542.9856,125.05160558193097
545.1305,131.95320573452864
547.2748,152.13750323487125
549.4185,158.10404765035537
551.5615,165.1023870270028
553.704,183.63206782979591
555.8458,193.7926348726926
557.987,224.18363113333112
560.1276,246.60459765142377
562.2675,300.7550732248458
564.4069,370.63459418542743
566.5456,411.9926938574488
568.6837,389.82890185884435
570.8212,318.9927436876219
572.958,254.23374094350152
575.0942,195.20141203627577
577.2299,154.94527283340085
579.3648,129.51483725031903
581.4992,120.45961765302104
583.6329,125.6291251123489
585.766,155.07286949454897
587.8985,190.04035940957647
590.0304,241.48110191665864
592.1616,268.99460217462
594.2922,276.0803629274744
596.4222,233.63788422928997
598.5515,184.41666337333186
600.6802,128.3661953164867
602.8083,95.18597317147487
604.9358,70.92548876735577
607.0626,65.53423298132839
609.1888,84.96169598133793
611.3144,98.45736727998815
613.4393,137.97073554026633
615.5636,194.80128844058686
617.6873,242.0485122796581
619.8103,282.5618914081765
621.9327,267.79090775635336
624.0544,244.83504042878212
626.1756,185.5937658521466
628.2961,133.66655800478088
630.4159,105.95288900908258
632.5351,106.20222965078506
634.6537,97.01404965609163
636.7716,91.83781768918493
638.8889,94.3230014441067
641.0056,104.81906769652164
643.1216,115.02548227886336
645.237,121.49170997537567
647.3518,102.067214420048
649.4659,76.30145803195273
651.5793,61.34390220949081
653.6922,45.094007588048726
655.8043,30.30123418957487
657.9159,21.515041585077824
660.0268,16.234889042554414
662.137,9.710235614851172
664.2466,21.340540192465596
666.3556,20.575261568794303
668.4639,5.013858323828117
670.5716,7.055788831806467
672.6786,13.700511416830523
674.785,-2.9525156675560993
676.8907,-15.853834304813063
678.9958,3.646043117229283
681.1002,-3.253237409453959
683.204,-6.302029929349374
685.3072,6.249344012898291
687.4097,-18.249374170076635
689.5115,-7.198443128134386
691.6127,0.6020608001133496
693.7132,-5.297866811499034
695.8131,-4.898236403725377
697.9123,11.100994508369013
700.0109,5.599917343101652
702.1089,23.398623407778814
704.2061,38.39720395370978
706.3028,56.39574999821775
708.3987,75.74435217465339
710.4941,94.34310055241076
712.5887,102.89208444344035
714.6827,96.3413922162622
716.7761,87.29111121047617
718.8688,82.94132780227005
720.9608,86.84212749491803
723.0522,102.4435949622839
725.1429,123.34581400980983
727.233,163.79886741850123
729.3224,224.55283673590748
731.4112,281.4078018715891
733.4993,290.6138404895787
735.5867,236.67102743983173
737.6735,173.17943466616566
739.7596,121.68913174568752
741.845,98.95018652371073
743.9298,90.81266562865835
746.014,97.77663469945014
748.0974,121.44215846688121
750.1802,113.65930068397938
752.2624,104.67812388935204
754.3439,95.99868948501432
756.4247,102.77105782620106
758.5048,100.74528830816007
760.5843,109.37143929843046
762.6631,144.19956815709747
764.7413,205.92973115053405
766.8188,281.91198310311745
768.8956,360.9963767799277
770.9718,419.68296212692576
773.0473,400.87178548011013
775.1221,373.9628889786495
777.1962,370.6563107529961
779.2697,419.20208519397363
781.3426,509.5502429858434
783.4147,588.6008106208467
785.4862,576.2038094957231
787.557,493.7092551212047
789.6271,368.6171572459864
791.6966,248.52752068167126
793.7654,150.59034655369044
795.8335,109.85563350220082
797.901,78.12337866145515
799.9678,61.69357806715004
802.0339,70.81622697374928
804.0993,79.84132001878072
806.1641,73.36885113160986
808.2282,52.39881344318985
810.2916,40.3811993507868
812.3544,27.816000727678784
814.4164,24.35320904333264
816.4778,34.64281548905615
818.5385,39.134811012625846
820.5986,80.52918621539015
822.658,123.72593130735083
824.7166,188.8750356932178
826.7747,283.97648754044246
828.832,361.38027312772715
830.8886,409.63637589400923
832.9446,438.44477566442345
834.9999,409.3054481677427
837.0545,348.9683647482916
839.1085,261.28349265734107
841.1618,183.250795656479
843.2143,133.42023489445944
845.2662,96.04176968752961
847.3175,91.21535801773427
849.368,84.39095690670104
851.4179,74.21852246390472
853.467,78.69800995491164
855.5155,94.5793739031019
857.5633,88.01256804487696
859.6105,89.89754517084452
861.6569,86.58425719148727
863.7027,67.12265511831254
865.7478,62.412689096986014
867.7922,54.154308601947264
869.8359,44.64746248350946
871.8789,33.99209905044336
873.9212,32.538166165046164
875.9629,52.63561134969382
878.0039,63.43438180138162
880.0441,75.73442419074854
882.0837,100.1356845540912
884.1226,119.83810817036215
886.1609,152.3916393171579
888.1984,205.2962210736946
890.2352,251.00179499527167
892.2714,260.5583005842267
894.3069,238.1656748328794
896.3416,192.9738521279669
898.3757,149.8827644745702
900.4091,129.2423419480317
902.4418,138.80251312486644
904.4739,152.46320528916635
906.5052,166.17434433699873
908.5358,174.6358546397995
910.5658,145.29765890726162
912.595,113.35967810271995
914.6236,73.92183173653348
916.6515,55.23403818546478
918.6786,47.64621508705875
920.7051,38.008279526519914
922.7309,38.17014811259082
924.756,33.63173707393173
926.7804,51.44296225750145
928.8041,60.553739173941835
930.8272,77.81398281946554
932.8495,95.67360758474842
934.8711,95.28252708232662
936.892,102.89065396800083
938.9123,132.4478999447473
940.9318,149.10417568663593
942.9506,171.00939054325863
944.9688,159.31345237316611
946.9862,132.26626732481623
949.003,103.96773995353169
951.019,86.81777349197341
953.0344,67.06627013312584
955.0491,63.613131201796364
957.063,58.758257352129476
959.0763,54.501548602139565
961.0888,44.44290438225903
963.1007,44.93222357790546
965.1119,42.5694046300672
967.1223,41.40434553041155
969.1321,44.43694384491164
971.1412,46.76709672549714
973.1495,29.794700879729362
975.1572,28.369652547498617
977.1641,41.34184767074919
979.1704,42.511181907728655
981.1759,36.52755050326709
983.1808,33.04084827708232
985.1849,32.200969683617245
987.1884,21.707808846906005
989.1911,34.16125956897292
991.1932,42.36121543476486
993.1945,47.85756968761643
995.1951,45.00021514724983
997.1951,44.63904415481227
999.1943,51.473948601449365
1001.1928,53.25481993191704
1003.1906,66.38154907623141
1005.1877,84.20402643186128
1007.1841,111.82214173246052
1009.1798,115.0857838696428
1011.1748,110.64484061680128
1013.1691,89.09919859647152
1015.1627,61.44874332474092
1017.1556,26.54335942670525
1019.1477,19.78293091297337
1021.1392,2.9673415287207945
1023.1299,-4.153525178705991
1025.12,4.820214308366985
1027.1093,15.588485001329332
1029.0979,34.40121186336887
1031.0859,57.908319701789196
1033.0731,70.959732979882
1035.0596,72.75537558185681
1037.0454,61.29517068232633
1039.0304,50.529040728349514
1041.0148,35.25690755403468
1042.9985,12.278692488198999
1044.9814,5.494316507091298
1046.9636,1.4537004641736075
1048.9452,6.906765157965083
1050.926,26.45341686451718
1052.9061,40.543561790814124
1054.8855,52.227105879305554
1056.8642,46.20395466700654
1058.8421,46.12401316866112
1060.8194,45.4371859369744
1062.7959,45.89337706341189
1064.7717,55.1424901850678
1066.7469,52.83442848010304
1068.7213,59.21909457525419
1070.695,70.4463905689139
1072.6679,85.36621796728457
1074.6402,114.92847757210484
1076.6117,120.98306933145227
1078.5826,108.9798920441192
1080.5527,71.36884329906877
1082.5221,49.59981959546451
1084.4908,15.172716718782453
1086.4587,2.587429958500934
1088.426,-1.6561455476285118
1090.3925,3.441885312271438
1092.3584,1.8814341949714617
1094.3235,15.812412722823865
1096.2879,29.03473249936701
1098.2515,56.6483049700164
1100.2145,81.30304128983983
1102.1767,103.54885204742345
1104.1382,154.93564701832236
1106.099,207.06333494260411
1108.0591,250.98182301097938
1110.0185,293.84101634352623
1111.9771,336.6408175505044
1113.9351,376.88112630376406
1115.8923,445.0618389087475
1117.8488,467.7328479020862
1119.8045,433.1440413697932
1121.7596,343.19530272055454
1123.7139,241.08651103161526
1125.6675,178.26754194826833
1127.6204,191.3382687049417
1129.5726,202.99856275338857
1131.524,201.8982936319794
1133.4748,168.9873288491001
1135.4248,111.36553389415326
1137.3741,65.28277256666888
1139.3226,44.28890755252178
1141.2705,39.933800884759194
1143.2176,54.76731415354004
1145.164,63.68930854968539
1147.1097,70.69964471634319
1149.0546,46.198182659769486
1150.9989,21.884781679223806
1152.9424,6.559300611984327
1154.8852,-9.028401923518231
1156.8272,-12.27846737444645
1158.7686,-14.790946994227056
1160.7092,-10.615769374398269
1162.6491,-8.402715344938201
1164.5883,8.698540315710375
1166.5267,17.188406772230792
1168.4644,43.81729310232117
1170.4014,66.48560821179615
1172.3377,104.79376056829733
1174.2732,162.49215797461034
1176.2081,245.4312071855843
1178.1421,362.8613133311468
1180.0755,483.23287908691384
1182.0082,550.3463034998888
1183.9401,524.1519807847465
1185.8713,435.85029965269916
1187.8017,324.29164357343916
1189.7315,221.37639165815642
1191.6605,146.20491977512472
1193.5888,98.87760157885464
1195.5163,66.14480926180784
1197.4432,51.75691402767097
1199.3693,32.91428641868242
1201.2947,22.217296459511772
1203.2193,14.316313845686182
1205.1432,6.51170805056006
1207.0664,6.803848404324981
1208.9889,15.493104172055837
1210.9106,14.72984455078938
1212.8316,14.614438582631578
1214.7519,23.09725516239041
1216.6715,36.52866303873009
1218.5903,53.2090307293422
1220.5084,59.48872638663238
1222.4257,77.36811763091612
1224.3424,97.44757148762176
1226.2583,104.12745420849717
1228.1735,136.75813107081512
1230.0879,163.0899663105739
1232.0016,211.17332279619052
1233.9146,239.05856176518273
1235.8269,266.6460423433357
1237.7384,267.28612126584903
1239.6492,274.97915260146203
1241.5592,287.97548774605343
1243.4686,326.5254753457108
1245.3772,399.479461166767
1247.285,474.9377877103017
1249.1922,558.6507934825993
1251.0986,626.1188122405667
1253.0042,700.8921721546039
1254.9092,771.1711951339223
1256.8134,861.0561960788118
1258.7169,943.1474821778505
1260.6196,987.9953520090554
1262.5216,1013.3500947189692
1264.4229,987.3119895741808
1266.3234,976.7313057077793
1268.2232,915.7583023797334
1270.1223,868.4432290827001
1272.0207,824.9863261517531
1273.9183,803.2878252375348
1275.8151,821.5479497408239
1277.7113,857.8669150295217
1279.6067,936.3949282560496
1281.5014,1067.982187994161
1283.3953,1240.4788834536594
1285.2885,1414.4851931645267
1287.181,1582.1012832519573
1289.0727,1624.4273056962927
1290.9637,1571.2633966568633
1292.854,1480.8596760487267
1294.7435,1362.0662480743065
1296.6323,1247.5832021274293
1298.5204,1142.6606139812607
1300.4077,1076.6485469331344
1302.2943,1024.3470528537778
1304.1802,988.9561728474343
1306.0653,967.5759377748765
1307.9497,948.8563686073154
1309.8333,901.6974766402041
1311.7162,872.8492636804322
1313.5984,842.0617225179144
1315.4798,824.3848372140742
1317.3605,827.3685834097174
1319.2405,837.062928501802
1321.1197,814.5678316136009
1322.9982,781.8832434977571
1324.876,716.0091067612364
1326.753,628.8453561921722
1328.6293,529.7919194186072
1330.5048,457.34871778013064
1332.3796,384.2656673184126
1334.2537,336.84267950163576
1336.127,292.029661955326
1337.9996,259.4265189365833
1339.8714,250.2831517822109
1341.7426,228.94945923474756
1343.6129,217.87533753390028
1345.4826,200.61068062988227
1347.3515,191.5053802941535
1349.2196,181.0593262920678
1351.087,168.0724064739253
1352.9537,161.3945068794335
1354.8197,169.92551186757612
1356.6849,193.21530418339216
1358.5493,197.16376487266552
1360.4131,219.87077304902732
1362.276,265.28620585447163
1364.1383,292.4599382322849
1365.9998,308.1418424728919
1367.8606,300.081787942118
1369.7206,291.1296409243713
1371.5799,296.4852647032417
1373.4384,288.848519651023
1375.2962,269.0692631751564
1377.1533,219.69734979459872
1379.0096,175.33263133761432
1380.8652,148.77495743549468
1382.7201,124.22417596620505
1384.5742,100.03013331996158
1386.4275,72.3926746447388
1388.2802,57.411644088211006
1390.132,53.986885074124984
1391.9832,48.21824045211304
1393.8336,36.055552531938474
1395.6832,39.8486631411829
1397.5322,34.29741374687217
1399.3803,21.701645417546615
1401.2278,4.161198878771984
1403.0745,23.57591463909796
1404.9204,-2.104366834536563
1406.7656,-5.829805310952224
1408.6101,-2.150539536345036
1410.4538,-9.116650017155848
1412.2968,-2.4281957759360466
1414.139,6.114855240096631
1415.9805,14.312559341399492
1417.8213,19.414972777282173
1419.6613,38.322151653928586
1421.5006,74.48415188337333
1423.3391,103.50102899442993
1425.1769,150.17283777107025
1427.0139,225.29963196225685
1428.8502,309.5814638152244
1430.6858,380.31838332421114
1432.5206,403.56043738764106
1434.3547,402.6576691007542
1436.188,373.0601175231868
1438.0206,374.5678176879977
1439.8524,356.4808008976447
1441.6835,362.7990947089082
1443.5139,366.0227231137601
1445.3435,369.2017064761816
1447.1724,376.28606149992663
1449.0005,376.8758011967334
1450.8279,360.870934815479
1452.6545,364.071467836283
1454.4804,354.22740213055556
1456.3056,356.7387359289926
1458.13,341.955463920016
1459.9536,309.4275772246608
1461.7766,279.8050635444074
1463.5987,238.18790748646097
1465.4202,213.47609085997635
1467.2409,180.36959309222948
1469.0608,154.71839147573587
1470.88,121.17246149931498
1472.6984,101.88177710460252
1474.5161,78.84631102150979
1476.3331,69.21603496113073
1478.1493,63.7409198460964
1479.9648,65.47093590687803
1481.7795,56.306052736537595
1483.5935,57.5962392734279
1485.4067,64.24146389284186
1487.2192,63.441694394109845
1489.031,68.09689793414822
1490.842,64.10704103545658
1492.6522,66.27208953956591
1494.4618,67.89200864693674
1496.2705,73.1167628953097
1498.0785,64.19631614350487
1499.8858,63.48063151917563
1501.6924,66.76967150801238
1503.4981,62.26339796089974
1505.3032,42.26177206102568
1507.1075,50.96475436894468
1508.911,35.422305022593946
1510.7138,34.68438365026327
1512.5159,34.000949526019554
1514.3172,26.321961577086483
1516.1178,26.197378390678125
1517.9176,27.827158290789214
1519.7166,25.261259339440812
1521.515,13.149639320383073
1523.3126,14.092255764753475
1525.1094,9.489066072193054
1526.9055,9.39002750142049
1528.7008,8.79509721626414
1530.4954,11.104232286651722
1532.2893,2.0173896945604497
1534.0824,6.084526310925469
1535.8747,10.255598986508119
1537.6663,11.330564511224622
1539.4572,6.80937957243566
1541.2473,8.64200074419648
1543.0367,18.478384532468738
1544.8253,16.268487356794367
1546.6132,24.61226545193165
1548.4003,21.00967488995468
1550.1867,30.06067149681502
1551.9723,41.76521088836762
1553.7572,67.32324837986101
1555.5414,84.48473886889161
1557.3247,111.59963657982337
1559.1074,142.01789489217344
1560.8893,188.73946606946276
1562.6705,224.4643009550329
1564.4509,251.14234850483177
1566.2305,257.9235554301641
1568.0094,259.5578659309114
1569.7876,264.4452216277198
1571.565,258.43556154565704
1573.3417,262.7788220653385
1575.1176,268.5749369830246
1576.8928,290.1738374671874
1578.6672,309.6254520005499
1580.4409,334.57970616409693
1582.2138,365.63652244255906
1583.986,411.6458199748699
1585.7575,447.95751424359827
1587.5282,478.7715166148551
1589.2981,505.68773397517646
1591.0673,521.4560684233838
1592.8358,532.4764170014205
1594.6035,534.5486715366699
1596.3704,525.4727185317506
1598.1366,513.1484391437954
1599.9021,490.5757092752095
1601.6668,476.65439969691363
1603.4308,451.884376274072
1605.194,459.86550010530493
1606.9564,490.39762777038925
1608.7182,537.2306112504465
1610.4791,618.1142976226222
1612.2394,717.4485285917563
1613.9988,806.1831396815456
1615.7576,889.4679592412024
1617.5156,920.3528075581073
1619.2728,889.9874960249618
1621.0293,816.8218268309399
1622.785,717.0555932653401
1624.54,605.8385804492436
1626.2942,496.32056633317546
1628.0477,401.701322809275
1629.8005,319.5806168064758
1631.5525,270.30821123669847
1633.3037,227.28386581605747
1635.0542,182.85733755758542
1636.804,152.0283812014764
1638.553,129.64674965935143
1640.3013,114.51219432254788
1642.0488,98.22446528593565
1643.7955,83.63331149926296
1645.5416,74.9384809300335
1647.2868,77.68972070941828
1649.0313,68.33677721920338
1650.7751,67.77939606427788
1652.5181,67.91732216616316
1654.2604,61.7002997685866
1656.0019,66.32807243610284
1657.7427,82.00038311626349
1659.4828,103.11697409333976
1661.222,133.12758683159876
1662.9606,166.93196176413812
1664.6984,195.67983799277965
1666.4354,213.0709529500258
1668.1717,192.90504211158043
1669.9072,156.7818388224385
1671.642,118.20107449854441
1673.3761,82.16247898802442
1675.1094,54.31578095699422
1676.8419,44.66070824994472
1678.5737,24.19698816820909
1680.3048,24.624347566513563
1682.0351,14.742513057614758
1683.7646,10.701211008025894
1685.4934,6.100167636835124
1687.2215,9.639109056118627
1688.9488,3.1177613169512597
1690.6754,6.435850374016866
1692.4012,-1.2568978491781877
1694.1263,0.13924250651405146
1695.8506,-2.7759901433488494
1697.5742,-0.5028573846018389
1699.297,-1.8915930709383701
1701.0191,-0.44242603250671664
1702.7404,-4.45556620244065
1704.461,-3.381219094037988
1706.1808,1.13045429050959
1707.8999,-0.22067327261112268
1709.6182,-3.034729018517453
1711.3358,-0.11183797780108762
1713.0527,-1.4020948641107793
1714.7688,-2.255593273833881
1716.4841,-5.0724127964303705
1718.1987,-2.902610487983395
1719.9126,0.4538072688276884
1721.6257,-1.603136911597943
1723.338,1.9765795806009692
1725.0496,-3.307004629376678
1726.7605,1.8461490639021179
1728.4706,2.236112302846493
1730.18,1.5629567114043539
1731.8886,4.076753891162468
1733.5964,0.9275754280781712
1735.3036,-0.9345071326587231
1737.0099,2.1405777448660785
1738.7156,3.1529109322932243
1740.4204,6.602573279857552
1742.1246,3.1396456062655034
1743.8279,8.96420866419794
1745.5306,3.9263431749393476
1747.2325,5.67612977013232
1748.9336,3.6636490421563224
1750.634,9.888981526629465
1752.3336,7.502207722533541
1754.0325,4.003408029960639
1755.7307,7.39266277398076
1757.4281,13.870052239630041
1759.1247,9.385656638018105
1760.8206,11.03955604155422
1762.5158,16.03183042879101
1764.2102,10.712559667885756
1765.9039,9.631823466677332
1767.5968,8.13970142587911
1769.289,10.986273049886307
1770.9804,10.421617761697235
1772.6711,17.295814874447586
1774.361,15.30894359705701
1776.0502,17.81108296548706
1777.7386,17.5023118626099
1779.4263,21.88270899318698
1781.1132,18.50235288695677
1782.7994,16.41132185483079
1784.4849,19.85969402269717
1786.1696,14.547547352330952
1787.8535,21.924959606910363
1789.5367,17.342008404138284
1791.2192,24.298771142467956
1792.9009,18.745325046932777
1794.5818,14.33174709957828
1796.2621,22.708114094996716
1797.9415,22.924502684463135
1799.6202,26.380989292171535
1801.2982,23.62765011307087
1802.9755,22.914561078300295
1804.6519,22.741797882722665
1806.3277,17.109435992055182
1808.0027,20.01755064459732
1809.6769,23.066216907554235
1811.3504,22.705509647955807
1813.0231,27.385503502169797
1814.6951,23.856272879508936
1816.3664,22.01789191543091
1818.0369,28.67043450683076
1819.7067,22.51397433042476
1821.3757,22.898584776224908
1823.044,23.974339009103574
1824.7115,24.691309964947266
1826.3783,25.699570339899196
1828.0443,28.999192583189455
1829.7096,29.24024888705273
1831.3741,31.52281115373171
1833.0379,31.246950993066804
1834.701,29.212739699670266
1836.3633,29.520248255684976
1838.0248,32.06954735112657
1839.6856,28.660707380808446
1841.3457,34.59379841884862
1843.005,25.21889025275817
1844.6636,26.036052324110102
1846.3214,28.29535382228883
1847.9785,28.44686367631823
1849.6349,30.940650532268705
1851.2904,32.576782751742144
1852.9453,34.75532838693411
1854.5994,31.57635516427254
1856.2528,36.38993046263212
1857.9054,32.54612134512399
1859.5572,30.594994510960248
1861.2083,24.336616333891754
1862.8587,36.571052881719424
1864.5084,36.598369978878225
1866.1572,30.01863308409267
1867.8054,33.58190729010363
1869.4528,30.838257389465724
1871.0994,35.13774783891441
1872.7453,28.680442786802843
1874.3905,32.31640603010672
1876.0349,31.295701078997467
1877.6786,35.16839112048254
1879.3215,39.13453902861244
1880.9637,35.894207325753655
1882.6051,29.697458142927502
1884.2458,38.84435325221315
1885.8858,35.28495412871544
1887.525,36.5193218590957
1889.1634,35.097517177166
1890.8011,30.71960045154512
1892.4381,33.685631699876836
1894.0743,35.8956706326089
1895.7098,35.54977662333292
1897.3446,33.748008686683846
1898.9786,34.190425481798854
1900.6118,34.127085330335234
1902.2443,37.75804621204591
1903.8761,36.78336576541312
1905.5071,35.25310125133868
1907.1374,32.81730956289084
1908.7669,34.67604724060695
1910.3957,34.079370496851226
1912.0237,33.977335197227745
1913.651,27.119996866546842
1915.2776,34.10741068984552
1916.9034,27.239631580960946
1918.5285,33.71671411265618
1920.1528,34.43871258529802
1921.7764,31.705680962086205
1923.3992,33.1176728618334
1925.0213,30.924741586295568
1926.6427,31.77694010605211
1928.2633,28.224321082434955
1929.8832,35.91693685900688
1931.5023,34.60483949708757
1933.1207,35.03808069882734
1934.7383,33.91671182032812
1936.3552,36.940783867311154
1937.9714,30.460347506330663
1939.5868,32.02545303453303
1941.2015,32.93615044446142
1942.8154,27.04248940840455
1944.4286,34.044519269289594
1946.041,32.09228909961922
1947.6528,32.08584763145075
1949.2637,28.875243275918763
1950.8739,30.71052412329945
1952.4834,32.941737975116695
1954.0921,32.418932325789115
1955.7001,33.59215434031799
1957.3074,30.91145085951547
1958.9139,33.47686838827218
1960.5197,23.438453122364223
1962.1247,27.296250922799146
1963.729,29.850307416199996
1965.3325,32.050667956227244
1966.9353,29.997377598038554
1968.5374,30.340481076284988
1970.1387,27.28002282564384
1971.7393,28.61604697738781
1973.3392,28.59859738998935
1974.9383,24.27771763576058
1976.5366,26.10345100102782
1978.1342,24.675840529340206
1979.7311,27.99492900321249
1981.3273,32.36075895840102
1982.9227,25.32337265071297
1984.5173,26.682812012347938
1986.1112,32.68911872227193
1987.7044,28.042334192622775
1989.2968,23.692499508647188
1990.8885,27.589655475168684
1992.4795,25.333842660085722
1994.0697,26.62510135540046
1995.6592,32.81347159977672
1997.2479,19.79899316562728
1998.8359,29.281705497230405
2000.4232,33.161647840874394
2002.0097,28.78885915003069
2003.5955,26.563378046554305
2005.1805,25.985242864411816
2006.7648,29.55449167193592
2008.3484,28.421162277607067
2009.9312,27.08529219436072
2011.5133,31.946918650920978
2013.0946,25.10607860515897
2014.6752,28.112808695476843
2016.2551,29.167145309215897
2017.8342,28.269124552589403
2019.4126,28.018782240139288
2020.9902,23.316153903716327
2022.5672,24.711274794983595
2024.1433,28.05417993244265
2025.7188,29.044904087482436
2027.2935,26.583481750950057
2028.8674,26.769947123243696
2030.4406,22.504334138926765
2032.0131,29.03667646486319
2033.5849,24.11700754287375
2035.1559,28.04536052441236
2036.7261,24.921768319763018
2038.2957,24.246263558756056
2039.8645,29.018878622004166
2041.4325,26.939645647657386
2042.9998,27.558596483677178
2044.5664,27.025762708628463
2046.1323,27.941175625490317
2047.6974,23.95486626698424
2049.2617,26.266865386420022
2050.8254,18.17720349755882
2052.3883,27.935910851493162
2053.9504,21.993017517543535
2055.5118,26.998553285671463
2057.0725,25.20254772590833
2058.6325,24.70503013830003
2060.1917,27.5060295708671
2061.7502,27.505574824579625
2063.3079,27.903694425347652
2064.8649,23.70041662402538
2066.4212,26.295769392430202
2067.9767,27.789780465375358
2069.5315,26.982477314716533
2071.0856,28.223887134411612
2072.6389,25.564036848593815
2074.1915,24.702953099157526
2075.7433,20.540662272356926
2077.2945,27.57719050741663
2078.8448,22.2125637381547
2080.3945,20.746807622617368
2081.9434,23.829947596725148
2083.4916,25.712008888930697
2085.039,26.44301648938709
2086.5857,24.82299513112757
2088.1317,25.151969282755218
2089.677,25.97996316464321
2091.2215,21.30700074564521
2092.7652,22.283105734815308
2094.3083,22.95830162813772
2095.8506,23.63261169876563
2097.3921,19.856058990269204
2098.933,18.828666309892682
2100.4731,24.50045626631959
2102.0124,23.22145127994696
2103.5511,19.991673526167247
2105.089,24.711144948158562
2106.6261,25.929887289182332
2108.1626,26.3479220453885
2109.6983,21.91527045362818
2111.2332,22.58195348727321
2112.7675,23.09799190054281
2114.301,22.863406221836755
2115.8337,22.428216748574883
2117.3657,25.34244354954302
2118.897,24.856106469244878
2120.4276,24.01922509875979
2121.9575,24.381818780606082
2123.4866,27.64390661710989
2125.0149,24.305507466779275
2126.5426,23.366639911683293
2128.0695,22.877322290835906
2129.5956,24.337572709584762
2131.1211,22.547409044504334
2132.6458,23.50684892879336
2134.1698,23.36590977017657
2135.693,27.224608741310334
2137.2155,22.482962781191873
2138.7373,17.990988556572233
2140.2584,22.99870250937296
2141.7787,23.106120901605706
2143.2983,21.063259765295072
2144.8171,19.62013490140447
2146.3353,20.926761900264793
2147.8527,21.03315615600549
2149.3693,18.139332853488426
2150.8853,27.695306967243894
2152.4005,20.751093290408974
2153.9149,22.906706339167712
2155.4287,25.912160422193338
2156.9417,16.81746961909208
2158.454,24.42264775034856
2159.9655,19.577708468272718
2161.4764,26.23266518094809
2162.9865,18.987531100681053
2164.4958,22.24231917745145
2166.0045,19.297042171363742
2167.5124,24.701712620099258
2169.0195,19.506342868368904
2170.526,20.410945013866552
2172.0317,19.365530959222724
2173.5367,20.370112402958583
2175.0409,25.424700849939995
2176.5445,22.529307601331894
2178.0473,21.933943704052183
2179.5494,22.438619979725814
2181.0507,18.493347030638347
2182.5513,21.2481352346892
2184.0512,19.5529947848443
2185.5504,19.85793566158833
2187.0488,19.762967649876046
2188.5465,20.868100336082904
2190.0435,17.573343108954617
2191.5397,17.678705148555963
2193.0353,16.534195459218296
2194.5301,18.639822868486036
2196.0241,23.14559603856172
2197.5175,18.451523445249748
2199.0101,17.55761333289874
2200.502,14.713873761342114
2201.9931,16.62031261483719
2203.4835,17.526937630502488
2204.9733,16.383756379253498
2206.4622,18.540776256736294
2207.9505,15.548004494759482
2209.438,21.655448139723887
2210.9248,16.0631140825503
2212.4109,22.271008997605122
2213.8962,16.029139398623826
2215.3809,14.337511576631798
2216.8648,12.54613166236311
2218.3479,14.905005643176665
2219.8304,16.71413938097004
2221.3121,18.773538588590753
2222.7931,16.833208811745138
2224.2733,13.593155408404058
2225.7529,12.753383568206289
2227.2317,14.213898344858976
2228.7098,14.374704664535429
2230.1872,19.435807311270125
2231.6638,14.947210925350504
2233.1397,18.008919952705853
2234.6149,15.970938689793499
2236.0894,13.233271252981595
2237.5632,9.195921598929019
2239.0362,14.758893551961961
2240.5085,11.472190844447454
2241.9801,12.035817061163527
2243.4509,8.249775672166408
2244.921,13.76407002715409
2246.3904,13.478703393326768
2247.8591,15.593678900244058
2249.3271,16.9089995426786
2250.7943,15.574668159466356
2252.2608,11.690687420353356
2253.7266,14.007059839338936
2255.1917,12.173787813515602
2256.656,10.54087359990524
2258.1197,9.15831933379198
2259.5826,10.976127045051399
2261.0447,12.894298671976088
2262.5062,10.212836043097383
2263.9669,13.431740858003735
2265.4269,14.00101471415536
2266.8862,13.070659074695072
2268.3448,8.240675262755587
2269.8026,11.461064470762963
2271.2598,7.481827808736597
2272.7162,14.3029662720852
2274.1719,10.37448078139937
2275.6268,11.896372114239867
2277.0811,10.318640944422881
2278.5346,14.291287826800811
2279.9874,11.16431321303979
2281.4395,5.637717411893291
2282.8908,10.011500620471438
2284.3414,10.785662979507336
2285.7914,11.060204529618929
2287.2406,10.735125203567577
2288.689,11.010424823512494
2290.1368,9.436103104261662
2291.5838,11.61215965051889
2293.0302,9.93859397262689
2294.4758,11.965405464806736
2295.9206,9.19259342189379
2297.3648,11.170157019069535
2298.8082,12.298095339589665
2300.251,8.326407355008243
2301.693,9.00509191389851
2303.1343,13.434147781569422
2304.5748,4.66357363327927
2306.0147,8.193368009944933
2307.4538,10.523529405847611
2308.8922,11.004056233334879
2310.3299,10.534946799518892
2311.7669,10.616199301471411
2313.2031,8.997811830914642
2314.6387,11.729782373408867
2316.0735,7.412108824536261
2317.5076,8.744788962581211
2318.941,8.777820491707104
2320.3737,9.161201028629435
2321.8056,13.344928102285593
2323.2369,16.12899915000098
2324.6674,13.963411475651696
2326.0972,17.69816222182402
2327.5263,21.683248391470073
2328.9547,21.66866681056048
2330.3823,22.354414088233383
2331.8092,14.090486616940339
2333.2355,7.226880565588857
2334.661,10.313591962181604
2336.0858,12.050616762452492
2337.5098,8.387950818999613
2338.9332,8.67558986391495
2340.3558,7.113529545410927
2341.7778,6.401765424944159
2343.199,10.690292992836063
2344.6195,4.829107675390361
2346.0393,7.068204792007933
2347.4583,8.407579613798532
2348.8767,7.397227341189989
2350.2943,10.737143090534289
2351.7113,7.67732190421124
2353.1275,6.317758717229182
2354.543,7.958448387823353
2355.9578,6.699385711051406
2357.3718,8.040565402386633
2358.7852,10.381982110308485
2360.1978,4.073630402890714
2361.6098,5.41550474438732
2363.021,6.757599558316002
2364.4315,10.049909214039488
2365.8413,7.692428013344497
2367.2504,9.735150157518788
2368.6587,4.328069770925836
2370.0664,10.221180880577705
2371.4733,9.91447747020581
2372.8795,10.507953421329788
2374.285,9.051602516324522
2375.6899,10.095418432485388
2377.0939,11.489394756591736
2378.4973,8.683524974468796
2379.9,5.677802457047875
2381.3019,8.522220488424992
2382.7032,11.016772295918258
2384.1037,6.911451021623591
2385.5035,6.1062496974692095
2386.9027,7.15116128626893
2388.3011,9.096178689774064
2389.6987,7.6412947382243885
2391.0957,7.33650217089793
2392.492,10.881793650659773
2393.8876,8.37716176701008
2395.2824,7.622599000631013
2396.6765,8.268097748433306
2398.07,0.3636503311016668
2399.4627,6.959248986639906
2400.8547,2.0548859494153504
2402.246,6.950553384202877
2403.6366,7.996243435228521
2405.0265,6.941948177212822
2406.4156,4.987659604913915
2407.8041,3.8333696436704514
2409.1918,7.479070168944503
2410.5789,5.874753017864521
2411.9652,4.770409952768219
2413.3508,7.666032677245852
2414.7358,8.711612847183574
2416.12,4.307142041807282
2417.5035,7.602611753226753
2418.8863,4.648013430480418
2420.2684,6.24333844658058
2421.6497,9.088578128059495
2423.0304,4.53372373901594
2424.4104,4.178766452663055
2425.7896,2.3736973968767217
2427.1682,3.818507657745215
2428.546,7.113188297619843
2429.9232,4.657730340666873
2431.2996,4.352124739920839
2432.6753,6.996362401838937
2434.0503,6.740434189357202
2435.4246,0.38433089544813015
2436.7982,6.078043245679908
2438.1711,6.771561961777451
2439.5433,4.864877704685242
2440.9148,5.957981067632176
2442.2856,4.400862595198447
2443.6557,3.7435127723844346
2445.025,8.785922040181958
2446.3937,6.878080802147764
2447.7617,5.919979373979416
2449.1289,7.6616080025937805
2450.4955,5.852956875707918
2451.8613,2.344016104422792
2453.2265,-1.1652242586901451
2454.5909,8.17522581550044
2455.9546,7.465367996716168
2457.3177,7.755203872926472
2458.68,1.7947349574471616
2460.0416,8.63396268604194
2461.4025,2.822888476527325
2462.7627,4.9615136603801915
2464.1222,5.3498395408485635
2465.4811,5.237867371565329
2466.8392,8.275598352665028
2468.1966,6.063033631903551
2469.5533,6.250174274280809
2470.9093,4.737021284166389
2472.2645,4.873575603428208
2473.6191,4.409838126563926
2474.973,6.64580969933553
2476.3262,8.681491123406587
2477.6787,3.8668831339826397
2479.0305,8.351986379454331
2480.3816,10.036801469543477
2481.7319,8.871328930452066
2483.0816,6.805569188014118
2484.4306,4.289522579350418
2485.7789,5.823189373526077
2487.1264,5.806569796711059
2488.4733,6.839664016843429
2489.8195,3.522472143795582
2491.165,5.604994219043263
2492.5097,6.087230248837585
2493.8538,7.96918018337972
2495.1972,6.800843911998598
2496.5398,10.932221244331402
2497.8818,6.863311922006858
2499.2231,8.994115577331492
2500.5637,5.174631773978817
2501.9035,6.754859985681215
2503.2427,6.384799634424802
2504.5812,5.464450074647111
2505.919,4.493810596937713
2507.256,6.372880437241655
2508.5924,5.601658786565935
2509.9281,8.230144772188801
2511.2631,8.608337465371925
2512.5974,5.686235855075623
2513.9309,7.063838844176843
2515.2638,1.4911452786902188
2516.596,10.168153933992059
2517.9275,1.4948635705472668
2519.2583,7.1712728471392
2520.5884,4.5973804076026425
2521.9178,6.723184824059629
2523.2465,9.298684622658392
2524.5745,4.7238782623153455
2525.9018,6.498764108960067
2527.2284,6.073340481283381
2528.5543,2.5976056329883974
2529.8796,10.421557757044873
2531.2041,9.845195020446539
2532.5279,5.11851548597155
2533.851,7.891517117946201
2535.1735,9.014197829511637
2536.4952,3.48655545489391
2537.8163,3.2585877381771056
2539.1366,4.680292388579822
2540.4562,6.001667082734784
2541.7752,4.322709450471855
2543.0935,5.493417061604319
2544.411,4.413787442718366
2545.7279,9.58381806546602
2547.0441,8.953506357361512
2548.3596,8.42284965008087
2549.6744,4.491845185765172
2550.9885,6.260490122326985
2552.3019,3.6287815727605093
2553.6146,5.5967165874550915
2554.9266,2.8142921805122683
2556.2379,6.331505310066412
2557.5485,4.1483529061089754
2558.8585,8.614831835316416
2560.1677,5.230938922881606
2561.4762,4.846670907849202
2562.7841,7.46202447695439
2564.0913,8.476996268465712
2565.3977,8.291582846031446
2566.7035,8.655780688529887
2568.0086,6.319586191923506
2569.313,9.632995665617038
2570.6167,10.146005355819433
2571.9197,9.258611412409614
2573.222,6.870809883806494
2574.5236,8.732596725842846
2575.8246,10.69396782564337
2577.1248,8.904918983006809
2578.4244,7.715445890792225
2579.7232,7.575544152809535
2581.0214,9.235209295714192
2582.3189,8.544436770406229
2583.6157,6.153221935433628
2584.9118,7.761560063900006
2586.2072,8.219446367376797
2587.5019,7.076875979819874
2588.7959,5.283843952990722
2590.0893,8.540345267882081
2591.3819,10.39637485264825
2592.6739,11.451927550040146
2593.9652,8.856998098844919
2595.2557,12.111581123330495
2596.5456,8.015671159194866
2597.8348,10.669262621020245
2599.1234,12.622349843232179
2600.4112,11.074927053563563
2601.6983,10.276988353523869
2602.9848,17.27852773387329
2604.2705,4.329539082602139
2605.5556,9.680016114915517
2606.84,9.379952502723114
2608.1237,12.779341821134494
2609.4067,9.528177551459684
2610.689,10.326453047215345
2611.9707,8.374161566636396
2613.2516,9.821296264693238
2614.5319,5.567850212614722
2615.8115,6.513816383416767
2617.0903,8.759187694436811
2618.3685,10.553956997874145
2619.6461,4.798117058336253
2620.9229,8.691660534891014
2622.199,6.934580038625178
2623.4745,7.826868093708917
2624.7493,7.218517154966641
2626.0234,11.309519598954068
2627.2968,11.099867730041815
2628.5695,8.789553739505301
2629.8415,10.428569707621307
2631.1128,5.816907626771076
2632.3835,7.754559385050193
2633.6535,10.291516812385233
2634.9228,9.12777166115714
2636.1914,7.263315580831765
2637.4593,7.398140129597202
2638.7265,7.682236793008435
2639.9931,7.565596982639072
2641.259,11.44821203324036
2642.5242,9.180073203907611
2643.7887,8.711171639254005
2645.0525,9.69149839209203
2646.3156,6.571044428122434
2647.5781,10.499800616131033
2648.8398,5.877757759193209
2650.1009,3.854906555386357
2651.3613,10.981237644010292
2652.6211,10.106741625815772
2653.8801,7.281408991741202
2655.1385,4.855230131657564
2656.3961,8.928195362621821
2657.6531,10.90029495313862
2658.9094,7.37151908243068
2660.1651,9.641857820717803
2661.42,8.061301164504606
2662.6743,9.079839013877155
2663.9279,9.147461188308526
2665.1808,10.36415741647339
2666.433,6.929917335571872
2667.6846,9.644730479162547
2668.9354,7.85858631150483
2670.1856,9.77147420041085
2671.4351,7.483383435106887
2672.6839,4.644303207104485
2673.9321,9.404222633081403
2675.1795,15.26313078327236
2676.4263,11.371016633869864
2677.6724,12.47786900843517
2678.9179,11.283676616819328
2680.1626,10.238428044094782
2681.4067,10.542111762497193
2682.6501,10.39471614187795
2683.8928,12.646229446667363
2685.1348,10.146639837348587
2686.3761,10.195935347942509
2687.6168,10.694103911003623
2688.8568,8.991133357127111
2690.0961,10.187011409967106
2691.3348,7.0817257032664855
2692.5727,3.775263768897986
2693.81,5.767613067917104
2695.0466,7.508761023626718
2696.2826,7.998695001653587
2697.5178,6.2374022925368635
2698.7524,8.474870106828774
2699.9863,9.761085592707474
2701.2195,8.996035813602482
2702.452,10.729707735332461
2703.6839,6.812088233755738
2704.9151,9.89316407743361
2706.1456,5.572921966806518
2707.3755,7.151348503383318
2708.6046,12.578430232943624
2709.8331,12.504153629753617
2711.0609,9.478505042295154
2712.2881,10.101470694008626
2713.5145,11.273036713549331
2714.7403,13.09318912855796
2715.9654,13.711913853944829
2717.1899,11.02919667368834
2718.4136,15.795023234647786
2719.6367,17.309379073390502
2720.8591,16.322249568533593
2722.0809,18.583619925600345
2723.3019,18.793475186891612
2724.5223,20.901800208872025
2725.7421,17.15857966007146
2726.9611,21.51379800000184
2728.1795,15.51743951658927
2729.3972,19.919488282621934
2730.6142,11.219928215713615
2731.8306,16.018743034283283
2733.0462,14.365916344550612
2734.2612,13.361431592547866
2735.4756,10.555272080648166
2736.6892,10.197420977610314
2737.9022,12.087861346640423
2739.1145,7.376576148970429
2740.3262,6.6135482249536395
2741.5372,10.648760341177613
2742.7475,10.782195198094456
2743.9571,6.213835389668716
2745.1661,9.093663402043
2746.3744,5.07166165922164
2747.582,6.097812494272304
2748.7889,8.522098189546135
2749.9952,6.394500966416132
2751.2008,4.815002961034345
2752.4057,5.583586245607826
2753.61,6.850232844193634
2754.8136,5.164924725012995
2756.0165,6.0776437877848295
2757.2188,2.288371880578822
2758.4204,4.247090790688233
2759.6213,-0.4462177174773956
2760.8215,4.908428078020592
2762.0211,3.561014356835834
2763.22,3.66152724953772
2764.4182,3.2099528510855038
2765.6158,4.7062772198232
2766.8127,4.600486381995289
2768.009,3.292566316783528
2769.2045,2.082502957364845
2770.3994,1.470282203990486
2771.5936,4.105889936086719
2772.7872,2.8393120183769582
2773.9801,-0.679465725474266
2775.1723,1.3995424998044967
2776.3639,-0.4236707226527443
2777.5548,4.350887176292616
2778.745,1.0232129982496971
2779.9346,2.443303501318738
2781.1235,-1.088844566632119
2782.3117,3.22676551783227
2783.4992,0.7401413557042318
2784.6861,0.5512905157084802
2785.8723,-0.23977944083168268
2787.0579,2.01693904189419
2788.2428,0.421455915093091
2789.427,-1.976218890197302
2790.6106,0.723924552846114
2791.7935,-1.1780840865268374
2792.9757,-1.132215146305576
2794.1573,1.961572804580527
2795.3382,-0.1466674919686497
2796.5184,-0.15688331366892783
2797.698,-0.7190204730278893
2798.8769,5.96697678471115
2800.0551,-0.3488286026806122
2801.2327,-1.3163737571017577
2802.4096,4.064407684346861
2803.5859,-0.05640476486178869
2804.7615,0.321268368101137
2805.9364,3.797507119548115
2807.1106,1.3723915225789085
2808.2842,6.346001572318222
2809.4572,7.168417250166897
2810.6294,7.789718474065737
2811.801,3.6599850902714266
2812.972,7.929296867143435
2814.1423,11.99773353644148
2815.3119,11.215374750632293
2816.4808,16.482300042205296
2817.6491,15.748588831496129
2818.8167,16.314320374017477
2819.9837,22.779573767796144
2821.15,28.34442794771578
2822.3157,35.158961620864304
2823.4807,41.37325321088534
2824.645,46.937380789832964
2825.8086,53.80142201602872
2826.9716,63.21545407842039
2828.134,67.07955362794155
2829.2957,72.99379668337127
2830.4567,82.15825859269309
2831.617,81.62301397395257
2832.7767,88.38813662361274
2833.9358,83.95369952190651
2835.0941,82.81977476518546
2836.2519,83.08643361026418
2837.4089,78.15374648575954
2838.5653,73.97178298942413
2839.7211,73.19061193747302
2840.8761,69.31030140640358
2842.0306,68.88091874080695
2843.1843,67.45253059217136
2844.3374,63.62520292317581
2845.4899,67.2490010219741
2846.6417,70.57398954046793
2847.7928,74.55023245806916
2848.9433,74.9777930484496
2850.0931,72.90673383977887
2851.2422,77.18711661044861
2852.3907,75.46900240978327
2853.5385,77.05245151523606
2854.6857,83.38752344957021
2855.8323,75.72427696502444
2856.9781,83.16276997996232
2858.1233,84.70305965550457
2859.2679,90.84520232114434
2860.4118,93.98925345934417
2861.555,98.08526764411454
2862.6976,100.48329850957356
2863.8395,98.13339870898653
2864.9808,105.98561989078593
2866.1214,102.84001272207018
2867.2614,102.24662681008158
2868.4007,108.40551073366231
2869.5393,109.0167120491882
2870.6773,107.43027722898016
2871.8146,113.79625165519184
2872.9513,117.26467963567424
2874.0874,115.43560434031579
2875.2227,120.55906776635824
2876.3574,113.7351107566872
2877.4915,118.21377294859772
2878.6249,121.14509284203373
2879.7577,126.72910775480136
2880.8898,123.91585379325592
2882.0212,129.25536579646163
2883.152,130.1976773643242
2884.2821,129.69282080419566
2885.4116,135.34082712145133
2886.5405,136.59172602453833
2887.6686,143.0455458684956
2888.7962,137.05231364244474
2889.923,139.26205490505197
2891.0493,137.0247938444603
2892.1748,138.54055325619228
2893.2997,139.05935456552254
2894.424,135.08121781232018
2895.5476,138.35616164586065
2896.6706,139.48420336460745
2897.7929,138.5653588834623
2898.9145,137.999642722485
2900.0355,136.6870680160818
2901.1559,134.52764651866255
2902.2756,138.22138861776637
2903.3946,138.46830335565605
2904.513,131.86839839238036
2905.6308,135.72168000330512
2906.7479,130.67815314511225
2907.8643,135.38782141726682
2908.9801,135.45068711245239
2910.0953,131.81675116947434
2911.2098,129.78601317263116
2912.3236,137.90847138805398
2913.4368,137.9341227840136
2914.5494,129.76296294969632
2915.6613,129.74498609494708
2916.7725,130.23018513198127
2917.8831,128.6685516755644
2918.9931,121.91007603816016
2920.1024,121.65474724554676
2921.211,114.85255310440161
2922.319,119.90348020485469
2923.4264,117.70751398851051
2924.5331,115.01463869793871
2925.6391,114.07483739863389
2926.7445,120.03809200594418
2927.8493,113.55438329446943
2928.9534,118.27369083842856
2930.0569,113.84599307649668
2931.1597,119.67126726461206
2932.2619,119.74948952025294
2933.3634,123.18063476418506
2934.4643,121.8146767196792
2935.5645,125.15158787819983
2936.6641,128.6413395130647
2937.763,127.33390164607572
2938.8613,124.5292430126213
2939.959,121.977331074751
2941.056,123.12813204922186
2942.1523,116.38161093301767
2943.248,111.23773149184093
2944.3431,99.89645632757802
2945.4375,94.35774692973804
2946.5313,89.3215637888656
2947.6244,77.88786645192776
2948.7169,75.30661357267606
2949.8087,67.57776302598334
2950.8999,60.151271933656346
2951.9904,60.02709674172422
2953.0803,53.05519329470337
2954.1696,54.8855168368393
2955.2582,48.918022081825576
2956.3462,44.15266319450065
2957.4335,44.83939385052271
2958.5202,45.22816728402339
2959.6062,46.418936280740425
2960.6916,43.96165317412985
2961.7764,45.85626983345836
2962.8605,41.40273768837614
2963.9439,48.00100770997069
2965.0267,49.201030455302146
2966.1089,43.90275600142056
2967.1905,43.80613393336571
2968.2714,41.811113397149825
2969.3516,41.21764310072376
2970.4312,44.62567133392733
2971.5102,43.935145974423904
2972.5885,41.496014453620134
2973.6662,40.10822376357129
2974.7432,45.121720481372456
2975.8196,44.28645078303652
2976.8954,44.75236039335917
2977.9705,43.31939459427161
2979.045,46.18749822018146
2980.1188,42.456615672302384
2981.192,45.0266908899731
2982.2645,44.0476673879662
2983.3364,42.119488230787354
2984.4077,42.29209604246555
2985.4783,39.91543302583494
2986.5483,38.33944096080877
2987.6177,36.514061228145934
2988.6864,34.98923482521095
2989.7545,31.564902384227725
2990.8219,25.341004187527865
2991.8887,27.117480201793917
2992.9548,25.594270140298427
2994.0204,23.671313445139155
2995.0852,20.198549302471157
2996.1495,17.92591666173638
2997.2131,15.003354270391256
2998.276,14.13080069663308
2999.3383,12.05819435862562
3000.4,10.235473533224642
3001.4611,11.06257637670398
3002.5215,7.589440942982748
3003.5812,8.616005175354289
3004.6404,5.842206941217565
3005.6989,4.967984021811489
3006.7567,3.0932741399529284
3007.8139,6.71801496877891
3008.8705,3.1421441504937278
3009.9264,-0.7344007398784598
3010.9818,2.5383178412650835
3012.0364,0.4102447741904527
3013.0905,0.8813249137805954
3014.1439,0.7015031108160059
3015.1966,-1.1292757927360633
3016.2487,3.4389330380766303
3017.3002,-0.19391428032853142
3018.3511,0.47213833407653283
3019.4013,-1.9129510994764622
3020.4509,-1.599224566477183
3021.4998,0.11329505796619088
3022.5481,0.12460087499887607
3023.5958,1.234685984633174
3024.6428,-0.006456514364629129
3025.6892,-0.29883353557505643
3026.735,1.307548071921925
3027.7802,0.6626844443933635
3028.8247,-0.18342829496915414
3029.8685,2.269205970399117
3030.9118,1.770585189511575
3031.9544,0.970707288689578
3032.9963,1.1695701765486497
3034.0376,3.1671717519972447
3035.0783,-1.1364900977518708
3036.1184,2.4085824828423483
3037.1578,4.1023987028570055
3038.1966,2.694967747283396
3039.2348,2.386298760088849
3040.2723,0.5764008582910272
3041.3092,2.1652831350446107
3042.3455,2.3029546777402636
3043.3811,4.939424552115849
3044.4161,2.6247018008796985
3045.4505,3.6087954173459167
3046.4842,2.541714368581573
3047.5173,3.9734675855658104
3048.5498,3.15406397386063
3049.5816,6.883512399293355
3050.6128,7.511821696150701
3051.6434,6.6890006298842515
3052.6734,4.4150578908273985
3053.7027,3.2400021024235386
3054.7314,4.913841843965475
3055.7594,6.936585662346005
3056.7868,8.208242055319516
3057.8136,10.028819451274536
3058.8398,6.498326196517198
3059.8653,8.916770537065414
3060.8902,10.284160653953858
3061.9145,7.300504639049507
3062.9381,9.41581048137774
3063.9612,7.580086096958887
3064.9835,7.543339307655199
3066.0053,8.555577859528082
3067.0264,9.816809423205548
3068.0469,11.027041583759853
3069.0668,11.236281828095159
3070.086,11.044537532845212
3071.1046,11.35181596228097
3072.1226,11.058124270228006
3073.1399,10.513469496993764
3074.1567,8.167858572304441
3075.1727,6.121298320751549
3076.1882,7.373795485248021
3077.203,10.225356747493807
3078.2173,9.875988715450925
3079.2308,9.375697894827809
3080.2438,8.174490692573038
3081.2561,6.622373421878201
3082.2678,8.769352314190003
3083.2789,7.365433534731418
3084.2893,7.360623161031901
3085.2991,8.004927196966591
3086.3083,4.148351572804387
3087.3169,6.790902138764929
3088.3248,5.78258470358435
3089.3321,6.0234050080897585
3090.3388,5.46336873528243
3091.3449,7.8524815079296
3092.3503,7.390748894164824
3093.3551,9.628176383596832
3094.3593,8.364769391926894
3095.3629,6.60053323857451
3096.3658,4.635473159311497
3097.3681,3.969594323904346
3098.3698,2.3529018557648165
3099.3708,3.98540083860874
3100.3713,6.867096332622925
3101.3711,3.4479933581401845
3102.3702,8.028096866822372
3103.3688,5.857411775851405
3104.3667,4.385942922128249
3105.364,3.2136950839797596
3106.3607,5.54067299587336
3107.3568,3.7668813601395303
3108.3522,4.942324823702037
3109.347,3.7670079958158382
3110.3412,4.990935436312652
3111.3348,5.1141116673541145
3112.3277,2.0365411611925204
3113.32,4.558228338939054
3114.3117,3.9791776013394866
3115.3028,0.9993933035573139
3116.2932,3.81887976096427
3117.2831,2.3376412789381575
3118.2723,4.705682124667984
3119.2608,6.123006541966355
3120.2488,1.78961872758906
3121.2361,3.3555228170618197
3122.2229,3.7707229280141856
3123.209,3.5352231445204776
3124.1944,2.1490275129477947
3125.1793,2.3621400443110137
3126.1635,3.274564728134738
3127.1471,4.236305530322182
3128.1301,2.5973663840309023
3129.1125,3.957751180055407
3130.0942,4.167463783216544
3131.0753,5.876508018757649
3132.0558,4.73488767024743
3133.0357,4.692606462489515
3134.015,4.099668072938655
3134.9936,4.456076132123538
3135.9716,2.6618342295761765
3136.949,5.566945910267828
3137.9258,2.721414692551411
3138.902,5.2752440391104
3139.8775,3.378437385414114
3140.8524,2.4309981141794363
3141.8267,3.0329295743388833
3142.8004,-0.46576490948501537
3143.7735,2.184917957000984
3144.7459,2.2349861210815725
3145.7178,2.3844475081922587
3146.689,6.0833100214187
3147.6596,2.831581540002073
3148.6295,7.029269882350471
3149.5989,2.5263828385561666
3150.5676,4.122928128418746
3151.5357,3.3189134464739656
3152.5032,3.764346446028301
3153.4701,3.709234747199102
3154.4364,2.4535859324602605
3155.402,3.647407547193321
3156.367,3.7407071122439763
3157.3315,2.9834921119838445
3158.2952,3.3257699933774756
3159.2584,1.4175481735545006
3160.221,4.35883403638685
3161.1829,2.1496349515709783
3162.1442,2.6399582452149986
3163.105,4.279811221930676
3164.065,5.66920115993019
3165.0245,5.208135294627613
3165.9834,6.196620804745004
3166.9416,5.834664816923072
3167.8993,3.822274395836329
3168.8563,7.059456547812633
3169.8127,3.6462182409571113
3170.7684,3.5825663727803256
3171.7236,4.168507804330656
3172.6782,7.104049360830822
3173.6321,3.539197825818465
3174.5854,4.023959911790733
3175.5381,6.658342295852804
3176.4902,2.492351614870257
3177.4417,1.2259944391252517
3178.3926,4.609277313976433
3179.3428,2.392206772522499
3180.2924,6.67478930176938
3181.2415,2.7070313648009368
3182.1899,5.088939357953141
3183.1377,3.520519650491646
3184.0848,6.301778560792718
3185.0314,8.282722372027418
3185.9773,6.113357304349041
3186.9227,3.4436894950836434
3187.8674,6.073725020423714
3188.8115,6.1534699221248506
3189.755,5.482930181205402
3190.6979,5.812111717149023
3191.6402,5.141020394610059
3192.5818,7.16966202012175
3193.5229,7.948042348807132
3194.4633,7.676167064092613
3195.4031,5.854041769924184
3196.3423,5.431671993486158
3197.2809,4.409063203422438
3198.2189,4.286220814060206
3199.1563,5.363150195636013
3200.0931,4.039856675524201
3201.0292,3.966345527467608
3201.9648,6.842621984810506
3202.8997,4.868691241233711
3203.834,6.19455842199182
3204.7677,6.570228603652514
3205.7008,3.445706800837896
3206.6333,2.3709979624677775
3207.5652,9.746107003004909
3208.4964,6.921038813202054
3209.4271,5.695798186350915
3210.3571,4.620389846532807
3211.2865,5.1448184608710585
3212.2154,2.9190886502851066
3213.1436,6.793204984246201
3214.0712,6.017172003034704
3214.9982,7.540994178998931
3215.9246,6.66467592431547
3216.8503,6.738221575750973
3217.7755,6.361635403425328
3218.7001,7.73492161007621
3219.624,5.958084334824934
3220.5473,7.481127639443605
3221.4701,5.954055526123477
3222.3922,4.326871922244527
3223.3137,4.5495806956461795
3224.2346,6.572185670899141
3225.1549,3.9446906270783093
3226.0746,4.117099277536723
3226.9937,7.789415296180519
3227.9121,6.711642315744841
3228.83,7.233783891070672
3229.7473,7.255843509882584
3230.6639,5.827824587567297
3231.5799,7.04973046695311
3232.4954,8.071564432590067
3233.4102,7.343329698530917
3234.3244,5.6150293981127595
3235.238,6.836666591239394
3236.151,9.05824428166433
3237.0634,9.029765404774414
3237.9752,8.051232805374056
3238.8864,8.772649237970013
3239.797,7.494017376556718
3240.7069,9.2153398074021
3241.6163,5.0366190418339105
3242.5251,4.357857499026501
3243.4332,8.029057547788028
3244.3408,6.3502215133480835
3245.2477,7.271351640645678
3246.154,6.592450111117612
3247.0598,7.663519033487171
3247.9649,9.034560450553126
3248.8694,7.505576328479056
3249.7733,5.626568543082941
3250.6766,7.897538895127002
3251.5793,5.918489129107769
3252.4814,10.639420910546395
3253.3829,6.060335845779134
3254.2838,4.481235434748036
3255.1841,10.552121116791788
3256.0838,7.472994286436728
3256.9829,9.043856232687972
3257.8814,6.614708169820702
3258.7792,7.385551221671528
3259.6765,3.6563864459299826
3260.5731,5.127214826430085
3261.4692,6.848037310441986
3262.3647,7.318854793963688
3263.2595,6.189668104512821
3264.1538,8.810477996418461
3265.0474,6.881285162113005
3265.9404,8.852090205924068
3266.8329,7.822893663366411
3267.7247,6.143695981433892
3268.616,7.91449752889143
3269.5066,7.8352986130669855
3270.3966,6.456099462143545
3271.286,8.526900225951103
