RamanShift,CorrectedData
30.1047,1378.4162089205397
32.3739,1281.8480064808825
34.6426,1184.479790257063
36.9109,1085.5115336464396
39.1787,990.9931982015712
41.4461,894.6247346199021
43.7131,798.6060836889443
45.9796,702.3871772499618
48.2456,610.967939158157
50.5112,514.49828624486
52.7764,417.3281292317214
55.0411,327.107373695409
57.3054,227.23592103930872
59.5692,133.7136693957329
61.8326,45.59051462463445
64.0955,-54.18364875117035
66.3579,-139.45892666477033
68.6199,-224.2348837546034
70.8815,-298.1596914644302
73.1426,-322.3292811315231
75.4032,-229.78660547783642
77.6634,163.37860284419344
79.9231,1227.3289067503183
82.1824,3639.5768675225045
84.4412,8076.5850341694295
86.6995,14215.865919304002
88.9574,20196.68195477328
91.2148,24281.845430265672
93.4717,26152.56843350275
95.7282,26445.012809387652
97.9842,26209.64014129782
100.2398,25565.911748160568
102.4949,24806.738686806817
104.7495,23919.081758408367
107.0036,23024.051516069638
109.2573,22145.55827370422
111.5105,21310.9121149852
113.7632,20486.12290213008
116.0154,19805.90028424724
118.2672,19269.35370558384
120.5185,18720.592412328027
122.7693,18236.97545797442
125.0197,17839.51170881172
127.2696,17460.709848758856
129.519,17182.07838333966
131.7679,16884.375643470867
134.0163,16608.50978824841
136.2642,16316.588807924498
138.5117,15952.470526666215
140.7587,15571.012605474776
143.0052,15270.52254582669
145.2512,14917.607693488342
147.4967,14597.125241520891
149.7417,14331.582233809415
151.9863,14104.535568267742
154.2304,13937.29199949389
156.4739,13712.608141040511
158.717,13533.690467087356
160.9596,13281.64531468807
163.2017,12933.328885559426
165.4433,12547.847248601727
167.6844,12123.45634338199
169.925,11717.411983988759
172.1651,11267.269863276026
174.4047,10890.985556923659
176.6439,10542.914527938821
178.8825,10233.912130418837
181.1206,9964.333613031882
183.3582,9725.23412210701
185.5954,9544.868704329941
187.832,9361.442309134052
190.0681,9235.309790504043
192.3037,9158.97590881019
194.5388,9056.19533206967
196.7734,9001.022636709913
199.0075,9005.962308596387
201.2411,9048.268743584338
203.4742,9023.396247469398
205.7068,9105.399035564511
207.9389,9116.43123294866
210.1704,9191.746873646845
212.4015,9224.549900519753
214.632,9322.994164510605
216.862,9425.583424317123
219.0915,9498.971345407097
221.3205,9598.511498992482
223.549,9742.207361295517
225.777,9942.362312553345
228.0044,10201.829635581013
230.2314,10521.362513769971
232.4578,10811.314028493354
234.6837,11056.437155910691
236.909,11172.884764068363
239.1339,11075.309610448392
241.3582,10807.86434080396
243.582,10392.751490135146
245.8053,10055.02348536339
248.0281,9676.882649482628
250.2503,9398.531204936557
252.472,9221.871277400054
254.6932,9155.154898562698
256.9139,9020.634007895344
259.134,9002.510453317322
261.3536,8976.935992541608
263.5727,9017.212293256085
265.7912,8935.690933379281
268.0092,8931.923400657593
270.2267,8872.011093480518
272.4436,8797.25532091832
274.6601,8651.357303321163
276.8759,8542.81817306665
279.0913,8405.388976018818
281.3061,8266.920672613529
283.5204,8234.764139232773
285.7341,8206.620169589316
287.9473,8295.739475048304
290.16,8430.272684908667
292.3721,8656.270345511968
294.5837,8966.482918897038
296.7947,9248.260780540008
299.0052,9379.85421625218
301.2152,9211.963419362253
303.4246,8815.83848940039
305.6334,8261.329433777117
307.8418,7670.386171744598
310.0495,7208.058539941696
312.2568,6819.996298303413
314.4635,6523.7991346841845
316.6696,6341.71666873848
318.8752,6181.8484548827855
321.0802,6187.093984116424
323.2847,6191.352685620241
325.4887,6221.723926704142
327.692,6124.807012764508
329.8949,5984.201186980483
332.0972,5640.005631283142
334.2989,5344.019467761567
336.5001,5002.941762104776
338.7007,4765.521526561597
340.9008,4586.257723351446
343.1003,4422.099267038531
345.2992,4328.595026324481
347.4976,4212.743825689948
349.6955,4153.744446329625
351.8927,4154.945627310779
354.0895,4074.396066163232
356.2856,4097.594418867362
358.4812,4016.1393006595918
360.6763,3993.679285800399
362.8707,3936.5129083888805
365.0646,3931.6386625873492
367.258,3873.705003192994
369.4508,3895.910345686625
371.643,3987.653066812003
373.8346,3927.2815043537903
376.0257,3888.693956220115
378.2162,3769.0386810463006
380.4062,3613.5638985807273
382.5956,3462.117790881399
384.7844,3303.148503870687
386.9726,3175.004148849799
389.1603,3054.3828040884637
391.3474,2991.132516106374
393.5339,2926.8013008793932
395.7199,2843.387144472068
397.9052,2844.888003680926
400.09,2840.1018068686353
402.2743,2891.6764539489886
404.4579,2947.9598164347644
406.641,3095.24973692198
408.8235,3261.3440285270444
411.0054,3481.3904734138887
413.1868,3861.1368211330046
415.3675,4119.180786420982
417.5477,4239.570045403047
419.7273,4256.552233012626
421.9064,4103.874941787444
424.0848,3953.2857216997145
426.2627,3736.7820816829044
428.4399,3396.0614911376233
430.6166,3044.7713820966746
432.7928,2626.15915263225
434.9683,2319.622170368846
437.1432,2039.3577766693652
439.3176,1868.913289700493
441.4914,1715.3860072353382
443.6645,1642.5232083578867
445.8371,1604.6221549982565
448.0091,1526.8300926613465
450.1806,1465.494250805832
452.3514,1378.7118436220971
454.5216,1369.0300706455819
456.6913,1306.2961176246154
458.8603,1310.4071566172224
461.0288,1357.710346618469
463.1967,1321.002833519362
465.3639,1433.1317496337979
467.5306,1490.994214065655
469.6967,1610.2373315874938
471.8622,1672.158192061952
474.0271,1800.9538692492897
476.1914,1846.7214201882016
478.3551,1820.2078839078458
480.5182,1776.9102809701708
482.6807,1782.9756137350632
484.8426,1883.8008667932972
487.0039,2163.283006905911
489.1647,2544.668981995934
491.3248,2909.9557183535744
493.4843,3093.590116822361
495.6432,3047.3190491462738
497.8015,2947.8893561333934
499.9592,2911.5478481186146
502.1163,2847.2413059579467
504.2728,2568.5164813919273
506.4287,2277.5700976886837
508.5839,1834.2488524311866
510.7386,1517.9494204267066
512.8927,1362.1684581400405
515.0461,1219.5526068564868
517.199,1184.5984942396608
519.3512,1230.9527357576608
521.5029,1307.5119350326004
523.6539,1403.8226833770696
525.8043,1432.5315590285445
527.9541,1420.2351261862786
530.1033,1365.1299347242111
532.2519,1345.2625203139487
534.3999,1451.7294049757966
536.5472,1679.5270972774524
538.694,2073.85209126932
540.8401,2633.2508642065313
542.9856,3038.769872605715
545.1305,3181.1555466509944
547.2748,3034.6042861388014
549.4185,2679.2624590540217
551.5615,2348.826403035493
553.704,2244.742428929445
555.8458,2194.1568240938414
557.987,2260.365853439227
560.1276,2285.6157599345843
562.2675,2380.402763945245
564.4069,2492.1230629803886
566.5456,2586.0728307451755
568.6837,2537.598216023547
570.8212,2209.7953417387125
572.958,1815.760305437916
575.0942,1431.3391825704493
577.2299,1232.8780304280117
579.3648,1177.3228919889189
581.4992,1225.0697979027009
583.6329,1363.51476704567
585.766,1607.0538060434483
587.8985,1733.1829078865067
590.0304,1739.7480494947831
592.1616,1676.5451904563906
594.2922,1565.3202729619643
596.4222,1387.7692224366947
598.5515,1243.5379486525617
600.6802,1073.5723475038758
602.8083,852.6183024495658
604.9358,858.6716862128433
607.0626,792.7783629907372
609.1888,794.6341883935766
611.3144,768.1350101039079
613.4393,698.9766678579508
615.5636,655.0549937105807
617.6873,548.8158127269216
619.8103,509.60494342154925
621.9327,408.31819882088894
624.0544,357.9513868553222
626.1756,286.4503113720566
628.2961,258.61077263878724
630.4159,169.2285680587247
632.5351,127.69949244896816
634.6537,97.46933893433925
636.7716,74.93389936266067
638.8889,92.38896460707474
641.0056,128.5303247913762
643.1216,96.70376911547828
645.237,154.65508549400874
647.3518,113.13006087454778
649.4659,121.17448065814278
651.5793,123.88412911455998
653.6922,121.90478930182508
655.8043,107.38224303912466
657.9159,83.16227092660847
660.0268,6.690652490600769
662.137,-27.636833574182674
664.2466,-5.374475412656466
666.3556,-35.476285077755165
668.4639,-72.19622093142061
670.5716,-31.987886927505315
672.6786,37.945834220379766
674.785,77.05237935760306
676.8907,136.0791849500929
678.9958,218.62368669326315
681.1002,184.183318921745
683.204,208.40551378393684
685.3072,114.537701586416
687.4097,109.92731055169679
689.5115,89.12176775693115
691.6127,69.41849917999753
693.7132,-4.8350700924384
695.8131,-36.0915156678966
697.9123,-38.00336485155094
700.0109,-72.97278439434012
702.1089,-75.75156139358842
704.2061,-38.84075394851425
706.3028,-19.14066340023419
708.3987,49.84879692925642
710.4941,130.57790493318134
712.5887,286.2469380062812
714.6827,526.9561722375256
716.7761,870.7558808534232
718.8688,1197.446331810912
720.9608,1357.42778435939
723.0522,1435.800485773787
725.1429,1302.564669754769
727.233,1126.8205556450084
729.3224,915.6683497615195
731.4112,690.0582471531252
733.4993,518.8404337119628
735.5867,355.8650884295894
737.6735,236.63238510917654
739.7596,156.34249399524379
741.845,111.1955829659928
743.9298,76.84181833620278
746.014,57.73136530870579
748.0974,65.36438831791565
750.1802,65.34105122094115
752.2624,104.2615172212445
754.3439,130.92594886889856
756.4247,213.08450767135764
758.5048,369.8873538268199
760.5843,599.2346454026447
762.6631,949.076536767323
764.7413,1442.7631762970013
766.8188,2031.3947028770708
768.8956,2489.1712409652973
770.9718,2849.4928947055123
773.0473,2672.9097433498337
775.1221,2393.2218376554556
777.1962,2038.379201650483
779.2697,1855.2318354308009
781.3426,1908.229718708515
783.4147,2166.4228126434155
785.4862,2417.611059313005
787.557,2401.194379130564
789.6271,2062.872668333268
791.6966,1536.6457991463576
793.7654,994.913623166347
795.8335,695.2759766233085
797.901,462.9326857981814
799.9678,382.33357001914374
802.0339,365.62844398505877
804.0993,413.5171185714571
806.1641,392.3994009975904
808.2282,362.37509434754793
810.2916,256.1939977814309
812.3544,188.75590683559494
814.4164,102.01061448447217
816.4778,181.5579118149344
818.5385,155.69758889375044
820.5986,257.6794339721182
822.658,410.3532337442648
824.7166,564.8687723276253
826.7747,836.625829736111
828.832,1093.1241803349421
830.8886,1272.7635901230915
832.9446,1412.943814168295
834.9999,1435.2645948106565
837.0545,1384.925660260853
839.1085,1360.876724376907
841.1618,1270.917487167595
843.2143,1226.5976350329347
845.2662,1107.266841663777
847.3175,1035.5247684850037
849.368,949.8210658488297
851.4179,851.1053737522234
853.467,730.4273226939476
855.5155,628.03653466172
857.5633,513.7826243389845
859.6105,433.815200128829
861.6569,385.6838652965216
863.7027,329.938218769179
865.7478,337.0778556170826
867.7922,356.9523676111312
869.8359,393.46134315145355
871.8789,492.95436706866894
873.9212,650.9810202587778
875.9629,810.7408786882461
878.0039,970.9335118137406
880.0441,1075.20848098452
882.0837,1116.6153378405124
884.1226,1070.9036232695635
886.1609,1004.822866993376
888.1984,950.7725880246162
890.2352,1008.4522953277228
892.2714,982.1114883594164
894.3069,956.5496564918958
896.3416,863.3162792762505
898.3757,803.9608266980886
900.4091,779.082760109859
902.4418,832.1815328244065
904.4739,845.4565903637395
906.5052,870.9573699280718
908.5358,778.0833002630498
910.5658,660.5338014047484
912.595,500.15828560842056
914.6236,346.7061585239808
916.6515,293.62682079975457
918.6786,281.2696696170242
920.7051,359.334099220805
922.7309,462.4695010434152
924.756,524.6752629238545
926.7804,604.1507680764262
928.8041,585.9953944686895
930.8272,651.5085140267056
932.8495,569.3394928165872
934.8711,538.3376903893641
936.892,422.00246060267455
938.9123,326.2831519307838
940.9318,271.37910862793433
942.9506,166.48967168554555
944.9688,115.9641793812425
946.9862,62.15196832774927
949.003,-32.14762602184237
951.019,-25.63526883594932
953.0344,-33.111304128213305
955.0491,1.3241801840522385
957.063,108.12142696546653
959.0763,219.63066585208253
961.0888,260.65212539874665
963.1007,406.386031964008
965.1119,411.73260929990283
967.1223,461.74207709460643
969.1321,499.8146509189828
971.1412,499.800541726494
973.1495,504.049955472452
975.1572,563.0630931141659
977.1641,594.2901505684531
979.1704,623.9813181215086
981.1759,591.6367801166289
983.1808,652.2567146573074
985.1849,745.6912939306767
987.1884,907.990683601307
989.1911,1047.905041876862
991.1932,1178.9345178851
993.1945,1226.8792502747274
995.1951,1192.2393659051177
997.1951,1151.5149793668606
999.1943,1104.0561933281515
1001.1928,1057.2130989420548
1003.1906,1080.1357763210763
1005.1877,1150.6242950055857
1007.1841,1172.128713734597
1009.1798,1143.3490797408813
1011.1748,981.7354285359324
1013.1691,818.3877841977555
1015.1627,593.1561609869987
1017.1556,391.4905649804423
1019.1477,321.59099632330435
1021.1392,226.65745124589557
1023.1299,249.03992276263307
1025.12,259.5384016213575
1027.1093,334.9028760795227
1029.0979,457.5333317991972
1031.0859,524.2297510934168
1033.0731,539.3921116998954
1035.0596,466.9703861140424
1037.0454,343.61454143734227
1039.0304,239.8745401015858
1041.0148,122.20034110242159
1042.9985,44.141901036764466
1044.9814,20.39917527952639
1046.9636,-39.52788123579376
1048.9452,-36.589313779684744
1050.926,15.665227260891697
1052.9061,6.786457026211792
1054.8855,30.12509049990331
1056.8642,79.83184259772497
1058.8421,117.45742793419595
1060.8194,175.25256032551079
1062.7959,200.11795241330037
1064.7717,256.15431508668007
1066.7469,293.66235723359387
1068.7213,350.2927851804543
1070.695,328.04630231705414
1072.6679,302.62360853026985
1074.6402,294.07540042650726
1076.6117,286.0023715859461
1078.5826,260.7552126480168
1080.5527,263.7846113921223
1082.5221,309.84125299013795
1084.4908,441.8758199760832
1086.4587,626.6889917855842
1088.426,772.1814434355128
1090.3925,794.2038436758521
1092.3584,786.1068535347804
1094.3235,657.841126098443
1096.2879,648.5073065919205
1098.2515,664.6560336618859
1100.2145,795.9879394699474
1102.1767,889.6536495311575
1104.1382,1052.203781400698
1106.099,1313.6889437372101
1108.0591,1511.1097346773076
1110.0185,1662.6167392207153
1111.9771,1728.2605272560722
1113.9351,1529.6416520458497
1115.8923,1283.6106495699187
1117.8488,1014.5180405117444
1119.8045,795.0143327186852
1121.7596,673.2000238929231
1123.7139,596.5256037865074
1125.6675,636.9915554194904
1127.6204,693.398355846668
1129.5726,694.7464757529269
1131.524,664.1363788891758
1133.4748,631.7185220588635
1135.4248,577.7433554240852
1137.3741,553.6113228297527
1139.3226,517.3228623433497
1141.2705,500.5284064962507
1143.2176,394.92838264661077
1145.164,445.17321314730725
1147.1097,432.21331640193785
1149.0546,390.6991063623791
1150.9989,333.8309926583752
1152.9424,241.1593810126924
1154.8852,97.13467380978
1156.8272,-9.342728977484512
1158.7686,-9.17242834757235
1160.7092,-28.45393196510122
1162.6491,-26.536655862137195
1164.5883,65.43026818402905
1166.5267,162.94797349727742
1168.4644,336.76759274720825
1170.4014,561.190256973945
1172.3377,779.5170938499414
1174.2732,1055.4992254357585
1176.2081,1310.7877659967908
1178.1421,1630.2338192434472
1180.0755,1902.1384757782562
1182.0082,2066.852809901413
1183.9401,2127.477876891724
1185.8713,1999.9147113594809
1187.8017,1780.9143266402007
1189.7315,1523.3277160702582
1191.6605,1228.0558551768881
1193.5888,1015.999704254049
1195.5163,907.7102113151486
1197.4432,845.1383142135946
1199.3693,826.5849417256995
1201.2947,774.651014176392
1203.2193,787.5874436247595
1205.1432,790.3451343833876
1207.0664,848.4749828889835
1208.9889,889.8278776748248
1210.9106,906.304698789434
1212.8316,929.90631738306
1214.7519,1028.7835955429146
1216.6715,1044.6373860571603
1218.5903,1082.5685314261173
1220.5084,1088.4278637037478
1222.4257,1109.3162041183296
1224.3424,1086.2343630138676
1226.2583,1164.5831396412104
1228.1735,1274.0133223888606
1230.0879,1371.575687999497
1232.0016,1536.9210004756642
1233.9146,1586.200010104154
1235.8269,1556.1634518025567
1237.7384,1404.212044626467
1239.6492,1292.8464920698534
1241.5592,1203.8174835845657
1243.4686,1158.175695693999
1245.3772,1181.9717928833725
1247.285,1231.406428056147
1249.1922,1231.93024229607
1251.0986,1252.0438643728394
1253.0042,1272.5479107368428
1254.9092,1344.9429853180463
1256.8134,1448.9796793209352
1258.7169,1613.15857050056
1260.6196,1798.9302221221842
1262.5216,2017.0451813194868
1264.4229,2186.0539772368356
1266.3234,2380.4071188481485
1268.2232,2486.005093266802
1270.1223,2500.048363802105
1272.0207,2496.337368903325
1273.9183,2455.67252201924
1275.8151,2424.3542116352637
1277.7113,2386.2828016800777
1279.6067,2329.9086318388327
1281.5014,2306.8320179338443
1283.3953,2332.3032524883583
1285.2885,2458.222604957302
1287.181,2613.4903214725728
1289.0727,2751.5066235838476
1290.9637,2892.0717067059068
1292.854,3049.9857387384673
1294.7435,3171.3488586605345
1296.6323,3326.861174951262
1298.5204,3510.6727643763206
1300.4077,3665.4836704327827
1302.2943,3781.1439015109972
1304.1802,3754.2534293464814
1306.0653,3549.362187863315
1307.9497,3359.270073443049
1309.8333,3172.326946973615
1311.7162,3062.4326357502578
1313.5984,3056.38693534495
1315.4798,3060.139610705346
1317.3605,3116.340396215237
1319.2405,3179.338995657021
1321.1197,3108.6350816496943
1322.9982,2991.4282950188644
1324.876,2892.6182455037942
1326.753,2786.3545129294653
1328.6293,2781.9366481946763
1330.5048,2706.4641743346874
1332.3796,2659.8865865653934
1334.2537,2646.553353038049
1336.127,2643.863915305048
1337.9996,2637.017688453263
1339.8714,2652.164061130932
1341.7426,2611.2523956161203
1343.6129,2652.6320276652623
1345.4826,2613.1022669222675
1347.3515,2585.6123965047373
1349.2196,2597.561673399254
1351.087,2610.9493287362875
1352.9537,2678.524567670682
1354.8197,2810.9365692478004
1356.6849,3015.6844857277683
1358.5493,3135.3174412613516
1360.4131,3231.53452984248
1362.276,3228.584814111917
1364.1383,3132.7173243950783
1365.9998,2904.4310587315413
1367.8606,2608.024983833704
1369.7206,2317.5980373696657
1371.5799,2119.199130927276
1373.4384,1942.077152918404
1375.2962,1783.8809705629337
1377.1533,1535.1094316599792
1379.0096,1229.3113661698462
1380.8652,971.9355887017555
1382.7201,706.7309015718129
1384.5742,508.5960973767833
1386.4275,369.67996164612305
1388.2802,216.63127482333766
1390.132,142.09881365513684
1391.9832,114.53135272192048
1393.8336,27.577665183107456
1395.6832,28.786523052815028
1397.5322,9.156698069380582
1399.3803,-9.313038316724487
1401.2278,-9.173914746590526
1403.0745,19.922933175950675
1404.9204,-1.9235385055399092
1406.7656,55.285626053278975
1408.6101,75.14940191288952
1410.4538,130.61676358092882
1412.2968,180.53668481354725
1414.139,271.9581380607251
1415.9805,362.3800939670764
1417.8213,434.95152045763825
1419.6613,586.8713818336564
1421.5006,784.2386380468542
1423.3391,1043.0022431802572
1425.1769,1372.5111434745013
1427.0139,1831.7142747402013
1428.8502,2432.9605590628616
1430.6858,3005.798900210846
1432.5206,3389.0781776229214
1434.3547,3672.2972406798563
1436.188,3715.254904871641
1438.0206,3658.399948965298
1439.8524,3522.9311145753054
1441.6835,3423.5971067321443
1443.5139,3355.496595236993
1445.3435,3307.5782156550613
1447.1724,3283.1905699965864
1449.0005,3232.132227196036
1450.8279,3198.6017233559705
1452.6545,3122.597562257635
1454.4804,3214.5182156962674
1456.3056,3199.362124241121
1458.13,3142.5276963162705
1459.9536,2993.213308352175
1461.7766,2695.6173053540224
1463.5987,2312.2380023948626
1465.4202,1967.8736875915838
1467.2409,1626.4726259386944
1469.0608,1403.7830627519725
1470.88,1154.7032270824775
1472.6984,946.931333943432
1474.5161,745.0155868010361
1476.3331,635.4041796521851
1478.1493,516.0452990436197
1479.9648,445.6871251680441
1481.7795,394.4778330577128
1483.5935,326.81559328801904
1485.4067,304.69857248957214
1487.2192,289.9749340248336
1489.031,264.6928382092792
1490.842,212.10044245863992
1492.6522,208.4959015417253
1494.4618,200.0773681063447
1496.2705,204.64299271535492
1498.0785,187.34092393084393
1499.8858,163.2193082684771
1501.6924,148.12629037051374
1503.4981,148.96001324702775
1505.3032,156.5186184268341
1507.1075,136.4502459491523
1508.911,124.00303428801999
1510.7138,96.52512055296847
1512.5159,90.46464061350707
1514.3172,63.669729373888
1516.1178,11.238520833724579
1517.9176,31.319148355939433
1519.7166,-8.490254808934878
1521.515,-16.39155572355685
1523.3126,-5.986536632946809
1525.1094,-9.22681603048477
1526.9055,-8.013952604053884
1528.7008,-19.549412865651902
1530.4954,-34.5345832678895
1532.2893,-30.82065496474388
1534.0824,-41.55847410971273
1535.8747,-23.248578957950485
1537.6663,-32.14109259546967
1539.4572,-6.235905854977318
1541.2473,-5.832588479671358
1543.0367,-1.2806479160499293
1544.8253,21.620466656941062
1546.6132,59.27131885402105
1548.4003,68.6224720737091
1550.1867,125.6744891218159
1551.9723,165.92793211793196
1553.7572,224.73336192490478
1555.5414,318.84133774630754
1557.3247,402.55241653837675
1559.1074,503.7671520689473
1560.8893,623.486094080331
1562.6705,702.3597872771652
1564.4509,846.538770129233
1566.2305,905.1235740827278
1568.0094,989.1647221184567
1569.7876,1030.4627281659969
1571.565,1036.1180962632834
1573.3417,1064.0813201436285
1575.1176,1082.1028831791655
1576.8928,1063.3332581012119
1578.6672,1013.9229068200639
1580.4409,957.2222806126865
1582.2138,896.3318206168187
1583.986,845.4519583979773
1585.7575,823.5331165583693
1587.5282,795.7757092456832
1589.2981,807.7801423722731
1591.0673,815.0968138927392
1592.8358,860.1761136838777
1594.6035,936.4184234715221
1596.3704,947.9241163797487
1598.1366,1026.8435561684528
1599.9021,1115.9270971182877
1601.6668,1209.7250832414793
1603.4308,1283.8878473909854
1605.194,1440.815710322514
1606.9564,1596.5089799529032
1608.7182,1780.6679497908353
1610.4791,1972.8428973799064
1612.2394,2194.9340824570345
1613.9988,2404.1417450307126
1615.7576,2640.716103160097
1617.5156,2858.6573508629226
1619.2728,3063.8656557497707
1621.0293,3126.9411568446476
1622.785,3120.033962532905
1624.54,3026.8941499304838
1626.2942,2878.1217649529935
1628.0477,2645.3668232470973
1629.8005,2397.1793116782483
1631.5525,2187.609190658226
1633.3037,2052.1563966270232
1635.0542,1908.9708441485418
1636.804,1805.252427265128
1638.553,1762.8510209294172
1640.3013,1752.3664820415224
1642.0488,1756.248649873055
1643.7955,1781.4973461719628
1645.5416,1862.3123751237126
1647.2868,1993.143523098799
1649.0313,2087.0905578446027
1650.7751,2274.353227177061
1652.5181,2442.381258041217
1654.2604,2642.32435463858
1656.0019,2923.932196746857
1657.7427,3219.654437720508
1659.4828,3517.7907016746703
1661.222,3696.6905805279494
1662.9606,3713.9036310210313
1664.6984,3522.6293729277013
1666.4354,3129.7172888827135
1668.1717,2647.266826294521
1669.9072,2149.4274012744145
1671.642,1729.9484034610168
1673.3761,1374.5792009986762
1675.1094,1108.9191447322637
1676.8419,907.3675717608576
1678.5737,746.4238080943496
1680.3048,628.4871706689546
1682.0351,519.2569689566517
1683.7646,451.5325061445519
1685.4934,379.9630802272004
1687.2215,344.09798468382087
1688.9488,306.18650919400716
1690.6754,257.72793999637724
1692.4012,251.9215602676868
1694.1263,224.06665060741489
1695.8506,218.76248909582773
1697.5742,212.15835157252513
1699.297,153.95351168948673
1701.0191,141.44724097711332
1702.7404,120.83880942627002
1704.461,104.02748561335102
1706.1808,88.46253690636604
1707.8999,90.74322963305167
1709.6182,89.6188292365241
1711.3358,71.58860025246577
1713.0527,53.701806320382275
1714.7688,70.25771036389142
1716.4841,49.60557476959548
1718.1987,48.74466122152262
1719.9126,40.824230907653146
1721.6257,34.59354452852676
1723.338,25.20186237643702
1725.0496,28.998444397751882
1726.7605,29.73255028681797
1728.4706,12.553439448000063
1730.18,14.91037098833749
1731.8886,27.202603889339116
1733.5964,13.27939698341379
1735.3036,13.090008830947227
1737.0099,25.33369785953255
1738.7156,4.209722365864764
1740.4204,-0.23265960669505148
1742.1246,-5.4441900568826895
1743.8279,11.524391340833972
1745.5306,9.722399299444078
1747.2325,-18.900851583307485
1748.9336,-17.396046806892628
1750.634,-21.813683051283988
1752.3336,-18.454083209946475
1754.0325,-6.467352257654056
1755.7307,-11.303410812889524
1757.4281,1.7378851147068417
1759.1247,-0.8432075634254943
1760.8206,-4.1964319532289664
1762.5158,20.22847726299915
1764.2102,3.781827325314225
1765.9039,9.61392527148837
1767.5968,5.925078101475265
1769.289,-4.934407280906271
1770.9804,6.335775968918824
1772.6711,18.785983990250315
1774.361,0.5665728590347499
1776.0502,23.92789846336109
1777.7386,8.970316685654325
1779.4263,25.444183169060125
1781.1132,42.899853467020876
1782.7994,34.137682878546
1784.4849,29.408026273640644
1786.1696,27.161238180941837
1787.8535,53.94767283500278
1789.5367,55.96768419876844
1791.2192,52.2216256957081
1792.9009,26.709850189613462
1794.5818,54.682710022062565
1796.2621,47.540557267534496
1797.9415,64.23374345368484
1799.6202,45.462619632757196
1801.2982,65.17753621466545
1802.9755,79.27884315469692
1804.6519,73.76688975636444
1806.3277,54.792024530393064
1808.0027,47.204595249843806
1809.6769,74.80494913985603
1811.3504,60.49343295352901
1813.0231,80.77039269591114
1814.6951,78.23617376711991
1816.3664,87.79112075956618
1818.0369,98.58557748330713
1819.7067,84.0698868704867
1821.3757,104.8443908673953
1823.044,96.70943057962813
1824.7115,88.41534606433743
1826.3783,102.21247641158425
1828.0443,84.95115982727748
1829.7096,92.63173349520366
1831.3741,104.45453374964382
1833.0379,100.36989599855679
1834.701,88.92815460536258
1836.3633,114.8296429297784
1838.0248,126.07469344224592
1839.6856,126.0136374649087
1841.3457,138.89680505917022
1843.005,134.07452502629712
1844.6636,126.6471247785903
1846.3214,144.664930387607
1847.9785,154.47826665843422
1849.6349,157.08745694951403
1851.2904,140.64282307450503
1852.9453,154.14468527619692
1854.5994,161.74336239095555
1856.2528,173.88917171369803
1857.9054,154.13242892191374
1859.5572,185.12344795419858
1861.2083,169.76254120782642
1862.8587,200.95001922884057
1864.5084,186.4361908656615
1866.1572,170.12136295720939
1867.8054,175.2058404780455
1869.4528,166.78992670152093
1871.0994,169.2739231489304
1872.7453,168.10812967367247
1874.3905,171.7428444364068
1876.0349,184.22836391671717
1877.6786,212.8149828767605
1879.3215,211.05299423641236
1880.9637,197.29268878739686
1882.6051,200.2843552109107
1884.2458,209.528280215226
1885.8858,189.5247485057721
1887.525,186.524042692698
1889.1634,201.27644349090815
1890.8011,198.23222975006865
1892.4381,189.59167830708566
1894.0743,201.00506401654366
1895.7098,194.37265983710995
1897.3446,200.44473671740434
1898.9786,203.27156366231975
1900.6118,220.9534076723039
1902.2443,198.99053371509126
1903.8761,201.93320454888362
1905.5071,183.83168094197936
1907.1374,200.13622164334674
1908.7669,212.59708356363717
1910.3957,210.66452161214147
1912.0237,187.0887885721827
1913.651,201.12013512043995
1915.2776,197.60881006270483
1916.9034,198.1050601935699
1918.5285,202.55913033154047
1920.1528,191.42126331407326
1921.7764,189.891699953037
1923.3992,185.22067914608715
1925.0213,165.30843789196615
1926.6427,174.60521133720795
1928.2633,147.86123297526683
1929.8832,209.97673455354652
1931.5023,152.10194634084064
1933.1207,164.23709650617684
1934.7383,179.63241169756475
1936.3552,174.1881169206431
1937.9714,181.85443538472873
1939.5868,173.73158855725933
1941.2015,155.36979608712818
1942.8154,150.66927588591534
1944.4286,157.0802443115026
1946.041,137.95291621508113
1947.6528,150.08750487703946
1949.2637,135.6342221982386
1950.8739,129.14327857866238
1952.4834,139.71488306195488
1954.0921,144.29924340032903
1955.7001,136.94656594884964
1957.3074,130.80705561959485
1958.9139,135.73091595517735
1960.5197,128.16834919014127
1962.1247,125.46955620172093
1963.729,124.53473658547227
1965.3325,115.96408868225444
1966.9353,113.35780958758096
1968.5374,106.16609523732495
1970.1387,121.53914043378427
1971.7393,97.82713891759704
1973.3392,111.58028321401116
1974.9383,98.34876487000247
1976.5366,95.28277431674724
1978.1342,100.632501001935
1979.7311,118.04813342042962
1981.3273,90.27985906076947
1982.9227,87.47786423101343
1984.5173,101.8923343364213
1986.1112,108.62345390747669
1987.7044,114.92140645574227
1989.2968,91.88637440654793
1990.8885,91.0685390360095
1992.4795,106.06808070138459
1994.0697,87.6351788492425
1995.6592,93.67001186547486
1997.2479,89.42275725962418
1998.8359,103.34359160453187
2000.4232,95.98269057881407
2002.0097,81.24022882765166
2003.5955,73.2163800364001
2005.1805,86.31131707801114
2006.7648,101.72521209327624
2008.3484,87.75823635987399
2009.9312,90.21056013823272
2011.5133,92.68235281120087
2013.0946,100.32378285951927
2014.6752,86.63501783710808
2016.2551,83.51622429464896
2017.8342,92.41756791647322
2019.4126,84.93921355175326
2020.9902,89.33132512548536
2022.5672,81.74406571327427
2024.1433,81.82759749741535
2025.7188,90.13208184276436
2027.2935,79.95767929590147
2028.8674,95.8545495020876
2030.4406,82.32285130700757
2032.0131,69.81274259780321
2033.5849,75.37438043838847
2035.1559,76.00792119455173
2036.7261,72.11352047833998
2038.2957,71.69133314172223
2039.8645,82.24151331553458
2041.4325,100.36421441370112
2042.9998,91.95958902773327
2044.5664,91.47778874550386
2046.1323,82.56896423528815
2047.6974,83.08326525058646
2049.2617,80.57084071920963
2050.8254,93.4818387381356
2052.3883,97.91640659863515
2053.9504,83.62469065716232
2055.5118,97.7568362910065
2057.0725,79.86298804121043
2058.6325,76.89328947125068
2060.1917,83.04788334597424
2061.7502,90.62691166129753
2063.3079,93.88051558266034
2064.8649,86.35883536923347
2066.4212,110.61201034138367
2067.9767,95.09017895588977
2069.5315,84.89347856341283
2071.0856,76.97204556371389
2072.6389,75.8260155076191
2074.1915,70.65552317623496
2075.7433,74.06070259241051
2077.2945,78.24168707244098
2078.8448,56.69860919201528
2080.3945,53.43160074440448
2081.9434,81.24079295589809
2083.4916,69.97631651847087
2085.039,53.73830131168961
2086.5857,63.726876515359436
2088.1317,61.342170771904875
2089.677,83.83431208648062
2091.2215,64.65342785082021
2092.7652,62.499644618316324
2094.3083,58.423088295828165
2095.8506,72.22388416522108
2097.3921,68.20215692413012
2098.933,69.55803054795479
2100.4731,76.69162833007204
2102.0124,72.7030728682812
2103.5511,77.49248599346629
2105.089,73.40998880948155
2106.6261,74.60570164525598
2108.1626,76.17974409562248
2109.6983,77.93223500935528
2111.2332,92.91329247343538
2112.7675,77.07303379551831
2114.301,77.91157535413049
2115.8337,88.57903275707076
2117.3657,84.42552083302098
2118.897,81.05115352487428
2120.4276,73.75604393127014
2121.9575,68.9903043403383
2123.4866,71.60404630264702
2125.0149,92.09738067886474
2126.5426,69.67041761361725
2128.0695,71.92326633055973
2129.5956,80.05603535664386
2131.1211,75.66883249959028
2132.6458,70.81176476655992
2134.1698,88.83493840802703
2135.693,88.3884589663503
2137.2155,80.87243109553901
2138.7373,83.6869585657214
2140.2584,87.43214433830144
2141.7787,98.50809053781177
2143.2983,73.51489841446573
2144.8171,86.30266823339753
2146.3353,97.37149952459276
2147.8527,70.02149095501272
2149.3693,69.90274021790356
2150.8853,82.7653443063
2152.4005,76.70939951420814
2153.9149,74.13500130798184
2155.4287,88.3422443868808
2156.9417,74.7312227088155
2158.454,71.65202934827539
2159.9655,73.20475663243815
2161.4764,82.83949617196095
2162.9865,77.95633884545668
2164.4958,81.90537470314212
2166.0045,65.63669301567279
2167.5124,92.95038223465235
2169.0195,83.34653015531785
2170.526,72.12522364340657
2172.0317,79.8365487311894
2173.5367,83.2305907296859
2175.0409,87.25743415155102
2176.5445,102.26716267713482
2178.0473,82.55985911421521
2179.5494,82.83560524789573
2181.0507,73.84448203768352
2182.5513,84.53656961473098
2184.0512,84.31194737174701
2185.5504,77.82069385607474
2187.0488,73.06288677193834
2188.5465,73.98860304535765
2190.0435,70.84791887172378
2191.5397,79.39090970654297
2193.0353,79.66765029684302
2194.5301,65.42821459574452
2196.0241,66.22267575969317
2197.5175,78.3011062908522
2199.0101,71.91357802916059
2200.502,59.260162031547
2201.9931,64.0909286358035
2203.4835,57.75594758712327
2204.9733,55.4552879897883
2206.4622,61.8890183705239
2207.9505,60.457206701502855
2209.438,61.90992033600833
2210.9248,60.097226022753375
2212.4109,62.21918989135315
2213.8962,46.77587747045095
2215.3809,56.16735366650073
2216.8648,53.99368291819815
2218.3479,55.054929102565666
2219.8304,43.751155556690264
2221.3121,46.3824250671114
2222.7931,57.198799982857736
2224.2733,45.10034218913506
2225.7529,47.0871129991624
2227.2317,49.95917327515622
2228.7098,55.81658340846366
2230.1872,41.45940329084124
2231.6638,46.33769225587889
2233.1397,46.00150922257467
2234.6149,52.900912646549386
2236.0894,49.735960523410085
2237.5632,35.20671031975576
2239.0362,42.613219004826306
2240.5085,45.85554319579683
2241.9801,32.633739083711134
2243.4509,38.59786240105905
2244.921,43.19796855399386
2246.3904,22.78411256268987
2247.8591,33.106349015343085
2249.3271,31.51473227230781
2250.7943,40.65931636287564
2252.2608,27.69015500119076
2253.7266,30.407301494806234
2255.1917,38.96080887437142
2256.656,30.250729866465463
2258.1197,33.32711680806028
2259.5826,35.2400217336201
2261.0447,41.88949634433902
2262.5062,26.02559198901281
2263.9669,31.548359597542913
2265.4269,23.307849839576193
2266.8862,37.604113069276536
2268.3448,32.83719940773108
2269.8026,33.80715859998486
2271.2598,41.36404006271255
2272.7162,47.357892874518484
2274.1719,45.03876570036573
2275.6268,42.9067067316405
2277.0811,47.01176370934104
2278.5346,49.35398394539834
2279.9874,40.58341428162794
2281.4395,50.950101066305024
2282.8908,34.20409024187211
2284.3414,45.64542724127091
2285.7914,42.574157155402645
2287.2406,45.24032461871366
2288.689,49.993973839910495
2290.1368,43.98514857529676
2291.5838,45.663892081237236
2293.0302,39.68024717424714
2294.4758,44.48425621420438
2295.9206,38.1259611641849
2297.3648,47.85540354242221
2298.8082,38.4726244858914
2300.251,51.0776646530137
2301.693,54.07056431748583
2303.1343,60.551363242228035
2304.5748,41.77010064945648
2306.0147,47.426815155873555
2307.4538,45.92154496048215
2308.8922,46.00432778801769
2310.3299,33.825200904001576
2311.7669,48.88420111391156
2313.2031,35.68136488497407
2314.6387,38.016728195574615
2316.0735,44.59032666728422
2317.5076,49.35219554150717
2318.941,48.55236961374544
2320.3737,39.99088318597933
2321.8056,42.71777007466835
2323.2369,39.283063696362206
2324.6674,35.98679704043366
2326.0972,44.17900270342784
2327.5263,40.809712922021845
2328.9547,40.92895949110334
2330.3823,47.536773797465
2331.8092,50.783186818609465
2333.2355,44.86822905667282
2334.661,53.141930505961454
2336.0858,53.90432071210125
2337.5098,50.15542868930061
2338.9332,46.395282912726316
2340.3558,43.97391135599082
2341.7778,51.391341528753856
2343.199,55.047600500936824
2344.6195,65.14271482854838
2346.0393,48.876710517120046
2347.4583,58.39961292075668
2348.8767,68.51144690479737
2350.2943,58.26223675058668
2351.7113,57.602006054355115
2353.1275,59.730777829712
2354.543,57.84857451424705
2355.9578,64.90541794824412
2357.3718,60.95132939350242
2358.7852,57.73632946276666
2360.1978,64.36043815926928
2361.6098,62.97367490887973
2363.021,56.676058493865185
2364.4315,62.517607066755545
2365.8413,71.69833821332327
2367.2504,72.21826889416457
2368.6587,55.377415352893195
2370.0664,50.375793110941686
2371.4733,54.01341713596753
2372.8795,56.34030189187115
2374.285,56.4064613024193
2375.6899,54.31190872797629
2377.0939,51.006656964840886
2378.4973,61.89071826619465
2379.9,48.5641043751516
2381.3019,57.02682641592128
2382.7032,53.02889502707308
2384.1037,54.67032027691016
2385.5035,51.45111170344717
2386.9027,37.67127829799779
2388.3011,44.08082853736573
2389.6987,56.8797705216416
2391.0957,44.86811191010952
2392.492,45.595859793256295
2393.8876,40.663020812889044
2395.2824,54.21960115485649
2396.6765,42.56560659837828
2398.07,38.95104238047975
2399.4627,48.42591331253152
2400.8547,46.890223816393245
2402.246,41.04397782966748
2403.6366,34.73717882105211
2405.0265,32.51982984880783
2406.4156,37.59193362382416
2407.8041,37.95349253179302
2409.1918,41.2045085824891
2410.5789,45.59498340615119
2411.9652,28.024918220974314
2413.3508,42.294313789204125
2414.7358,42.05317059283948
2416.12,49.85148869093723
2417.5035,30.28926772202044
2418.8863,47.266506826097384
2420.2684,46.733204840286135
2421.6497,42.38936012903946
2423.0304,44.38497058947951
2424.4104,38.82003369483664
2425.7896,40.094546474490016
2427.1682,35.958505569620456
2428.546,54.861907220466264
2429.9232,45.704747307680464
2431.2996,43.08702116329846
2432.6753,52.1587236623086
2434.0503,38.719849248831224
2435.4246,42.3203918453944
2436.7982,29.960344987329336
2438.1711,43.23970178676359
2439.5433,29.958455056221283
2440.9148,48.31659717583034
2442.2856,34.314120226135174
2443.6557,40.60101580451419
2445.025,37.97727516520672
2446.3937,39.49288915644206
2447.7617,41.847848246676904
2449.1289,42.64214250943928
2450.4955,44.82576159977975
2451.8613,49.798694746326646
2453.2265,43.71093072945155
2454.5909,40.71245783153904
2455.9546,46.85326389786405
2457.3177,43.28333636657817
2458.68,49.002662207301455
2460.0416,49.21122795682027
2461.4025,50.30901966189549
2462.7627,50.59602287717553
2464.1222,60.87222265422042
2465.4811,55.18760353862899
2466.8392,56.84214946728025
2468.1966,53.43584382517747
2469.5533,61.21866942890256
2470.9093,55.69060856067972
2472.2645,49.9516428905481
2473.6191,59.80175353164077
2474.973,62.49092109757544
2476.3262,60.0191256039534
2477.6787,58.8363464414665
2479.0305,57.49256240061686
2480.3816,54.6877516835425
2481.7319,63.77189191745765
2483.0816,59.344960182697605
2484.4306,58.40693292187984
2485.7789,48.20778598417178
2487.1264,55.94749463467292
2488.4733,41.776033656404024
2489.8195,55.59337727291245
2491.165,58.0994992899864
2492.5097,54.44437295747889
2493.8538,58.027970944248636
2495.1972,58.45026537471176
2496.5398,54.711227793003445
2497.8818,47.210829158757974
2499.2231,59.09903988449685
2500.5637,64.7758299106348
2501.9035,52.89116858659702
2503.2427,61.895024614049476
2504.5812,47.93736616574847
2505.919,57.31816079549935
2507.256,55.987375577734156
2508.5924,57.994977013705125
2509.9281,59.690931044790545
2511.2631,58.77520303241943
2512.5974,56.397757741111036
2513.9309,59.70855934763438
2515.2638,43.55757146478004
2516.596,59.444757108254635
2517.9275,53.62007885818832
2519.2583,43.68349870026441
2520.5884,57.2349780839661
2521.9178,57.0244780219424
2523.2465,59.15195895449165
2524.5745,66.6673807516687
2525.9018,58.470702692009354
2527.2284,56.811883387376156
2528.5543,71.14088086492552
2529.8796,62.75765258369495
2531.2041,63.112155291313684
2532.5279,65.4043451078353
2533.851,68.88417752219209
2535.1735,63.401607369273734
2536.4952,73.25658879512923
2537.8163,68.64907531179165
2539.1366,70.57901969872876
2540.4562,63.946374048918415
2541.7752,75.20108974954849
2543.0935,71.29311754834362
2544.411,73.47240744101862
2545.7279,69.0889087103576
2547.0441,69.94256990442136
2548.3596,75.93333888038217
2549.6744,88.51116279598637
2550.9885,77.02598804964748
2552.3019,74.12776015466818
2553.6146,79.51642385409184
2554.9266,65.84192314968493
2556.2379,75.4542012480498
2557.5485,75.85320069737031
2558.8585,82.78886329128807
2560.1677,84.16113006491275
2561.4762,88.01994122546625
2562.7841,72.06523613855893
2564.0913,85.14695328960204
2565.3977,78.96503044335452
2566.7035,77.11940451310613
2568.0086,80.96001162249615
2569.313,81.88678712397063
2570.6167,82.29966556037505
2571.9197,86.74858065568765
2573.222,81.18346531088969
2574.5236,86.80425155947853
2575.8246,94.66087062311635
2577.1248,89.15325285542326
2578.4244,97.73132766341132
2579.7232,101.69502356255998
2581.0214,91.59426809103604
2582.3189,106.57898777005664
2583.6157,108.19910820489747
2584.9118,93.70455393504426
2586.2072,108.44524841799262
2587.5019,97.67111417419221
2588.7959,98.63207263964091
2590.0893,112.32804427362544
2591.3819,115.75894854911314
2592.6739,116.27470381579064
2593.9652,111.62522726575583
2595.2557,126.06043492835954
2596.5456,124.93024171670072
2597.8348,121.38456128327425
2599.1234,118.17330603127323
2600.4112,130.64638715004514
2601.6983,121.90371464720556
2602.9848,130.34519722390587
2604.2705,125.9207423622604
2605.5556,122.58025624093193
2606.84,128.22364377937663
2608.1237,131.6008086712485
2609.4067,124.3116533279657
2610.689,131.55607884493816
2611.9707,118.78398507446002
2613.2516,116.14527055326482
2614.5319,127.3398326302472
2615.8115,121.46756749284907
2617.0903,115.37837005511471
2618.3685,125.22213401641284
2619.6461,131.29875192232907
2620.9229,120.15811506622799
2622.199,119.00011342848711
2623.4745,123.12463578790278
2624.7493,125.83156973327141
2626.0234,127.12080162214352
2627.2968,130.6922165537544
2628.5695,124.6956983561322
2629.8415,119.88112955038298
2631.1128,122.84839141065595
2632.3835,127.19736401228988
2633.6535,126.52792620213984
2634.9228,130.13995555508825
2636.1914,121.63332838073802
2637.4593,123.80791968729295
2638.7265,118.96360326662443
2639.9931,120.25025167252477
2641.259,121.01773626915053
2642.5242,119.61592721815646
2643.7887,124.94469347101995
2645.0525,116.35390278305977
2646.3156,119.49342166014821
2647.5781,119.71311544461855
2648.8398,122.91284828387086
2650.1009,119.09248312817328
2651.3613,120.65188169866633
2652.6211,108.59090452556575
2653.8801,113.3594109325685
2655.1385,115.55725915746314
2656.3961,114.43430630444414
2657.6531,117.09040832213407
2658.9094,123.97542001481247
2660.1651,123.58919501585513
2661.42,125.73158571888416
2662.6743,120.45244328163051
2663.9279,125.90161760450883
2665.1808,127.52895738341033
2666.433,134.63431005521045
2667.6846,142.0675217814952
2668.9354,137.22843737750827
2670.1856,135.1169002378182
2671.4351,138.98275238470944
2672.6839,143.17583448929838
2673.9321,150.2959858328735
2675.1795,143.09304426496556
2676.4263,157.166846132145
2677.6724,149.16722635005272
2678.9179,154.24401826266148
2680.1626,158.19705372227224
2681.4067,158.42616303874706
2682.6501,153.23117493997643
2683.8928,142.31191656959004
2685.1348,144.668213538906
2686.3761,145.44989003612307
2687.6168,139.2067688027588
2688.8568,131.9886711258314
2690.0961,136.24541690029298
2691.3348,131.12682470120842
2692.5727,128.6327117411895
2693.81,135.86289392157994
2695.0466,123.66718585739682
2696.2826,134.14540080502854
2697.5178,123.59735078419249
2698.7524,121.62284647315164
2699.9863,124.6216973141967
2701.2195,128.14371153338936
2702.452,141.88869611057498
2703.6839,144.60645674416173
2704.9151,141.74679771367073
2706.1456,144.55952185255887
2707.3755,151.09443057681506
2708.6046,163.25132385683355
2709.8331,159.23000015206412
2711.0609,172.33025628944404
2712.2881,186.15188750361062
2713.5145,183.64468730589908
2714.7403,196.70844734612592
2715.9654,208.5929574376612
2717.1899,215.39800542678995
2718.4136,228.77337707386846
2719.6367,236.668855985273
2720.8591,255.08422347964665
2722.0809,265.4192585089437
2723.3019,262.0737374742762
2724.5223,276.99743412256373
2725.7421,276.69011957998873
2726.9611,275.4015622027589
2728.1795,276.1815275801812
2729.3972,266.8297785475471
2730.6142,257.4960751783333
2731.8306,238.58017487771838
2733.0462,234.0318324759213
2734.2612,206.20080041735935
2735.4756,199.13682880613158
2736.6892,182.58966568432936
2737.9022,161.15905710267577
2739.1145,143.69474728599755
2740.3262,138.79647884753024
2741.5372,123.36399296356308
2742.7475,109.49702942242016
2743.9571,103.69532677878578
2745.1661,88.40862249237409
2746.3744,80.33665298594656
2747.582,73.27915379817875
2748.7889,65.73585966437918
2749.9952,61.15650458706557
2751.2008,52.04082191139719
2752.4057,51.68854437096854
2753.61,44.29940417896637
2754.8136,39.07313303169178
2756.0165,31.009462182452467
2757.2188,26.15812249382543
2758.4204,32.51884451829244
2759.6213,36.991358546754554
2760.8215,35.675394544924416
2762.0211,24.6206821086015
2763.22,23.376950476832235
2764.4182,21.793928642455853
2765.6158,19.721345364542913
2766.8127,11.708929184225099
2768.009,11.606408445420584
2769.2045,8.463511374958898
2770.3994,1.4799660836057456
2771.5936,-1.6944994025078586
2772.7872,-13.160157072050538
2773.9801,-7.467261985642153
2775.1723,-7.315937733933765
2776.3639,-19.25623330962992
2777.5548,-11.68812461921732
2778.745,-14.111395199412527
2779.9346,-13.27571182256736
2781.1235,-20.58060028819625
2782.3117,-10.875453771452385
2783.4992,-17.309459847292374
2784.6861,-11.631697444890165
2785.8723,4.15892742808353
2787.0579,0.46362496461586034
2788.2428,-5.466394683895032
2789.427,-3.7299213706868386
2790.6106,9.324309660284825
2791.7935,11.94760042697942
2792.9757,14.741252854112759
2794.1573,21.506568746925154
2795.3382,27.49484976324561
2796.5184,43.007397345836694
2797.698,59.94551266251426
2798.8769,66.81049645101973
2800.0551,86.50364884963903
2801.2327,90.12626932855426
2802.4096,107.02965649291104
2803.5859,118.01510804659165
2804.7615,145.43392062318208
2805.9364,166.387389676118
2807.1106,186.12680920449645
2808.2842,210.103471543541
2809.4572,236.96866716720683
2810.6294,273.0236844484142
2811.801,308.7198093903975
2812.972,332.55832526615393
2814.1423,375.1905122614836
2815.3119,419.21764723660397
2816.4808,461.3910032998266
2817.6491,506.66184936728814
2818.8167,552.5314497412145
2819.9837,602.2010636572147
2821.15,643.9719448255834
2822.3157,695.1453409346051
2823.4807,740.6724932328447
2824.645,787.6046360174144
2825.8086,822.3429961787017
2826.9716,875.2887927310481
2828.134,919.5432364653652
2829.2957,947.2075294196771
2830.4567,981.1828644365762
2831.617,995.6704248865796
2832.7767,1008.9713843283758
2833.9358,1021.2869063639502
2835.0941,996.2681445055739
2836.2519,985.7162420526497
2837.4089,966.7323323418995
2838.5653,960.467538852882
2839.7211,956.2229753978338
2840.8761,954.4497461843163
2842.0306,983.1489458576604
2843.1843,1017.5716595187006
2844.3374,1046.7689624367827
2845.4899,1093.191919705535
2846.6417,1153.3915859508966
2847.7928,1224.0190048668883
2848.9433,1302.6752086136146
2850.0931,1372.2612171109918
2851.2422,1440.4780372521827
2852.3907,1507.4266622077403
2853.5385,1566.3080707434362
2854.6857,1616.623226550776
2855.8323,1656.473077658185
2856.9781,1718.1085559278574
2858.1233,1770.430576657256
2859.2679,1801.8900379627605
2860.4118,1851.1378202564429
2861.555,1893.424785931476
2862.6976,1920.8017788696552
2863.8395,1962.2196240185285
2864.9808,1982.879127117624
2866.1214,1997.181074284277
2867.2614,2012.1262318070299
2868.4007,2005.7653460026154
2869.5393,2014.149143066504
2870.6773,2044.628329136513
2871.8146,2051.2535902089694
2872.9513,2045.1255918339173
2874.0874,2042.1449790488653
2875.2227,2047.6123764400659
2876.3574,2020.4283881723231
2877.4915,1997.4935979343172
2878.6249,1980.7085692104436
2879.7577,1941.4738455101635
2880.8898,1909.8899505358522
2882.0212,1911.307388575148
2883.152,1882.8266448167897
2884.2821,1859.8481853364428
2885.4116,1883.2724573815062
2886.5405,1887.5998896008987
2887.6686,1877.530891810813
2888.7962,1891.565854951445
2889.923,1892.9551511876798
2891.0493,1905.5491337687458
2892.1748,1921.4481370143203
2893.2997,1925.7024761885884
2894.424,1925.112447341256
2895.5476,1948.4783272650034
2896.6706,1987.8003735013865
2897.7929,2005.7288241071778
2898.9145,2039.7138972611472
2900.0355,2079.0557910847765
2901.1559,2093.454683302408
2902.2756,2130.1107308478267
2903.3946,2163.774069720272
2904.513,2190.494814617875
2905.6308,2217.2230586010264
2906.7479,2238.258872825169
2907.8643,2262.4523062735148
2908.9801,2274.653385546688
2910.0953,2278.562114620788
2911.2098,2283.6284747253844
2912.3236,2281.9024243044223
2913.4368,2271.733898965565
2914.5494,2245.2728114974507
2915.6613,2227.369051971379
2916.7725,2205.822488005924
2917.8831,2173.2329649459666
2918.9931,2140.250306078166
2920.1024,2110.824312956851
2921.211,2093.804765733847
2922.319,2073.591423452739
2923.4264,2055.784024219062
2924.5331,2040.3822854024386
2925.6391,2054.9859038146515
2926.7445,2040.7445558636618
2927.8493,2035.7078974075698
2928.9534,2043.6255638970322
2930.0569,2037.8471704256262
2931.1597,2030.6723116506741
2932.2619,2027.1005618510271
2933.3634,2027.2314749988136
2934.4643,2013.8645847951566
2935.5645,1997.5494046688646
2936.6641,1973.9354279100999
2937.763,1937.8221278335318
2938.8613,1898.2589580144759
2939.959,1844.9953526500262
2941.056,1781.9307269546885
2942.1523,1710.2644776930154
2943.248,1630.1959838102514
2944.3431,1535.174607148998
2945.4375,1434.6996932498962
2946.5313,1333.420572301842
2947.6244,1256.0365601467338
2948.7169,1149.4969592922648
2949.8087,1051.4510596857635
2950.8999,966.7981397795892
2951.9904,910.03746751159
2953.0803,817.8683011516339
2954.1696,768.2398898692145
2955.2582,714.3014746551422
2956.3462,668.4522888178292
2957.4335,643.4915585226731
2958.5202,611.1685032505492
2959.6062,583.0323360474173
2960.6916,573.7822638475527
2961.7764,555.9674877549083
2962.8605,530.7872031356151
2963.9439,539.9905997961291
2965.0267,517.9268622350351
2966.1089,519.5451695510114
2967.1905,516.9946956634681
2968.2714,517.9246092963635
2969.3516,510.73407400371
2970.4312,533.6222481602736
2971.5102,527.0382850334802
2972.5885,536.7813325545326
2973.6662,533.1505333842517
2974.7432,525.4450248156452
2975.8196,519.6139388102158
2976.8954,516.9564020750165
2977.9705,531.3715361209603
2979.045,508.45845728939787
2980.1188,491.7662766079634
2981.192,486.9941000197083
2982.2645,454.29102855002077
2983.3364,446.4061583543489
2984.4077,417.83858104523085
2985.4783,400.7873837711429
2986.5483,375.5016495021763
2987.6177,335.9804572005488
2988.6864,311.12288207346194
2989.7545,285.7279959683134
2990.8219,262.1448676212723
2991.8887,229.6725629112276
2992.9548,201.9101450956199
2994.0204,172.5566751351646
2995.0852,157.11121197147554
2996.1495,127.72281282060055
2997.2131,105.14053332747471
2998.276,82.21342785980619
2999.3383,76.54054973389714
3000.4,58.07095144391599
3001.4611,49.20368471862594
3002.5215,40.43780070608091
3003.5812,21.822350062298028
3004.6404,18.95638303891667
3005.6989,14.48894966935336
3006.7567,-0.1809002025386235
3007.8139,-11.354116877795832
3008.8705,-0.8816488502617972
3009.9264,-10.164331186152822
3010.9818,-11.202990144013143
3012.0364,-10.698350440718912
3013.0905,-6.701024875274868
3014.1439,-9.361519370165297
3015.1966,-2.330272904636388
3016.2487,-7.95763093635594
3017.3002,-4.193915643565674
3018.3511,-3.93936970777429
3019.4013,-4.094193913273614
3020.4509,-1.0585496900524731
3021.4998,6.317442432897337
3022.5481,8.183672501495039
3023.5958,18.490030498485623
3024.6428,12.236406324777533
3025.6892,23.472689696379064
3026.735,24.998770206934978
3027.7802,31.464537215363293
3028.8247,38.769879830594334
3029.8685,46.264686846913605
3030.9118,46.498846670908165
3031.9544,55.32224724651826
3032.9963,57.28477605269609
3034.0376,65.03632001517155
3035.0783,72.2267654868271
3036.1184,83.75599817018212
3037.1578,89.57390304548863
3038.1966,98.28036425543877
3039.2348,104.22526504698584
3040.2723,103.6084876842798
3041.3092,110.87991338921802
3042.3455,107.8894223476131
3043.3811,111.63689363647876
3044.4161,110.07220525393438
3045.4505,106.84523408173038
3046.4842,109.05585590089544
3047.5173,104.15394542400611
3048.5498,104.33937627308035
3049.5816,112.16202102859722
3050.6128,100.22175122764196
3051.6434,99.61843728567993
3052.6734,94.60194861595897
3053.7027,99.97215363554261
3054.7314,96.37891981547489
3055.7594,93.67211362707889
3056.7868,93.35160057788835
3057.8136,91.96724523871626
3058.8398,91.31891124685984
3059.8653,88.55646131994382
3060.8902,93.42975726240411
3061.9145,93.338659993112
3062.9381,92.08302949664142
3063.9612,88.36272482418008
3064.9835,87.12760410608519
3066.0053,80.62752458908722
3067.0264,78.01234264864036
3068.0469,77.73191385392391
3069.0668,72.03609299399358
3070.086,65.17473408058606
3071.1046,65.44769040507742
3072.1226,61.20481460709618
3073.1399,57.09595867179456
3074.1567,53.22097397227668
3075.1727,43.72971131068738
3076.1882,40.42202095696166
3077.203,35.79775274373753
3078.2173,43.25675609943312
3079.2308,29.098880094489004
3080.2438,25.92397336677837
3081.2561,18.131884263185754
3082.2678,14.872460871356111
3083.2789,16.195551097615805
3084.2893,17.401002699566675
3085.2991,7.988663272855263
3086.3083,8.508380239118395
3087.3169,7.110000940106346
3088.3248,6.193372632485676
3089.3321,1.6083425018229036
3090.3388,-1.3452423282490713
3091.3449,-0.7175347501807323
3092.3503,-2.508674217452011
3093.3551,-3.2187930153707214
3094.3593,-2.6979983675895767
3095.3629,-0.4963653420191463
3096.3658,-7.263942053566325
3097.3681,-0.8507716584483376
3098.3698,2.093175253898721
3099.3708,-3.4320634067524622
3100.3713,-0.12644975156084115
3101.3711,-0.18991160537206042
3102.3702,-4.222375529798796
3103.3688,3.8762338107631535
3104.3667,-1.3939660665506608
3105.364,-2.332857683366882
3106.3607,-0.29030963559122824
3107.3568,2.7838327861187793
3108.3522,-0.6602728087012508
3109.347,5.577531161646164
3110.3412,0.6974088749836937
3111.3348,7.899524453358794
3112.3277,4.78403505170408
3113.32,3.951097745957071
3114.3117,12.450869564214912
3115.3028,7.183507495063907
3116.2932,10.899168402581637
3117.2831,12.098009079010666
3118.2723,15.030186207601872
3119.2608,17.245856350626156
3120.2488,15.195175920052577
3121.2361,8.378301155391995
3122.2229,12.445388144203378
3123.209,12.7965928902629
3124.1944,17.482071272892966
3125.1793,22.051979043450103
3126.1635,22.35647177847042
3127.1471,20.59570483397033
3128.1301,24.769833342401554
3129.1125,20.87901223025891
3130.0942,24.823396176339003
3131.0753,22.103139650648473
3132.0558,30.468396874960035
3133.0357,24.119321850015055
3134.015,23.456068271871032
3134.9936,27.778789595392254
3135.9716,27.387639040882405
3136.949,32.03276955085744
3137.9258,28.514333793956908
3138.902,32.432484118492766
3139.8775,31.7373725876337
3140.8524,40.079150940223585
3141.8267,36.807970597732606
3142.8004,40.32398258083953
3143.7735,37.077337542143354
3144.7459,42.118185731003436
3145.7178,41.94667702600573
3146.689,35.66296088455431
3147.6596,39.96718634458661
3148.6295,45.9095020874105
3149.5989,45.34005639466204
3150.5676,48.1589970888823
3151.5357,49.116471539211844
3152.5032,51.11262663320126
3153.4701,45.69760876723646
3154.4364,46.871563826577116
3155.402,45.63463723950679
3156.367,50.53697396559346
3157.3315,49.678718508058736
3158.2952,50.26001486475451
3159.2584,55.2310065367455
3160.221,58.14183652249633
3161.1829,58.19264726816165
3162.1442,55.83358063847771
3163.105,54.76477791625438
3164.065,55.086379825965736
3165.0245,62.84852654443809
3165.9834,62.551357697634
3166.9416,67.04501228303079
3167.8993,62.229628672592256
3168.8563,68.95534456783201
3169.8127,67.57229704796747
3170.7684,70.9306225026626
3171.7236,68.78045664585841
3172.6782,68.62193448218976
3173.6321,76.00519032848698
3174.5854,73.58035781536097
3175.5381,72.89756981337088
3176.4902,75.55695845727215
3177.4417,73.5086551528446
3178.3926,75.75279055029853
3179.3428,74.58949456475762
3180.2924,75.31889635381776
3181.2415,79.7911243291798
3182.1899,79.55630614935568
3183.1377,83.71456867494615
3184.0848,81.86603797098886
3185.0314,83.91083926537583
3185.9773,83.99909696733869
3186.9227,85.93093464700067
3187.8674,90.25647503449409
3188.8115,92.57584000064183
3189.755,86.93915051370215
3190.6979,87.89652661617481
3191.6402,90.19808748116813
3192.5818,89.69395140282514
3193.5229,91.084235773308
3194.4633,92.61905708783938
3195.4031,89.34853093079957
3196.3423,91.42277196037828
3197.2809,97.99189394127994
3198.2189,100.30600972398123
3199.1563,97.86523117903991
3200.0931,102.3196691739536
3201.0292,100.61943359756765
3201.9648,102.66463331553066
3202.8997,103.80537618729696
3203.834,106.14176904567447
3204.7677,108.72391768541736
3205.7008,105.10192683986213
3206.6333,108.57590015510604
3207.5652,106.79594022622712
3208.4964,107.61214856254436
3209.4271,108.72462560541737
3210.3571,112.88347072008423
3211.2865,110.93878218453682
3212.2154,113.79065714793225
3213.1436,113.63919165003983
3214.0712,117.93448059272228
3214.9982,119.32661774145035
3215.9246,111.81569568235
3216.8503,117.10180580828093
3217.7755,116.08503839394594
3218.7001,124.71548254302971
3219.624,124.39322619836653
3220.5473,123.31835605563583
3221.4701,122.99095756658474
3222.3922,125.11111494977686
3223.3137,126.42891119386618
3224.2346,128.69442803639555
3225.1549,124.85774595061861
3226.0746,128.3189441228448
3226.9937,131.228100490806
3227.9121,127.98529170904463
3228.83,131.84059311982207
3229.7473,135.09407878554674
3230.6639,135.7958214502212
3231.5799,135.59589250690718
3232.4954,137.19436199070807
3233.4102,137.74129858076847
3234.3244,136.18676958428918
3235.238,140.38084093105806
3236.151,142.62357718899523
3237.0634,147.06504152221234
3237.9752,140.0552956685852
3238.8864,143.34439989533922
3239.797,147.0324130691468
3240.7069,145.16939262323626
3241.6163,145.70539452051182
3242.5251,149.59047327218366
3243.4332,152.32468193240805
3244.3408,151.50807205943653
3245.2477,149.64069368827367
3246.154,151.02259533884342
3247.0598,150.30382403466263
3247.9649,153.43442528902224
3248.8694,151.71444311217496
3249.7733,152.59391998002914
3250.6766,154.42289685134864
3251.5793,154.20141315895813
3252.4814,158.37950679145317
3253.3829,160.25721409541515
3254.2838,159.93456983363038
3255.1841,159.76160716631284
3256.0838,166.13835765433095
3256.9829,162.41485126093687
3257.8814,158.09111628799923
3258.7792,162.267179413238
3259.6765,162.44306573346188
3260.5731,167.66879872280768
3261.4692,164.44440023098156
3262.3647,169.3198904310016
3263.2595,166.94528785144175
3264.1538,167.12060932767716
3265.0474,168.34587002562995
3265.9404,167.3710834400161
3266.8329,168.54626138209272
3267.7247,170.7214139894062
3268.616,169.49654971404013
3269.5066,166.571675300864
3270.3966,168.04679579978165
3271.286,170.37191459498013
