RamanShift,CorrectedData
30.1047,2149.515552085881
32.3739,2001.6708879658458
34.6426,1854.6762023506549
36.9109,1714.4314537284436
39.1787,1569.4865820405855
41.4461,1422.3915100841389
43.7131,1281.446144961295
45.9796,1139.7503795503305
48.2456,1001.4040939150589
50.5112,854.9571567217888
52.7764,709.3594266227882
55.0411,569.9107537207525
57.3054,430.31098102478296
59.5692,286.75994584487296
61.8326,147.657481187906
64.0955,7.20341719316599
66.3579,-127.30241747663791
68.6199,-260.5101942308306
70.8815,-375.5688127275864
73.1426,-436.0745701282398
75.4032,-368.7200116616864
77.6634,31.706673828133262
79.9231,1165.3209810101944
82.1824,3845.9884042364074
84.4412,8788.224426205474
86.6995,15680.644491156208
88.9574,22468.563955445192
91.2148,27112.64801862255
93.4717,29270.01165555278
95.7282,29687.369569973893
97.9842,29523.936172923793
100.2398,28853.47557856668
102.4949,28200.501605827405
104.7495,27327.477785096053
107.0036,26407.167364757704
109.2573,25555.43331992266
111.5105,24719.03836162955
113.7632,23877.694945362666
116.0154,23124.265279415937
118.2672,22600.111333306322
120.5185,21987.94484530814
122.7693,21529.777327694588
125.0197,21131.270072859435
127.2696,20729.434157898657
129.519,20469.030448595535
131.7679,20176.019603439017
134.0163,19853.06207622775
136.2642,19530.918119000176
138.5117,19225.447785264136
140.7587,18873.560933218265
143.0052,18498.967228806752
145.2512,18144.776149238172
147.4967,17830.646986731415
149.7417,17536.038852057638
151.9863,17320.560677681504
154.2304,17094.62122070731
156.4739,16830.429065033746
158.717,16644.892623613276
160.9596,16369.820141094091
163.2017,15997.519695675455
165.4433,15577.599201858433
167.6844,15140.666414168889
169.925,14704.178931356693
172.1651,14226.79420076507
174.4047,13834.669522695443
176.6439,13423.562055181299
178.8825,13100.828817909442
181.1206,12875.476696331032
183.3582,12578.462444888977
185.5954,12328.442689271393
187.832,12162.323929381782
190.0681,12046.212541839219
192.3037,11893.164781639543
194.5388,11807.186783316469
196.7734,11753.78456247207
199.0075,11708.76401663655
201.2411,11757.63092580227
203.4742,11705.190952873949
205.7068,11747.099643179998
207.9389,11727.262424996927
210.1704,11801.184609130245
212.4015,11845.271389112835
214.632,11862.62784046575
216.862,11983.908920257321
219.0915,12005.719466929613
221.3205,12123.964199085603
223.549,12291.047715271074
225.777,12494.874492792174
228.0044,12721.498886044576
230.2314,13106.225124475217
232.4578,13425.757310316043
234.6837,13652.549414736744
236.909,13791.555274649452
239.1339,13608.778590440797
241.3582,13300.122924581881
243.582,12884.291703456005
245.8053,12454.488220445268
248.0281,12013.165640088855
250.2503,11674.427002381059
252.472,11475.275227184531
254.6932,11365.56311761766
256.9139,11194.043362046086
259.134,11139.71853517984
261.3536,11024.891099788512
263.5727,11004.763407244523
265.7912,10880.73769867139
268.0092,10843.866105144982
270.2267,10677.850648933812
272.4436,10570.643243867731
274.6601,10428.895696998085
276.8759,10274.559709669804
279.0913,10125.736878938858
281.3061,10028.528699115619
283.5204,10027.486563253091
285.7341,10024.661764119017
287.9473,10074.005494206265
290.16,10191.318845761087
292.3721,10465.602810289696
294.5837,10792.658277385111
296.7947,11004.786031984333
299.0052,11135.586751097788
301.2152,10925.061001688033
303.4246,10523.559239361772
305.6334,9877.781810475097
307.8418,9300.128956148515
310.0495,8856.250818724728
312.2568,8424.547447545143
314.4635,8107.818803388664
316.6696,7954.814762788741
318.8752,7810.335121200629
321.0802,7788.2795945314465
323.2847,7835.997820584969
325.4887,7819.1393592821805
327.692,7626.2536921840765
329.8949,7483.490222660277
332.0972,7118.798277817859
334.2989,6800.427109929029
336.5001,6440.62590007801
338.7007,6208.093761344759
340.9008,6019.2297424029875
343.1003,5835.782829845468
345.2992,5696.551950072695
347.4976,5619.185971127337
349.6955,5546.583704086552
351.8927,5560.5439038356435
354.0895,5455.265269794101
356.2856,5483.8464457759765
358.4812,5411.386021042674
360.6763,5376.632530017134
362.8707,5253.734453008445
365.0646,5260.640216559368
367.258,5207.848194675327
369.4508,5174.9567087553405
371.643,5201.864028119955
373.8346,5100.018370340145
376.0257,5035.317900968257
378.2162,4965.560734556453
380.4062,4765.3949353037315
382.5956,4562.768517753488
384.7844,4418.079448795168
386.9726,4227.275649690557
389.1603,4154.8549975206515
391.3474,4064.965327093676
393.5339,3988.454431669321
395.7199,3863.470063857625
397.9052,3849.9599363840825
400.09,3811.171723339514
402.2743,3798.853060315141
404.4579,3848.1515447904894
406.641,3958.2147362565483
408.8235,4137.89015572282
411.0054,4403.575284616676
413.1868,4782.217562986589
415.3675,5037.214386845291
417.5477,5189.713104383351
419.7273,5177.111013419195
421.9064,5036.8553598741455
424.0848,4843.643337898426
426.2627,4587.72209127371
428.4399,4264.788715345232
430.6166,3846.590259581033
432.7928,3437.3737308012533
434.9683,3093.036097360153
437.1432,2795.624293238234
439.3176,2602.3852214856597
441.4914,2405.31575719636
443.6645,2375.8127494404107
445.8371,2258.72302323475
448.0091,2172.543379838189
450.1806,2052.070597922335
452.3514,1964.001434433365
454.5216,1949.7326257967725
456.6913,1794.5608887980416
458.8603,1828.632920725333
461.0288,1895.5954009212292
463.1967,1841.9949904419664
465.3639,1925.0783313878528
467.5306,1973.3920474392617
469.6967,2073.23274302579
471.8622,2182.847002843122
474.0271,2293.4313908546355
476.1914,2393.432449195243
478.3551,2280.346697065539
480.5182,2249.0206297318
482.6807,2240.9007196568346
484.8426,2346.933416813252
487.0039,2641.765148764687
489.1647,2986.3923196054093
491.3248,3367.9613070120686
493.4843,3542.368458797391
495.6432,3478.110089094487
497.8015,3391.5824766127953
499.9592,3384.331865280663
502.1163,3279.404465110598
504.2728,3003.896452271809
506.4287,2731.303970139452
508.5839,2267.1731320497274
510.7386,1941.3000240258152
512.8927,1704.2307094191565
515.0461,1596.0612321682129
517.199,1559.2376191691474
519.3512,1539.6058813575037
521.5029,1634.6120140764724
523.6539,1688.0019972731898
525.8043,1699.0217945486838
527.9541,1710.567352623977
530.1033,1678.484601229873
532.2519,1687.4194529915258
534.3999,1780.61780374925
536.5472,1997.1255324691883
538.694,2473.238500311316
540.8401,3017.102548464347
542.9856,3506.563493384627
545.1305,3623.167121357499
547.2748,3501.759183602677
549.4185,3132.6853951082303
551.5615,2747.591435844628
553.704,2619.522954455515
555.8458,2518.025572108607
557.987,2610.9448837764176
560.1276,2581.526459251192
562.2675,2613.4158422157598
564.4069,2621.258550537699
566.5456,2632.100075950435
568.6837,2569.335883974807
570.8212,2259.7114138106735
572.958,1926.1720789645406
575.0942,1595.1132703458134
577.2299,1368.780359602184
579.3648,1365.2687024302286
581.4992,1396.9736408387398
583.6329,1582.7405031838462
585.766,1798.214603851964
587.8985,1847.4412414021135
590.0304,1869.515696411192
592.1616,1756.4832309816848
594.2922,1686.8390885209374
596.4222,1493.1784948714594
598.5515,1363.196659007397
600.6802,1137.838774971111
602.8083,962.800023172993
604.9358,960.0755726450698
607.0626,816.8105827913641
609.1888,771.7002034151556
611.3144,762.2895761516374
613.4393,609.8738349190025
615.5636,556.8981060125589
617.6873,456.10750962889506
619.8103,447.9471603956408
621.9327,347.5621683793688
624.0544,270.2976391671873
626.1756,255.998674870596
628.2961,233.31037489814116
630.4159,150.82783609838953
632.5351,145.296152986808
634.6537,65.91041857061646
636.7716,40.315724404063076
638.8889,51.90716138231073
641.0056,123.22981999736658
643.1216,139.02879022218985
645.237,163.0991607974247
647.3518,144.53601907343545
649.4659,173.83445076961652
651.5793,123.38954016000935
653.6922,92.04636978032431
655.8043,123.30002093238
657.9159,91.99557399756304
660.0268,18.678108124255232
662.137,-39.357298459097365
664.2466,-65.51575411836166
666.3556,-72.90197404001447
668.4639,-68.47001890815591
670.5716,-18.423221116165223
672.6786,81.03577095803848
674.785,102.00449298451349
676.8907,162.5804798229583
678.9958,227.4612653130498
681.1002,255.9943816686682
683.204,220.52735882909474
685.3072,152.25772417366534
687.4097,106.73300287644452
689.5115,112.35071858894298
691.6127,60.908393895351765
693.7132,-22.34644974362527
695.8131,-67.11629147634812
697.9123,-21.303387210165965
700.0109,-63.359322360673104
702.1089,-88.3354695226335
704.2061,-45.58256833118139
706.3028,-18.700475950132386
708.3987,33.86140582655207
710.4941,129.3538620226209
712.5887,355.12733938640304
714.6827,596.5322833726641
716.7761,943.0191358848897
718.8688,1284.2383328612523
720.9608,1495.090300809763
723.0522,1589.5754533960535
725.1429,1409.1441893348601
727.233,1134.3468914451805
729.3224,949.8839284545829
731.4112,669.1056577471718
733.4993,414.86242720820155
735.5867,279.85457803189274
737.6735,228.3324472638451
739.7596,160.9963691511366
741.845,114.29667565752243
743.9298,86.2336971368095
746.014,84.95776279984057
748.0974,59.46920099512863
750.1802,96.66833922163278
752.2624,56.55550438362843
754.3439,126.7810224187233
756.4247,197.34521869899618
758.5048,278.6484173287172
760.5843,541.7409404387436
762.6631,855.023107373443
764.7413,1281.2452320597986
766.8188,1884.8576198745577
768.8956,2297.7105633820247
770.9718,2605.254336297945
773.0473,2439.689189360972
775.1221,2120.9653472572136
777.1962,1761.5830102758882
779.2697,1615.2423574965833
781.3426,1641.9935503830748
783.4147,1883.2367342467296
785.4862,2199.7220379790087
787.557,2219.049571639007
789.6271,1890.1194232886119
791.6966,1367.5816587992304
793.7654,818.9363251410796
795.8335,524.7334556085625
797.901,319.7730753067226
799.9678,255.7552040932933
802.0339,297.37985862825735
804.0993,343.6470530140723
806.1641,336.8567983793837
808.2282,304.65910241638267
810.2916,190.75396944870954
812.3544,142.59140075341566
814.4164,54.82139570001527
816.4778,148.0939522321496
818.5385,110.559067745231
820.5986,198.96673815376198
822.658,351.61695826664436
824.7166,449.1097209031359
826.7747,737.4950153663376
828.832,932.4228264682752
830.8886,1070.6931316460323
832.9446,1225.005899012489
834.9999,1262.7110859735913
837.0545,1242.6586376852392
839.1085,1275.298486676209
841.1618,1219.9805530487174
843.2143,1138.9047441520015
845.2662,1042.3709551355205
847.3175,1026.3290697596894
849.368,926.7789613612113
851.4179,852.6704930135347
853.467,674.3035185223125
855.5155,588.927883166496
857.5633,528.0934254820277
859.6105,453.3499781155624
861.6569,358.947368432815
863.7027,334.0854192660263
865.7478,355.56394985795123
867.7922,381.53277611051453
869.8359,429.3417103700049
871.8789,597.7405611673967
873.9212,734.0291327402665
875.9629,901.2072233487997
878.0039,1101.274623912901
880.0441,1262.4311163404018
882.0837,1228.926471526407
884.1226,1174.310447741711
886.1609,1082.5827909678592
888.1984,1051.2432354432822
890.2352,1072.241504580601
892.2714,1026.327311279998
894.3069,1058.800357719243
896.3416,995.8103358128537
898.3757,1022.0569268873514
900.4091,983.4398023111535
902.4418,1005.9586232321126
904.4739,986.9130409636855
906.5052,1056.4526967597558
908.5358,963.2272220050945
910.5658,820.8362375199576
912.595,690.1793544923421
914.6236,535.5561759018892
916.6515,511.3662978264583
918.6786,505.7093109883499
920.7051,591.3848009962021
922.7309,715.4923484015817
924.756,756.881527842208
926.7804,914.2019068008849
928.8041,850.8030451916238
930.8272,895.6844937864153
932.8495,809.4457948492382
934.8711,782.9364816872221
936.892,612.8060795130696
938.9123,489.8541057101065
940.9318,395.5800715336154
942.9506,316.1334833403489
944.9688,236.16384353125977
946.9862,155.3206513460027
949.003,101.30340366260498
951.019,102.11159580589447
953.0344,95.7447220876893
955.0491,170.90227579868588
957.063,286.73374927215264
959.0763,436.28863313235706
961.0888,451.21641513624127
963.1007,566.9665786778678
965.1119,637.1386026391519
967.1223,691.4819602323587
969.1321,712.2461182983825
971.1412,795.5305367633155
973.1495,759.984668430785
975.1572,858.4579581491198
977.1641,936.7498431668064
979.1704,865.4597521477554
981.1759,887.0371043884006
983.1808,977.8813105305599
985.1849,1032.791772345714
987.1884,1239.4678818265274
989.1911,1396.0090206377463
991.1932,1503.3645580494594
993.1945,1556.8338493716692
995.1951,1472.116234880752
997.1951,1496.4110392847506
999.1943,1404.0175725705449
1001.1928,1366.4851297609348
1003.1906,1374.4629918385508
1005.1877,1419.1504261211776
1007.1841,1369.6466861820008
1009.1798,1275.6510114027005
1011.1748,1137.7126274685143
1013.1691,983.0807473081913
1015.1627,765.454572473358
1017.1556,538.2832946848321
1019.1477,479.0660980089233
1021.1392,360.55216112910057
1023.1299,388.94065793818663
1025.12,360.23075872349364
1027.1093,403.8716298829422
1029.0979,519.0124342121417
1031.0859,584.4523304680042
1033.0731,559.1904722173203
1035.0596,504.0260071823868
1037.0454,320.95807749359665
1039.0304,279.5858202411073
1041.0148,81.6083693055225
1042.9985,25.424855771590956
1044.9814,22.284409907988447
1046.9636,-30.563838270831184
1048.9452,-63.120758973265765
1050.926,-31.886917074960365
1052.9061,-47.5622468752008
1054.8855,-5.546364122965315
1056.8642,58.11159057961413
1058.8421,151.31253203854794
1060.8194,114.65737447870924
1062.7959,204.54703061186956
1064.7717,264.3824120032441
1066.7469,300.7144281726032
1068.7213,255.59398599590713
1070.695,289.37198934198386
1072.6679,236.8993395237194
1074.6402,244.6269349603026
1076.6117,278.15567170193754
1078.5826,267.53644335258286
1080.5527,214.47014073463652
1082.5221,355.25765199514353
1084.4908,489.0998631364819
1086.4587,670.8976566084602
1088.426,848.6019099699006
1090.3925,814.963494070631
1092.3584,811.6832712744799
1094.3235,681.0620957956562
1096.2879,618.0008137315199
1098.2515,663.8502643688444
1100.2145,769.5112808143967
1102.1767,845.8346895364375
1104.1382,998.2713093081402
1106.099,1230.72195044432
1108.0591,1418.2374132770929
1110.0185,1585.7184858313776
1111.9771,1633.2659419497068
1113.9351,1393.4305396174605
1115.8923,1155.9130204873618
1117.8488,871.4641122778412
1119.8045,591.384531148211
1121.7596,526.9749845431579
1123.7139,457.73617399353316
1125.6675,447.9687957604583
1127.6204,594.1735415276926
1129.5726,534.1010984993227
1131.524,590.0021479377174
1133.4748,592.6273657642632
1135.4248,529.0274220003266
1137.3741,544.0529807410057
1139.3226,521.1547007911468
1141.2705,529.1832355150764
1143.2176,406.739233065593
1145.164,469.6233363036663
1147.1097,436.9361840228921
1149.0546,455.32841032064607
1150.9989,422.2506449249522
1152.9424,302.55351301056726
1154.8852,155.3376355297405
1156.8272,67.45363040921438
1158.7686,52.90211402235218
1160.7092,22.483702068006096
1162.6491,-3.650990283993451
1164.5883,116.79865191136196
1166.5267,207.48328007247983
1168.4644,410.85354444977565
1170.4014,619.1600932188303
1172.3377,865.5535704467256
1174.2732,1101.1846140089365
1176.2081,1372.603853125398
1178.1421,1678.7119060042205
1180.0755,1921.5093771274842
1182.0082,2012.3968541901595
1183.9401,2068.8749056721463
1185.8713,1930.2940799293756
1187.8017,1702.5549046290544
1189.7315,1506.4578881354428
1191.6605,1180.6035217872704
1193.5888,978.8922818586907
1195.5163,877.074632817832
1197.4432,762.8510293439176
1199.3693,738.8719173454083
1201.2947,702.887735102282
1203.2193,677.7989135057796
1205.1432,715.9558764182875
1207.0664,762.2090409242155
1208.9889,773.8588169484101
1210.9106,804.6556067936508
1212.8316,874.9498050241236
1214.7519,940.8917981574923
1216.6715,942.3319639619076
1218.5903,997.2206707966325
1220.5084,985.5582775976036
1222.4257,994.1951333285833
1224.3424,968.5315770977322
1226.2583,1014.2679380712943
1228.1735,1108.7545357301824
1230.0879,1231.2416794126548
1232.0016,1336.47966736944
1233.9146,1382.118785538849
1235.8269,1300.65930649441
1237.7384,1275.2514889884842
1239.6492,1065.3955787668565
1241.5592,961.5918088228063
1243.4686,884.3904014956679
1245.3772,931.1915695088719
1247.285,925.3955167419699
1249.1922,920.2024377625894
1251.0986,966.9125178844333
1253.0042,961.2259332191825
1254.9092,1004.2928502094037
1256.8134,1092.1634256854122
1258.7169,1281.0378064346078
1260.6196,1401.2661283227717
1262.5216,1653.0485144053127
1264.4229,1837.235073724998
1266.3234,2058.0758987941226
1268.2232,2105.0210637526325
1270.1223,2103.8206221597175
1272.0207,2124.024606524381
1273.9183,2086.8330283174255
1275.8151,2032.7958777694403
1277.7113,2006.513124242676
1279.6067,1895.0347167714572
1281.5014,1865.360584324968
1283.3953,1849.9906369220516
1285.2885,1915.3747659279616
1287.181,2015.6628442080546
1289.0727,2137.4047254739453
1290.9637,2218.000243280614
1292.854,2414.4992098090224
1294.7435,2545.351415060137
1296.6323,2751.7566248899493
1298.5204,2987.814579700931
1300.4077,3188.824992378006
1302.2943,3314.4875459279283
1304.1802,3392.801891469244
1306.0653,3243.067646975589
1307.9497,3055.734396492604
1309.8333,2913.001691635247
1311.7162,2854.9190534611516
1313.5984,2890.385973897937
1315.4798,2915.2019163240584
1317.3605,2970.066315214117
1319.2405,3067.128575890685
1321.1197,3037.988073975721
1322.9982,2895.094154419872
1324.876,2889.4961317939233
1326.753,2767.593291717745
1328.6293,2815.734890916243
1330.5048,2816.1201584384253
1332.3796,2741.1482951759535
1334.2537,2741.9684738592914
1336.127,2726.829839807411
1337.9996,2695.831510919612
1339.8714,2685.3225778269007
1341.7426,2643.952104201977
1343.6129,2721.1191268643124
1345.4826,2667.2226561938696
1347.3515,2720.7116753594382
1349.2196,2673.33514085758
1351.087,2741.941981977754
1352.9537,2815.931101276099
1354.8197,2911.551373889317
1356.6849,3092.451646794816
1358.5493,3250.9307378545163
1360.4131,3304.8374340058144
1362.276,3271.7704896768228
1364.1383,3137.7786262472728
1365.9998,2926.1605323792137
1367.8606,2618.064865356908
1369.7206,2361.0902532030304
1371.5799,2186.0852977596223
1373.4384,2005.1985772578264
1375.2962,1906.4786480679577
1377.1533,1623.3740465083392
1379.0096,1315.9332898325338
1380.8652,1066.6048790603527
1382.7201,810.0873020522813
1384.5742,579.8290360027604
1386.4275,429.3285500053644
1388.2802,275.3843073553762
1390.132,187.3447670548121
1391.9832,192.80838535184375
1393.8336,107.3236166212082
1395.6832,96.33891330955885
1397.5322,83.55272679033806
1399.3803,24.56350747358738
1401.2278,0.1197049338297802
1403.0745,43.619768499964266
1404.9204,-49.287853695001104
1406.7656,14.345286045769171
1408.6101,38.31812780475593
1410.4538,62.529611520982144
1412.2968,121.47867675032103
1414.139,186.31426242334055
1415.9805,264.93530625585845
1417.8213,360.74074410053436
1419.6613,523.4295091606873
1421.5006,693.5005310322449
1423.3391,944.7527340768393
1425.1769,1284.8850357211304
1427.0139,1762.0963439442348
1428.8502,2354.1355538764365
1430.6858,2949.9515430270512
1432.5206,3328.2931653640553
1434.3547,3622.709245355916
1436.188,3649.598574188163
1438.0206,3599.70990681926
1439.8524,3448.341961711678
1441.6835,3383.9434213307977
1443.5139,3292.5629336585844
1445.3435,3256.149112837582
1447.1724,3252.2005400847065
1449.0005,3189.2157640554015
1450.8279,3108.993300883085
1452.6545,3108.3816348090295
1454.4804,3147.029218984586
1456.3056,3197.534475477287
1458.13,3110.1457948844018
1459.9536,2947.111535827853
1461.7766,2667.1300258281244
1463.5987,2250.1495629345736
1465.4202,1931.8184185252667
1467.2409,1544.9348414767737
1469.0608,1331.447061347495
1470.88,1109.1532922464867
1472.6984,892.7017349683374
1474.5161,744.2405792161171
1476.3331,601.6680057658814
1478.1493,498.9821879512929
1479.9648,449.8312930893335
1481.7795,342.71348350717744
1483.5935,311.42691703368655
1485.4067,271.069748070624
1487.2192,271.19012790548004
1489.031,279.0862051150598
1490.842,223.5061255642795
1492.6522,237.09803232718514
1494.4618,209.36006624277798
1496.2705,237.790365779083
1498.0785,193.63706731052844
1499.8858,182.19830483366422
1501.6924,175.37221040867735
1503.4981,194.05691427377496
1505.3032,201.5505449134489
1507.1075,182.55122887163452
1508.911,180.20709067676762
1510.7138,147.31625303177316
1512.5159,117.37683683750947
1514.3172,84.68696152168195
1516.1178,61.99474533823195
1517.9176,82.3483056942423
1519.7166,29.645759376857313
1521.515,38.2852223497448
1523.3126,62.46481028012204
1525.1094,44.98263845236215
1526.9055,15.736821526190397
1528.7008,0.6754737115152238
1530.4954,-60.903290939113504
1532.2893,-23.101358379895828
1534.0824,-53.52000614115241
1535.8747,-2.9102809706455446
1537.6663,-1.572694951282756
1539.4572,-13.057731092278118
1541.2473,6.834143308373314
1543.0367,27.952591399400262
1544.8253,-5.802723738812347
1546.6132,86.56786069460941
1548.4003,41.164065469729394
1550.1867,92.1356104909355
1551.9723,140.0322152509907
1553.7572,217.70359832129725
1555.5414,253.8994768729408
1557.3247,352.5695658999739
1559.1074,446.9135778574582
1560.8893,534.7312216747687
1562.6705,621.4722018121556
1564.4509,729.5362173825597
1566.2305,794.5729612842078
1568.0094,890.1321191199604
1569.7876,934.1133685469613
1571.565,987.9163783210479
1573.3417,1029.2908078569253
1575.1176,1037.086306690153
1576.8928,1021.7525140633861
1578.6672,960.3890588484319
1580.4409,901.5455596995835
1582.2138,774.6216256672342
1583.986,705.9168567863453
1585.7575,684.7308453456662
1587.5282,690.7631765747847
1589.2981,681.0134288559784
1591.0673,632.1311736638927
1592.8358,699.915975663047
1594.6035,742.3673931966423
1596.3704,749.784977608726
1598.1366,791.0682728196825
1599.9021,888.4168152520415
1601.6668,933.3801334176624
1603.4308,1028.8077469442342
1605.194,1175.8491661256649
1606.9564,1308.9538909677867
1608.7182,1472.121409717949
1610.4791,1662.4511975339628
1612.2394,1815.942714852441
1613.9988,2053.9954054854843
1615.7576,2276.15869508578
1617.5156,2506.481988766067
1619.2728,2732.314668877503
1621.0293,2855.9560927064413
1622.785,2858.105590216086
1624.54,2774.912462810087
1626.2942,2660.4759833110456
1628.0477,2393.295396792444
1629.8005,2179.96992172301
1631.5525,1978.4487526385165
1633.3037,1828.8810622750461
1635.0542,1733.766003584211
1636.804,1628.8527112288084
1638.553,1576.7903025339892
1640.3013,1584.0778785363727
1642.0488,1558.314524504678
1643.7955,1642.8493098668532
1645.5416,1736.2312884677012
1647.2868,1814.9594977235338
1649.0313,1939.3329576883498
1650.7751,2094.200670266564
1652.5181,2262.5116179692614
1654.2604,2476.5647623655295
1656.0019,2763.909042399342
1657.7427,3100.343372249041
1659.4828,3428.8166384538836
1661.222,3596.6776965496883
1662.9606,3591.175367784128
1664.6984,3434.008437438084
1666.4354,3049.6256548806996
1668.1717,2548.9757351410335
1669.9072,2093.307362751895
1671.642,1677.119196756339
1673.3761,1360.7098752643597
1675.1094,1092.7780196147596
1676.8419,887.7722375392405
1678.5737,730.7911258417316
1680.3048,633.6332724484473
1682.0351,533.247257977695
1683.7646,420.6816567114656
1685.4934,399.7350375992737
1687.2215,328.10596538383106
1688.9488,284.2430008105148
1690.6754,253.4447013436402
1692.4012,229.559621605109
1694.1263,205.23631368237693
1695.8506,221.0733273673104
1697.5742,216.1192103994199
1699.297,175.37250830748053
1701.0191,156.78176445909594
1702.7404,144.44552046813624
1704.461,86.91231638067256
1706.1808,80.23069079832021
1707.8999,86.84918145357551
1709.6182,85.41632527663569
1711.3358,64.6306583292062
1713.0527,32.340715818834724
1714.7688,25.94503230675764
1716.4841,3.0421420308121014
1718.1987,31.230578969383714
1719.9126,23.90887707044385
1721.6257,7.775569969669959
1723.338,32.679191063643884
1725.0496,10.668273671208226
1726.7605,28.54135078440595
1728.4706,17.096955288609024
1730.18,-25.016380216222387
1731.8886,-2.000123301091662
1733.5964,18.544508376638987
1735.3036,22.21631714083378
1737.0099,2.9641051299258834
1738.7156,24.68667426018692
1740.4204,-20.417173581747193
1742.1246,-9.84863675609995
1743.8279,-18.158709655544953
1745.5306,-5.248288284878072
1747.2325,-20.218087243389164
1748.9336,-25.268768699974316
1750.634,-27.700792844847456
1752.3336,-38.66436743322083
1754.0325,-5.009423489394976
1755.7307,-11.735505780643507
1757.4281,33.957890969890286
1759.1247,25.521389276758782
1760.8206,39.255611314956695
1762.5158,71.71117900425452
1764.2102,40.38871387188192
1765.9039,32.438836727960734
1767.5968,35.11216797873385
1769.289,25.609327706051772
1770.9804,36.88093564065457
1772.6711,38.377611257179524
1774.361,37.29997366147654
1776.0502,89.14864157561533
1777.7386,68.42423334866908
1779.4263,44.22736643823009
1781.1132,76.3586576176549
1782.7994,91.76872321803785
1784.4849,104.20817880688628
1786.1696,85.97763903402847
1787.8535,91.12771750721367
1789.5367,101.05902697442252
1791.2192,112.8721792723627
1792.9009,113.0177852271554
1794.5818,129.44645453620615
1796.2621,133.55879576675943
1797.9415,129.00541619159048
1799.6202,137.78692174790922
1801.2982,138.80391708287607
1802.9755,143.3070054657801
1804.6519,149.39678877787264
1806.3277,122.973867467339
1808.0027,117.83884048839718
1809.6769,150.94230556552247
1811.3504,166.3348592448092
1813.0231,155.56709656293424
1814.6951,137.7896108932273
1816.3664,199.35299405335536
1818.0369,177.6078364831028
1819.7067,196.25472662872198
1821.3757,195.0942511603971
1823.044,197.27699478576687
1824.7115,207.55354026152963
1826.3783,206.4244683716188
1828.0443,188.6403578244317
1829.7096,194.30178526412783
1831.3741,227.10932544846582
1833.0379,229.4635511921906
1834.701,202.11503303895734
1836.3633,235.26433923779132
1838.0248,219.96203601657362
1839.6856,225.05868725054643
1841.3457,276.4048546153381
1843.005,258.60109753599045
1844.6636,260.2479726734964
1846.3214,249.29603410284744
1847.9785,260.34583329655834
1849.6349,292.1979192341905
1851.2904,278.00283829185173
1852.9453,278.81113392367934
1854.5994,280.8733468037808
1856.2528,313.89001481815376
1857.9054,315.56167304406335
1859.5572,318.73885341988444
1861.2083,334.3720847283721
1862.8587,353.3618925649034
1864.5084,375.25879918113696
1866.1572,359.0633232951104
1867.8054,331.97597987228073
1869.4528,319.2972802874683
1871.0994,337.0277325957404
1872.7453,349.46784165919144
1874.3905,339.56810896964726
1876.0349,337.52903252425585
1877.6786,379.4011069244907
1879.3215,383.23482339653856
1880.9637,402.78066937258154
1882.6051,402.0391284524503
1884.2458,394.81068020817474
1885.8858,366.2958001913994
1887.525,400.2449600056598
1889.1634,371.90862759154425
1890.8011,385.03726688719144
1892.4381,361.6813381116508
1894.0743,392.14129763361234
1895.7098,375.0175982049568
1897.3446,382.7106886561605
1898.9786,394.571014067531
1900.6118,403.94901569227113
1902.2443,386.94513083787933
1903.8761,376.50979277237
1905.5071,367.2934308943086
1907.1374,340.14647083717045
1908.7669,351.5193345614971
1910.3957,380.81244062636506
1912.0237,336.726204075665
1913.651,380.6110361451674
1915.2776,386.2173447033874
1916.9034,360.645533812738
1918.5285,323.4960036734583
1920.1528,347.3191508793334
1921.7764,331.3153687891945
1923.3992,348.93504728868083
1925.0213,283.87857295028334
1926.6427,311.4463288571451
1928.2633,294.18869525362607
1929.8832,313.65604926962715
1931.5023,290.59876509316564
1933.1207,298.61721377569665
1934.7383,297.61176346269076
1936.3552,304.2827793134502
1937.9714,294.9806235111637
1939.5868,289.90565519619213
1941.2015,249.2082305590975
1942.8154,257.3887028913905
1944.4286,244.84742299250047
1946.041,237.8347390879744
1947.6528,223.15099695488152
1949.2637,224.14653999194888
1950.8739,224.12170936639632
1952.4834,241.42684400397957
1954.0921,249.36228058923916
1955.7001,247.3783533924534
1957.3074,231.42539419027707
1958.9139,232.55373228558074
1960.5197,212.7136946669898
1962.1247,200.20560599759028
1963.729,187.9797888133353
1965.3325,209.43656364812978
1966.9353,202.6762491560803
1968.5374,190.84916189693013
1970.1387,195.5556164036634
1971.7393,155.1959253007708
1973.3392,173.02039925718873
1974.9383,155.4293473898988
1976.5366,121.2730770856815
1978.1342,174.00189417702313
1979.7311,164.76610328368224
1981.3273,169.91600728539652
1982.9227,161.20190741424358
1984.5173,151.32410320314466
1986.1112,156.63289257300676
1987.7044,145.8785719314983
1989.2968,169.16143611996176
1990.8885,158.78177852095178
1992.4795,158.6398908254141
1994.0697,160.18606313647797
1995.6592,147.42058397087294
1997.2479,154.74374024347526
1998.8359,168.605817394955
2000.4232,150.15709931854963
2002.0097,137.69786822144033
2003.5955,124.07840480923915
2005.1805,139.3989884105813
2006.7648,117.8598971133215
2008.3484,150.36140761132538
2009.9312,151.50379541986422
2011.5133,132.13733455059628
2013.0946,150.81229750014336
2014.6752,146.97895544375388
2016.2551,160.98757804856086
2017.8342,130.58843351190717
2019.4126,137.0317884212618
2020.9902,121.36790805821147
2022.5672,141.94705633402646
2024.1433,118.36949594630278
2025.7188,128.4854881731726
2027.2935,146.19529310907728
2028.8674,128.54916956360285
2030.4406,119.89737488438277
2032.0131,97.24016513356219
2033.5849,117.27779517431372
2035.1559,111.8605188974143
2036.7261,137.03858902086995
2038.2957,131.0622571440772
2039.8645,126.83177349605558
2041.4325,136.39738699520512
2042.9998,133.80934529160731
2044.5664,140.4678946713684
2046.1323,137.9732800825086
2047.6974,116.47574506837555
2049.2617,123.12553179257975
2050.8254,131.32288125398009
2052.3883,163.1680332201804
2053.9504,156.71122614556043
2055.5118,151.20269685282346
2057.0725,132.79268059756396
2058.6325,141.58141112335215
2060.1917,141.36912084583037
2061.7502,127.40604076483305
2063.3079,133.14240046650139
2064.8649,144.2284282629198
2066.4212,138.11435113475181
2067.9767,137.10039462038276
2069.5315,107.83678287705061
2071.0856,114.77373869099938
2072.6389,106.66148377010632
2074.1915,88.90023867451782
2075.7433,90.24022289776713
2077.2945,89.28165504438493
2078.8448,91.07475281650477
2080.3945,74.11973302344268
2081.9434,92.51681156377435
2083.4916,80.01620359488061
2085.039,89.31812334897586
2086.5857,71.02278425811346
2088.1317,90.03039886117404
2089.677,73.84117898680597
2091.2215,90.60533556336577
2092.7652,103.22307878079755
2094.3083,104.89461792299699
2095.8506,119.32016124162692
2097.3921,119.39991593940522
2098.933,103.38408802585491
2100.4731,121.272882316498
2102.0124,128.7165025930217
2103.5511,123.21515142438693
2105.089,113.51903009238958
2106.6261,111.62833864667482
2108.1626,114.84327600170309
2109.6983,120.46403995565288
2111.2332,109.84082715827117
2112.7675,115.02383305466356
2114.301,124.51325199153598
2115.8337,132.10927716535662
2117.3657,134.61210052746264
2118.897,127.62191270810217
2120.4276,128.78890299140312
2121.9575,106.11325938527807
2123.4866,124.04516860975218
2125.0149,130.8348163237215
2126.5426,106.98238694562951
2128.0695,117.28806358557358
2129.5956,122.90202828382917
2131.1211,123.67446190779265
2132.6458,107.55554409584238
2134.1698,119.49545324961855
2135.693,122.79436669520328
2137.2155,127.95246056372616
2138.7373,141.01990975837361
2140.2584,138.04688790281216
2141.7787,132.28356721051114
2143.2983,111.38011851447482
2144.8171,108.68671132486907
2146.3353,98.25351403806326
2147.8527,113.58069396356314
2149.3693,130.1684174283373
2150.8853,108.16684962354884
2152.4005,100.12615443867799
2153.9149,121.99649468153711
2155.4287,109.5780321586808
2156.9417,110.27092745670052
2158.454,109.12534006640999
2159.9655,116.04142837591644
2161.4764,135.7693496820766
2162.9865,128.2592601213346
2164.4958,132.0113144724437
2166.0045,119.07566623156617
2167.5124,126.80246757475197
2169.0195,122.04186948729875
2170.526,136.24402168647794
2172.0317,124.35907266914455
2173.5367,124.78716956971493
2175.0409,124.9784582790171
2176.5445,135.8830834400087
2178.0473,124.45118844586705
2179.5494,121.58291533093688
2181.0507,143.52840488505353
2182.5513,129.73779668222642
2184.0512,134.8112288611792
2185.5504,131.64883826326604
2187.0488,120.60076038172747
2188.5465,107.96712939331564
2190.0435,103.54807826877914
2191.5397,98.59373889919289
2193.0353,93.75424214015402
2194.5301,90.52971786132275
2196.0241,109.57029499481814
2197.5175,124.52610156746414
2199.0101,111.89726451038132
2200.502,113.78390950943322
2201.9931,94.03616113151111
2203.4835,84.75414280566929
2204.9733,93.18797702060328
2206.4622,108.68778541747042
2207.9505,99.00368870555076
2209.438,92.3858065072468
2210.9248,72.33425745492877
2212.4109,74.19915925710984
2213.8962,72.4806288989621
2215.3809,77.97878262367249
2216.8648,79.79373594962044
2218.3479,71.67560361540109
2219.8304,71.32449956167102
2221.3121,69.54053701233397
2222.7931,64.57382847804865
2224.2733,80.12448577407304
2225.7529,65.84262006992776
2227.2317,67.4783417338931
2228.7098,74.23176047582274
2230.1872,70.35298533079094
2231.6638,77.99212459155069
2233.1397,56.69928584733134
2234.6149,69.8245759074407
2236.0894,71.06810101419615
2237.5632,67.67996671166657
2239.0362,62.710277833242344
2240.5085,62.60913853551483
2241.9801,49.176652347973686
2243.4509,63.31292217402279
2244.921,67.2680504252985
2246.3904,51.24213888031181
2247.8591,43.98528864489526
2249.3271,51.69760031246278
2250.7943,47.329174036578024
2252.2608,42.38010945382803
2253.7266,39.550505727510426
2255.1917,34.69046159712343
2256.656,43.850075406662654
2258.1197,50.629445153220786
2259.5826,55.22866839539074
2261.0447,67.14784218547629
2262.5062,32.587063023494466
2263.9669,40.34642673798999
2265.4269,48.87602883163845
2266.8862,44.7259644036526
2268.3448,57.896328064486624
2269.8026,70.73721397734062
2271.2598,62.29871572645379
2272.7162,52.1309261886945
2274.1719,61.73393761794523
2275.6268,47.10784174678429
2277.0811,55.65272969045236
2278.5346,50.76869209311417
2279.9874,53.50581904241017
2281.4395,68.11420011829341
2282.8908,42.09392436566259
2284.3414,69.54508014827479
2285.7914,61.517755408952326
2287.2406,63.162037395065
2288.689,54.8780127388095
2290.1368,63.96576744076265
2291.5838,65.52538695272233
2293.0302,46.656956086832
2294.4758,71.86055899998246
2295.9206,71.78627938249747
2297.3648,63.73420020609683
2298.8082,66.90440372463854
2300.251,74.74697155464492
2301.693,62.76198464359413
2303.1343,76.24952319149406
2304.5748,72.7596667707353
2306.0147,63.79249419121379
2307.4538,84.34808353522976
2308.8922,79.52651224715919
2310.3299,74.27785692789848
2311.7669,72.80219338308007
2313.2031,62.14959667556195
2314.6387,61.77014114018175
2316.0735,50.86390049028341
2317.5076,52.530947821510836
2318.941,67.371355720868
2320.3737,48.73519625005474
2321.8056,70.67254079706072
2323.2369,59.533460262526205
2324.6674,81.1180248403657
2326.0972,69.07630412916205
2327.5263,70.00836691631957
2328.9547,51.41428129848191
2330.3823,74.39411467220953
2331.8092,69.04793391992234
2333.2355,71.12580518009963
2334.661,66.62779390074093
2336.0858,76.45396481859143
2337.5098,74.80438200412118
2338.9332,82.87910876326396
2340.3558,77.52820765391016
2341.7778,87.60174040516085
2343.199,66.84976797083436
2344.6195,61.67235042873426
2346.0393,70.86954718817151
2347.4583,84.59141704173544
2348.8767,71.93801807332147
2350.2943,73.60940752090801
2351.7113,82.10564190309333
2353.1275,86.8267770023881
2354.543,89.67286778024845
2355.9578,82.39396832986768
2357.3718,76.04013184771338
2358.7852,78.51141070631229
2360.1978,81.9078565177906
2361.6098,76.97952010916379
2363.021,89.22645148837137
2364.4315,75.09869989355957
2365.8413,77.6463136706102
2367.2504,80.96934041441773
2368.6587,73.0678269434161
2370.0664,78.09181926634392
2371.4733,79.84136266126097
2372.8795,80.51650162531087
2374.285,60.967279857221456
2375.6899,56.943740250560495
2377.0939,66.39592508921942
2378.4973,69.32387608765566
2379.9,65.67763429636716
2381.3019,76.40724007261224
2382.7032,74.81273311687346
2384.1037,77.84415236556424
2385.5035,66.8515360069714
2386.9027,55.18492145093933
2388.3011,72.4443454387997
2389.6987,68.5798441600341
2391.0957,65.14145307967829
2392.492,66.32920697697136
2393.8876,34.04313997973895
2395.2824,40.83328555251228
2396.6765,46.949676819396245
2398.07,49.64234649615946
2399.4627,43.66132682907619
2400.8547,53.50664956799892
2402.246,44.57834602617004
2403.6366,51.07644698176637
2405.0265,29.950982767183632
2406.4156,49.001983204054795
2407.8041,39.02947781450348
2409.1918,32.53349563063239
2410.5789,27.064065294254306
2411.9652,33.62121512184876
2413.3508,30.954973159250585
2414.7358,27.265367116084235
2416.12,27.75242439242129
2417.5035,50.416172115684276
2418.8863,41.15663713577169
2420.2684,44.42384579841928
2421.6497,39.16782403779143
2423.0304,34.48859734381813
2424.4104,37.48619081475363
2425.7896,41.960629203964345
2427.1682,39.761936889954995
2428.546,35.440137831623815
2429.9232,41.195255590250326
2431.2996,34.32731337271798
2432.6753,44.8363339739567
2434.0503,51.32233984562845
2435.4246,49.28535299102896
2436.7982,31.775394900233096
2438.1711,37.192486570462734
2439.5433,41.136648681186216
2440.9148,30.857901539948216
2442.2856,33.20626504292977
2443.6557,31.331758777731466
2445.025,36.734401999892725
2446.3937,34.36421365163733
2447.7617,38.121212307845326
2449.1289,38.30541619975338
2450.4955,43.26684317738909
2451.8613,54.255510707725534
2453.2265,40.071435825069784
2454.5909,37.91463502117358
2455.9546,38.23512438707803
2457.3177,42.63291963467691
2458.68,45.75803609351442
2460.0416,54.56048866680658
2461.4025,50.940291800188334
2462.7627,54.94745939369477
2464.1222,54.2820048379549
2465.4811,47.49394097412687
2466.8392,53.63328010054829
2468.1966,56.700034040621176
2469.5533,61.54421408141434
2470.9093,64.11583094299931
2472.2645,72.11489473000574
2473.6191,71.59141490590628
2474.973,68.7954002130241
2476.3262,62.87685867777054
2477.6787,69.33579763860257
2479.0305,67.97222380520952
2480.3816,71.73614319392505
2481.7319,48.977561141360866
2483.0816,63.646482266769226
2484.4306,55.09291069962842
2485.7789,61.31684993295289
2487.1264,53.218302908828264
2488.4733,51.14727195617411
2489.8195,46.75375887172777
2491.165,51.13776494075387
2492.5097,51.89929098098173
2493.8538,48.938337298764054
2495.1972,52.3049036814607
2496.5398,46.3989894270494
2497.8818,42.47059331045966
2499.2231,60.169713642630995
2500.5637,44.39634830979821
2501.9035,37.550494596500585
2503.2427,44.53214934331413
2504.5812,49.741309015311344
2505.919,45.52796963224546
2507.256,58.44212671645573
2508.5924,48.433775335004384
2509.9281,50.8029099705318
2511.2631,49.6995246213412
2512.5974,46.72361277770665
2513.9309,53.22516743290839
2515.2638,53.40418111299118
2516.596,56.11064581174742
2517.9275,47.14455298892881
2519.2583,42.75589354318231
2520.5884,35.1946579017108
2521.9178,56.96083606415914
2523.2465,55.45441767822717
2524.5745,48.92539182200562
2525.9018,52.17374701904191
2527.2284,59.69947130363039
2528.5543,66.50255218832945
2529.8796,54.88297658870215
2531.2041,62.89073075528859
2532.5279,69.92580038979827
2533.851,62.33817056503585
2535.1735,65.57782565454727
2536.4952,59.194749408497955
2537.8163,72.98892492127561
2539.1366,58.760334695321944
2540.4562,69.45896050319038
2541.7752,61.784783529832794
2543.0935,68.93778426561244
2544.411,63.96794258304635
2545.7279,75.82523766527402
2547.0441,80.55964805575672
2548.3596,80.6211515397049
2549.6744,81.00972509673261
2550.9885,69.22534490024304
2552.3019,85.26798631354313
2553.6146,88.0876240076866
2554.9266,92.03423180104915
2556.2379,73.60778263113025
2557.5485,84.95824851508883
2558.8585,79.43560073400545
2560.1677,92.53980971938017
2561.4762,82.67084510835684
2562.7841,86.47867561268299
2564.0913,84.3632691173998
2565.3977,87.57459264276144
2566.7035,95.61261236539121
2568.0086,90.32729358616689
2569.313,102.26860064984044
2570.6167,95.43649699789194
2571.9197,95.53094504911587
2573.222,98.0019062679421
2574.5236,102.14934116349127
2575.8246,111.02320926486595
2577.1248,93.02346907967626
2578.4244,106.3000780053012
2579.7232,110.55299250888652
2581.0214,115.13216799457791
2582.3189,126.0375587609924
2583.6157,123.76911795542674
2584.9118,132.8767974648033
2586.2072,126.31054793835347
2587.5019,130.67031869654193
2588.7959,130.20605779672678
2590.0893,134.2677119895643
2591.3819,139.65522672365069
2592.6739,140.86854610490514
2593.9652,131.10761284269506
2595.2557,132.62236823770377
2596.5456,134.4127522795377
2597.8348,152.47870363158017
2599.1234,140.42015961308812
2600.4112,140.68705601853208
2601.6983,145.22932723818076
2602.9848,134.3469062554343
2604.2705,146.43972460139912
2605.5556,144.10771246371428
2606.84,138.10079856562174
2608.1237,156.91891018928686
2609.4067,149.96197323586875
2610.689,148.0799120373381
2611.9707,133.1726494260456
2613.2516,133.99010675354475
2614.5319,132.1322040396626
2615.8115,126.44885996432504
2617.0903,130.3899918861373
2618.3685,135.30551589921606
2619.6461,129.74534679377894
2620.9229,129.65939800698857
2622.199,138.99758167855407
2623.4745,130.65980865159258
2624.7493,128.5459883792446
2626.0234,136.35602900805384
2627.2968,142.78983739910495
2628.5695,127.94731904992204
2629.8415,139.67837803013094
2631.1128,135.48291712988635
2632.3835,141.86083774255894
2633.6535,136.41203990669032
2634.9228,134.43642224221458
2636.1914,141.78388200494555
2637.4593,127.40431510633334
2638.7265,135.8976160399909
2639.9931,137.66367802548825
2641.259,137.30239292342003
2642.5242,142.9136512177447
2643.7887,129.4473420193981
2645.0525,150.35335301017972
2646.3156,139.53157057741714
2647.5781,127.18187960490468
2648.8398,136.85416358112184
2650.1009,123.74830472273038
2651.3613,121.7641838778502
2652.6211,121.55168065711814
2653.8801,119.46067345353072
2655.1385,144.14103944456656
2656.3961,126.94265461309988
2657.6531,132.76539350059466
2658.9094,127.25912937908856
2660.1651,147.07373419296528
2661.42,139.3590786140178
2662.6743,149.21503184330209
2663.9279,149.3414616882833
2665.1808,140.2382344642765
2666.433,147.25521499318347
2667.6846,144.69226669452314
2668.9354,143.799251515263
2670.1856,150.22602995544798
2671.4351,153.12246107713077
2672.6839,163.6884024401038
2673.9321,165.37371007293564
2675.1795,162.77823836731181
2676.4263,163.7518400611823
2677.6724,164.9943662647147
2678.9179,168.55566645055933
2680.1626,173.73558844142417
2681.4067,172.53397837446096
2682.6501,171.75068064946663
2683.8928,152.33553794089948
2685.1348,159.3883912057106
2686.3761,156.8090798774972
2687.6168,155.4474417959725
2688.8568,162.9033132327595
2690.0961,152.02652890500735
2691.3348,141.41692190083245
2692.5727,147.6743237880869
2693.81,142.4985647204535
2695.0466,140.83947337487257
2696.2826,144.0968770032996
2697.5178,148.6706014492952
2698.7524,138.11047111545304
2699.9863,153.76630891766035
2701.2195,137.33793639069995
2702.452,155.47517353169246
2703.6839,160.97783896437886
2704.9151,169.29574975774904
2706.1456,158.97872137101467
2707.3755,160.67656757043096
2708.6046,180.73910053246595
2709.8331,179.56613082682293
2711.0609,182.90746721581468
2712.2881,196.26291666609336
2713.5145,201.98228431523785
2714.7403,203.0653733381978
2715.9654,219.26198489010108
2717.1899,228.0719180954227
2718.4136,238.44496988601827
2719.6367,247.5309349130248
2720.8591,260.47960544313014
2722.0809,267.7907712677136
2723.3019,276.2642195733588
2724.5223,283.44973486874187
2725.7421,294.347098899897
2726.9611,290.4060905783622
2728.1795,276.82648587220433
2729.3972,286.75805784543013
2730.6142,264.75057679378256
2731.8306,256.45381014542386
2733.0462,232.06752268101036
2734.2612,205.1414766166613
2735.4756,197.32543184782116
2736.6892,191.5691462185207
2737.9022,167.1723755995365
2739.1145,155.5348739459548
2740.3262,136.60639354113732
2741.5372,124.73668511309734
2742.7475,112.32549802378594
2743.9571,107.52258038778632
2745.1661,95.92767919642847
2746.3744,84.94054036581565
2747.582,85.01090885277608
2748.7889,80.33852876473111
2749.9952,61.32314335899514
2751.2008,56.56449508949663
2752.4057,57.112325796932964
2753.61,47.61637675635711
2754.8136,48.026388671698896
2756.0165,46.34210177072555
2757.2188,41.363255800939896
2758.4204,30.289590046423882
2759.6213,29.37084337762849
2760.8215,31.156754362108586
2762.0211,25.747061273711097
2763.22,32.04150207471662
2764.4182,20.239814469934117
2765.6158,15.691735843759261
2766.8127,19.947003378188583
2768.009,6.255354098302632
2769.2045,6.666524829711307
2770.3994,-2.369747664528404
2771.5936,3.996273311975756
2772.7872,-9.485651870605011
2773.9801,-13.165762882061927
2775.1723,-15.04420463052486
2776.3639,-19.770990498152173
2777.5548,-12.345983575499076
2778.745,-17.51884944092626
2779.9346,-17.33913033641886
2781.1235,-8.856193490656779
2782.3117,-14.169232914408326
2783.4992,-21.277354145069353
2784.6861,-3.7795211693999136
2785.8723,-2.9744854133925855
2787.0579,-1.4609605456238342
2788.2428,-0.7376305195618897
2789.427,1.7468353063210316
2790.6106,7.243774942480627
2791.7935,13.354526381904634
2792.9757,21.48042754514347
2794.1573,27.672816219200968
2795.3382,45.833029976277885
2796.5184,61.662406111845485
2797.698,54.7622814630472
2798.8769,67.18399225040116
2800.0551,78.12887414680335
2801.2327,95.49826215330995
2802.4096,115.09349048968693
2803.5859,124.86589242071818
2804.7615,147.71680006025122
2805.9364,163.0975442734748
2807.1106,180.75945444841068
2808.2842,218.45385834210538
2809.4572,252.43208190401174
2810.6294,270.3454488990453
2811.801,322.5952805677998
2812.972,352.232895447416
2814.1423,391.90960884908236
2815.3119,433.8267325616582
2816.4808,470.0355744549083
2817.6491,529.5374380603298
2818.8167,565.6336222090645
2819.9837,620.6754204368815
2821.15,666.5141206232133
2822.3157,697.0010044407397
2823.4807,752.1373468969987
2824.645,811.2244160295197
2825.8086,842.9634723544589
2826.9716,891.205768275729
2828.134,930.4525477676095
2829.2957,963.7050458923222
2830.4567,991.1644884075647
2831.617,1006.8320914339843
2832.7767,1014.6090611805823
2833.9358,1012.3465937880412
2835.0941,1012.3458752509521
2836.2519,1008.0580814404407
2837.4089,987.2843781041752
2838.5653,986.2259209092435
2839.7211,978.3838556498897
2840.8761,973.9593182580998
2842.0306,994.0534348820227
2843.1843,1023.6173219302141
2844.3374,1073.802085870696
2845.4899,1114.5588229353184
2846.6417,1195.4886186179108
2847.7928,1268.7925472667146
2848.9433,1346.721671275086
2850.0931,1405.427040348457
2851.2422,1480.6096907250433
2852.3907,1550.4706445887898
2853.5385,1617.3609093175467
2854.6857,1656.631476784456
2855.8323,1715.2833226890539
2856.9781,1766.7674061645596
2858.1233,1805.3846691913611
2859.2679,1854.2360360821722
2860.4118,1901.7724130958616
2861.555,1937.0946879489375
2862.6976,1971.603729340185
2863.8395,1992.1503865974437
2864.9808,2014.485489332513
2866.1214,2037.5098472356922
2867.2614,2060.2742498524235
2868.4007,2063.529466353053
2869.5393,2058.026245305185
2870.6773,2083.8653146411293
2871.8146,2091.197381712933
2872.9513,2089.8231330339922
2874.0874,2098.7932342057293
2875.2227,2088.4583299313335
2876.3574,2051.769043926066
2877.4915,2037.4759790206006
2878.6249,2015.679717527923
2879.7577,1983.4308213862607
2880.8898,1962.6798323770427
2882.0212,1942.727272447392
2883.152,1929.0736439176321
2884.2821,1933.0694296808158
2885.4116,1917.0650933392596
2886.5405,1910.0610791645863
2887.6686,1925.0078122577681
2888.7962,1932.8556986191668
2889.923,1957.505124999067
2891.0493,1944.9564588191956
2892.1748,1954.6100479262304
2893.2997,1964.2662207172843
2894.424,1981.7752860433707
2895.5476,1997.5375331128412
2896.6706,2024.3032313162935
2897.7929,2041.9226300689534
2898.9145,2069.795958543012
2900.0355,2110.7234254914365
2901.1559,2144.405218969234
2902.2756,2177.2915059241786
2903.3946,2206.2824318599914
2904.513,2251.778120507482
2905.6308,2254.6286735346343
2906.7479,2307.0841700916517
2907.8643,2313.844666782453
2908.9801,2326.360197140113
2910.0953,2326.930771559263
2911.2098,2314.4063771709343
2912.3236,2329.686977836848
2913.4368,2329.1725142746636
2914.5494,2298.3629039051702
2915.6613,2268.008040857433
2916.7725,2243.957796276888
2917.8831,2211.4620186288917
2918.9931,2188.320533939223
2920.1024,2149.8331461190432
2921.211,2132.1496371963067
2922.319,2124.1197677006385
2923.4264,2108.093276840165
2924.5331,2093.6198825818183
2925.6391,2079.249281811595
2926.7445,2078.481150479298
2927.8493,2082.3151437422316
2928.9534,2077.2008959728946
2930.0569,2070.83802072063
2931.1597,2070.6761107627767
2932.2619,2065.3647381682895
2933.3634,2058.953454299365
2934.4643,2063.1917898645497
2935.5645,2035.979254982858
2936.6641,2014.6153391413861
2937.763,1953.599511467439
2938.8613,1920.2812209421677
2939.959,1852.95989701073
2941.056,1812.5849499154706
2942.1523,1723.555771369136
2943.248,1643.6217349586232
2944.3431,1535.9821970352723
2945.4375,1462.1364975142053
2946.5313,1351.8839609507238
2947.6244,1246.7738972787645
2948.7169,1167.3056029134243
2949.8087,1069.8283618020623
2950.8999,977.2414462189821
2951.9904,918.044117740204
2953.0803,825.2356281693351
2954.1696,771.1152201295408
2955.2582,713.182127991631
2956.3462,681.4355784152631
2957.4335,653.0247909282734
2958.5202,608.7489782441437
2959.6062,588.9073465461076
2960.6916,582.7490959299105
2961.7764,563.1234206022252
2962.8605,546.1295089422345
2963.9439,531.266543697887
2965.0267,535.3337021558373
2966.1089,513.8301562900751
2967.1905,514.4050727212525
2968.2714,525.5076129317204
2969.3516,509.9869332597798
2970.4312,522.6421847886554
2971.5102,530.0725135017037
2972.5885,537.3270601558588
2973.6662,532.7049602073305
2974.7432,524.3053437390577
2975.8196,533.4773355069301
2976.8954,525.920055023785
2977.9705,513.5326164676858
2979.045,518.8641287574959
2980.1188,498.1636956767537
2981.192,477.18041582035494
2982.2645,461.4133828015599
2983.3364,441.91168546182394
2984.4077,415.17440802847
2985.4783,397.7506303097043
2986.5483,356.43942796198974
2987.6177,338.589872664283
2988.6864,300.70103253114723
2989.7545,270.67197229124747
2990.8219,256.55175366623814
2991.8887,227.3394356710545
2992.9548,196.9340747551147
2994.0204,169.78472509444282
2995.0852,136.5404388957221
2996.1495,125.50026666778945
2997.2131,96.81325755407738
2998.276,85.42845944301598
2999.3383,63.04491925490299
3000.4,54.86168305575143
3001.4611,41.677796281124984
3002.5215,19.942303817970583
3003.5812,21.204250136457176
3004.6404,11.212679507331359
3005.6989,6.716635989297629
3006.7567,7.315163528933681
3007.8139,-8.742693994348087
3008.8705,2.7921072257132664
3009.9264,-9.381301665108367
3010.9818,-8.463789548960222
3012.0364,-7.006131588785593
3013.0905,-14.259018394270925
3014.1439,-15.073070583848448
3015.1966,-8.29876632835635
3016.2487,-2.436433218658067
3017.3002,-12.636315940941586
3018.3511,3.1513651585727303
3019.4013,1.676515970460514
3020.4509,8.13904235378368
3021.4998,9.18885015084004
3022.5481,9.625845122536475
3023.5958,17.099932937892163
3024.6428,15.511019169668089
3025.6892,29.109009219626273
3026.735,34.54380833441894
3027.7802,33.06532146960808
3028.8247,34.17345323531799
3029.8685,50.96810791101984
3030.9118,52.49918943445073
3031.9544,62.26660123366696
3032.9963,67.82024621173264
3034.0376,75.36002664904697
3035.0783,83.63584414780655
3036.1184,90.84759955660786
3037.1578,97.44519288768925
3038.1966,112.62852324481344
3039.2348,113.34748875729133
3040.2723,110.45198642814842
3041.3092,116.44191212693613
3042.3455,112.36716061868623
3043.3811,114.27762550401167
3044.4161,117.9731992598542
3045.4505,121.65377322037926
3046.4842,112.36923754002055
3047.5173,109.2694811566746
3048.5498,109.05439188454574
3049.5816,104.77385644514356
3050.6128,116.52776046943416
3051.6434,97.16598854064495
3052.6734,104.13842407672621
3053.7027,104.14494952396842
3054.7314,105.83544628727799
3055.7594,98.05979473011206
3056.7868,97.96787415757365
3057.8136,94.85956289416788
3058.8398,88.28473828472164
3059.8653,93.39327672546642
3060.8902,84.6850537297866
3061.9145,86.45994387713415
3062.9381,84.96782090011033
3063.9612,93.60855766671733
3064.9835,82.58202619527958
3066.0053,88.38809756803579
3067.0264,70.22664204140517
3068.0469,75.79752898792606
3069.0668,79.10062707787051
3070.086,70.53580422353588
3071.1046,68.50292754621319
3072.1226,58.101863461835535
3073.1399,55.0824777013072
3074.1567,49.594635414513846
3075.1727,42.48820120051681
3076.1882,37.91303916243123
3077.203,37.26901297849008
3078.2173,31.355985947796626
3079.2308,34.32382099676386
3080.2438,25.522380738245374
3081.2561,20.30152744185642
3082.2678,19.46112312198869
3083.2789,17.80102959001846
3084.2893,15.071108462711152
3085.2991,11.22122117882168
3086.3083,6.7512290263940145
3087.3169,9.560993181260187
3088.3248,1.350374751739821
3089.3321,3.469234750542739
3090.3388,7.717434176875088
3091.3449,-1.7551660047490714
3092.3503,1.3012950930102534
3093.3551,-4.513304108398643
3094.3593,-0.1490852005402985
3095.3629,-2.7061246870712807
3096.3658,-6.734497582286963
3097.3681,2.8657481337026525
3098.3698,1.294631758418518
3099.3708,-3.8978274392758863
3100.3713,6.338389796536774
3101.3711,0.7533416610698964
3102.3702,-5.352913713847329
3103.3688,-3.2303182039185003
3104.3667,3.6712397907602394
3105.364,6.851904140971783
3106.3607,-3.238181319213311
3107.3568,2.6511271757568124
3108.3522,3.4200057408652356
3109.347,6.968630464583896
3110.3412,12.847177401184865
3111.3348,4.8558225352540205
3112.3277,7.944741722905633
3113.32,12.51411077169567
3114.3117,11.114105409732815
3115.3028,9.394901239984506
3116.2932,10.906673754277278
3117.2831,13.599598350488947
3118.2723,14.123850317430367
3119.2608,11.629604807916849
3120.2488,16.367036833525162
3121.2361,18.436321289535897
3122.2229,17.987632907559572
3123.209,22.32114623484341
3124.1944,20.18703563875863
3125.1793,25.085475263464872
3126.1635,20.71663905125166
3127.1471,21.130700693553734
3128.1301,27.22783367463964
3129.1125,19.658211267471017
3130.0942,29.322006472731374
3131.0753,27.819392094522158
3132.0558,33.70054064372485
3133.0357,29.8656243530271
3134.015,27.61481511811124
3134.9936,32.34828453600343
3135.9716,27.416203927581705
3136.949,27.268744290241415
3137.9258,35.50607634721584
3138.902,35.72837054905071
3139.8775,38.18579699123097
3140.8524,41.77852541195813
3141.8267,40.90672516757567
3142.8004,41.52056519664188
3143.7735,44.170214028647905
3144.7459,49.80583977787933
3145.7178,46.27761011691965
3146.689,48.635692220294004
3147.6596,48.43025279975143
3148.6295,50.911458080684326
3149.5989,51.67947380418258
3150.5676,51.5344652022215
3151.5357,49.27659698998181
3152.5032,54.106033367299744
3153.4701,54.32293804124549
3154.4364,55.67747417782908
3155.402,52.369804399831224
3156.367,59.55009077325775
3157.3315,62.568494840416676
3158.2952,61.07517754811501
3159.2584,63.22029921747493
3160.221,64.85401955886701
3161.1829,64.42649765045871
3162.1442,66.18789192187735
3163.105,65.43836015848538
3164.065,65.72805948376629
3165.0245,67.05714636682009
3165.9834,63.82577661946624
3166.9416,67.83410538295271
3167.8993,70.53228716026985
3168.8563,75.62047577606693
3169.8127,70.44882434967047
3170.7684,69.6174852442023
3171.7236,80.12661011829601
3172.6782,74.62634993441056
3173.6321,78.86685485373869
3174.5854,80.39827429120987
3175.5381,85.52075687308485
3176.4902,79.28445042164181
3177.4417,78.83950190395137
3178.3926,82.53605749423964
3179.3428,84.72426257833774
3180.2924,85.80426171671645
3181.2415,87.8261986226038
3182.1899,90.94021615118537
3183.1377,85.1464562793847
3184.0848,94.59506007472312
3185.0314,92.43616775325754
3185.9773,93.11991858509417
3186.9227,96.84645091597767
3187.8674,93.26590216045346
3188.8115,96.47840876460258
3189.755,97.98410624184702
3190.6979,93.88312914082474
3191.6402,100.42561103033265
3192.5818,100.71168454033634
3193.5229,101.14148129654536
3194.4633,105.96513191755241
3195.4031,104.83276601053532
3196.3423,110.14451212302075
3197.2809,106.95049775420756
3198.2189,110.15084930184963
3199.1563,108.54569209419573
3200.0931,109.08515035798628
3201.0292,108.86934723450467
3201.9648,113.3984047741828
3202.8997,115.47244393875917
3203.834,113.59158455598819
3204.7677,110.20594529889988
3205.7008,111.81564370460833
3206.6333,118.07079620816832
3207.5652,118.87151812647818
3208.4964,119.56792359572817
3209.4271,123.9601255633935
3210.3571,124.94823578127013
3211.2865,122.0823647615527
3212.2154,129.31262176695355
3213.1436,127.38911483936137
3214.0712,128.36195072753864
3214.9982,125.53123490635662
3215.9246,129.14707156706714
3216.8503,129.65956364560967
3217.7755,134.71881278645296
3218.7001,130.82491933747008
3219.624,141.427982299346
3220.5473,132.62809936451657
3221.4701,141.8753668111376
3222.3922,141.31987959108412
3223.3137,141.21173123747735
3224.2346,144.05101387023976
3225.1549,141.23781819717647
3226.0746,145.12223348558237
3226.9937,147.4543475903743
3227.9121,149.68424691524666
3228.83,148.56201638935042
3229.7473,148.98773944499402
3230.6639,150.31149802886574
3231.5799,154.88337259777643
3232.4954,157.40344210542202
3233.4102,155.2217839566646
3234.3244,155.88847398233196
3235.238,153.85358646103393
3236.151,160.01719411249564
3237.0634,160.02936811790636
3237.9752,161.74017805828333
3238.8864,158.94969191435013
3239.797,164.65797604942844
3240.7069,167.11509523734313
3241.6163,165.57111260533912
3242.5251,167.92608960951043
3243.4332,163.93008605023996
3244.3408,169.4831600486496
3245.2477,171.13536808656042
3246.154,168.33676495096182
3247.0598,165.9374037174895
3247.9649,173.88733577841157
3248.8694,172.9866108666221
3249.7733,175.43527697614164
3250.6766,176.6333803711246
3251.5793,180.83096556137266
3252.4814,178.37807529035354
3253.3829,181.32475049322534
3254.2838,181.9710303213654
3255.1841,180.4169521129034
3256.0838,180.16255138625888
3256.9829,183.75786185568163
3257.8814,180.452915433796
3258.7792,191.19774219564775
3259.6765,183.74237041175334
3260.5731,189.08682644065183
3261.4692,185.43113480345846
3262.3647,186.37531813042023
3263.2595,184.71939719747272
3264.1538,188.21339091679823
3265.0474,193.90731635338506
3265.9404,186.60118869008744
3266.8329,187.39502117068653
3267.7247,188.5388251729515
3268.616,192.23261020070134
3269.5066,191.37638387236677
3270.3966,190.47015188405237
3271.286,187.76391801809876
