RamanShift,CorrectedData
30.1047,1309.421658691257
32.3739,1213.8202769621364
34.6426,1120.218882138799
36.9109,1029.0674489888256
39.1787,936.4659410776078
41.4461,843.5643116798622
43.7131,753.7625047056462
45.9796,662.1104556293733
48.2456,569.1580923878314
50.5112,482.7053362967034
52.7764,387.1021029800911
55.0411,295.6483032350427
57.3054,208.89384398758529
59.5692,116.23862920726272
61.8326,27.232560774680522
64.0955,-59.024460591942216
66.3579,-142.482534446712
68.6199,-226.19117068937405
70.8815,-296.0984558191546
73.1426,-310.050216685485
75.4032,-198.23932211422294
77.6634,213.2444564704383
79.9231,1314.8133280551328
82.1824,3816.7294994940507
84.4412,8325.505164493248
86.6995,14623.802478591488
88.9574,20678.98351407248
91.2148,24761.260196981915
93.4717,26567.944246575644
95.7282,26794.29713449692
97.9842,26429.730066709548
100.2398,25627.853981234373
102.4949,24812.029551794934
104.7495,23855.71719583623
107.0036,22828.127082682964
109.2573,21923.769143102676
111.5105,21095.00307958163
113.7632,20285.638375368395
116.0154,19611.484302761524
118.2672,19094.64993120317
120.5185,18522.34413402066
122.7693,18130.57559359481
125.0197,17742.05280708302
127.2696,17408.734090336893
129.519,17115.777581787548
131.7679,16743.091245778738
134.0163,16431.432875496455
136.2642,15987.610096695778
138.5117,15617.780370817452
140.7587,15202.500999426136
143.0052,14800.579127908677
145.2512,14419.521749626916
147.4967,14053.835709936906
149.7417,13740.92770999948
151.9863,13540.954310437111
154.2304,13306.521934463011
156.4739,13063.936869880843
158.717,12882.805271429046
160.9596,12620.183163206704
163.2017,12273.326440484845
165.4433,11857.340872332667
167.6844,11494.932105086104
169.925,11068.155666507684
172.1651,10612.216969410616
174.4047,10237.621315926554
176.6439,9913.623902064975
178.8825,9607.729821459157
181.1206,9381.144068606143
183.3582,9134.57154192567
185.5954,8959.717046026039
187.832,8785.685294169833
190.0681,8670.130910022473
192.3037,8578.458429392535
194.5388,8489.272301387273
196.7734,8442.776889329372
199.0075,8425.92647164879
201.2411,8502.42524234772
203.4742,8464.677311169093
205.7068,8585.536702831589
207.9389,8563.657357407123
210.1704,8683.643129112243
212.4015,8696.647786526923
214.632,8792.125011394714
216.862,8889.178398492684
219.0915,8939.361454676662
221.3205,9026.677597910686
223.549,9082.030156765195
225.777,9177.72236954384
228.0044,9341.407383729987
230.2314,9526.088255029768
232.4578,9693.51794573525
234.6837,9847.949322877615
236.909,9967.435156552878
239.1339,9839.328118377558
241.3582,9674.680780293826
243.582,9361.545615850577
245.8053,9130.82500184991
248.0281,8861.871221478454
250.2503,8696.8364666146
252.472,8605.87284051804
254.6932,8604.03235948009
256.9139,8575.616953733354
259.134,8634.428467470114
261.3536,8709.168659126488
263.5727,8832.289200794301
265.7912,8948.441677473711
268.0092,9057.32758584197
270.2267,9090.198333091921
272.4436,9078.405235843142
274.6601,9007.149519813222
276.8759,8820.032319935697
279.0913,8677.804681072628
281.3061,8533.267559885742
283.5204,8437.271826258733
285.7341,8359.168264742628
287.9473,8392.957575515722
290.16,8479.890375164645
292.3721,8611.367196346455
294.5837,8877.388486919319
296.7947,9068.204608627719
299.0052,9193.165834442265
301.2152,9046.872346651524
303.4246,8761.724235612399
305.6334,8224.421501213083
307.8418,7725.514055724527
310.0495,7281.701729173488
312.2568,6841.884274331573
314.4635,6461.961371153373
316.6696,6210.232631174653
318.8752,6014.397601311564
321.0802,5906.155766377939
323.2847,5928.0065510436325
325.4887,5943.4493209169505
327.692,5852.483382326132
329.8949,5713.057982164926
332.0972,5440.622308802254
334.2989,5161.425493476459
336.5001,4822.76661301967
338.7007,4566.84469264976
340.9008,4413.8087093569375
343.1003,4228.857594462976
345.2992,4072.290235151566
347.4976,3980.055476317819
349.6955,3872.8521221339506
351.8927,3850.3789369716305
354.0895,3765.584646474008
356.2856,3736.867937780453
358.4812,3657.377460374488
360.6763,3642.911826370966
362.8707,3553.219611310966
365.0646,3560.0493543064676
367.258,3573.6995589372546
369.4508,3580.9686931826236
371.643,3636.9051892848784
373.8346,3677.3574436766376
376.0257,3694.4738164214723
378.2162,3609.9526308093773
380.4062,3540.292173185615
382.5956,3354.0906937959244
384.7844,3194.3964074831383
386.9726,3028.3574955491913
389.1603,2963.0721073520563
391.3474,2875.1883619661385
393.5339,2806.054348835123
395.7199,2733.7681286508196
397.9052,2723.177734044488
400.09,2732.731170309713
402.2743,2846.8764155083136
404.4579,2920.661420374796
406.641,3071.734107174909
408.8235,3270.3423689677766
411.0054,3484.934068095201
413.1868,3740.2070341955605
415.3675,3862.209062057891
417.5477,3928.187909069169
419.7273,3869.391293994284
421.9064,3796.5668963162516
424.0848,3649.662356824181
426.2627,3405.225278341508
428.4399,3173.2032271950557
430.6166,2794.7437356594
432.7928,2419.244304277099
434.9683,2074.852405643278
437.1432,1859.6154881606253
439.3176,1649.8309794833094
441.4914,1500.5462886693404
443.6645,1422.4088082784237
445.8371,1367.6159158648134
448.0091,1308.414974758667
450.1806,1274.9033346139913
452.3514,1202.9783320006536
454.5216,1226.8372907394823
456.6913,1169.9275226215304
458.8603,1184.2963271694716
461.0288,1226.8409922067167
463.1967,1198.3087937137134
465.3639,1240.9469954025008
467.5306,1274.8528490020362
469.6967,1306.5235938318056
471.8622,1377.2064564627872
474.0271,1440.048650400724
476.1914,1470.997375379302
478.3551,1443.6998167317252
480.5182,1466.653145081229
482.6807,1506.4545166140597
484.8426,1667.6510728499397
487.0039,1971.4899402440533
489.1647,2303.0682285750754
491.3248,2653.033027906791
493.4843,2795.781405272315
495.6432,2787.5104011744315
497.8015,2634.967028158122
499.9592,2568.598270893266
502.1163,2418.7010877000776
504.2728,2117.072411212799
506.4287,1815.609149878659
508.5839,1430.2581909741712
510.7386,1149.6664036197672
512.8927,1028.8306426332965
515.0461,975.1477513359478
517.199,985.56456276061
519.3512,1078.1779001886898
521.5029,1279.5345770459626
523.6539,1432.8813959764248
525.8043,1508.8651468287208
527.9541,1449.2326051227028
530.1033,1323.1305312895638
532.2519,1251.8056712681791
534.3999,1252.1047577661393
536.5472,1398.424510972971
538.694,1699.6116385571695
540.8401,2120.662834202978
542.9856,2438.674774598543
545.1305,2496.244115225383
547.2748,2392.51748717828
549.4185,2151.891496589573
551.5615,1896.412725666436
553.704,1856.7277350971362
555.8458,1883.33306660581
557.987,1995.125243349321
560.1276,2131.1507696512144
562.2675,2397.456129883787
564.4069,2690.137787107833
566.5456,2981.8921804095917
568.6837,3013.1657219739336
570.8212,2636.604794166813
572.958,2113.60574922253
575.0942,1617.1649130093483
577.2299,1231.6785902594856
579.3648,1144.0430695335053
581.4992,1147.554627075191
583.6329,1277.2595276879038
585.766,1468.7540246994668
587.8985,1586.5843586651026
590.0304,1593.4967554524974
592.1616,1546.5874250635025
594.2922,1434.5025615649974
596.4222,1234.8883435579974
598.5515,1058.1909352984894
600.6802,896.0064886935888
602.8083,714.3311450685087
604.9358,718.2610367883972
607.0626,708.6422890750964
609.1888,733.5210199678513
611.3144,804.0933404194857
613.4393,856.8553540476205
615.5636,881.0031564289638
617.6873,845.8328345716691
619.8103,777.9404666738737
621.9327,629.3221224753852
624.0544,481.673863936614
626.1756,391.891746724752
628.2961,270.47182169026564
630.4159,206.81013576471196
632.5351,193.80273317492902
634.6537,167.74565607965997
636.7716,154.48494469962498
638.8889,184.06663757808747
641.0056,208.13677171345807
643.1216,178.84138226349023
645.237,208.57650230458603
647.3518,164.03816312472372
649.4659,151.1723939261392
651.5793,107.72522227069567
653.6922,77.39267420854594
655.8043,77.82077471258344
657.9159,55.955547981791824
660.0268,34.34301743694232
662.137,-0.7707940607397177
664.2466,-1.7898639934410312
666.3556,-2.6181621431260282
668.4639,-37.25964041101906
670.5716,2.0317754570987745
672.6786,-14.547468060762185
674.785,-11.800944784035892
676.8907,19.467916797040743
678.9958,77.85580608366035
681.1002,34.80941228234042
683.204,6.475423821046206
685.3072,-1.249471220347914
687.4097,-24.968584826712686
689.5115,-21.885216500715615
691.6127,-32.05241630886667
693.7132,-64.02301568436269
695.8131,-68.34952585676729
697.9123,-55.73381846574193
700.0109,-50.177082339178014
702.1089,-48.17994952414119
704.2061,6.057449201358395
706.3028,64.23546437698678
708.3987,95.55444648186312
710.4941,151.76474535274974
712.5887,262.26670987088255
714.6827,442.6106873998633
716.7761,684.8470226806276
718.8688,932.2260560280338
720.9608,1110.5981209084566
723.0522,1223.26354146602
725.1429,1190.5726307388577
727.233,1121.0756895324776
729.3224,1061.973006746668
731.4112,905.6148600704582
733.4993,764.5515165731576
735.5867,564.8832342679325
737.6735,421.21026352243643
739.7596,253.53284905549663
741.845,183.8512313738429
743.9298,134.41564844887034
746.014,108.22633641347784
748.0974,132.18353005640893
750.1802,136.2874630841452
752.2624,152.8383678813443
754.3439,191.186475469789
756.4247,271.2820153428929
758.5048,454.725215082206
760.5843,749.3162995564708
762.6631,1136.8054890871936
764.7413,1696.7429965027186
766.8188,2402.4290232633502
768.8956,2867.813753861963
770.9718,3224.0973487671454
773.0473,3144.5299397693543
775.1221,2857.2616264180815
777.1962,2546.5924768175228
779.2697,2381.1225304992713
781.3426,2472.5018015289897
783.4147,2614.5802801611335
785.4862,2795.9079319251414
787.557,2714.9846962046486
789.6271,2295.7604844242214
791.6966,1719.035180858582
793.7654,1144.0086468248555
795.8335,799.6807264498148
797.901,537.4512524201655
799.9678,436.0200494258097
802.0339,396.6369367821444
804.0993,379.70172944437945
806.1641,361.1142384013565
808.2282,286.17427084490555
810.2916,213.2816303557247
812.3544,162.28611765276946
814.4164,92.08753132219499
816.4778,135.9356683272963
818.5385,157.83032471050683
820.5986,283.52129515490014
822.658,504.2083727652607
824.7166,742.3413478111652
826.7747,1206.8200055201178
828.832,1596.094123696219
830.8886,1858.7134680753807
832.9446,2061.077788432576
834.9999,1993.2368159556481
837.0545,1808.3402612216723
839.1085,1578.4878148753505
841.1618,1392.0791494779915
843.2143,1245.0139218060249
845.2662,1092.7417747151048
847.3175,980.5123386107534
849.368,890.2752329710711
851.4179,777.930067469053
853.467,686.676442874943
855.5155,615.7139521796962
857.5633,535.042181507506
859.6105,456.46071082543676
861.6569,415.2191147501362
863.7027,357.2169633336489
865.7478,321.80382247582565
867.7922,316.4792545043638
869.8359,330.24281852891545
871.8789,402.2940704943594
873.9212,519.4825630431405
875.9629,643.6578447947741
878.0039,808.0194591739491
880.0441,904.3169431687911
882.0837,979.6998256872284
884.1226,979.0176265940208
886.1609,982.9198559569359
888.1984,991.2560140535788
890.2352,1101.5755913323574
892.2714,1104.4280683291308
894.3069,1058.1129145640152
896.3416,928.229588512846
898.3757,868.8275380703435
900.4091,798.9062018489312
902.4418,808.0650097727648
904.4739,840.1033837769428
906.5052,890.020737715924
908.5358,852.5664770431395
910.5658,721.4899983118139
912.595,521.890689549522
914.6236,354.1679315689398
916.6515,296.97109996383733
918.6786,227.4995667863168
920.7051,270.6527011187736
922.7309,355.32986976861866
924.756,365.83043683673895
926.7804,481.85376287072177
928.8041,484.1992047598633
930.8272,514.0661145749236
932.8495,492.9038395446769
934.8711,487.01172175724605
936.892,396.4890983717214
938.9123,340.6353016770772
940.9318,344.64965999739616
942.9506,304.1814982504111
944.9688,229.93013790736768
946.9862,178.44489739770142
949.003,66.47509285155502
951.019,23.92003861462399
953.0344,0.6290483678567398
955.0491,24.651435553010742
957.063,84.03651360555887
959.0763,195.13359571446563
961.0888,228.14199422833553
963.1007,316.71101954444384
965.1119,382.28997977865583
967.1223,388.3281798797361
969.1321,380.02492097355207
971.1412,409.07950030269603
973.1495,426.1412113095248
975.1572,435.0593433456106
977.1641,470.13318150111627
979.1704,445.26200651561703
981.1759,416.44509442735944
983.1808,511.7817168219699
985.1849,554.5211411206383
987.1884,663.4126296267405
989.1911,784.7054390984558
991.1932,897.1488196598439
993.1945,942.3420135879187
995.1951,897.3842541882132
997.1951,906.2747653428487
999.1943,832.6627619601077
1001.1928,819.3474498855321
1003.1906,888.6280266380436
1005.1877,974.8536815430889
1007.1841,1036.4235950398397
1009.1798,1034.7869378189407
1011.1748,927.4928702068028
1013.1691,753.5405421819742
1015.1627,534.4290944480745
1017.1556,355.3576601733257
1019.1477,257.1753671816623
1021.1392,152.78133974344746
1023.1299,124.77469955728884
1025.12,172.2545667939885
1027.1093,249.2200603766105
1029.0979,360.42029750567053
1031.0859,425.7043928895
1033.0731,483.22145763223307
1035.0596,436.12059858095745
1037.0454,311.9509177505606
1039.0304,234.81151279472397
1041.0148,97.05147824763844
1042.9985,12.369906295374676
1044.9814,-25.134111846495216
1046.9636,-57.96148508609258
1048.9452,-73.91287124177325
1050.926,-29.788349096652382
1052.9061,-7.13725904426974
1054.8855,16.091356107439424
1056.8642,62.64852485175834
1058.8421,152.9352755210566
1060.8194,163.95263582122243
1062.7959,256.5016319287861
1064.7717,289.63328838076086
1066.7469,345.59862714914743
1068.7213,403.5486673096202
1070.695,463.2344244818596
1072.6679,436.40691025006345
1074.6402,441.6671315660951
1076.6117,420.16609101773975
1078.5826,376.25478677611864
1080.5527,298.2842128106986
1082.5221,304.80535932840394
1084.4908,358.2192135533205
1086.4587,456.0267596614831
1088.426,542.1789782467422
1090.3925,553.1268453426819
1092.3584,576.471331561108
1094.3235,554.1134019825622
1096.2879,571.6540159228753
1098.2515,636.6441271567455
1100.2145,803.4346837423382
1102.1767,964.9266273713874
1104.1382,1167.1208917012773
1106.099,1399.6184007401298
1108.0591,1605.520066824858
1110.0185,1781.0267882961962
1111.9771,1873.2894474396908
1113.9351,1734.8089087306162
1115.8923,1567.0860179113552
1117.8488,1377.621603376212
1119.8045,1121.9664778486222
1121.7596,1002.8214402758204
1123.7139,912.687278385376
1125.6675,923.9647698766512
1127.6204,987.5546833221379
1129.5726,940.7077780546806
1131.524,899.5248035315908
1133.4748,798.5564998030895
1135.4248,684.6535979241653
1137.3741,575.8168209642499
1139.3226,530.6468851462378
1141.2705,485.04450093486776
1143.2176,396.0103734884142
1145.164,381.5452031147033
1147.1097,322.54968616146834
1149.0546,294.17451516098663
1150.9989,228.22037942005045
1152.9424,118.18796530372128
1154.8852,36.22795689485065
1156.8272,-35.40896290558703
1158.7686,-36.872111558877805
1160.7092,-40.9104527907748
1162.6491,11.027418025358202
1164.5883,129.2433142115733
1166.5267,208.4890489796635
1168.4644,385.66643424898575
1170.4014,608.3272798540129
1172.3377,880.6233917725604
1174.2732,1135.9065698991762
1176.2081,1524.8786053221775
1178.1421,1920.6412777708229
1180.0755,2361.746351725573
1182.0082,2646.0455724604963
1183.9401,2764.440661632203
1185.8713,2623.683314436854
1187.8017,2349.4251984262046
1189.7315,2052.1679549151904
1191.6605,1701.8132017245025
1193.5888,1458.6625361531605
1195.5163,1309.3675384820526
1197.4432,1235.5797744054562
1199.3693,1199.4507965239827
1201.2947,1162.382145082438
1203.2193,1163.32534833114
1205.1432,1219.9319228965778
1207.0664,1182.253373771995
1208.9889,1155.8911937513185
1210.9106,1198.4968638059527
1212.8316,1219.2718533484003
1214.7519,1284.2176198062007
1216.6715,1290.7856084141822
1218.5903,1354.8772515649998
1220.5084,1416.7939687434555
1222.4257,1493.4371658855835
1224.3424,1496.0082347594835
1226.2583,1631.4585521988865
1228.1735,1752.7894800774484
1230.0879,1879.602363954251
1232.0016,2020.0485318604842
1233.9146,2139.7292930313197
1235.8269,2113.2959365014503
1237.7384,2027.8497299082828
1239.6492,1915.7419197562613
1241.5592,1878.5737322713412
1243.4686,1831.9963745220703
1245.3772,1953.711034791264
1247.285,2096.568883041782
1249.1922,2182.621069699371
1251.0986,2280.4687242241
1253.0042,2348.612954249822
1254.9092,2419.8548446057084
1256.8134,2512.595456634799
1258.7169,2702.3358274815982
1260.6196,2853.776969164661
1262.5216,3083.2698666791894
1264.4229,3311.7154764826228
1266.3234,3487.2647241997
1268.2232,3628.318502338021
1270.1223,3658.7276685325323
1272.0207,3711.643044135002
1273.9183,3702.865413909931
1275.8151,3653.7955255053894
1277.7113,3646.634089540803
1279.6067,3645.281780097641
1281.5014,3756.1392347910423
1283.3953,3989.107054783328
1285.2885,4307.585803675425
1287.181,4671.776005177204
1289.0727,5016.3281399226835
1290.9637,5222.942641828124
1292.854,5432.119894646508
1294.7435,5484.810229901399
1296.6323,5509.063924795164
1298.5204,5509.631201682074
1300.4077,5503.562227825765
1302.2943,5421.357115393561
1304.1802,5231.865921517172
1306.0653,4920.188649114747
1307.9497,4576.275248785778
1309.8333,4267.525621927871
1311.7162,4080.5896241758783
1313.5984,3959.6670684894107
1315.4798,3899.6077270221704
1317.3605,3892.6113323312056
1319.2405,3858.6775779774816
1321.1197,3682.5061185958584
1322.9982,3494.646570234423
1324.876,3315.5985121162084
1326.753,3090.76148851779
1328.6293,2970.4350105597587
1330.5048,2912.6685584550996
1332.3796,2799.4615827124435
1334.2537,2747.3635047137413
1336.127,2703.4737178463383
1337.9996,2689.5415880239398
1339.8714,2738.7664541255253
1341.7426,2726.8476281346557
1343.6129,2748.334394647234
1345.4826,2735.7760109906885
1347.3515,2767.0217070091203
1349.2196,2757.570685188861
1351.087,2816.6721203460384
1352.9537,2875.1751597210678
1354.8197,3000.328922387658
1356.6849,3177.732498667767
1358.5493,3358.4349488800726
1360.4131,3537.9353015659326
1362.276,3586.7825516823505
1364.1383,3544.225658807003
1365.9998,3359.9635466497366
1367.8606,3011.595103478163
1369.7206,2688.2191839602565
1371.5799,2406.784612648038
1373.4384,2203.5901872113463
1375.2962,1985.484681252181
1377.1533,1699.166846336635
1379.0096,1401.9354141759723
1380.8652,1081.939099489775
1382.7201,800.4766029782877
1384.5742,576.6966145223669
1386.4275,409.4978159980965
1388.2802,283.62888351460606
1390.132,211.6384890860536
1391.9832,152.87530189030622
1393.8336,94.38798898885943
1395.6832,62.12521591445147
1397.5322,34.7356472559477
1399.3803,36.46794698095982
1401.2278,19.82077870975263
1403.0745,48.14280569790935
1404.9204,36.63269100281832
1406.7656,90.6390972004283
1408.6101,127.0606865003756
1410.4538,152.69612020590284
1412.2968,222.39405834964964
1414.139,280.65315943729183
1415.9805,373.772079750579
1417.8213,490.44947276473977
1419.6613,603.2839882172793
1421.5006,767.0242709412205
1423.3391,1039.568959736741
1425.1769,1318.9666857337816
1427.0139,1809.1660696666013
1428.8502,2398.765719079789
1430.6858,2958.3142234262878
1432.5206,3331.660148171377
1434.3547,3599.0520291972007
1436.188,3639.6383690693165
1438.0206,3569.517634362758
1439.8524,3419.638255256181
1441.6835,3351.9986262330713
1443.5139,3235.5971075805337
1445.3435,3202.232026065688
1447.1724,3186.4016760996874
1449.0005,3151.0043200713644
1450.8279,3107.288188505543
1452.6545,3123.651480417013
1454.4804,3157.092363747688
1456.3056,3144.9589752029706
1458.13,3108.8994199173485
1459.9536,2929.0117715757306
1461.7766,2663.8440727740262
1463.5987,2335.2443368180384
1465.4202,2000.6605503751261
1467.2409,1679.8906767602157
1469.0608,1445.8326592816238
1470.88,1186.8844244487636
1472.6984,979.0438843127304
1474.5161,796.1089390557763
1476.3331,654.777479069724
1478.1493,556.4473867853076
1479.9648,482.1165380854909
1481.7795,417.13280328876954
1483.5935,388.79404789246564
1485.4067,330.34813322257196
1487.2192,336.592916717148
1489.031,305.97625251076624
1490.842,264.49599137207315
1492.6522,259.69998100996145
1494.4618,230.18606648836703
1496.2705,236.55209027423462
1498.0785,231.99589253265094
1499.8858,211.01531106319453
1501.6924,185.60818134548117
1503.4981,181.57233674897634
1505.3032,158.75560878707256
1507.1075,140.60582715744567
1508.911,121.87081997022506
1510.7138,116.6484139294871
1512.5159,93.23643452059787
1514.3172,48.98270606244387
1516.1178,9.285051941548772
1517.9176,5.9412950546102365
1519.7166,-4.700741794520582
1521.515,-14.043235861403446
1523.3126,-0.28831744119815994
1525.1094,-16.18797653713318
1526.9055,-24.79420027215383
1528.7008,-21.558814051318222
1530.4954,-52.98339558562293
1532.2893,-53.46930721351873
1534.0824,-59.4673819693362
1535.8747,-17.02791872902617
1537.6663,-17.50062228939987
1539.4572,-25.73502733835994
1541.2473,18.96950626740363
1543.0367,27.313875764118166
1544.8253,28.798978198320583
1546.6132,97.27571034340326
1548.4003,128.74496868477218
1550.1867,170.4576487350796
1551.9723,245.86464471952604
1553.7572,334.7668491587401
1555.5414,437.3151521147047
1557.3247,596.960440301742
1559.1074,740.4035960610254
1560.8893,882.2954957641241
1562.6705,1012.9870083785772
1564.4509,1165.0289940489665
1566.2305,1231.1723027900116
1568.0094,1310.4177729661433
1569.7876,1333.3662306300748
1571.565,1328.8184887303432
1573.3417,1339.0753468818257
1575.1176,1331.3875914112186
1576.8928,1335.1059952544647
1578.6672,1313.2813180336407
1580.4409,1308.8643060197655
1582.2138,1307.6056923510505
1583.986,1315.106197077068
1585.7575,1370.2665271713367
1587.5282,1390.437376456317
1589.2981,1472.7194250518069
1591.0673,1542.5633391732326
1592.8358,1642.5197703088324
1594.6035,1717.1393545212104
1596.3704,1797.9727114477755
1598.1366,1894.9704435545418
1599.9021,1979.2831353278025
1601.6668,2100.061352304143
1603.4308,2250.805640227325
1605.194,2414.6165238404974
1606.9564,2605.1945053787513
1608.7182,2845.9400629310185
1610.4791,3104.603648534284
1612.2394,3372.635685766136
1613.9988,3659.4365671581345
1615.7576,3942.5566515154815
1617.5156,4130.096261049019
1619.2728,4274.355678544029
1621.0293,4263.135145484834
1622.785,4161.134860612198
1624.54,3950.054980035544
1626.2942,3710.7956182529433
1628.0477,3354.60685026192
1629.8005,3077.5887139520464
1631.5525,2844.141213666826
1633.3037,2645.3643229738836
1635.0542,2443.6579869994302
1636.804,2332.5221244160402
1638.553,2252.8066294597093
1640.3013,2227.811373041215
1642.0488,2222.0362035432718
1643.7955,2276.4309470704848
1645.5416,2364.3454075070995
1647.2868,2488.4293659730556
1649.0313,2595.0325799448383
1650.7751,2748.2547820146447
1652.5181,2922.395678824352
1654.2604,3160.154949533293
1656.0019,3372.0822440768434
1657.7427,3668.1771807888435
1659.4828,3981.639344282299
1661.222,4135.118282488455
1662.9606,4129.113503522162
1664.6984,3890.774474147095
1666.4354,3490.2506198357933
1668.1717,2988.691327153062
1669.9072,2402.795947761194
1671.642,1954.213803435574
1673.3761,1592.8941919236295
1675.1094,1301.4863914306543
1676.8419,1080.139664233
1678.5737,896.4532595921582
1680.3048,756.7764159682238
1682.0351,653.4583628567652
1683.7646,579.0983221855831
1685.4934,497.2455093478984
1687.2215,423.3491339459515
1688.9488,390.3084006095305
1690.6754,325.92250973493265
1692.4012,309.44065781537756
1694.1263,257.812038084855
1695.8506,273.0858406829557
1697.5742,221.7612531711493
1699.297,228.03746038004738
1701.0191,175.31364492265402
1702.7404,175.5389871315965
1704.461,131.66266558636562
1706.1808,127.68385711106657
1707.8999,113.2017372131777
1709.6182,114.76548012334479
1711.3358,112.72425894019761
1713.0527,108.22724561471478
1714.7688,78.77361097063113
1716.4841,57.31252474941357
1718.1987,81.04315590478927
1719.9126,57.314672817367864
1721.6257,52.47624305732552
1723.338,62.677033621697774
1725.0496,40.366210982757366
1726.7605,44.99294098600967
1728.4706,53.70638907330158
1730.18,38.85572023655004
1731.8886,26.09009893061375
1733.5964,29.85868922179361
1735.3036,43.760654915488885
1737.0099,26.645159518518994
1738.7156,24.61136610009453
1740.4204,4.358437462979964
1742.1246,7.235536163827419
1743.8279,2.741824715705661
1745.5306,-2.073534440663934
1747.2325,-7.661378891979439
1748.9336,-21.022525510330524
1750.634,-22.207714630631017
1752.3336,-8.167476572770283
1754.0325,-4.052119801564004
1755.7307,-24.411871188742225
1757.4281,-8.346917125358232
1759.1247,-1.3572001278716925
1760.8206,-9.342579327042586
1762.5158,0.6970997047965284
1764.2102,-2.9379152723231527
1765.9039,-5.547376505336615
1767.5968,-2.2310068914102885
1769.289,-3.488473909417735
1770.9804,4.130577249523412
1772.6711,21.176536244150157
1774.361,28.299792691890616
1776.0502,21.950735998409982
1777.7386,9.229755286381987
1779.4263,17.48723945897291
1781.1132,15.923577327055682
1782.7994,35.18915752663088
1784.4849,19.334368534465284
1786.1696,18.30959847543818
1787.8535,28.715235281085825
1789.5367,49.651666699854104
1791.2192,47.36928019303559
1792.9009,43.518462725410245
1794.5818,44.0996007880658
1796.2621,64.16308043690697
1797.9415,59.65928728684139
1799.6202,38.83860631114658
1801.2982,73.1014218865107
1802.9755,63.098118001233615
1804.6519,65.82907791261005
1806.3277,62.94468424694924
1808.0027,61.495318972276436
1809.6769,79.08136342717034
1811.3504,74.55319833525846
1813.0231,75.81120362935098
1814.6951,89.25575849672896
1816.3664,84.38724136656629
1818.0369,81.80602977547142
1819.7067,84.81250041618432
1821.3757,90.20702916338405
1823.044,113.83999104362556
1824.7115,113.26176018139495
1826.3783,115.47270956277998
1828.0443,101.2732110412503
1829.7096,95.26363531555126
1831.3741,124.54435207170172
1833.0379,112.26573004308511
1834.701,109.17813671764088
1836.3633,141.63193846065633
1838.0248,121.82750054563758
1839.6856,122.21518682977285
1841.3457,129.79535995198012
1843.005,138.61838132902722
1844.6636,149.7846110797318
1846.3214,152.79440793672802
1847.9785,161.69812913480428
1849.6349,152.89613038080643
1851.2904,155.98876576460043
1852.9453,147.8763878470927
1854.5994,162.95934762930074
1856.2528,172.63799463348187
1857.9054,179.61267675229874
1859.5572,182.8837401520368
1861.2083,175.75152920285427
1862.8587,194.21638644607447
1864.5084,190.87865266550762
1866.1572,198.83866670279804
1867.8054,192.8967654908056
1869.4528,182.45328397400363
1871.0994,193.7085551679006
1872.7453,184.9129102634729
1874.3905,181.51667851461434
1876.0349,204.7201873260924
1877.6786,211.47376228750863
1879.3215,199.67772694126188
1880.9637,201.83240271501472
1882.6051,203.48810903965568
1884.2458,218.94516332774992
1885.8858,204.25388095698327
1887.525,203.41457511559292
1889.1634,203.37755694928
1890.8011,210.4431355696006
1892.4381,198.2616180543373
1894.0743,211.93330937684323
1895.7098,214.25851252785833
1897.3446,216.18752837879174
1898.9786,212.7206556584665
1900.6118,208.55819093383207
1902.2443,201.75042864463285
1903.8761,226.897661145033
1905.5071,198.70017877169403
1907.1374,191.20826959230544
1908.7669,201.42221968755575
1910.3957,213.6423132260502
1912.0237,205.46883236217536
1913.651,204.20205711389553
1915.2776,221.09226544448666
1916.9034,202.8897332752067
1918.5285,195.5447343163919
1920.1528,192.3075402494842
1921.7764,192.5284208004805
1923.3992,176.85764377230134
1925.0213,188.2954750425888
1926.6427,182.19217872040736
1928.2633,177.34801703186895
1929.8832,187.6132503811641
1931.5023,178.8881373990048
1933.1207,176.17293483997128
1934.7383,195.61789766976563
1936.3552,168.87327909236046
1937.9714,167.43933035555528
1939.5868,160.96630101841538
1941.2015,177.5044389656141
1942.8154,165.35399047216515
1944.4286,173.8652000380389
1946.041,153.43831050966674
1947.6528,141.6235629948328
1949.2637,148.6211970669383
1950.8739,142.4814508831514
1952.4834,152.10456111443
1954.0921,162.24076300691786
1955.7001,146.94029028571686
1957.3074,157.35337505352163
1958.9139,166.2302479436271
1960.5197,156.52113801579617
1962.1247,156.6762726674906
1963.729,141.8958777309631
1965.3325,129.03017747170588
1966.9353,127.47939473625274
1968.5374,132.99375108083905
1970.1387,123.67346678690683
1971.7393,122.26876080596458
1973.3392,121.32985085278597
1974.9383,118.40695341945684
1976.5366,119.75028378476418
1978.1342,126.31005604343
1979.7311,140.7364830926731
1981.3273,125.42977656661515
1982.9227,129.79014669201524
1984.5173,119.3678024413357
1986.1112,113.11295148913996
1987.7044,135.2758003163135
1989.2968,109.956554272615
1990.8885,113.50541735504657
1992.4795,115.67259246104504
1994.0697,112.0582813529968
1995.6592,121.51268463656288
1997.2479,113.43600179682153
1998.8359,126.32843110372687
2000.4232,119.54016969287295
2002.0097,116.12141343657095
2003.5955,104.02235701173277
2005.1805,111.09319393405485
2006.7648,106.484116679012
2008.3484,100.89531661114597
2009.9312,120.57698403016002
2011.5133,112.52930822680491
2013.0946,104.70247728606
2014.6752,106.94667816761421
2016.2551,109.96209678413288
2017.8342,115.54891797881419
2019.4126,114.10732549523664
2020.9902,101.88750192149018
2022.5672,113.43962870459382
2024.1433,120.61388627269162
2025.7188,113.46045391953248
2027.2935,125.32950973272818
2028.8674,108.02123066528566
2030.4406,97.4357924169185
2032.0131,98.22336960713028
2033.5849,103.38413588106323
2035.1559,87.21826390163005
2036.7261,108.27592529790172
2038.2957,103.25729082676844
2039.8645,107.46253016236278
2041.4325,106.34181194624534
2042.9998,108.29530374535443
2044.5664,97.72317206321168
2046.1323,102.17558232038755
2047.6974,108.10269896022282
2049.2617,100.00468540430211
2050.8254,88.43170399318433
2052.3883,97.88391606738287
2053.9504,88.06148208309651
2055.5118,101.26456151768343
2057.0725,105.14331296789214
2058.6325,104.74789401782436
2060.1917,101.42846120015247
2061.7502,115.23517000006905
2063.3079,103.8181748884831
2064.8649,105.02762918395365
2066.4212,103.1136851668598
2067.9767,106.12649406730543
2069.5315,103.91620608426001
2071.0856,98.93297035542855
2072.6389,94.17693497935488
2074.1915,87.54824706525551
2075.7433,82.89705278057727
2077.2945,97.7734974172854
2078.8448,91.97772543837573
2080.3945,85.65988032911082
2081.9434,93.92010465497606
2083.4916,93.70854012486143
2085.039,90.32532750845621
2086.5857,82.57060663836455
2088.1317,88.14451644394057
2089.677,92.24719502883363
2091.2215,91.17877961524846
2092.7652,98.98940650291752
2094.3083,81.52921107978818
2095.8506,92.59832774391407
2097.3921,110.24689007806
2098.933,93.5750307390067
2100.4731,91.98288128106833
2102.0124,100.12057232280995
2103.5511,107.38823356296734
2105.089,83.83599369907188
2106.6261,98.21398035477478
2108.1626,88.12232031536632
2109.6983,88.7611393839993
2111.2332,105.38056248260182
2112.7675,90.63071364549069
2114.301,85.51171585317888
2115.8337,101.17369117987391
2117.3657,100.5167608446668
2118.897,89.39104505491468
2120.4276,95.24666301280877
2121.9575,92.28373302663067
2123.4866,97.80237245219678
2125.0149,100.3526977224883
2126.5426,101.38482429246233
2128.0695,88.04886661354931
2129.5956,97.14493812333421
2131.1211,90.02315137891401
2132.6458,91.93361796593626
2134.1698,82.6764485698186
2135.693,91.85175295664249
2137.2155,97.55964006572776
2138.7373,96.55021791787749
2140.2584,110.52359355829913
2141.7787,93.97987306669847
2143.2983,100.21916141754627
2144.8171,84.34156264551484
2146.3353,84.64717978308636
2147.8527,83.18611501932855
2149.3693,92.60846969684053
2150.8853,73.81434432635933
2152.4005,79.65383849253885
2153.9149,90.22705104188958
2155.4287,86.18408002438355
2156.9417,81.87502258772429
2158.454,87.84997501777525
2159.9655,84.00903278165083
2161.4764,94.75229046796721
2162.9865,83.57984182525115
2164.4958,83.04177965450754
2166.0045,80.88819592094364
2167.5124,87.41918175935098
2169.0195,92.13482749563946
2170.526,94.33522258152743
2172.0317,90.62045554738802
2173.5367,88.14061398024205
2175.0409,89.64578456090567
2176.5445,94.98605308878973
2178.0473,103.76150446684733
2179.5494,88.07222264817278
2181.0507,90.51829054824566
2182.5513,106.24979020182514
2184.0512,91.8168027384886
2185.5504,85.06940822531578
2187.0488,82.00768581121997
2188.5465,84.58171379442115
2190.0435,72.7415696530652
2191.5397,79.7873300194808
2193.0353,82.36907079858247
2194.5301,83.33686709741119
2196.0241,71.34079319931811
2197.5175,71.58092255428528
2199.0101,69.55732789888725
2200.502,75.17008125389066
2201.9931,73.46925394448886
2203.4835,72.80491654417506
2204.9733,72.47713889175066
2206.4622,77.63599009796644
2207.9505,66.08153854880379
2209.438,63.56385185388467
2210.9248,56.382996962016705
2212.4109,63.13904018637004
2213.8962,59.93204727628722
2215.3809,67.11208334972116
2216.8648,60.77921292530618
2218.3479,61.433499850557155
2219.8304,57.22500736519851
2221.3121,65.05379809461897
2222.7931,75.26993409195939
2224.2733,62.22347675982246
2225.7529,51.214486748111085
2227.2317,49.14302408449498
2228.7098,54.75914828449845
2230.1872,41.21291837221497
2231.6638,50.904392824146726
2233.1397,44.033629704667646
2234.6149,47.850686569107665
2236.0894,52.50562053246222
2237.5632,63.7484882312192
2239.0362,44.87934577681017
2240.5085,41.14824864318257
2241.9801,46.30525185549209
2243.4509,47.45041002741209
2244.921,53.13377730956449
2246.3904,45.155407378070095
2247.8591,42.11535337771147
2249.3271,38.26366800171877
2250.7943,37.80040352216815
2252.2608,32.27561182850013
2253.7266,53.139344432152484
2255.1917,40.64165252180737
2256.656,31.632586754752765
2258.1197,37.31219738186155
2259.5826,40.280534337682184
2261.0447,45.98764718364123
2262.5062,27.08358507836033
2263.9669,34.768396720584406
2265.4269,43.44213053822341
2266.8862,41.05483461150379
2268.3448,51.40655658623223
2269.8026,41.99734369766861
2271.2598,36.977242667007886
2272.7162,43.74629979547194
2274.1719,35.25456101451027
2275.6268,36.35207181811097
2277.0811,57.6888773477167
2278.5346,44.7650223812509
2279.9874,41.88055111975041
2281.4395,55.63550731660189
2282.8908,55.27993430638753
2284.3414,52.01387486733529
2285.7914,46.48737122487364
2287.2406,52.350465084292864
2288.689,48.55319768601066
2290.1368,39.14560974694268
2291.5838,59.02774149847346
2293.0302,48.79963278053151
2294.4758,55.311322842769414
2295.9206,45.21285044684441
2297.3648,44.90425380130091
2298.8082,51.53557066255598
2300.251,51.10683833798521
2301.693,35.0680936196095
2303.1343,53.219372788381406
2304.5748,42.460711774574975
2306.0147,44.19214597627047
2307.4538,51.163710366940904
2308.8922,48.87543947813833
2310.3299,57.07736732977878
2311.7669,44.11952745302233
2313.2031,41.301952808256374
2314.6387,45.57467591467207
2316.0735,37.387728878441294
2317.5076,50.7411433499899
2318.941,43.73495060586697
2320.3737,37.01918141521014
2321.8056,53.89386610980819
2323.2369,47.709034651257525
2324.6674,49.56471646221735
2326.0972,55.660940488256074
2327.5263,50.24773517929589
2328.9547,48.87512842864908
2330.3823,44.14314762715048
2331.8092,45.55181967688418
2333.2355,45.301171038502616
2334.661,52.59122771714169
2336.0858,51.872015264924585
2337.5098,51.54355870806262
2338.9332,49.30588255404882
2340.3558,41.95901079494001
2341.7778,48.00296692973507
2343.199,47.38777403784434
2344.6195,58.06345471864961
2346.0393,43.48003109765682
2347.4583,56.38752471973703
2348.8767,57.535956694962124
2350.2943,57.87534756952891
2351.7113,67.2557173142743
2353.1275,60.3270853212839
2354.543,65.48947031008515
2355.9578,51.24289039693531
2357.3718,47.487363043197774
2358.7852,52.47290519780631
2360.1978,55.44953333482181
2361.6098,50.76726340357823
2363.021,54.1261107989144
2364.4315,62.32609040799662
2365.8413,64.61721657673093
2367.2504,56.64950302776174
2368.6587,49.07296283756045
2370.0664,67.08760851610327
2371.4733,55.24345208263753
2372.8795,47.2405048855353
2374.285,51.828777720734024
2375.6899,54.858280911767906
2377.0939,49.07902426388296
2378.4973,62.04101703374158
2379.9,51.24426798721652
2381.3019,50.18878526977073
2382.7032,57.424576514423734
2384.1037,58.60164885230756
2385.5035,57.32000884030822
2386.9027,39.17966244929471
2388.3011,47.03061507693792
2389.6987,52.7228717291116
2391.0957,44.056436941384845
2392.492,53.781314722099296
2393.8876,47.09750863903196
2395.2824,45.55502172214619
2396.6765,43.90385653042995
2398.07,30.79401516732014
2399.4627,47.225499297215265
2400.8547,50.49831027657365
2402.246,45.7124489895989
2403.6366,43.46791581551361
2405.0265,41.81471067641678
2406.4156,43.002833059732666
2407.8041,39.38228203473727
2409.1918,47.60305624067814
2410.5789,28.365153922982245
2411.9652,28.718572851044428
2413.3508,41.41331051060888
2414.7358,33.74936410023429
2416.12,36.826730404345426
2417.5035,42.94540586987432
2418.8863,41.555386575485954
2420.2684,41.85666817039146
2421.6497,36.39924588824897
2423.0304,35.43311454415334
2424.4104,37.20826858920918
2425.7896,37.47470212019152
2427.1682,47.08240886179283
2428.546,39.331382163961734
2429.9232,42.771614905825345
2431.2996,47.80309957319923
2432.6753,42.47582822418508
2434.0503,43.639792438856375
2435.4246,42.294983372528804
2436.7982,35.49139174412153
2438.1711,50.17900784960375
2439.5433,49.857821630031594
2440.9148,42.02782252467091
2442.2856,43.58899947421014
2443.6557,44.741340999059275
2445.025,32.03483518373923
2446.3937,50.869469665356974
2447.7617,39.39523176067314
2449.1289,46.61210827775267
2450.4955,37.17008563070999
2451.8613,43.119149767538374
2453.2265,48.25928626453015
2454.5909,38.040480266787426
2455.9546,40.41271643681944
2457.3177,48.92597905673074
2458.68,45.48025200449956
2460.0416,51.37551866884519
2461.4025,42.96176198368471
2462.7627,39.58896436918076
2464.1222,45.30710781587845
2465.4811,40.96617391843529
2466.8392,43.266143818437286
2468.1966,54.85699824780977
2469.5533,50.13871750581666
2470.9093,56.66128134315272
2472.2645,60.67466900912564
2473.6191,58.8788591864311
2474.973,53.87382995101848
2476.3262,58.9595587900493
2477.6787,51.43602265194727
2479.0305,61.703197895541734
2480.3816,70.06106036530173
2481.7319,50.659585288665426
2483.0816,52.69874719246002
2484.4306,52.47852009691769
2485.7789,54.94887749528414
2487.1264,56.209792356019534
2488.4733,49.36123709809726
2489.8195,56.20318357839153
2491.165,59.73560316016449
2492.5097,52.45846664464784
2493.8538,54.62174423571662
2495.1972,48.82540561266251
2496.5398,49.6694199085598
2497.8818,50.503755768229894
2499.2231,44.27838133980026
2500.5637,56.193264266361666
2501.9035,51.748371748221984
2503.2427,58.243670423756384
2504.5812,43.82912641385667
2505.919,50.75470525697801
2507.256,50.72037205328468
2508.5924,40.72609139539418
2509.9281,51.72182736872139
2511.2631,53.457543651420224
2512.5974,50.88320340442749
2513.9309,60.198769254104604
2515.2638,43.55420331798143
2516.596,53.14946711159996
2517.9275,50.98452171496103
2519.2583,54.859327676571525
2520.5884,47.97384503509409
2521.9178,51.17803328059847
2523.2465,56.57185142341632
2524.5745,53.85525796209981
2525.9018,52.27821082948276
2527.2284,46.840667419846795
2528.5543,58.84258460469198
2529.8796,59.883918787111384
2531.2041,54.26462578177302
2532.5279,72.58466080450557
2533.851,65.94397852849158
2535.1735,61.49253290106799
2536.4952,58.53027721013177
2537.8163,73.35716412865543
2539.1366,61.22314574430936
2540.4562,71.77817341119294
2541.7752,62.922197871174035
2543.0935,66.35516914834011
2544.411,70.57703663755683
2545.7279,70.58774907013878
2547.0441,66.13725447163063
2548.3596,70.37550016170019
2549.6744,68.85243279864301
2550.9885,76.4179983370002
2552.3019,76.82214204278887
2553.6146,75.66480841784676
2554.9266,72.29594119579053
2556.2379,69.01548335358984
2557.5485,72.27337714525527
2558.8585,69.91956413464277
2560.1677,80.15398516287541
2561.4762,78.57658037188071
2562.7841,86.08728910204673
2564.0913,83.33604990799631
2565.3977,85.72280048348
2566.7035,82.74747768888801
2568.0086,84.21001752738289
2569.313,87.41035517465309
2570.6167,86.9484249642868
2571.9197,88.82416035576944
2573.222,92.78749393910289
2574.5236,89.03835741604689
2575.8246,92.42668156048751
2577.1248,91.45239625592751
2578.4244,90.46543046160309
2579.7232,97.26571222222685
2581.0214,95.00316867785818
2582.3189,105.22772599589882
2583.6157,104.1893093937191
2584.9118,101.73784303641253
2586.2072,99.27325004717954
2587.5019,97.1954525318422
2588.7959,109.4543716034907
2590.0893,102.64992740326056
2591.3819,118.5320389777437
2592.6739,113.05062434703348
2593.9652,115.45560034590324
2595.2557,105.69688267862057
2596.5456,116.82438589489789
2597.8348,124.03802348747843
2599.1234,118.13770778086223
2600.4112,117.9733498591686
2601.6983,122.19485962514
2602.9848,116.4521458017864
2604.2705,128.89511589016865
2605.5556,130.07367622682784
2606.84,138.78773185935336
2608.1237,128.43718653459905
2609.4067,118.1219426115415
2610.689,102.29190116478571
2611.9707,116.69696208771745
2613.2516,121.03702425080417
2614.5319,108.56198535754368
2615.8115,115.8717419010643
2617.0903,113.51618928887444
2618.3685,112.04522176976502
2619.6461,112.85873245736593
2620.9229,113.35661334485474
2622.199,117.23875529682209
2623.4745,109.00504804429295
2624.7493,117.35538014590497
2626.0234,113.5396390702457
2627.2968,117.05771111234878
2628.5695,113.45948143185205
2629.8415,111.6448340178166
2631.1128,114.76365172470923
2632.3835,114.06581629054892
2633.6535,114.80120830571855
2634.9228,109.51970721994303
2636.1914,119.27119133493568
2637.4593,114.45553785721336
2638.7265,110.72262280058135
2639.9931,109.77232103429003
2641.259,119.80450632036343
2642.5242,111.91905132310285
2643.7887,110.96582750876462
2645.0525,115.04470522441568
2646.3156,112.65555370746449
2647.5781,114.49824104487243
2648.8398,114.07263419704566
2650.1009,106.52859897940914
2651.3613,112.86600006666106
2652.6211,111.9847010682139
2653.8801,105.28456446482073
2655.1385,108.61545161738798
2656.3961,111.32722283397698
2657.6531,114.41973733649502
2658.9094,109.44285323357713
2660.1651,109.19642748966169
2661.42,116.43031597475874
2662.6743,124.49437346691388
2663.9279,123.38845357986997
2665.1808,113.56240868242742
2666.433,127.21608990950153
2667.6846,130.19934726038423
2668.9354,131.1120294622067
2670.1856,135.00398394010676
2671.4351,132.07505680810186
2672.6839,144.92509283017057
2673.9321,133.2039354495406
2675.1795,138.36142666018964
2676.4263,144.04740712405612
2677.6724,143.26171611946438
2678.9179,141.254191484265
2680.1626,141.3246696236912
2681.4067,147.62298553043559
2682.6501,145.1989727839441
2683.8928,142.3024634874331
2685.1348,137.58328829212974
2686.3761,137.49127642623614
2687.6168,134.32625574212204
2688.8568,136.58805271724486
2690.0961,131.37649248579987
2691.3348,126.24139881610222
2692.5727,122.98259416270264
2693.81,127.04989971773784
2695.0466,125.69313544351951
2696.2826,125.06212003186079
2697.5178,131.60667091764367
2698.7524,128.97660428512881
2699.9863,123.6717350025109
2701.2195,126.34187664821832
2702.452,130.23684156396234
2703.6839,137.906440828036
2704.9151,151.00048421636382
2706.1456,143.16878012580628
2707.3755,147.11113544321938
2708.6046,156.0773556237716
2709.8331,164.66724465152026
2711.0609,177.28060494974886
2712.2881,180.51723729506944
2713.5145,185.02694069128768
2714.7403,188.80951233703775
2715.9654,201.6647475806841
2717.1899,209.6924398824965
2718.4136,216.94238068609718
2719.6367,229.11435933818427
2720.8591,236.80816301603204
2722.0809,241.07357660577168
2723.3019,260.210382625453
2724.5223,264.96836118239105
2725.7421,271.14728978179664
2726.9611,279.9969432791977
2728.1795,269.96709381864935
2729.3972,265.6075107442372
2730.6142,254.0179607003763
2731.8306,248.34820767540714
2733.0462,227.2480131174898
2734.2612,215.71713599130305
2735.4756,188.50533298904645
2736.6892,183.31235864574808
2737.9022,162.43796561138322
2739.1145,151.98190470280406
2740.3262,140.54392511248352
2741.5372,129.17377451307573
2742.7475,107.42119917179605
2743.9571,97.33594406412305
2745.1661,96.6677530913231
2746.3744,85.01636918130328
2747.582,72.68153429529377
2748.7889,67.2629895443614
2749.9952,65.61047531275756
2751.2008,48.32373131210409
2752.4057,49.45249659791796
2753.61,49.046509742479316
2754.8136,50.255508823543664
2756.0165,41.279231428401204
2757.2188,44.067414641787764
2758.4204,41.56979513564704
2759.6213,23.536109141248517
2760.8215,36.2160924741645
2762.0211,34.85948071460598
2763.22,29.666009080624008
2764.4182,26.735412441674725
2765.6158,29.717425370554793
2766.8127,24.811782172707012
2768.009,12.168216856400136
2769.2045,12.736463181786462
2770.3994,7.566254787335879
2771.5936,0.7573251841535011
2772.7872,-4.640592192317513
2773.9801,-2.227763914207003
2775.1723,-3.4044101941287863
2776.3639,-19.070728989335635
2777.5548,-7.4768842470222125
2778.745,-12.972849397800701
2779.9346,-10.758523178210453
2781.1235,-20.533674726025083
2782.3117,-11.097965701372686
2783.4992,-18.250852632970577
2784.6861,-18.041681180858973
2785.8723,-10.769614679061192
2787.0579,-5.333636225204941
2788.2428,-9.082621328468122
2789.427,2.984607784997138
2790.6106,8.119319624425543
2791.7935,12.67278266920539
2792.9757,16.896265317532652
2794.1573,22.84103584087495
2795.3382,26.258362341737893
2796.5184,38.249512694215696
2797.698,48.46575450982061
2798.8769,61.35835501756776
2800.0551,68.57858096181712
2801.2327,75.47769847334564
2802.4096,80.80697299714518
2803.5859,105.71766922343159
2804.7615,119.76105103435384
2805.9364,129.03838125488255
2807.1106,162.30092151237795
2808.2842,176.84993214381632
2809.4572,204.78667186316568
2810.6294,243.46239761589493
2811.801,276.3783642996061
2812.972,302.48582437727794
2814.1423,343.58602754810454
2815.3119,383.0302204864231
2816.4808,423.1196464307104
2817.6491,472.5555447891413
2818.8167,524.3391507386945
2819.9837,575.3216947307934
2821.15,617.1044019734704
2822.3157,671.5884919215413
2823.4807,726.5251778587776
2824.645,777.0156663530674
2825.8086,832.4611567070467
2826.9716,863.8128404531947
2828.134,913.1219007993801
2829.2957,958.4895123153436
2830.4567,992.1668404396069
2831.617,1022.4050410257973
2832.7767,1021.1052600058737
2833.9358,1017.3186330877445
2835.0941,1008.8962857682659
2836.2519,989.9393333711083
2837.4089,980.9488811309801
2838.5653,958.4760243831959
2839.7211,954.1718486535826
2840.8761,956.4374298832073
2842.0306,968.2238344714187
2843.1843,991.1821192531925
2844.3374,1019.8633313812654
2845.4899,1057.1185080965543
2846.6417,1122.6486764413419
2847.7928,1189.1048528867273
2848.9433,1241.9880426773223
2850.0931,1301.6492391666907
2851.2422,1382.8894232885168
2852.3907,1435.6595629599926
2853.5385,1498.0106122694156
2854.6857,1538.593510948489
2855.8323,1581.4091837488106
2856.9781,1634.4085400360432
2858.1233,1673.642473361758
2859.2679,1731.1118609334417
2860.4118,1777.7675632221558
2861.555,1812.2104233878445
2862.6976,1868.291266812776
2863.8395,1896.0609007571156
2864.9808,1894.9201137981147
2866.1214,1939.1696755524172
2867.2614,1948.0603366874657
2868.4007,1956.0928284790075
2869.5393,1972.3178627221855
2870.6773,1981.5361316512162
2871.8146,1997.6983077771372
2872.9513,1995.0050437956243
2874.0874,1989.806972425371
2875.2227,1985.1547064350216
2876.3574,1965.548838695151
2877.4915,1942.3399422247871
2878.6249,1916.578570387469
2879.7577,1881.5652571233375
2880.8898,1855.650517206749
2882.0212,1848.9348465964063
2883.152,1828.518722694507
2884.2821,1814.9526044139018
2885.4116,1819.4369323822548
2886.5405,1816.3221290777028
2887.6686,1829.7085987840146
2888.7962,1841.246727621738
2889.923,1830.3368834143348
2891.0493,1839.5294155728002
2892.1748,1854.7246552047604
2893.2997,1871.972915022549
2894.424,1882.6244891912538
2895.5476,1891.6796531562325
2896.6706,1924.1386635365986
2897.7929,1948.0017580346694
2898.9145,1953.7191551113763
2900.0355,1994.8910537476327
2901.1559,2032.2676333871627
2902.2756,2047.4490535247787
2903.3946,2086.685453332618
2904.513,2127.4269515083265
2905.6308,2161.5236458826985
2906.7479,2166.6756130122562
2907.8643,2209.032907838289
2908.9801,2213.1455636353276
2910.0953,2231.2635915875753
2911.2098,2215.58698074778
2912.3236,2217.2156978560547
2913.4368,2192.549687496641
2914.5494,2179.0888720816256
2915.6613,2146.4831520975968
2916.7725,2126.8824062402564
2917.8831,2105.786491740473
2918.9931,2062.8452445602934
2920.1024,2037.5084796038973
2921.211,2030.3259911470154
2922.319,1999.147553090292
2923.4264,1998.772919031113
2924.5331,1973.901822575388
2925.6391,1973.0339773412984
2926.7445,1976.7190772080082
2927.8493,1978.7067963243412
2928.9534,1980.6467890719312
2930.0569,1973.488690045344
2931.1597,1989.8821140326781
2932.2619,1983.026656087146
2933.3634,1987.9218913631385
2934.4643,1995.4173751847807
2935.5645,1985.562642996978
2936.6641,1962.4072102904645
2937.763,1920.6005727003462
2938.8613,1886.6422062376582
2939.959,1832.231567707431
2941.056,1780.3180950482713
2942.1523,1700.8012078764718
2943.248,1621.3803080051446
2944.3431,1532.4047802393884
2945.4375,1427.2739931705014
2946.5313,1344.4373000657315
2947.6244,1243.1940399195885
2948.7169,1153.2935382822097
2949.8087,1057.985108271792
2950.8999,983.3180514735965
2951.9904,906.9916588930339
2953.0803,842.9052117023342
2954.1696,775.7079820038123
2955.2582,732.7492334707304
2956.3462,681.9282220192712
2957.4335,652.0941962381254
2958.5202,614.9463978967017
2959.6062,600.5340622434674
2960.6916,573.8064183774263
2961.7764,559.7626893922424
2962.8605,549.9020926435151
2963.9439,535.0238398892177
2965.0267,523.0771373883027
2966.1089,524.7111860494846
2967.1905,521.0251815507074
2968.2714,518.1683143228033
2969.3516,525.7897695863521
2970.4312,534.3887273802512
2971.5102,530.9143624855004
2972.5885,540.1658443392124
2973.6662,539.1423370693574
2974.7432,549.792999402247
2975.8196,550.7169846727699
2976.8954,538.0634407178845
2977.9705,535.2315098673802
2979.045,529.4703290704115
2980.1188,522.2790299238181
2981.192,510.2567387297371
2982.2645,479.05257656751564
2983.3364,455.7656594139336
2984.4077,443.945098455246
2985.4783,418.84000032005144
2986.5483,388.3494671974977
2987.6177,361.32259708833305
2988.6864,326.15848410981107
2989.7545,304.3562187659595
2990.8219,284.2648882992215
2991.8887,247.08357690847845
2992.9548,222.06136594996292
2994.0204,184.94733430907206
2995.0852,164.69055865058942
2996.1495,145.74011378982573
2997.2131,129.995072895186
2998.276,111.70450767767431
2999.3383,83.41748854834486
3000.4,76.33308480120672
3001.4611,58.350364896094675
3002.5215,45.468396529512574
3003.5812,31.536246814461038
3004.6404,23.05298240925714
3005.6989,22.067669656855628
3006.7567,8.82937466968167
3007.8139,1.8371633394843343
3008.8705,6.290101469719275
3009.9264,-8.562745154529466
3010.9818,-1.4223108110783187
3012.0364,-13.889444235919484
3013.0905,-7.464979956160732
3014.1439,-4.3496137433618856
3015.1966,-9.593966793933532
3016.2487,-1.8486168516450334
3017.3002,-12.564045816537373
3018.3511,-8.8407171209696
3019.4013,-4.278968682483196
3020.4509,-8.129050099855988
3021.4998,-9.14116822496868
3022.5481,1.684551299508371
3023.5958,-0.10192584882463507
3024.6428,7.649365990786862
3025.6892,11.088393497336824
3026.735,15.715123273325332
3027.7802,13.379521810369056
3028.8247,20.781555442933325
3029.8685,22.42119037168851
3030.9118,25.998392589489754
3031.9544,34.963127864980095
3032.9963,30.165361706819056
3034.0376,43.60505927403511
3035.0783,50.23218542400281
3036.1184,58.246704578046604
3037.1578,69.84858065516909
3038.1966,73.83777699190625
3039.2348,74.96425622630858
3040.2723,78.62798025804875
3041.3092,77.42891023715731
3042.3455,80.26700652738486
3043.3811,87.99222871819313
3044.4161,83.00453559637401
3045.4505,87.70388506879675
3046.4842,90.54023421228601
3047.5173,89.46353922662746
3048.5498,89.37375540620462
3049.5816,84.47083715076553
3050.6128,87.05473796632117
3051.6434,75.67541051417419
3052.6734,77.78280658507992
3053.7027,80.27687721304
3054.7314,82.0575726542283
3055.7594,84.87484236204989
3056.7868,80.77863496933423
3057.8136,83.46889826016269
3058.8398,78.64557921083053
3059.8653,78.85862396294397
3060.8902,72.90797787165366
3061.9145,79.89358550352415
3062.9381,79.21539069604023
3063.9612,76.22333648775123
3064.9835,79.06736512505267
3066.0053,77.79741809210668
3067.0264,68.21343608240181
3068.0469,73.36535901145282
3069.0668,71.25312611264008
3070.086,65.62667588569042
3071.1046,64.43594611779974
3072.1226,58.78087393989705
3073.1399,50.46139583855211
3074.1567,45.57744771252612
3075.1727,47.27896495596639
3076.1882,43.31588250724582
3077.203,45.138134831947866
3078.2173,35.59565596249746
3079.2308,26.238379479938033
3080.2438,25.066238609356816
3081.2561,27.87916631345729
3082.2678,16.127095304280715
3083.2789,14.40995801507674
3084.2893,11.177686717824315
3085.2991,11.58021354040278
3086.3083,5.817470498914702
3087.3169,14.039389493660735
3088.3248,5.0459023667669385
3089.3321,2.8369408199654913
3090.3388,5.762436504529745
3091.3449,0.47232104336376324
3092.3503,4.116526001747246
3093.3551,1.2449829402367243
3094.3593,4.357623378223707
3095.3629,4.054378822649966
3096.3658,4.385180736881182
3097.3681,0.6999605437394507
3098.3698,-0.40135037780487437
3099.3708,-2.6188206557810076
3100.3713,-3.652514908727852
3101.3711,-0.35247159316608645
3102.3702,3.531307323007354
3103.3688,1.0488233930868205
3104.3667,-5.44992186494656
3105.364,-3.614926943599727
3106.3607,-0.24613589066041186
3107.3568,-1.6934566407964553
3108.3522,-1.6067946697781963
3109.347,4.963961464255618
3110.3412,5.01893925504487
3111.3348,-0.8417338533100747
3112.3277,0.7320695331019067
3113.32,2.840485217112956
3114.3117,0.5836489942345509
3115.3028,6.161696631573392
3116.2932,6.07476389039968
3117.2831,9.372986470366726
3118.2723,6.756500010380279
3119.2608,6.525440055616286
3120.2488,9.279942083685796
3121.2361,6.370141506945572
3122.2229,10.496173644953132
3123.209,9.008173753564591
3124.1944,11.15627698367436
3125.1793,9.990618396095158
3126.1635,13.861332940076977
3127.1471,9.868555464963862
3128.1301,9.262420681486276
3129.1125,15.543063201689307
3130.0942,17.91061754499387
3131.0753,17.165218075390285
3132.0558,17.256998977762734
3133.0357,21.636094265343402
3134.015,20.102637778794588
3134.9936,26.206763142417685
3135.9716,19.04860377948785
3136.949,23.17829285121266
3137.9258,19.845963328313715
3138.902,25.65174794972974
3139.8775,24.89577925593983
3140.8524,26.128189530905743
3141.8267,30.899110809631082
3142.8004,31.608674865837628
3143.7735,29.307013164256063
3144.7459,31.644256853530422
3145.7178,30.470536789234643
3146.689,32.13598351050011
3147.6596,32.740727251752844
3148.6295,30.784897926059017
3149.5989,35.618625119077535
3150.5676,35.59203810861847
3151.5357,43.455265816305584
3152.5032,37.15843680784239
3153.4701,39.75167921437969
3154.4364,39.085120795483974
3155.402,39.55888891320495
3156.367,38.3731105387412
3157.3315,39.67791224770245
3158.2952,43.62342023196737
3159.2584,45.309760286635594
3160.221,44.137057770572525
3161.1829,47.35543758954604
3162.1442,45.36502420795351
3163.105,45.31594161663794
3164.065,48.708313352792146
3165.0245,49.69226250044956
3165.9834,49.5179116565605
3166.9416,53.385382921152676
3167.8993,50.844797899074756
3168.8563,53.89627766132158
3169.8127,47.63994277043999
3170.7684,55.12591325001412
3171.7236,52.854308647228684
3172.6782,59.67524795800928
3173.6321,56.23884964973845
3174.5854,57.54523159304625
3175.5381,63.14451109617435
3176.4902,65.33680489191204
3177.4417,58.52222908160356
3178.3926,65.90089911322515
3179.3428,64.97292984953074
3180.2924,62.6884354942653
3181.2415,62.147529601444504
3182.1899,68.60032509819972
3183.1377,72.09693429018705
3184.0848,67.48746879705934
3185.0314,66.97203951750008
3185.9773,72.95075667531815
3186.9227,71.27372982460201
3187.8674,73.19106778993263
3188.8115,72.80287868315362
3189.755,71.90926988419797
3190.6979,79.81034804496988
3191.6402,75.30621909828085
3192.5818,79.64698817883897
3193.5229,79.38275966829002
3194.4633,82.71363715181005
3195.4031,79.78972342074742
3196.3423,79.06112043931418
3197.2809,82.2279293738251
3198.2189,85.99025059998384
3199.1563,83.84818367121467
3200.0931,86.4518272810394
3201.0292,88.55127928449801
3201.9648,88.4966366721122
3202.8997,89.0879955488909
3203.834,91.62545113487666
3204.7677,89.15909775923203
3205.7008,93.98902883486512
3206.6333,93.56533688309301
3207.5652,96.8381134853425
3208.4964,92.10744928738704
3209.4271,98.27343396661891
3210.3571,99.03615627935586
3211.2865,98.34570399918138
3212.2154,98.3021639093173
3213.1436,95.90562180952844
3214.0712,103.00616251655799
3214.9982,103.65386988809283
3215.9246,105.19882675175829
3216.8503,101.84111489864095
3217.7755,101.18081506783916
3218.7001,108.81800698004002
3219.624,109.50276934412258
3220.5473,110.23517978078573
3221.4701,112.56531481570067
3222.3922,109.94324987218684
3223.3137,111.76905924791046
3224.2346,108.09281614110529
3225.1549,112.11459263231448
3226.0746,117.88445972115294
3226.9937,111.70248728608969
3227.9121,119.36874402674911
3228.83,114.83329752573067
3229.7473,118.84621417194637
3230.6639,117.45755920597523
3231.5799,122.5173966799341
3232.4954,124.77578947136422
3233.4102,121.7827992326328
3234.3244,119.53848636834917
3235.238,122.24291006529454
3236.151,123.54612831486533
3237.0634,128.49819788602878
3237.9752,126.2991743122908
3238.8864,128.49911184217535
3239.797,129.49806346121457
3240.7069,129.2960808699494
3241.6163,133.1432144739402
3242.5251,129.28951338578634
3243.4332,129.93502538665516
3244.3408,130.82979696481874
3245.2477,137.1238733091989
3246.154,134.71729830041943
3247.0598,135.81011444786546
3247.9649,136.15236291374902
3248.8694,140.99408350218107
3249.7733,137.88531465574886
3250.6766,142.42609340709873
3251.5793,141.0664554100239
3252.4814,142.95643489405666
3253.3829,143.24606467806456
3254.2838,144.1853761513509
3255.1841,143.32439927075825
3256.0838,142.8631625512753
3256.9829,144.40169307464691
3257.8814,147.29001649398612
3258.7792,149.57815701838888
3259.6765,149.16613738405113
3260.5731,148.60397883138702
3261.4692,148.4917011091495
3262.3647,152.7793224800515
3263.2595,152.166859721889
3264.1538,149.90432808466477
3265.0474,150.44174129671276
3265.9404,151.12911158732373
3266.8329,151.46644968137093
3267.7247,155.10376479243652
3268.616,155.49106461943813
3269.5066,156.17835531025565
3270.3966,151.9156414578583
3271.286,151.2029260934317
