RamanShift,CorrectedData
30.1047,456.2945198852091
32.3739,422.16682123483446
34.6426,386.38911802151443
36.9109,353.16140146063583
39.1787,314.93365890369387
41.4461,283.1058741705698
43.7131,250.92802793180817
45.9796,215.8500980268947
48.2456,183.17205978603448
50.5112,147.19388638093156
52.7764,117.06554915156937
55.0411,81.68701796599237
57.3054,48.15826152158952
59.5692,12.179247698879578
61.8326,-19.000056103201352
64.0955,-49.97968260750961
66.3579,-86.10947472634113
68.6199,-109.58877607496272
70.8815,-129.36607003498864
73.1426,-122.03874519616039
75.4032,-39.2028977811799
77.6634,212.39659515431526
79.9231,851.4152481916364
82.1824,2249.308573788129
84.4412,4721.082075886985
86.6995,7973.291235938314
88.9574,11079.1414881814
91.2148,13158.03818712262
93.4717,13996.986576476935
95.7282,13985.391768378919
97.9842,13736.208734993288
100.2398,13198.042308630838
102.4949,12644.297184240279
104.7495,12031.827924789892
107.0036,11432.688966804993
109.2573,10880.83462649262
111.5105,10387.619105732918
113.7632,9946.946497597684
116.0154,9563.82079128253
118.2672,9286.645876513598
120.5185,9004.625547378828
122.7693,8798.563505099697
125.0197,8568.463360851432
127.2696,8380.928637823617
129.519,8243.062773521217
131.7679,8037.619121639896
134.0163,7827.050953444703
136.2642,7574.46145982449
138.5117,7280.753753397605
140.7587,7012.980871037773
143.0052,6791.295776811193
145.2512,6504.651364654247
147.4967,6265.150460590365
149.7417,6084.24582559646
151.9863,5911.990157997946
154.2304,5804.486095277772
156.4739,5701.1362157989915
158.717,5580.993039879799
160.9596,5458.559030827022
163.2017,5297.3365961375675
165.4433,5111.978088722744
167.6844,4886.185808520502
169.925,4691.61200434901
172.1651,4440.358876164575
174.4047,4252.878577007394
176.6439,4082.4232155140644
178.8825,3907.1448577924093
181.1206,3806.6455291260127
183.3582,3703.3772157270173
185.5954,3616.8918657411077
187.832,3548.241390280202
190.0681,3498.8276642872956
192.3037,3432.1525272229783
194.5388,3412.067783559559
196.7734,3378.575203447825
199.0075,3393.226522917887
201.2411,3429.123444214105
203.4742,3432.8176356485737
205.7068,3482.6107312421545
207.9389,3529.7043306875344
210.1704,3589.499998851295
212.4015,3642.799265302975
214.632,3676.6036237171147
216.862,3726.214531340265
219.0915,3745.18340865294
221.3205,3760.411638873513
223.549,3768.70056776852
225.777,3766.4015035003895
228.0044,3724.015716544542
230.2314,3718.1444397123832
232.4578,3718.5888685751634
234.6837,3701.050161522692
236.909,3700.829439758887
239.1339,3652.177787477168
241.3582,3597.8462518626607
243.582,3530.6358435787133
245.8053,3492.547537310213
248.0281,3451.7822724356906
250.2503,3450.790953408201
252.472,3467.0244501629777
254.6932,3519.0835981273476
256.9139,3564.169198058392
259.134,3645.882015522357
261.3536,3782.222780443801
263.5727,3958.692186288462
265.7912,4136.590888699851
268.0092,4316.869503734561
270.2267,4465.328606083278
272.4436,4571.418727267993
274.6601,4590.740354157415
276.8759,4567.893927906069
279.0913,4528.829843761072
281.3061,4428.198451290609
283.5204,4367.400054774567
285.7341,4343.484914210844
287.9473,4315.503245923348
290.16,4285.555222801132
292.3721,4273.490974578222
294.5837,4300.060588133098
296.7947,4349.364107609326
299.0052,4421.351534149871
301.2152,4430.122825404058
303.4246,4389.877894807696
305.6334,4207.116611495369
307.8418,4006.038800702884
310.0495,3755.794245594881
312.2568,3473.3326892756145
314.4635,3203.5538372913975
316.6696,2957.7073604552197
318.8752,2773.792897544532
321.0802,2649.410057759718
323.2847,2626.70842256323
325.4887,2643.187546923425
327.692,2654.7969595415752
329.8949,2641.586162687079
332.0972,2569.0046320813653
334.2989,2440.7518170299995
336.5001,2298.927141148503
338.7007,2157.1800036448794
340.9008,2025.959780737864
343.1003,1905.415827074395
345.2992,1771.4474770418142
347.4976,1689.4540459733048
349.6955,1605.1848314875788
351.8927,1557.5891143088083
354.0895,1483.0661591093217
356.2856,1443.715214985557
358.4812,1395.8355162032913
360.6763,1341.2262825911503
362.8707,1336.1367200194054
365.0646,1325.566020946067
367.258,1337.6633644677818
369.4508,1381.7779164255358
371.643,1439.2088292836847
373.8346,1508.8552416888056
376.0257,1583.216277895388
378.2162,1632.9910470693699
380.4062,1627.7286425445286
382.5956,1561.8281413247341
384.7844,1472.4886041365671
386.9726,1373.65907608833
389.1603,1304.2885875634415
391.3474,1246.8261552087301
393.5339,1230.6707826281458
395.7199,1201.3714609573763
397.9052,1245.9271690254054
400.09,1298.3868736475001
402.2743,1413.549529179661
404.4579,1510.2140769940206
406.641,1615.1294443272204
408.8235,1717.2445433137577
411.0054,1799.358269936843
413.1868,1841.1695030072387
415.3675,1840.4271033421305
417.5477,1822.579913347009
419.7273,1714.4767570230974
421.9064,1679.5164401458233
424.0848,1628.7477513458443
426.2627,1517.8694624586578
428.4399,1368.9303290322814
430.6166,1186.629091436041
432.7928,975.7644763499584
434.9683,820.1351985877636
437.1432,671.1899632055492
439.3176,573.2274670580528
441.4914,502.4464002881159
443.6645,470.44544730630423
445.8371,441.3232874987234
448.0091,434.1785955470268
450.1806,422.41004171963505
452.3514,413.96629194318666
454.5216,446.3460079202223
456.6913,423.9478472136243
458.8603,437.57046292281484
461.0288,469.4125039077444
463.1967,443.17261465265983
465.3639,456.8994349476843
467.5306,412.0916001512178
469.6967,417.5477410526664
471.8622,405.01648432052207
474.0271,400.09645244780313
476.1914,402.1362638773671
478.3551,426.48453305110615
480.5182,441.43987038955675
482.6807,489.20088204840704
484.8426,618.2161697689517
487.0039,832.8343304004784
489.1647,1032.6039546101129
491.3248,1204.6236247366414
493.4843,1263.3919127928111
495.6432,1208.657378745138
497.8015,1122.5685699262158
499.9592,1010.8740215820662
502.1163,858.9222577330265
504.2728,693.6617922906935
506.4287,552.8411305774434
508.5839,387.7087709790394
510.7386,283.8132063528292
512.8927,228.15292567907818
515.0461,246.12641509991772
517.199,313.13215847595166
519.3512,447.3186372065238
521.5029,630.7343295596602
523.6539,801.5777093302049
525.8043,881.2972440056574
527.9541,838.3913930577455
530.1033,681.6086071452219
532.2519,536.5473285429325
534.3999,478.65599270963503
536.5472,478.233029738617
538.694,545.8268649366064
540.8401,664.4859188280006
542.9856,741.258606478932
545.1305,757.0433363106749
547.2748,734.7385093319217
549.4185,661.1425189809297
551.5615,642.553751348576
553.704,655.3705859143101
555.8458,743.9413957320494
557.987,850.9145473020035
560.1276,999.7883996849723
562.2675,1249.7113034326057
564.4069,1610.8815990986768
566.5456,1968.1976147398427
568.6837,2095.8076623039497
570.8212,1876.7100340568668
572.958,1435.4530013063923
575.0942,1012.534816593221
577.2299,723.0537181035261
579.3648,573.0079338981313
581.4992,512.7456848073252
583.6329,562.6651859313215
585.766,651.1146472428709
587.8985,760.9422730880797
590.0304,823.8962613019075
592.1616,851.1248021098945
594.2922,805.6260774986213
596.4222,663.8482609434168
598.5515,538.9895178633569
600.6802,428.6480070390353
602.8083,340.6718818611489
604.9358,329.0092914339184
607.0626,352.75838145484704
609.1888,450.46729433134624
611.3144,569.5841689432464
613.4393,678.9571396657093
615.5636,790.1343351780552
617.6873,848.2138773700399
619.8103,824.3438802300761
621.9327,696.3224492644422
624.0544,554.5976817359797
626.1756,417.9176679443026
628.2961,315.4304926430523
630.4159,282.08423640669935
632.5351,267.126976655406
634.6537,264.70678798849985
636.7716,267.7717423340355
638.8889,294.41990897300366
641.0056,306.0493545086774
643.1216,286.30814260013176
645.237,286.64433384594577
647.3518,233.6559859816225
649.4659,169.74115387622123
651.5793,132.24789006224455
653.6922,111.37424537478455
655.8043,116.96826932645354
657.9159,129.77801031612626
660.0268,108.35151557299605
662.137,108.48683102847644
664.2466,142.132001530465
666.3556,134.0350708419969
668.4639,106.04408130478669
670.5716,90.85707392020049
672.6786,38.422088629166865
674.785,5.4871644640443265
676.8907,-7.79965992702455
678.9958,-20.29034595076928
681.1002,-37.48677709532012
683.204,-22.640634148252957
685.3072,-31.653223404241544
687.4097,-47.02562497802728
689.5115,-25.558602768649052
691.6127,-16.25245088915517
693.7132,-13.457208122152679
695.8131,-16.072750888266455
697.9123,22.301178829385663
700.0109,60.66499961446834
702.1089,84.71912982763433
704.2061,143.76398722289287
706.3028,216.39998870706313
708.3987,260.37754974932204
710.4941,274.74708365485094
712.5887,290.4090011250578
714.6827,299.36371011388064
716.7761,341.06161567117033
718.8688,401.0531198531421
720.9608,482.388621305397
723.0522,561.5185146630074
725.1429,642.0931897371602
727.233,758.2630307238596
729.3224,833.1784153981771
731.4112,859.0397139525576
733.4993,778.9472882476639
735.5867,635.1514915537618
737.6735,483.2026693516432
739.7596,364.75116077058465
741.845,269.8473001078369
743.9298,240.1914180131398
746.014,212.98384243776263
748.0974,201.42489893106176
750.1802,207.91491091255875
752.2624,213.3541997875268
754.3439,251.04308488209244
756.4247,311.8818833888404
758.5048,404.77090998992935
760.5843,553.4104762486982
762.6631,787.4508896807779
764.7413,1103.2924522677026
766.8188,1517.0354581164934
768.8956,1950.0301903012555
770.9718,2226.176916725737
773.0473,2240.7258857933875
775.1221,2147.877323645891
777.1962,1997.131434017674
779.2697,1997.9883991643924
781.3426,2078.5483813703927
783.4147,2195.761522940141
785.4862,2203.2779453926214
787.557,2048.2477482892054
789.6271,1738.2710091584836
791.6966,1346.5977850465738
793.7654,954.3281156168832
795.8335,686.7120270668511
797.901,505.84953605063174
799.9678,390.74065235526496
802.0339,323.7853807092956
804.0993,298.8337219338614
806.1641,278.48567361225105
808.2282,232.1912303394156
810.2916,190.35038392545175
812.3544,160.3631238585449
814.4164,117.02943772337767
816.4778,137.8493115010042
818.5385,151.17273000218665
820.5986,268.6996766591906
822.658,411.98013339256113
824.7166,619.9140794358455
826.7747,977.1014899027878
828.832,1358.2423337079963
830.8886,1691.1865699950667
832.9446,1819.5341443251714
834.9999,1783.2849853476168
837.0545,1538.8890035163713
839.1085,1291.9960914525536
841.1618,1023.2561263883963
843.2143,845.1189726361699
845.2662,714.6344842755839
847.3175,626.9525069351612
849.368,557.3228790970788
851.4179,513.9454329739938
853.467,478.01999520533536
855.5155,455.0963872910788
857.5633,424.17442595100556
859.6105,376.653923353932
861.6569,319.73468742693194
863.7027,295.0165223305439
865.7478,259.24922902796015
867.7922,218.8326055322077
869.8359,212.46644726382374
871.8789,230.3005474550191
873.9212,250.13469721334332
875.9629,299.71868534334044
878.0039,365.5022981482107
880.0441,393.9353189339695
882.0837,464.267527351612
884.1226,494.0486991127809
886.1609,591.678605286449
888.1984,683.5070120011005
890.2352,794.7836794684349
892.2714,850.4583610650839
894.3069,816.3808022198459
896.3416,717.1007398569373
898.3757,588.8179027367692
900.4091,511.6820124487458
902.4418,489.3427846940958
904.4739,519.8499300572275
906.5052,580.3031542291251
908.5358,582.502157702274
910.5658,526.6466351661315
912.595,379.8362754851332
914.6236,264.12076225725104
916.6515,179.54977528209338
918.6786,110.52299171806271
920.7051,103.7400869280682
922.7309,126.00073516979091
924.756,130.55460966351075
926.7804,183.50138236950124
928.8041,193.04072394249124
930.8272,228.42230320219642
932.8495,222.49578703792622
934.8711,237.51084005477014
936.892,233.11712463286176
938.9123,270.5643007772287
940.9318,323.7020261617299
942.9506,345.72995575457935
944.9688,326.7477412869748
946.9862,281.15503103281526
949.003,178.7514699985245
951.019,107.58670037897855
953.0344,60.9603625815389
955.0491,39.07209593770267
957.063,47.92153916936286
959.0763,99.30833060769555
961.0888,117.73210810466117
963.1007,138.29250851914094
965.1119,147.83916753269386
967.1223,156.17171944395477
969.1321,146.7897970731683
971.1412,126.24303167886592
973.1495,110.83105305168283
975.1572,115.1034897198274
977.1641,156.10996910319773
979.1704,122.30011747066055
981.1759,120.4735595299835
983.1808,130.67991876593396
985.1849,114.41881745854425
987.1884,148.68987658104606
989.1911,191.2927159624851
991.1932,227.12695394500724
993.1945,247.7422069578347
995.1951,246.08808915892132
997.1951,229.61421222880335
999.1943,218.270185387134
1001.1928,225.90561555742624
1003.1906,258.0701074804929
1005.1877,365.3132636380933
1007.1841,436.08468393128487
1009.1798,480.43396460799795
1011.1748,457.66069755531635
1013.1691,387.86446985598513
1015.1627,260.69486401614404
1017.1556,160.9014586632902
1019.1477,99.73382981797522
1021.1392,33.641551891737436
1023.1299,25.724198298776628
1025.12,14.281342116880296
1027.1093,73.51255616659546
1029.0979,137.467413125657
1031.0859,210.9454849366748
1033.0731,255.94634216758914
1035.0596,239.91955327688584
1037.0454,179.01468416359103
1039.0304,132.68129832753766
1041.0148,84.9689574784129
1042.9985,17.477221999092762
1044.9814,-1.6943485772358144
1046.9636,-32.296194892155654
1048.9452,-32.42874066070726
1050.926,3.557913041054235
1052.9061,47.2139891001907
1054.8855,63.239710368186024
1056.8642,77.88529922438647
1058.8421,118.90097741574255
1060.8194,134.63696591035387
1062.7959,142.4434844873099
1064.7717,184.22075157933068
1066.7469,241.36898419470344
1068.7213,315.2383974995091
1070.695,374.02920424613694
1072.6679,425.5416140345983
1074.6402,446.925832724613
1076.6117,451.93206192048456
1078.5826,362.1604987572591
1080.5527,282.3113358506621
1082.5221,186.9347621948168
1084.4908,127.88096396073433
1086.4587,114.2001254500783
1088.426,106.24242968570343
1090.3925,132.75805854846385
1092.3584,166.54719285679175
1094.3235,188.31001210153727
1096.2879,260.59669410808374
1098.2515,360.957414818713
1100.2145,496.142347569742
1102.1767,593.6016620879132
1104.1382,747.3855231385478
1106.099,932.1940895509515
1108.0591,1079.8775126805754
1110.0185,1193.2859345609313
1111.9771,1237.7194864267608
1113.9351,1232.8282875799473
1115.8923,1207.4624449451817
1117.8488,1173.122053118871
1119.8045,1055.8571946227967
1121.7596,944.9679402475222
1123.7139,815.0043502250392
1125.6675,764.9164753376645
1127.6204,785.2543582176736
1129.5726,779.6180338481786
1131.524,757.1075293597514
1133.4748,658.772864086784
1135.4248,533.2640497925968
1137.3741,404.081091652783
1139.3226,325.57398951029745
1141.2705,288.642739167286
1143.2176,265.9373331701554
1145.164,235.35776117888463
1147.1097,193.304010194081
1149.0546,121.9760648627771
1150.9989,57.82390789896499
1152.9424,5.097520796877234
1154.8852,-42.80311552748981
1156.8272,-55.72802020911422
1158.7686,-37.37678477985082
1160.7092,-35.098444048633155
1162.6491,-5.141659430314576
1164.5883,55.0452582937055
1166.5267,133.86404970720332
1168.4644,239.51645484350593
1170.4014,360.20421239729876
1172.3377,493.8790586681084
1174.2732,690.6927263534176
1176.2081,964.3969432119238
1178.1421,1302.4934300954
1180.0755,1698.3838982116517
1182.0082,1960.5700457435469
1183.9401,2100.503553890121
1185.8713,2011.236084244707
1187.8017,1750.8192773956043
1189.7315,1472.4047538187506
1191.6605,1193.4941164818938
1193.5888,982.8389536287336
1195.5163,867.5908415680337
1197.4432,793.8013467801679
1199.3693,751.4720270696034
1201.2947,717.6044323027954
1203.2193,690.450104831481
1205.1432,677.6605798313526
1207.0664,662.8873855736051
1208.9889,641.0820435528253
1210.9106,650.9460686347252
1212.8316,665.7809692741989
1214.7519,688.6882474166805
1216.6715,729.4193983497948
1218.5903,783.9259104742891
1220.5084,845.9092648967185
1222.4257,925.970934884379
1224.3424,974.8123852454783
1226.2583,1069.8350715285178
1228.1735,1189.8904395338727
1230.0879,1318.8799243635694
1232.0016,1468.0049492207322
1233.9146,1606.4169241196864
1235.8269,1646.0172443947095
1237.7384,1653.0072893159122
1239.6492,1602.2384216932323
1241.5592,1600.9119878065358
1243.4686,1675.1793179133088
1245.3772,1841.5917262619128
1247.285,2048.950510348917
1249.1922,2226.5069492549746
1251.0986,2400.112301571233
1253.0042,2537.0678036237723
1254.9092,2654.5746677375537
1256.8134,2746.0840808668563
1258.7169,2853.7972034202153
1260.6196,2915.2151683453267
1262.5216,3064.189080051917
1264.4229,3143.5200137975585
1266.3234,3266.209014197938
1268.2232,3351.65709443354
1270.1223,3392.9652350227625
1272.0207,3414.9343829674376
1273.9183,3421.9654513397422
1275.8151,3376.9593190625133
1277.7113,3392.7668308389334
1279.6067,3488.3387976025933
1281.5014,3718.9759963594156
1283.3953,4094.179169231939
1285.2885,4565.049021152942
1287.181,5055.7362161134115
1289.0727,5508.491372453847
1290.9637,5826.565057957387
1292.854,6028.707785322255
1294.7435,6017.020008981033
1296.6323,5877.7021230792225
1298.5204,5663.854461592129
1300.4077,5393.627299718032
1302.2943,5120.120856016677
1304.1802,4843.585295111528
1306.0653,4438.920730424847
1307.9497,4064.4772269430455
1309.8333,3746.754805263328
1311.7162,3495.8534453381294
1313.5984,3350.0730896523387
1315.4798,3231.4136457323098
1317.3605,3157.8249876036703
1319.2405,3097.45695697791
1321.1197,2915.2593639882716
1322.9982,2696.9319877934267
1324.876,2461.474578399457
1326.753,2227.0368588431265
1328.6293,2023.7685275464528
1330.5048,1842.269260661088
1332.3796,1696.2387141010017
1334.2537,1585.0265253574717
1336.127,1500.7823149593883
1337.9996,1457.9056875853794
1339.8714,1430.4462329062508
1341.7426,1423.2535260137543
1343.6129,1463.5271276951794
1345.4826,1445.7665845052834
1347.3515,1442.371428363554
1349.2196,1454.7411767318135
1351.087,1462.825332648169
1352.9537,1476.3733846033178
1354.8197,1528.9348064597048
1356.6849,1642.6090573160418
1358.5493,1738.7455809816925
1360.4131,1900.4438048399315
1362.276,2026.2031388865767
1364.1383,2107.02297411301
1365.9998,2065.3026812485805
1367.8606,1913.491609952408
1369.7206,1720.9890892305903
1371.5799,1544.9944289543064
1373.4384,1417.6569217848464
1375.2962,1276.325844933558
1377.1533,1079.4504614352181
1379.0096,879.430021561348
1380.8652,669.7637647889669
1382.7201,512.8009218007937
1384.5742,395.3407165819126
1386.4275,285.33236798940015
1388.2802,215.3750909269279
1390.132,166.0180974448449
1391.9832,120.86059743975147
1393.8336,83.70179914806704
1395.6832,74.04090959760697
1397.5322,64.62713497917139
1399.3803,38.759680743150966
1401.2278,25.587751693666632
1403.0745,28.310552247241958
1404.9204,8.527286564524275
1406.7656,33.93715852305559
1408.6101,46.08937191510722
1410.4538,69.13313019357838
1412.2968,82.41763635047619
1414.139,117.19209268647637
1415.9805,171.70570067807648
1417.8213,200.25766062985895
1419.6613,268.8471711293482
1421.5006,360.3734287614943
1423.3391,495.98562742277727
1425.1769,676.082957405944
1427.0139,947.2146040438865
1428.8502,1259.8797459086682
1430.6858,1565.5275521002068
1432.5206,1781.8571791196246
1434.3547,1939.267767812773
1436.188,1938.8584412069313
1438.0206,1910.9783029367
1439.8524,1835.1264372480964
1441.6835,1775.7019092773576
1443.5139,1726.2537658094561
1445.3435,1709.531035872349
1447.1724,1695.9827312314555
1449.0005,1702.0078465568877
1450.8279,1678.2053595589327
1452.6545,1681.3242309278012
1454.4804,1713.363404571649
1456.3056,1713.0218075853995
1458.13,1685.498349930338
1459.9536,1613.3919244375352
1461.7766,1486.551407083079
1463.5987,1325.2256577091384
1465.4202,1137.1635212923702
1467.2409,966.2638295571755
1469.0608,815.1254028563226
1470.88,674.797051879942
1472.6984,551.5775791669134
1474.5161,437.6157805081457
1476.3331,368.6604461787729
1478.1493,315.9103620777746
1479.9648,282.8643104175262
1481.7795,259.8210702512997
1483.5935,244.3794178037274
1485.4067,238.08812670123007
1487.2192,230.49596812643586
1489.031,212.75171088109437
1490.842,209.55412146199478
1492.6522,195.7519642384109
1494.4618,201.39400148407776
1496.2705,188.82899351521291
1498.0785,170.30569863409391
1499.8858,168.42287325470943
1501.6924,145.12927208799147
1503.4981,125.27364816064392
1505.3032,122.80475304807715
1507.1075,95.67133707296807
1508.911,88.57214932994611
1510.7138,59.55593795692903
1512.5159,42.07145020611506
1514.3172,38.36743273414368
1516.1178,19.49263177693865
1517.9176,4.2957931867526895
1519.7166,-5.924337379089138
1521.515,-3.71901430621665
1523.3126,-14.839432796132769
1525.1094,-16.536750897387265
1526.9055,-21.111978412597637
1528.7008,-19.015959942241807
1530.4954,-40.99932917813521
1532.2893,-18.41252984265384
1534.0824,-22.505596074875484
1535.8747,-2.178378072707801
1537.6663,-19.93050120314956
1539.4572,-11.011569071208214
1541.2473,3.329013823818059
1543.0367,24.54195298820423
1544.8253,42.27795389493667
1546.6132,77.28772177158271
1548.4003,94.02196142293042
1550.1867,140.48137688089196
1551.9723,193.46667123716043
1553.7572,250.17854617861508
1555.5414,336.7677014574706
1557.3247,455.93483432415746
1559.1074,562.0806386614288
1560.8893,712.2058037926924
1562.6705,833.1610134205494
1564.4509,942.5969441255427
1566.2305,1013.8142641566067
1568.0094,1051.363632336705
1569.7876,1060.7956973506632
1571.565,1074.3110973696687
1573.3417,1074.3104599569556
1575.1176,1100.644401932645
1576.8928,1123.8635293737552
1578.6672,1169.4184373508617
1580.4409,1219.609709695905
1582.2138,1289.3379185466422
1583.986,1370.503623844737
1585.7575,1474.9073726384731
1587.5282,1565.9996982710995
1589.2981,1667.0811193367927
1591.0673,1759.5521387697327
1592.8358,1853.5132428332884
1594.6035,1933.9649001953085
1596.3704,1992.75756098851
1598.1366,2040.1916560059626
1599.9021,2072.0675961131656
1601.6668,2135.2357717736986
1603.4308,2192.19655273047
1605.194,2284.5502873740284
1606.9564,2414.0473021729586
1608.7182,2578.1379007503438
1610.4791,2777.9223625887944
1612.2394,3040.450941389545
1613.9988,3277.523863074606
1615.7576,3518.0913231614786
1617.5156,3653.6534843924283
1619.2728,3732.5104743288052
1621.0293,3669.862383995428
1622.785,3465.30926709201
1624.54,3208.8511406196417
1626.2942,2920.737986926325
1628.0477,2607.2697562715457
1629.8005,2324.996369707417
1631.5525,2084.6177222133506
1633.3037,1861.8336855187968
1635.0542,1687.5941105070292
1636.804,1565.0988294429867
1638.553,1443.6476577156673
1640.3013,1379.5903950630807
1642.0488,1332.2268267867607
1643.7955,1336.3067243923383
1645.5416,1348.6298460631763
1647.2868,1387.9459366195717
1649.0313,1426.6047273955264
1650.7751,1503.2059358455815
1652.5181,1566.7492651582322
1654.2604,1655.2344034899156
1656.0019,1780.2110233295762
1657.7427,1917.8287806138148
1659.4828,2063.4373134771254
1661.222,2186.0862408757116
1662.9606,2229.0251611314075
1664.6984,2138.7036507051844
1666.4354,1939.5212637677628
1668.1717,1666.027533102829
1669.9072,1358.1719720988567
1671.642,1115.504077484044
1673.3761,913.7733324048702
1675.1094,734.1292088527739
1676.8419,597.7211696814611
1678.5737,500.14867040334775
1680.3048,432.1111605536378
1682.0351,357.6080846660493
1683.7646,306.48888295318966
1685.4934,258.3529920515857
1687.2215,229.79984553287682
1688.9488,204.87887438517214
1690.6754,172.4395072985842
1692.4012,156.13117091443564
1694.1263,142.65329014965596
1695.8506,117.15528835986288
1697.5742,113.48658747414174
1699.297,96.34660825002584
1701.0191,84.53477031018429
1702.7404,68.450492313822
1704.461,70.74319207479743
1706.1808,44.81228672246357
1707.8999,41.95719267874347
1709.6182,49.02732591743734
1711.3358,28.172101992775197
1713.0527,24.99093596871444
1714.7688,15.883242627490972
1716.4841,19.398436501433025
1718.1987,27.7359319640359
1719.9126,16.34514319481218
1721.6257,20.475484095914453
1723.338,10.57636840604414
1725.0496,7.197209659148939
1726.7605,24.13742128341346
1728.4706,14.846416635050446
1730.18,7.823608828899296
1731.8886,16.368410831335495
1733.5964,4.680235530498521
1735.3036,12.258495650844907
1737.0099,9.052603870029998
1738.7156,3.6619727431241245
1740.4204,1.7360147346721533
1742.1246,-7.225857727398761
1743.8279,-2.524232232522081
1745.5306,2.940375816187043
1747.2325,-5.932523767306748
1748.9336,-10.593421198443139
1750.634,-15.542747426750566
1752.3336,-8.130827573479792
1754.0325,-3.7578314878351193
1755.7307,-6.273847792054767
1757.4281,-6.32892756763863
1759.1247,6.976940779651159
1760.8206,1.6938320700382974
1762.5158,4.871821053976873
1764.2102,-7.539017535015773
1765.9039,-7.938609012140887
1767.5968,4.123196622185787
1769.289,3.2466286742512693
1770.9804,0.38191640911190916
1772.6711,11.779289059358916
1774.361,5.188975853764077
1776.0502,13.6612059033082
1777.7386,17.346208267082147
1779.4263,9.644211867565446
1781.1132,12.605445453775928
1782.7994,7.780137678291112
1784.4849,30.31851706763382
1786.1696,30.770812070525608
1787.8535,22.487250832503605
1789.5367,17.068061191395827
1791.2192,20.813470760158452
1792.9009,21.623706981067244
1794.5818,25.89899708826283
1796.2621,35.38956809964952
1797.9415,25.69564677414155
1799.6202,27.5174595167598
1801.2982,31.855232475567618
1802.9755,41.109191523454
1804.6519,38.879562214755424
1806.3277,35.51656969271494
1808.0027,38.12043871178071
1809.6769,46.641393671235846
1811.3504,38.779658589159226
1813.0231,37.58545701721596
1814.6951,47.65901211927576
1816.3664,46.00054668335406
1818.0369,44.210283020876204
1819.7067,51.68844298326371
1821.3757,50.235247979835776
1823.044,52.55091890302708
1824.7115,58.7856761429216
1826.3783,57.239739564094066
1828.0443,57.913328443263026
1829.7096,66.05666148474972
1831.3741,59.719956813742556
1833.0379,52.353431894863775
1834.701,65.90730359553629
1836.3633,62.58178825964842
1838.0248,70.07710157201632
1839.6856,70.5434585916388
1841.3457,73.2810736767442
1843.005,66.840160480127
1844.6636,74.57093192177149
1846.3214,81.37360025326132
1847.9785,79.94837698047058
1849.6349,78.69547279553831
1851.2904,90.26509759111912
1852.9453,88.65746047291361
1854.5994,77.17276964397092
1856.2528,87.36123242076576
1857.9054,93.123055348045
1859.5572,85.20844409694439
1861.2083,86.96760340736944
1862.8587,88.20073716714137
1864.5084,95.80804839440623
1866.1572,99.93973922530279
1867.8054,92.0960108378896
1869.4528,83.02706341082865
1871.0994,90.98309620182215
1872.7453,98.0643076383019
1874.3905,100.8208952378692
1876.0349,99.25305553748308
1877.6786,103.8609840658936
1879.3215,104.1448753593213
1880.9637,100.50492291537705
1882.6051,107.59131919022332
1884.2458,109.85425563497381
1885.8858,102.99392262482957
1887.525,98.31050943644948
1889.1634,107.55420431655375
1890.8011,106.2751945287572
1892.4381,97.1236662611334
1894.0743,111.69980463900436
1895.7098,100.10379381645532
1897.3446,102.98581683057341
1898.9786,111.04605571740876
1900.6118,104.18469148315421
1902.2443,93.3019040235423
1903.8761,108.29787219245918
1905.5071,105.37277391077214
1907.1374,103.77678601637126
1908.7669,113.06008429341898
1910.3957,110.47284348830999
1912.0237,110.71523721683832
1913.651,112.93743799006916
1915.2776,109.03961721191604
1916.9034,103.97194515691751
1918.5285,96.23459100921707
1920.1528,94.02772291323879
1921.7764,102.1015080510615
1923.3992,108.25611266448732
1925.0213,105.79170197430346
1926.6427,101.15844011873617
1928.2633,90.15649017809551
1929.8832,104.48601422110721
1931.5023,93.19717341493276
1933.1207,109.29012788187379
1934.7383,98.86503681225997
1936.3552,101.8720583035199
1937.9714,100.91134946443162
1939.5868,102.8330663850528
1941.2015,94.28736414632806
1942.8154,96.17439680087205
1944.4286,88.84431745842573
1946.041,96.74727826698643
1947.6528,85.48343048610843
1949.2637,93.05292440787412
1950.8739,98.00590946953116
1952.4834,99.79253417779921
1954.0921,91.26294605933879
1955.7001,97.71729164288604
1957.3074,97.95571654454739
1958.9139,90.1783654032572
1960.5197,98.68538187839283
1962.1247,90.4769087275489
1963.729,94.60308772146618
1965.3325,88.91405972611722
1966.9353,85.30996466144438
1968.5374,83.44094155824962
1970.1387,90.75712859423527
1971.7393,88.20866311269481
1973.3392,87.29568154935066
1974.9383,85.71831945783924
1976.5366,96.37671151884092
1978.1342,84.07099155585263
1979.7311,78.70129242860412
1981.3273,87.56774615611562
1982.9227,88.07048397039478
1984.5173,85.65963622777224
1986.1112,82.73533240387349
1987.7044,83.64770111772805
1989.2968,83.14687016101198
1990.8885,89.08296648892474
1992.4795,85.5061162251975
1994.0697,81.16644460273267
1995.6592,88.81407599937165
1997.2479,77.34913398129174
1998.8359,87.9717412265303
2000.4232,70.88201963963343
2002.0097,77.98009024543046
2003.5955,73.26607335993083
2005.1805,84.39008851934341
2006.7648,82.70225452721627
2008.3484,83.95268934319665
2009.9312,76.1415100999094
2011.5133,74.118833090453
2013.0946,77.13477384651083
2014.6752,82.38944715857838
2016.2551,79.5829670458038
2017.8342,75.41544670344115
2019.4126,80.88699853091475
2020.9902,81.24773417349581
2022.5672,83.19776446758499
2024.1433,74.7371994371066
2025.7188,89.91614827400713
2027.2935,80.53471942286126
2028.8674,76.64302042908253
2030.4406,72.24115803273787
2032.0131,83.72923820746382
2033.5849,82.20736620448656
2035.1559,78.72564643773967
2036.7261,84.08418249908391
2038.2957,73.48307719312334
2039.8645,72.02243248362049
2041.4325,71.20234959950778
2042.9998,69.52292904949365
2044.5664,74.83427063026295
2046.1323,85.03647344327123
2047.6974,75.42963584163135
2049.2617,76.76385532809218
2050.8254,78.68922865110653
2052.3883,75.10585179148904
2053.9504,78.66381994316237
2055.5118,82.86322754899015
2057.0725,81.40416826519856
2058.6325,75.33673491938146
2060.1917,75.7110195250907
2061.7502,75.12711334251105
2063.3079,68.98510687471742
2064.8649,78.63508987351406
2066.4212,76.37715140085481
2067.9767,71.4613797323425
2069.5315,67.93786237980896
2071.0856,72.75668614047265
2072.6389,72.21793713217346
2074.1915,72.42170074518413
2075.7433,67.26806164759887
2077.2945,77.8071037832949
2078.8448,72.28891042346902
2080.3945,66.41356406124737
2081.9434,70.68114646686695
2083.4916,63.19173874642979
2085.039,68.94542129922661
2086.5857,63.39227389263067
2088.1317,69.23237560456062
2089.677,62.115804879013126
2091.2215,61.392639467660956
2092.7652,60.76295650101963
2094.3083,64.1268324956784
2095.8506,73.18434336059738
2097.3921,71.88556436346823
2098.933,62.680570040139855
2100.4731,73.16943420760572
2102.0124,70.05223005605421
2103.5511,60.47903004397915
2105.089,67.34990592935321
2106.6261,69.56492886535852
2108.1626,62.324169331678604
2109.6983,68.27769711234714
2111.2332,70.82558136815703
2112.7675,71.01789057712438
2114.301,69.05469250900933
2115.8337,61.786054223393876
2117.3657,62.76204208931267
2118.897,62.8327218579401
2120.4276,61.74815865283085
2121.9575,66.10841696921204
2123.4866,66.36356068482996
2125.0149,61.963653016346484
2126.5426,64.30875651678878
2128.0695,54.148933119547905
2129.5956,60.73424411492783
2131.1211,55.114750251743544
2132.6458,58.040511671467584
2134.1698,58.5115879644253
2135.693,59.67803814053764
2137.2155,71.38992062460954
2138.7373,58.24729324466625
2140.2584,55.050213114833696
2141.7787,59.698736766765364
2143.2983,55.89292018161302
2144.8171,54.632818743540724
2146.3353,62.418487277783925
2147.8527,61.64998006325038
2149.3693,49.877350754662416
2150.8853,62.35065239024334
2152.4005,59.419937509443116
2153.9149,55.23525802820575
2155.4287,56.69666526827575
2156.9417,66.95420999904559
2158.454,53.55794242294087
2159.9655,57.80791207284528
2161.4764,59.7541679460636
2162.9865,59.49675846182174
2164.4958,51.03573144180393
2166.0045,49.52113411272774
2167.5124,60.20301319095313
2169.0195,52.731414897628724
2170.526,54.20638485187328
2172.0317,50.42796814549115
2173.5367,51.24620932822336
2175.0409,56.26115244553114
2176.5445,62.0228410304145
2178.0473,51.43131805326152
2179.5494,43.63662586423243
2181.0507,49.78880629917387
2182.5513,55.63790075756663
2184.0512,54.68395014100395
2185.5504,54.02699479470027
2187.0488,53.8670745170308
2188.5465,46.00422856610135
2190.0435,56.338495661346656
2191.5397,49.369914062159864
2193.0353,55.84852146454932
2194.5301,52.37435507082455
2196.0241,50.79745152480973
2197.5175,48.417846946586224
2199.0101,41.435576948260746
2200.502,42.050676657761755
2201.9931,46.763180788662225
2203.4835,45.57312363402775
2204.9733,49.48053901929285
2206.4622,47.93546031416088
2207.9505,49.08792039353034
2209.438,45.437951652945344
2210.9248,44.63558599707051
2212.4109,42.880854876191506
2213.8962,43.773789294238384
2215.3809,45.01441982633298
2216.8648,44.45277660985937
2218.3479,38.78888933205826
2219.8304,40.67278723564266
2221.3121,40.70449917543698
2222.7931,35.584053599538095
2224.2733,39.911478548997934
2225.7529,38.93680170902803
2227.2317,41.360050365725044
2228.7098,38.13125141581804
2230.1872,37.35043134243557
2231.6638,41.317616247393914
2233.1397,34.98283185900533
2234.6149,39.49610349240663
2236.0894,32.75745611290603
2237.5632,34.66691429085108
2239.0362,35.224502269015034
2240.5085,33.78024394350189
2241.9801,32.23416285817103
2243.4509,32.28628221907957
2244.921,28.986624909942805
2246.3904,32.33521349161373
2247.8591,31.08207023507896
2249.3271,28.927217087973304
2250.7943,25.17067568711093
2252.2608,34.26246738003425
2253.7266,30.552613262579257
2255.1917,26.94113408795721
2256.656,28.778050303853433
2258.1197,16.963382088541948
2259.5826,22.447149332516574
2261.0447,23.979371756637704
2262.5062,23.710068857294516
2263.9669,26.78925989108228
2265.4269,29.466963877495914
2266.8862,29.04319956813805
2268.3448,31.017985419941567
2269.8026,33.891339599407445
2271.2598,34.21327996285737
2272.7162,27.983824027699484
2274.1719,27.052988969209366
2275.6268,28.220791682824427
2277.0811,32.13724879345261
2278.5346,24.4023766437939
2279.9874,29.91619125517616
2281.4395,27.478708404903898
2282.8908,28.48994357112008
2284.3414,27.349911957180836
2285.7914,32.90862848154296
2287.2406,25.866107789164232
2288.689,28.822364195915952
2290.1368,21.12741175900925
2291.5838,30.881264247431375
2293.0302,32.283935218895806
2294.4758,29.085437922303186
2295.9206,27.835785283715097
2297.3648,21.4349899383393
2298.8082,30.883064243025842
2300.251,26.580020340274928
2301.693,32.92587006375652
2303.1343,31.32062498134104
2304.5748,26.7142963316403
2306.0147,18.606895040060067
2307.4538,26.89843176486346
2308.8922,23.738916978244788
2310.3299,31.078360883414234
2311.7669,31.516773446193042
2313.2031,28.20416432161943
2314.6387,30.090542849563917
2316.0735,25.72591808785569
2317.5076,29.56029879341844
2318.941,27.093693465917113
2320.3737,24.476110309414025
2321.8056,28.557557257034944
2323.2369,21.8380419971445
2324.6674,32.267571932532064
2326.0972,29.846154247607046
2327.5263,31.5737958041031
2328.9547,30.250503165292514
2330.3823,29.02628257870947
2331.8092,34.00113998938315
2333.2355,16.325081052080122
2334.661,21.298111081555362
2336.0858,16.47023522931329
2337.5098,19.4914584338772
2338.9332,22.211785469068218
2340.3558,14.131220913793072
2341.7778,22.09976912484069
2343.199,24.367434317687923
2344.6195,28.084220486814445
2346.0393,21.30013138302536
2347.4583,23.215170476283845
2348.8767,26.47934102355225
2350.2943,22.492646049641166
2351.7113,26.455088314568286
2353.1275,20.166670353425275
2354.543,26.877394436753207
2355.9578,27.4372626334262
2357.3718,24.496276743545536
2358.7852,27.854438292840086
2360.1978,31.311748562076502
2361.6098,32.31820855347712
2363.021,24.37381895614692
2364.4315,25.928580136008577
2365.8413,28.282492215247146
2367.2504,28.985555056761882
2368.6587,24.087768240626872
2370.0664,23.38913105706075
2371.4733,27.78964255540484
2372.8795,25.889301551109213
2374.285,29.53810658172773
2375.6899,26.93605592592138
2377.0939,25.13314756697065
2378.4973,21.57937921879585
2379.9,28.624748343986028
2381.3019,25.01925218933684
2382.7032,27.512887715396687
2384.1037,27.60565163252153
2385.5035,17.39754037593849
2386.9027,23.688550104817864
2388.3011,26.878676804354825
2389.6987,24.76791622285873
2391.0957,26.056263839852193
2392.492,22.743714887178953
2393.8876,16.980264336120115
2395.2824,23.76590693051986
2396.6765,13.70063724442008
2398.07,19.13444961420322
2399.4627,19.56733823924526
2400.8547,15.949297127578234
2402.246,19.180320091561384
2403.6366,18.710400784060937
2405.0265,18.039532666140587
2406.4156,18.46770901176035
2407.8041,20.14492291448505
2409.1918,20.021167283202544
2410.5789,16.54643482535124
2411.9652,18.670718048157767
2413.3508,19.99400929338475
2414.7358,19.316300716087085
2416.12,20.63758427138066
2417.5035,16.207851721218162
2418.8863,22.177094621177048
2420.2684,18.345304364756487
2421.6497,26.01247212368429
2423.0304,15.178588886236128
2424.4104,16.69364538056311
2425.7896,22.107632183029864
2427.1682,19.77053970306656
2428.546,27.48235812902709
2429.9232,18.543077451560123
2431.2996,22.152687386490697
2432.6753,13.261177464213688
2434.0503,19.568536993597206
2435.4246,25.674755150897738
2436.7982,21.07982091668623
2438.1711,25.483723014786563
2439.5433,26.83644995822459
2440.9148,19.137990005188897
2442.2856,10.238331145504219
2443.6557,19.387461177615364
2445.025,15.035367797584058
2446.3937,10.232038507597565
2447.7617,23.377460659489998
2449.1289,21.921621502775224
2450.4955,18.814508053192412
2451.8613,21.456107107264586
2453.2265,22.096405273369612
2454.5909,19.58538894532444
2455.9546,19.32304429598196
2457.3177,15.059357302341368
2458.68,17.89431374817144
2460.0416,19.727899266647512
2461.4025,22.41009931200199
2462.7627,21.840899141188572
2464.1222,23.320283787060077
2465.4811,20.84823806406075
2466.8392,22.674746553431817
2468.1966,27.899793627932468
2469.5533,27.573363433574684
2470.9093,28.295439837372726
2472.2645,26.6160064306074
2473.6191,29.485046521605398
2474.973,23.20254315253294
2476.3262,31.318479070706417
2477.6787,29.382836791416707
2479.0305,31.245598516769974
2480.3816,29.05674615504421
2481.7319,25.81626130206132
2483.0816,30.374125263076166
2484.4306,27.980319085180724
2485.7789,21.534823511726188
2487.1264,29.937619006260604
2488.4733,22.63868581698398
2489.8195,24.038003892720383
2491.165,20.1855529559071
2492.5097,29.68131248860169
2493.8538,22.27526177100617
2495.1972,23.317379786509548
2496.5398,23.707645295748364
2497.8818,24.546036826185286
2499.2231,22.23253266820666
2500.5637,26.817110866738858
2501.9035,22.44974924438293
2503.2427,27.73042535556891
2504.5812,26.409116530229596
2505.919,23.085799820993316
2507.256,30.660452016397585
2508.5924,26.683049674121776
2509.9281,34.75356904524102
2511.2631,26.521986114000356
2512.5974,28.388276517109034
2513.9309,27.502415626056916
2515.2638,27.664378528451266
2516.596,31.474140036875724
2517.9275,27.2316746872699
2519.2583,25.086956700832275
2520.5884,29.189960026444624
2521.9178,24.54065836211919
2523.2465,30.389025113968728
2524.5745,25.48503344269966
2525.9018,32.82865620512797
2527.2284,28.06986600321966
2528.5543,28.15863511065419
2529.8796,31.394935520412787
2531.2041,29.878738943890312
2532.5279,31.510016778532474
2533.851,35.53874012299758
2535.1735,31.314879760844292
2536.4952,30.9384061202436
2537.8163,35.10928931621805
2539.1366,31.827499154406098
2540.4562,32.843005089353596
2541.7752,38.25577625733138
2543.0935,32.915781466180306
2544.411,24.22298914118369
2545.7279,34.327367378467216
2547.0441,32.77888403192702
2548.3596,34.57750661218557
2549.6744,37.423202302076675
2550.9885,37.71593793865924
2552.3019,36.95567998476042
2553.6146,42.24239452604826
2554.9266,31.726047278634155
2556.2379,32.60660353620574
2557.5485,38.484028275190155
2558.8585,35.60828614594885
2560.1677,42.47934141400299
2561.4762,40.74715798879109
2562.7841,39.61169935495849
2564.0913,41.02292858967891
2565.3977,41.18080837400959
2566.7035,35.68530097877826
2568.0086,42.686368263004965
2569.313,39.18397172885673
2570.6167,40.27807245163686
2571.9197,40.51863111480907
2573.222,40.65560799905657
2574.5236,42.43896297987638
2575.8246,40.16865552620942
2577.1248,38.144644682607236
2578.4244,48.566889091934826
2579.7232,46.18534701561089
2581.0214,44.59997622938536
2582.3189,45.560734047154824
2583.6157,48.367577336816254
2584.9118,50.62046251065945
2586.2072,45.31934549729857
2587.5019,51.81418171914336
2588.7959,50.25492614541008
2590.0893,53.84153322717336
2591.3819,52.423956912958744
2592.6739,52.6021506128765
2593.9652,51.17606721279728
2595.2557,54.7956590725704
2596.5456,56.31087804028476
2597.8348,55.52167541607267
2599.1234,54.22800193695804
2600.4112,53.57980778474794
2601.6983,62.57704259896974
2602.9848,58.019655483352864
2604.2705,60.50759491585637
2605.5556,61.59080879424303
2606.84,63.7192444111995
2608.1237,63.14284844350465
2609.4067,57.961566930745164
2610.689,51.325345281079024
2611.9707,61.03412832304886
2613.2516,57.637860371944186
2614.5319,51.68648513271327
2615.8115,52.979945733925916
2617.0903,52.368184787286964
2618.3685,56.65114437470217
2619.6461,52.078766054395345
2620.9229,52.05099081807933
2622.199,47.5677591366792
2623.4745,54.67901096061044
2624.7493,48.18468576461086
2626.0234,55.584722476628286
2627.2968,57.82905954276396
2628.5695,55.967634853271676
2629.8415,53.75038572011499
2631.1128,53.72724889558117
2632.3835,57.098160594453844
2633.6535,54.26305649424407
2634.9228,59.3218717014816
2636.1914,57.92454078006563
2637.4593,53.37099770067681
2638.7265,56.861175854750485
2639.9931,58.59500810001214
2641.259,49.022426725575485
2642.5242,48.24336343460428
2643.7887,49.4577494400381
2645.0525,51.56551547238294
2646.3156,47.61659176756743
2647.5781,51.36090804586533
2648.8398,50.34839355138442
2650.1009,45.47897701462344
2651.3613,53.25258666259745
2652.6211,46.319150267531626
2653.8801,44.22859506912556
2655.1385,53.68084784388742
2656.3961,47.27583492603958
2657.6531,51.41348211299601
2658.9094,54.993714729412545
2660.1651,52.76645758581037
2661.42,56.73163494277338
2662.6743,58.73917053322151
2663.9279,58.6389875227581
2665.1808,58.13100848959519
2666.433,56.6151554255548
2667.6846,55.79134974114922
2668.9354,59.3595122807391
2670.1856,62.51956333077146
2671.4351,64.02142258409847
2672.6839,70.21500910837659
2673.9321,72.25024133104833
2675.1795,64.72703697740593
2676.4263,71.59531305023944
2677.6724,70.15498590506843
2678.9179,69.50597118145959
2680.1626,70.89818381743004
2681.4067,71.03153805593712
2682.6501,71.30594743095651
2683.8928,67.72132476614851
2685.1348,71.52758217211405
2686.3761,60.924631082240865
2687.6168,59.062382214641076
2688.8568,62.290745678180656
2690.0961,57.70963099110196
2691.3348,55.5189470487399
2692.5727,55.66860216933313
2693.81,57.3585041159308
2695.0466,61.98856009489606
2696.2826,58.40867673900718
2697.5178,63.318760061156894
2698.7524,57.9687154901512
2699.9863,63.25844782160871
2701.2195,64.58786127146084
2702.452,66.25685942305455
2703.6839,68.8653452138584
2704.9151,70.4632209187723
2706.1456,69.80038812404271
2707.3755,80.126747711284
2708.6046,77.79219986410683
2709.8331,81.99664396485437
2711.0609,85.68997861794793
2712.2881,87.72210160784249
2713.5145,96.94290986209336
2714.7403,96.20229943103496
2715.9654,103.85016539557284
2717.1899,107.43640187458979
2718.4136,113.11090194846713
2719.6367,119.72355762322218
2720.8591,122.17425977376314
2722.0809,132.41289807776303
2723.3019,138.83936099115203
2724.5223,143.6035356457316
2725.7421,140.55530778490981
2726.9611,143.29456171605923
2728.1795,140.22118034099964
2729.3972,138.03504512860516
2730.6142,132.48603614553826
2731.8306,123.22403207811118
2733.0462,109.24891028777603
2734.2612,106.66054690374472
2735.4756,103.60881696274004
2736.6892,87.19359443487971
2737.9022,86.61475225419315
2739.1145,78.72216248277405
2740.3262,74.41569631656864
2741.5372,67.39522416430162
2742.7475,61.81061569054083
2743.9571,54.51173988590202
2745.1661,50.698465122894845
2746.3744,46.770659228911626
2747.582,43.478189524360204
2748.7889,35.07092286194188
2749.9952,29.948725659576127
2751.2008,34.86146398447332
2752.4057,24.109003604356474
2753.61,26.34120993833423
2754.8136,28.30794816442534
2756.0165,22.909083197236498
2757.2188,22.894479668294963
2758.4204,19.51400198003728
2759.6213,23.217514305955376
2760.8215,18.704880624401227
2762.0211,22.675964681551847
2763.22,16.730630036535587
2764.4182,15.818740021721283
2765.6158,15.290157802171478
2766.8127,13.294746384761424
2768.009,13.332368623464788
2769.2045,4.952887239307813
2770.3994,11.556164819993484
2771.5936,3.092063903695845
2772.7872,3.96044691302734
2773.9801,-3.238823760320116
2775.1723,-0.7558857642591477
2776.3639,0.7591556091468021
2777.5548,-7.543797380866948
2778.745,-2.814842482656559
2779.9346,-5.604002082042513
2781.1235,-7.261270444568822
2782.3117,-5.636585851799055
2783.4992,-2.529814045204972
2784.6861,-0.4407644567656632
2785.8723,-7.969221245618002
2787.0579,-8.164964167662191
2788.2428,-12.427693366278248
2789.427,-4.057027416854282
2790.6106,-4.402460742121889
2791.7935,-0.9134472351088618
2792.9757,-2.5393968082603067
2794.1573,-0.47971024868348877
2795.3382,8.116237025088338
2796.5184,10.999074386827175
2797.698,13.619431129142697
2798.8769,15.177936434653759
2800.0551,19.22521934978485
2801.2327,22.56190876918123
2802.4096,26.738633395235894
2803.5859,37.656021704722434
2804.7615,40.91470190702836
2805.9364,46.61530183498098
2807.1106,52.55844891226076
2808.2842,70.04477009639487
2809.4572,84.62489181932636
2810.6294,90.14943981255067
2811.801,110.91903896131433
2812.972,126.03431324936989
2814.1423,142.34588555127934
2815.3119,163.30437748126178
2816.4808,192.76040923007758
2817.6491,214.01459935544364
2818.8167,242.51756448747273
2819.9837,266.11991911613205
2821.15,294.97227530621313
2822.3157,328.5252424613085
2823.4807,353.4294270352879
2824.645,387.78543219676874
2825.8086,417.1938575800743
2826.9716,453.60529894167337
2828.134,483.5203478660965
2829.2957,504.73959140182103
2830.4567,525.7636117621216
2831.617,533.1929861128764
2832.7767,536.8282863623285
2833.9358,538.9700790867905
2835.0941,533.3689254942931
2836.2519,518.8253814031658
2837.4089,511.23999729804945
2838.5653,501.06331847533073
2839.7211,488.6958851189969
2840.8761,489.4382324024018
2842.0306,485.74089061194053
2843.1843,502.6043851396261
2844.3374,509.92923652006255
2845.4899,537.2659602618102
2846.6417,552.4150667741371
2847.7928,588.9770610936519
2848.9433,610.8024427328123
2850.0931,638.7417053143059
2851.2422,666.845336352796
2852.3907,693.1138169755288
2853.5385,714.3976216412979
2854.6857,731.1472178777583
2855.8323,764.3130660685895
2856.9781,783.8956192859985
2858.1233,824.4953229590622
2859.2679,837.7626146779011
2860.4118,865.0479237876825
2861.555,885.2016712559481
2862.6976,905.72426939976
2863.8395,930.016121684164
2864.9808,946.6276225169631
2866.1214,956.6591570057994
2867.2614,967.2611007920387
2868.4007,979.6838199504559
2869.5393,977.4776708832144
2870.6773,989.2430001956404
2871.8146,992.030144718283
2872.9513,999.1394313892622
2874.0874,991.4211772263959
2875.2227,983.4256892561086
2876.3574,975.7532645906126
2877.4915,960.2541905078639
2878.6249,946.3787445282856
2879.7577,940.6771945697585
2880.8898,915.6997990863772
2882.0212,916.9968071254634
2883.152,916.5184585773416
2884.2821,907.9149841623675
2885.4116,908.3366054357134
2886.5405,910.6335348734016
2887.6686,907.3059758680879
2888.7962,914.0041227060935
2889.923,922.42816060068
2891.0493,916.6282656250676
2892.1748,928.8546046281949
2893.2997,935.7573352927191
2894.424,947.2366060127499
2895.5476,949.4925558248253
2896.6706,964.0253142931168
2897.7929,954.7350014868705
2898.9145,974.2717278350797
2900.0355,997.6355942193879
2901.1559,1012.8266917787207
2902.2756,1027.7451016756484
2903.3946,1034.290894944475
2904.513,1047.7641323420532
2905.6308,1065.4648642823272
2906.7479,1071.5931307016
2907.8643,1088.9989608815263
2908.9801,1098.1323733878294
2910.0953,1100.1433758962428
2911.2098,1085.3319651011773
2912.3236,1084.4981266956092
2913.4368,1082.541835519196
2914.5494,1075.0130555666133
2915.6613,1059.311740007119
2916.7725,1040.98783125984
2917.8831,1018.1412611507865
2918.9931,1014.2219510960904
2920.1024,989.2798123304709
2921.211,982.5147459464283
2922.319,976.7266431436644
2923.4264,971.1153852967342
2924.5331,954.2808440129263
2925.6391,957.5728811883753
2926.7445,976.0413491764077
2927.8493,967.5360907546217
2928.9534,968.8069389402021
2930.0569,973.1037170749726
2931.1597,971.0762388126881
2932.2619,981.7243080760663
2933.3634,984.4977190770628
2934.4643,988.69625621039
2935.5645,994.9696940257841
2936.6641,982.4677971860181
2937.763,974.2903204041687
2938.8613,955.7870085686346
2939.959,940.3575968249119
2941.056,907.8018107606258
2942.1523,874.0193665598265
2943.248,834.9599713285453
2944.3431,798.4733234326208
2945.4375,743.4591128882915
2946.5313,712.7670217270631
2947.6244,652.4467245458504
2948.7169,604.3478888138982
2949.8087,553.8201754759837
2950.8999,507.91323943340603
2951.9904,470.9267300492625
2953.0803,440.61029160751804
2954.1696,415.0635636828703
2955.2582,398.486181443914
2956.3462,366.1277759086088
2957.4335,356.0879741100519
2958.5202,329.6663994200636
2959.6062,322.4626716495841
2960.6916,312.3264073128898
2961.7764,299.3072196996307
2962.8605,297.6547189761925
2963.9439,298.7185123158888
2965.0267,293.69820391548603
2966.1089,285.99339498456555
2967.1905,289.05368379572695
2968.2714,282.2786657616359
2969.3516,284.7179334044215
2970.4312,292.5210764234263
2971.5102,294.3876816708136
2972.5885,294.5673330735365
2973.6662,294.3596116146708
2974.7432,300.6640953316198
2975.8196,300.4303593181902
2976.8954,308.05797566154826
2977.9705,298.9965134445566
2979.045,295.19553866949843
2980.1188,290.6046143486919
2981.192,287.8733005424997
2982.2645,282.7511544052389
2983.3364,274.13773021249347
2984.4077,252.38257941233616
2985.4783,251.43525071146234
2986.5483,233.94529029274173
2987.6177,222.31224182469165
2988.6864,195.7356466363766
2989.7545,186.81504383373886
2990.8219,166.79997056536445
2991.8887,154.0899621116891
2992.9548,137.08455208514908
2994.0204,123.03327255728121
2995.0852,107.08565422877697
2996.1495,100.14122656999544
2997.2131,83.5495179804389
2998.276,76.26005585819752
2999.3383,63.6223667658665
3000.4,56.88597650344025
3001.4611,46.600410234689804
3002.5215,41.215192554526425
3003.5812,29.32984759185743
3004.6404,28.243899063438278
3005.6989,27.45687039272582
3006.7567,20.068284720738006
3007.8139,14.777664913924156
3008.8705,9.034533638050902
3009.9264,5.538413411108166
3010.9818,2.9888266607408127
3012.0364,1.035295759209589
3013.0905,-2.4726569511128957
3014.1439,-0.3855091382068849
3015.1966,-0.6537137682097693
3016.2487,-1.4277199560226563
3017.3002,-5.857970285946095
3018.3511,-9.74489307935832
3019.4013,-6.838858136514517
3020.4509,-6.640137906187874
3021.4998,-4.648936516958884
3022.5481,-1.9653917624304995
3023.5958,-3.339594993329939
3024.6428,-0.3716179261209902
3025.6892,-0.7114989147135873
3026.735,2.79072739944516
3027.7802,-1.014966517217772
3028.8247,-0.37860822618239354
3029.8685,1.8497848505866443
3030.9118,-4.979800926579344
3031.9544,8.032620784153181
3032.9963,4.837086072829123
3034.0376,12.883630949167099
3035.0783,12.522291374514822
3036.1184,17.003103181384063
3037.1578,18.72610207706356
3038.1966,18.89132359881114
3039.2348,18.848803096623698
3040.2723,25.64857573158494
3041.3092,28.090676476290668
3042.3455,26.52514004685105
3043.3811,26.652000878469664
3044.4161,30.371293141098647
3045.4505,34.38305073817028
3046.4842,30.587307269403993
3047.5173,30.934095990688803
3048.5498,31.12344985204078
3049.5816,35.90540149413499
3050.6128,32.87998324641205
3051.6434,36.347227079258744
3052.6734,38.20716463426203
3053.7027,36.959827189536696
3054.7314,32.75524564112595
3055.7594,36.793450515474774
3056.7868,40.77447201147581
3057.8136,33.19833996008725
3058.8398,38.465083784522704
3059.8653,38.624732576012434
3060.8902,38.57731504113585
3061.9145,38.92285950022509
3062.9381,38.61139388783923
3063.9612,42.892945749308836
3064.9835,42.16754224385066
3066.0053,41.48521010175193
3067.0264,39.095975631624555
3068.0469,38.79986472722828
3069.0668,39.49690289136315
3070.086,37.487115238830626
3071.1046,35.020526489463236
3072.1226,38.547160988222345
3073.1399,34.31704272986423
3074.1567,32.53019532367357
3075.1727,30.286642035764743
3076.1882,34.58640580695014
3077.203,28.679509275175832
3078.2173,26.31597473252387
3079.2308,23.7958241842814
3080.2438,21.01907937257576
3081.2561,17.735761801576274
3082.2678,22.645892765261408
3083.2789,11.449493380252179
3084.2893,15.246584536710728
3085.2991,14.53718701030428
3086.3083,6.0713214242342985
3087.3169,11.799008256330325
3088.3248,8.220267923708803
3089.3321,8.785120725496057
3090.3388,9.843586878615852
3091.3449,5.195686512140753
3092.3503,5.141439656707519
3093.3551,8.48086629099609
3094.3593,7.013986342272148
3095.3629,6.2408196529927835
3096.3658,6.561385995475206
3097.3681,7.775705079628494
3098.3698,2.8837965497478564
3099.3708,3.0356799723715113
3100.3713,5.781374885199824
3101.3711,4.720900795576384
3102.3702,-1.4957228469690165
3103.3688,3.2315233598844486
3104.3667,2.702673760728885
3105.364,7.167762667841146
3106.3607,2.6768243664713793
3107.3568,1.529893070192088
3108.3522,4.227002965807628
3109.347,4.9681882248234075
3110.3412,5.203482976474888
3111.3348,1.3329213003156752
3112.3277,2.106537223864507
3113.32,0.8243647613109459
3114.3117,2.3864379057792746
3115.3028,-0.2072093578497629
3116.2932,1.3934569314401983
3117.2831,3.3884728046869412
3118.2723,3.0778742789937183
3119.2608,0.3116973375791332
3120.2488,4.039977932883033
3121.2361,2.462752014228329
3122.2229,-1.5699445094618412
3123.209,1.6919242461082362
3124.1944,8.04840984897988
3125.1793,5.349563850275175
3126.1635,3.545437720632151
3127.1471,4.136082877193132
3128.1301,3.6215507016461714
3129.1125,5.651892534318456
3130.0942,6.227159679321645
3131.0753,6.047403384248561
3132.0558,5.112674834420432
3133.0357,5.273025154684504
3134.015,4.028505418761284
3134.9936,7.029166647641077
3135.9716,9.775059822029156
3136.949,8.716235852339167
3137.9258,6.1027455512342215
3138.902,12.084639644215088
3139.8775,10.36196879575509
3140.8524,5.434783549481189
3141.8267,7.903134345400694
3142.8004,6.967071569173136
3143.7735,10.376645527426703
3144.7459,9.23190645711891
3145.7178,9.08290449144085
3146.689,11.279689671264542
3147.6596,10.222311946632978
3148.6295,11.11082115479229
3149.5989,11.84526703076552
3150.5676,10.67569919846752
3151.5357,12.552167163360473
3152.5032,10.474720324149622
3153.4701,16.34340795401853
3154.4364,11.608279221403599
3155.402,13.71938313130714
3156.367,11.926768572648712
3157.3315,14.330484297154037
3158.2952,20.13057893728118
3159.2584,12.927100982183397
3160.221,14.070098719708156
3161.1829,14.359620308431953
3162.1442,17.14571376623032
3163.105,16.828426967382498
3164.065,19.35780761471065
3165.0245,18.03390324275263
3165.9834,19.256761192468275
3166.9416,19.576428624478403
3167.8993,17.292952506836222
3168.8563,16.106379611830683
3169.8127,21.01675653882117
3170.7684,19.52412972610326
3171.7236,20.178545401804925
3172.6782,22.730049598812883
3173.6321,22.22868814822838
3174.5854,21.424506653852056
3175.5381,24.567550497197644
3176.4902,22.407864845533865
3177.4417,20.145494620453874
3178.3926,25.630484519472233
3179.3428,25.412879038648605
3180.2924,22.892722417737772
3181.2415,25.07005864236576
3182.1899,21.69493146923137
3183.1377,26.1673844043329
3184.0848,26.537460736719307
3185.0314,23.255203493765567
3185.9773,28.320655437471984
3186.9227,26.983859097286874
3187.8674,25.744856719451995
3188.8115,27.653690280370533
3189.755,28.760401498997105
3190.6979,27.66503181774945
3191.6402,29.067622391441283
3192.5818,27.968214098235997
3193.5229,28.916847525620774
3194.4633,29.013562981400646
3195.4031,32.408400484212194
3196.3423,29.951399762556342
3197.2809,29.34260022085005
3198.2189,34.73204096399625
3199.1563,31.769760803471897
3200.0931,31.555798203433515
3201.0292,32.04019131034005
3201.9648,35.22297795509245
3202.8997,33.75419564818976
3203.834,35.38388154790124
3204.7677,35.712072474954205
3205.7008,34.588804896237136
3206.6333,36.1141149215178
3207.5652,36.93803831467594
3208.4964,35.5106104784501
3209.4271,37.331866446198475
3210.3571,38.40184089617315
3211.2865,37.72056813330754
3212.2154,38.18808207851664
3213.1436,38.35441627550978
3214.0712,38.569603886115445
3214.9982,40.18367768861799
3215.9246,36.7966700756057
3216.8503,40.108613037830104
3217.7755,36.819538198075996
3218.7001,41.22947677804207
3219.624,44.88845963123161
3220.5473,41.49651719885313
3221.4701,44.00367947323054
3222.3922,39.109976031722596
3223.3137,45.465436011651214
3224.2346,43.470088159238585
3225.1549,43.1239607660525
3226.0746,42.627081688959876
3226.9937,45.679478353588024
3227.9121,46.03117775929342
3228.83,48.18220644863776
3229.7473,44.532590503870935
3230.6639,46.4823555254208
3231.5799,46.33152666838926
3232.4954,48.33012862305468
3233.4102,45.42818561638011
3234.3244,49.07572139202736
3235.238,48.372759239376336
3236.151,50.019321957049755
3237.0634,50.36543185994271
3237.9752,51.21111076275711
3238.8864,47.206379976540504
3239.797,49.35126030022935
3240.7069,50.945772060696285
3241.6163,50.88993509130131
3242.5251,52.68376871594671
3243.4332,48.1772917496354
3244.3408,52.62052248053258
3245.2477,51.26347871503054
3246.154,51.25617773331631
3247.0598,55.49863630294216
3247.9649,52.19087067889849
3248.8694,54.7328965611894
3249.7733,53.97472912791021
3250.6766,56.16638300982729
3251.5793,56.80787229795969
3252.4814,55.8992105216626
3253.3829,55.34041064221249
3254.2838,59.73148506189371
3255.1841,57.772445629586485
3256.0838,56.76330359685616
3256.9829,58.35406963754364
3257.8814,57.44475385785675
3258.7792,58.435365780462604
3259.6765,57.27591435358076
3260.5731,59.36640794107703
3261.4692,58.25685433405813
3262.3647,57.59726072996666
3263.2595,61.037633743676665
3264.1538,59.07797941408957
3265.0474,57.36830316973042
3265.9404,59.658609848344454
3266.8329,59.79890371399387
3267.7247,62.23918843415477
3268.616,64.2294670783142
3269.5066,59.51974209356729
3270.3966,59.51001528471447
3271.286,61.45028786135879
