RamanShift,CorrectedData
30.1047,1150.7595502535116
32.3739,1065.238510243788
34.6426,982.2174587264684
36.9109,897.3963735415729
39.1787,816.1252227069458
41.4461,732.4039652664676
43.7131,652.2325521027667
45.9796,569.6609267744311
48.2456,487.48902631772285
50.5112,406.46678207229445
52.7764,324.39412050290787
55.0411,242.62096400965714
57.3054,163.39723174869494
59.5692,83.7228404499643
61.8326,2.4977052094357646
64.0955,-74.02825971414845
66.3579,-148.70514008702315
68.6199,-225.83228213310872
70.8815,-281.3075465119761
73.1426,-288.4765378186982
75.4032,-165.93205038595812
77.6634,259.0860033341735
79.9231,1382.7393685508089
82.1824,3927.0397878822005
84.4412,8511.698990119206
86.6995,14761.778664782292
88.9574,20779.640416274924
91.2148,24840.695701382796
93.4717,26549.955769095184
95.7282,26694.68161999442
97.9842,26272.583989163268
100.2398,25387.973344737686
102.4949,24423.30989212779
104.7495,23383.50358286396
107.0036,22357.66412424348
109.2573,21404.2509897286
111.5105,20570.97342920493
113.7632,19826.340478515565
116.0154,19143.610967793877
118.2672,18667.343528909823
120.5185,18194.44660229726
122.7693,17781.67844171661
125.0197,17447.24711898383
127.2696,17047.86052809808
129.519,16798.176388586082
131.7679,16426.902249495917
134.0163,16060.69549189393
136.2642,15602.063332577432
138.5117,15148.86282773679
140.7587,14667.250877541735
143.0052,14250.934230673367
145.2512,13820.069489140289
147.4967,13386.16311244175
149.7417,13098.671421876319
151.9863,12805.950604880922
154.2304,12618.756717905777
156.4739,12371.095689341599
158.717,12146.173321391543
160.9596,11888.045292547802
163.2017,11519.617159840836
165.4433,11172.894361420662
167.6844,10764.582220241118
169.925,10383.085947527105
172.1651,9928.2606468577
174.4047,9608.611317981122
176.6439,9268.742861362985
178.8825,8990.710081382796
181.1206,8769.36768973263
183.3582,8538.870308197467
185.5954,8354.32247086861
187.832,8233.778626448655
190.0681,8126.643140096982
192.3037,8041.920294635185
194.5388,7986.864291618431
196.7734,7934.579252182681
199.0075,7907.46921759526
201.2411,7982.788149777697
203.4742,7972.039931576837
205.7068,8052.828366011643
207.9389,8120.607176380683
210.1704,8187.530005454247
212.4015,8249.500414796546
214.632,8315.871884096501
216.862,8386.04781054803
219.0915,8412.081508186333
221.3205,8470.176207186136
223.549,8508.735053601347
225.777,8517.511108784121
228.0044,8537.757348999265
230.2314,8597.426665336468
232.4578,8624.521863507856
234.6837,8668.645663251285
236.909,8674.850698059401
239.1339,8587.939514738391
241.3582,8478.114573345949
243.582,8295.328248060365
245.8053,8188.0828282787925
248.0281,8008.480520445104
250.2503,7956.623449122345
252.472,7962.163658788764
254.6932,8011.653114356377
256.9139,8043.243701115565
259.134,8223.087224240191
261.3536,8399.085408471676
263.5727,8639.889896320572
265.7912,8828.752246306583
268.0092,9080.773930550507
270.2267,9264.856332885629
272.4436,9330.0507463375
274.6601,9307.608371283099
276.8759,9131.680314798916
279.0913,9008.41759088535
281.3061,8808.771122226
283.5204,8709.791741420308
285.7341,8604.38019297999
287.9473,8582.137134318858
290.16,8563.813136806932
292.3721,8597.60868599285
294.5837,8759.324181787133
296.7947,8919.009938124225
299.0052,9035.716181345315
301.2152,8945.143048601502
303.4246,8763.190586686726
305.6334,8342.5087529435
307.8418,7925.397417082439
310.0495,7464.356365389081
312.2568,6994.985304894981
314.4635,6524.883867988145
316.6696,6182.7516171067255
318.8752,5910.438049440047
321.0802,5746.042600349911
323.2847,5728.364646093758
325.4887,5734.203505468589
327.692,5635.458439987773
329.8949,5583.228653822634
332.0972,5352.013294789927
334.2989,5139.411454874118
336.5001,4839.972172539548
338.7007,4542.494434856442
340.9008,4368.077180495309
343.1003,4157.069302701717
345.2992,3985.419651040469
347.4976,3843.427033505677
349.6955,3740.990218237257
351.8927,3695.707934940863
354.0895,3573.6788759122464
356.2856,3527.601696490092
358.4812,3420.1250162762935
360.6763,3398.4974195967316
362.8707,3307.567456576051
365.0646,3329.783643353918
367.258,3308.594462994344
369.4508,3359.6983652635026
371.643,3481.7437668416205
373.8346,3483.9790508119495
376.0257,3562.802565440299
378.2162,3545.9626241526985
380.4062,3507.9075047471433
382.5956,3407.585449562015
384.7844,3234.0946658566318
386.9726,3082.5333268144605
389.1603,2934.9995732780317
391.3474,2851.1915152645397
393.5339,2792.4572334411932
395.7199,2732.744779963283
397.9052,2769.802179061531
400.09,2802.8774276392123
402.2743,2928.6184949015933
404.4579,3092.523322025161
406.641,3272.2898209002233
408.8235,3403.7158724918518
411.0054,3513.14932504223
413.1868,3666.7379927563834
415.3675,3682.8796547078473
417.5477,3659.572053302785
419.7273,3615.312894118566
421.9064,3478.5498461368406
424.0848,3390.830542186137
426.2627,3229.302580309488
428.4399,2978.013524641623
430.6166,2621.8109070242517
432.7928,2276.442229518965
434.9683,1979.654967969247
437.1432,1736.746575454159
439.3176,1524.9144852562204
441.4914,1400.8061132904859
443.6645,1375.1688602228678
445.8371,1269.6001127112231
448.0091,1198.3472436617158
450.1806,1162.807613284518
452.3514,1125.8785698063366
454.5216,1157.6074498257967
456.6913,1120.191578682743
458.8603,1168.7282701409476
461.0288,1195.6148267622684
463.1967,1143.348539421284
465.3639,1155.2266870364292
467.5306,1111.4465370926537
469.6967,1112.6053455226502
471.8622,1128.500357144645
474.0271,1183.0788056508263
476.1914,1195.337913448384
478.3551,1178.724891113714
480.5182,1234.0869372698508
482.6807,1291.421238752584
484.8426,1482.1249700568333
487.0039,1788.7952927633141
489.1647,2154.9293536315017
491.3248,2465.6242815329224
493.4843,2555.5771837898137
495.6432,2539.135143068177
497.8015,2350.99521647825
499.9592,2249.554435738919
502.1163,2059.2598090591255
504.2728,1734.158322152267
506.4287,1464.5969401391576
508.5839,1112.5226107990202
510.7386,928.1822672651215
512.8927,828.5728315455035
515.0461,768.941216366391
517.199,849.4343261682789
519.3512,1033.4490577022534
521.5029,1316.1322992250643
523.6539,1540.6309286589694
525.8043,1657.5918107649122
527.9541,1603.0117948975276
530.1033,1391.8877138355292
532.2519,1208.7663843275277
534.3999,1164.9446092032686
536.5472,1190.219179204836
538.694,1398.0868734248725
540.8401,1660.2444590538234
542.9856,1867.1886893012834
545.1305,1860.266300774405
547.2748,1812.9240114084623
549.4185,1626.9585205360672
551.5615,1524.1665093605989
553.704,1517.4446428158535
555.8458,1542.3395705939656
557.987,1731.1479272126235
560.1276,1965.7663317661318
562.2675,2411.0413860373174
564.4069,2922.1696721513526
566.5456,3377.5477481229955
568.6837,3543.4721427453205
570.8212,3140.639351035925
572.958,2451.4958325776915
575.0942,1793.4380155471154
577.2299,1338.612303605747
579.3648,1167.7650824807533
581.4992,1074.9927245131748
583.6329,1171.4415903664176
585.766,1327.6580299539637
587.8985,1492.088381474874
590.0304,1545.7789698516335
592.1616,1481.0761050858528
594.2922,1380.5760817213413
596.4222,1191.475179491168
598.5515,1019.7196643226325
600.6802,834.6057902282919
602.8083,682.9798010235099
604.9358,653.7879321775981
607.0626,655.576412330076
609.1888,790.5414635825873
611.3144,930.9293014810173
613.4393,1092.836133665849
615.5636,1217.7081584682746
617.6873,1223.591563291142
619.8103,1190.1825233602158
621.9327,972.4772016653496
624.0544,787.7717492945812
626.1756,584.4623076111784
628.2961,417.5950101006965
630.4159,376.6659844040787
632.5351,329.32135398631726
634.6537,325.9572385457486
636.7716,350.1697544874987
638.8889,367.30501495712633
641.0056,406.25912959848574
643.1216,396.42820438239323
645.237,353.5583412170745
647.3518,269.64563804648606
649.4659,222.13618927899734
651.5793,165.17608662654675
653.6922,130.41141957971013
655.8043,112.18827597730706
657.9159,125.40274235404468
660.0268,134.25090412275495
662.137,138.2288454422487
664.2466,159.38264912883278
666.3556,136.1583966165399
668.4639,87.2521677455752
670.5716,79.61004099456659
672.6786,51.92809396962184
674.785,-9.69759651925051
676.8907,-4.370954181316847
678.9958,8.304194153142817
681.1002,-46.97593468032392
683.204,-45.21512392920158
685.3072,-57.71668755139581
687.4097,-80.83348780571578
689.5115,-48.76781036127795
691.6127,-34.72113336065195
693.7132,-64.14444775600168
695.8131,-4.338397635367073
697.9123,-22.15298628376513
700.0109,18.161826354389632
702.1089,83.30630164299691
704.2061,155.13070076434997
706.3028,229.03528406768055
708.3987,268.9703103509237
710.4941,299.28603612166444
712.5887,348.2827151977963
714.6827,442.11059840435337
716.7761,584.1699330835527
718.8688,741.7109621565032
720.9608,884.0839227026154
723.0522,1037.2890443842043
725.1429,1118.576548022751
727.233,1187.1466440668573
729.3224,1295.5495317793484
731.4112,1230.5353985516067
733.4993,1074.3044188195108
735.5867,875.9067547135965
737.6735,653.7925576213638
739.7596,476.2119701712327
741.845,340.9151284537147
743.9298,240.05216379719604
746.014,240.3732041209223
748.0974,227.92837494361447
750.1802,212.96779938026702
752.2624,248.84159826659743
754.3439,310.7498903086507
756.4247,416.1927917240646
758.5048,627.0704156229749
760.5843,932.932870953613
762.6631,1326.8802603934928
764.7413,1937.06267729082
766.8188,2633.9302017249993
768.8956,3252.0328944048124
770.9718,3650.470789699748
773.0473,3598.1438894589683
775.1221,3366.0021590269334
777.1962,3127.495527766674
779.2697,3025.6738913812023
781.3426,3074.637114298579
783.4147,3178.2350306901335
785.4862,3282.267443980825
787.557,3093.1841258132663
789.6271,2643.5348150074024
791.6966,2022.21921945135
793.7654,1397.937020597874
795.8335,1006.5378796775603
797.901,693.8714439416308
799.9678,537.1373505759257
802.0339,439.9852298275764
804.0993,435.16470657235004
806.1641,362.6254012861573
808.2282,292.46693009327464
810.2916,246.78890549172866
812.3544,168.34093705487612
814.4164,135.8226318881916
816.4778,172.9335954137514
818.5385,234.2734316954029
820.5986,380.89174306765744
822.658,637.4881295223004
824.7166,1007.662187242202
826.7747,1531.8135060353543
828.832,2066.791665633129
830.8886,2483.046230448761
832.9446,2699.126744227584
834.9999,2593.8827258844685
837.0545,2267.7136673430177
839.1085,1891.569034588034
841.1618,1615.448270927176
843.2143,1341.3508007524324
845.2662,1133.276032301308
847.3175,1001.7733603978086
849.368,890.2421685331665
851.4179,818.5818301809013
853.467,732.1917099121001
855.5155,702.6711641120419
857.5633,614.9195418440813
859.6105,559.6361851448728
861.6569,489.57042990187256
863.7027,392.3216064061835
865.7478,369.78904005320874
867.7922,346.22205231513726
869.8359,304.01996096628136
871.8789,375.232080318734
873.9212,448.8077216443962
875.9629,540.4461924628613
878.0039,656.6967958056339
880.0441,756.4088292997694
882.0837,824.9315840053587
884.1226,901.0143434184101
886.1609,972.1563827856098
888.1984,1078.556968343517
890.2352,1222.2153566071247
892.2714,1281.1307933058633
894.3069,1234.102511947016
896.3416,1064.7797332265618
898.3757,906.9116654994596
900.4091,831.1975064728795
902.4418,838.7864447848697
904.4739,862.8276607615098
906.5052,941.5703263410269
908.5358,908.0136048333661
910.5658,808.256650132791
912.595,614.4486070534149
914.6236,394.43861232679956
916.6515,279.72579654000947
918.6786,194.5092863357404
920.7051,186.6882055594251
922.7309,221.8116761114161
924.756,286.87881802519405
926.7804,347.33874911612656
928.8041,347.9405843307977
930.8272,449.9334351424004
932.8495,420.2664095447399
934.8711,420.78861103228337
936.892,389.7991388968385
938.9123,405.29708822233624
940.9318,432.98155019471415
942.9506,438.05161194694483
944.9688,401.35635628218915
946.9862,348.69486162309295
949.003,195.61620237874376
951.019,98.86944947128904
953.0344,53.453671866711375
955.0491,25.917937542313666
957.063,77.86131394085896
959.0763,146.0828682459305
961.0888,202.23166686250624
963.1007,265.0067747347384
965.1119,314.55725478446584
967.1223,326.58216728346633
969.1321,318.3805693579434
971.1412,317.0515148682862
973.1495,294.64405449107835
975.1572,309.5072357323952
977.1641,343.9901031518748
979.1704,319.4916982140876
981.1759,300.5610589437056
983.1808,313.3972201704819
985.1849,354.799213718572
987.1884,410.4160682781512
989.1911,502.94680899141895
991.1932,603.3904568964062
993.1945,635.7960280016887
995.1951,597.5625322819342
997.1951,589.0889733538515
999.1943,550.9743488585264
1001.1928,567.3676505461663
1003.1906,618.717864657232
1005.1877,760.623971758514
1007.1841,860.534946229629
1009.1798,891.399754843962
1011.1748,851.0173557695562
1013.1691,705.5366982604537
1015.1627,528.0067230605346
1017.1556,318.17636385831247
1019.1477,188.994549062234
1021.1392,82.4102038989895
1023.1299,58.72225170532329
1025.12,91.02961499388766
1027.1093,176.58121569011928
1029.0979,285.2259748091601
1031.0859,366.3628116003456
1033.0731,437.7406424607543
1035.0596,377.60838012384374
1037.0454,307.7649329456617
1039.0304,178.5092055061814
1041.0148,100.39009930773136
1042.9985,-0.19348593244831136
1044.9814,-32.092651501019645
1046.9636,-78.70849675171849
1048.9452,-72.54180043269844
1050.926,-31.642554994228703
1052.9061,-10.96002819399655
1054.8855,40.706828319431224
1056.8642,89.50917238815782
1058.8421,139.748161447229
1060.8194,159.6249520365982
1062.7959,236.34069929874022
1064.7717,303.39655677987867
1066.7469,398.04367566283327
1068.7213,464.4332040964582
1070.695,588.5162862491743
1072.6679,643.8440616450716
1074.6402,638.4676639230856
1076.6117,617.2382202837198
1078.5826,523.1068515427942
1080.5527,390.6246723437562
1082.5221,284.64279209897904
1084.4908,270.4623163146007
1086.4587,279.134347650328
1088.426,338.0599860612583
1090.3925,343.2903287111458
1092.3584,394.776469383145
1094.3235,418.8694984275153
1096.2879,508.0205022467544
1098.2515,648.430563054666
1100.2145,833.80075798486
1102.1767,1006.3821576866303
1104.1382,1250.0758244712779
1106.099,1514.482810586287
1108.0591,1773.7541557783788
1110.0185,1937.3408846494513
1111.9771,1991.8440040638561
1113.9351,1935.5145015125436
1115.8923,1798.503344568031
1117.8488,1689.2114814476927
1119.8045,1506.4898423838767
1121.7596,1391.3893407168107
1123.7139,1268.76087472184
1125.6675,1205.1553287604092
1127.6204,1235.0235745063655
1129.5726,1196.8164715819985
1131.524,1109.9348672593796
1133.4748,993.4795968424096
1135.4248,780.8014845356511
1137.3741,635.85134460887
1139.3226,519.8799835238315
1141.2705,467.6882013837867
1143.2176,401.2267930931903
1145.164,380.7965488796199
1147.1097,309.94825495838995
1149.0546,227.4326937368469
1150.9989,123.90064452286697
1152.9424,43.552884350003296
1154.8852,-35.65981098719749
1156.8272,-66.48666612971647
1158.7686,-57.47654947702449
1160.7092,-14.377665226803401
1162.6491,21.712356613995325
1164.5883,123.09602967129194
1166.5267,256.8258673538912
1168.4644,433.05438183963906
1170.4014,638.3840827381246
1172.3377,902.7174753284016
1174.2732,1239.4570585056854
1176.2081,1668.305322138017
1178.1421,2162.2647436988773
1180.0755,2728.537783978685
1182.0082,3141.376882145224
1183.9401,3314.434450080894
1185.8713,3156.2128682543444
1187.8017,2838.6144839898725
1189.7315,2453.591613049658
1191.6605,2048.2465428097385
1193.5888,1737.081536110245
1195.5163,1581.748835308841
1197.4432,1481.6506653923734
1199.3693,1462.8892355302105
1201.2947,1386.5667400752209
1203.2193,1369.6853587513806
1205.1432,1381.7472574170088
1207.0664,1347.4045882335786
1208.9889,1338.6594895451017
1210.9106,1323.4640862215465
1212.8316,1353.6704897462896
1214.7519,1373.1307983680726
1216.6715,1424.7970967989368
1218.5903,1507.2714560196137
1220.5084,1598.1059327628718
1222.4257,1713.602568688766
1224.3424,1769.163389476289
1226.2583,1894.7404036684147
1228.1735,2057.8856021164875
1230.0879,2225.2009567244477
1232.0016,2435.5884188173904
1233.9146,2568.099917468403
1235.8269,2632.9873573946934
1237.7384,2637.452617632477
1239.6492,2505.0975508880956
1241.5592,2484.173983493374
1243.4686,2564.633716729162
1245.3772,2792.878527034578
1247.285,3023.4101652024
1249.1922,3242.730354096625
1251.0986,3441.3907863471613
1253.0042,3524.1431221566127
1254.9092,3659.4889873136735
1256.8134,3762.879972365621
1258.7169,3938.517631264838
1260.6196,4087.3034803349146
1262.5216,4320.588996514269
1264.4229,4533.825615868296
1266.3234,4744.614731256512
1268.2232,4894.457690200172
1270.1223,5017.205792774394
1272.0207,5048.26029010972
1273.9183,5025.422383164644
1275.8151,4975.593222415061
1277.7113,4978.673908082649
1279.6067,5079.615490633155
1281.5014,5370.018970745588
1283.3953,5811.235298302816
1285.2885,6376.215369487511
1287.181,6989.11002237
1289.0727,7544.170031258454
1290.9637,7877.396100569956
1292.854,8122.538859279884
1294.7435,8133.79885758966
1296.6323,8016.326564475324
1298.5204,7856.072367574929
1300.4077,7580.586574363264
1302.2943,7306.119413754395
1304.1802,6971.621038856526
1306.0653,6512.091529716672
1307.9497,6009.18089666564
1309.8333,5544.039084913334
1311.7162,5184.115979577845
1313.5984,4985.811410336881
1315.4798,4840.225155026995
1317.3605,4754.356941626631
1319.2405,4623.506449711989
1321.1197,4403.023311315703
1322.9982,4073.8071122353476
1324.876,3788.0073942382696
1326.753,3483.37365835375
1328.6293,3245.0053677310007
1330.5048,3060.1519506855
1332.3796,2911.362803082673
1334.2537,2826.4372901864335
1336.127,2748.574748147068
1337.9996,2715.8744848505003
1339.8714,2709.3857806969045
1341.7426,2688.457888927718
1343.6129,2749.040035690523
1345.4826,2778.7314202483303
1347.3515,2795.9812143737527
1349.2196,2805.78856205209
1351.087,2856.702579308834
1352.9537,2889.172354111599
1354.8197,2989.796945860975
1356.6849,3167.7753850658373
1358.5493,3400.6066723370914
1360.4131,3596.1897766078982
1362.276,3743.9236328053503
1364.1383,3799.0571398946486
1365.9998,3616.4891594017645
1367.8606,3337.0685148621005
1369.7206,2991.1939936461677
1371.5799,2689.9143497537943
1373.4384,2412.32830727287
1375.2962,2147.4845633921486
1377.1533,1843.531791177098
1379.0096,1505.7686422183451
1380.8652,1183.9437496712026
1382.7201,918.2057316332966
1384.5742,654.1031943628204
1386.4275,494.234734935917
1388.2802,353.1989438876999
1390.132,262.14440681093856
1391.9832,210.26970576642088
1393.8336,146.17342019349599
1395.6832,99.70412742881945
1397.5322,100.41040334731042
1399.3803,102.04082282685249
1401.2278,47.54395974122599
1403.0745,44.96838694381404
1404.9204,56.912676812559766
1406.7656,96.42540127572556
1408.6101,107.25513169245005
1410.4538,156.05043845762248
1412.2968,241.20989089358318
1414.139,294.9820567621764
1415.9805,397.3155014131544
1417.8213,491.8087872464521
1419.6613,598.3604726888525
1421.5006,749.7191112490509
1423.3391,959.4832504521446
1425.1769,1259.1514303260437
1427.0139,1701.3221813038253
1428.8502,2214.194021227053
1430.6858,2794.915450924068
1432.5206,3192.984949081274
1434.3547,3419.9509664359257
1436.188,3477.1119217954274
1438.0206,3399.6161997676763
1439.8524,3271.3621501894468
1441.6835,3156.398088901362
1443.5139,3086.4722990304226
1445.3435,3029.883032139651
1447.1724,3008.3785089273533
1449.0005,2990.606919793
1450.8279,2987.9664250522874
1452.6545,2980.805155114843
1454.4804,3006.1212105106324
1456.3056,3056.3126619615705
1458.13,2985.577550128365
1459.9536,2836.913885108602
1461.7766,2608.5696471440915
1463.5987,2330.192788107506
1465.4202,2029.081233785827
1467.2409,1711.8328866641068
1469.0608,1460.1456289365933
1470.88,1200.9173256792055
1472.6984,1011.9958273664124
1474.5161,819.2289724635084
1476.3331,677.3145893158344
1478.1493,580.7504980764415
1479.9648,502.88451212523614
1481.7795,456.4644390346275
1483.5935,429.888081348181
1485.4067,386.30323704481725
1487.2192,381.95769980458226
1489.031,363.2992594444904
1490.842,332.8257019619805
1492.6522,311.6348097215041
1494.4618,290.5743617592607
1496.2705,299.6421339951048
1498.0785,271.98589944315245
1499.8858,252.6534281211034
1501.6924,229.34248732680499
1503.4981,204.75084183157378
1505.3032,179.2762541132979
1507.1075,132.5664846023583
1508.911,124.46929193637789
1510.7138,114.28243342731639
1512.5159,70.60366514244106
1514.3172,66.58074200619558
1516.1178,21.46141823698963
1517.9176,21.993447387429114
1519.7166,3.7245827955057393
1521.515,-14.497422420722614
1523.3126,-32.2748151804426
1525.1094,-38.30969757359435
1526.9055,-21.753849264716337
1528.7008,-27.50866720446993
1530.4954,-30.12533102256384
1532.2893,-31.104745537125382
1534.0824,-59.147514614226566
1535.8747,-40.00393138353502
1537.6663,-43.02369809104766
1539.4572,-6.556117343486221
1541.2473,10.199938059163287
1543.0367,63.54566081252142
1544.8253,84.88224351021563
1546.6132,123.96087811041343
1548.4003,150.0327557224664
1550.1867,230.4990662161099
1551.9723,324.9109979607583
1553.7572,457.96973702083415
1555.5414,571.6764662116539
1557.3247,748.1823637688376
1559.1074,938.388602211241
1560.8893,1116.8963465758925
1562.6705,1310.6067525159378
1564.4509,1475.2709645155583
1566.2305,1555.3401139528733
1568.0094,1629.4653174532932
1569.7876,1614.0976760888288
1571.565,1637.0882746368397
1573.3417,1619.9881817337082
1575.1176,1644.1984496449368
1576.8928,1651.8701144361494
1578.6672,1675.7041957309866
1580.4409,1749.9516966343917
1582.2138,1794.0636034942663
1583.986,1867.6408851589968
1585.7575,1983.684492536342
1587.5282,2116.1453578576466
1589.2981,2235.174393517421
1591.0673,2325.0724907487192
1592.8358,2514.390518432854
1594.6035,2640.579322200412
1596.3704,2750.6897225380753
1598.1366,2865.2725135267356
1599.9021,2972.678461740393
1601.6668,3093.3083051003186
1603.4308,3257.262751801004
1605.194,3444.3924791038617
1606.9564,3651.3481316976813
1608.7182,3969.6303198273317
1610.4791,4296.139617224201
1612.2394,4665.326557923381
1613.9988,4963.941632998563
1615.7576,5287.285286870186
1617.5156,5505.507914319267
1619.2728,5616.209857253978
1621.0293,5527.441402527414
1622.785,5305.35278083057
1624.54,4945.544167580033
1626.2942,4582.5156851388665
1628.0477,4104.317406414689
1629.8005,3739.199358489969
1631.5525,3409.1615274039987
1633.3037,3129.7038618040815
1635.0542,2897.276276245907
1636.804,2713.2786539881236
1638.553,2572.4608493166206
1640.3013,2542.272689384503
1642.0488,2498.8639756202683
1643.7955,2523.984484029691
1645.5416,2585.18396562991
1647.2868,2714.1621461982204
1649.0313,2809.018725660082
1650.7751,2967.603376799335
1652.5181,3152.315744309635
1654.2604,3318.1054432086075
1656.0019,3560.622056990721
1657.7427,3825.265135969391
1659.4828,4104.834194851818
1661.222,4270.278710092554
1662.9606,4269.548117097811
1664.6984,4052.541808571016
1666.4354,3652.0591345201187
1668.1717,3121.3994044276483
1669.9072,2565.261891255546
1671.642,2100.845836751766
1673.3761,1728.350457011641
1675.1094,1417.4749471220512
1676.8419,1185.11848488637
1678.5737,978.7802339332275
1680.3048,853.3093460400714
1682.0351,719.6549631965499
1683.7646,632.2162188592192
1685.4934,560.3422392880875
1687.2215,490.68214442100316
1688.9488,429.58504859239747
1690.6754,388.25006122987816
1692.4012,348.97628746520786
1694.1263,322.61282854764795
1695.8506,287.8087822366988
1697.5742,244.66324306573597
1699.297,235.47530269004892
1701.0191,201.5940503182951
1702.7404,181.81857280437953
1704.461,149.34795498627045
1706.1808,129.18127988375
1707.8999,130.71762902312275
1709.6182,103.25608263888398
1711.3358,101.69571965835166
1713.0527,102.535617976288
1714.7688,72.57485447049885
1716.4841,46.21250499343705
1718.1987,67.24764467181012
1719.9126,65.87934817020187
1721.6257,59.556689480720706
1723.338,49.07874193668249
1725.0496,51.89457827583692
1726.7605,61.55327074514844
1728.4706,67.10389107263563
1730.18,60.39551037078718
1731.8886,76.97719908105319
1733.5964,53.39802704093063
1735.3036,46.7570633181449
1737.0099,41.003376446444236
1738.7156,39.63603449200491
1740.4204,24.10410511097507
1742.1246,21.60665556313961
1743.8279,3.942752867244053
1745.5306,1.3114638259694402
1747.2325,-3.6381447974326875
1748.9336,-16.85700625282425
1750.634,-18.196017445000507
1752.3336,-26.455906877266898
1754.0325,-14.937221274718468
1755.7307,-22.640243067940446
1757.4281,8.934894535322655
1759.1247,2.7382845033516787
1760.8206,-2.6799802849200205
1762.5158,14.430193022061303
1764.2102,-4.481075951149251
1765.9039,-6.0136677242976475
1767.5968,-9.017418051178993
1769.289,-8.742102609050107
1770.9804,4.862593008834665
1772.6711,19.697070542827078
1774.361,23.51173168464993
1776.0502,23.156977929057575
1777.7386,19.633210535685066
1779.4263,8.49083053259892
1781.1132,33.28023875153758
1782.7994,43.25183593933116
1784.4849,37.10602251001137
1786.1696,37.29319844509155
1787.8535,49.46376335502555
1789.5367,47.0681164773373
1791.2192,50.90665655491421
1792.9009,44.67978185996526
1794.5818,46.287890155633704
1796.2621,39.23137875826569
1797.9415,44.56064452133069
1799.6202,56.8260839059858
1801.2982,51.42809292778156
1802.9755,58.01706703401078
1804.6519,67.293401157684
1806.3277,63.907489651639025
1808.0027,68.90972619578224
1809.6769,61.000503830945036
1811.3504,74.98021490886595
1813.0231,77.94925117127832
1814.6951,81.20800361011516
1816.3664,96.7568624378182
1818.0369,119.6462170547502
1819.7067,98.92645589370659
1821.3757,100.19796619102044
1823.044,99.26113419375997
1824.7115,98.01634514701618
1826.3783,84.21398330327338
1828.0443,96.65443193485225
1829.7096,96.03807347193515
1831.3741,117.71528937816265
1833.0379,105.8364601567946
1834.701,110.8519651339393
1836.3633,124.36218257734117
1838.0248,126.2674896462272
1839.6856,136.16826225620161
1841.3457,113.1148750601983
1843.005,124.25770134946742
1844.6636,147.19711328411404
1846.3214,155.7334817816677
1847.9785,151.8671762876861
1849.6349,150.59856469039596
1851.2904,154.62801335935274
1852.9453,167.70588715812983
1854.5994,148.78254940402167
1856.2528,184.3583617372651
1857.9054,166.38368431027493
1859.5572,181.0588754318842
1861.2083,177.93429174708945
1862.8587,180.36028809029995
1864.5084,165.03721751658168
1866.1572,188.8154312773986
1867.8054,175.0452789738447
1869.4528,178.27710831885997
1871.0994,176.81126527493416
1872.7453,190.5980940217878
1874.3905,191.78793697103083
1876.0349,182.5811346282917
1877.6786,189.62802558132216
1879.3215,193.0289465920623
1880.9637,194.23423252617476
1882.6051,202.29421631903324
1884.2458,214.209228963668
1885.8858,192.2295994301685
1887.525,199.00565454653406
1889.1634,186.38771921846956
1890.8011,211.9761163616222
1892.4381,197.5711670277633
1894.0743,190.77319014890236
1895.7098,210.43250268133988
1897.3446,193.94941967364457
1898.9786,196.82425407006394
1900.6118,205.15731687535254
1902.2443,202.14891712602275
1903.8761,220.39936180701352
1905.5071,194.15895588177682
1907.1374,202.52800210977148
1908.7669,192.40680130886722
1910.3957,187.84565227165558
1912.0237,175.64485186665934
1913.651,184.8546950839459
1915.2776,196.02547515713422
1916.9034,194.90748347129784
1918.5285,189.6510094512555
1920.1528,192.30634057275392
1921.7764,189.2737624150277
1923.3992,189.2035586342513
1925.0213,170.49601099386155
1926.6427,184.25139936526148
1928.2633,172.72000191489678
1929.8832,182.65209496669922
1931.5023,190.49795311740127
1933.1207,188.15784913721654
1934.7383,182.08205389137993
1936.3552,157.6208363635492
1937.9714,175.42446371656297
1939.5868,183.84320153705175
1941.2015,163.327313657403
1942.8154,176.22706207157307
1944.4286,164.34270714024842
1946.041,154.3745074618446
1947.6528,178.1727199913521
1949.2637,159.73760014001982
1950.8739,145.91940153736732
1952.4834,166.56837621554223
1954.0921,161.5847747474977
1955.7001,164.36884604050465
1957.3074,159.32083738598612
1958.9139,161.39099443167697
1960.5197,166.62956123210597
1962.1247,158.23678022789363
1963.729,158.16289219336386
1965.3325,148.00813632047584
1966.9353,152.87275021956066
1968.5374,139.90697002087018
1970.1387,157.2610303259289
1971.7393,154.28516433719597
1973.3392,144.37960368451922
1974.9383,147.9945784548945
1976.5366,145.28031729152553
1978.1342,133.63704735766896
1979.7311,136.01499436378208
1981.3273,138.01438268395123
1982.9227,132.83543533211378
1984.5173,131.1283739420644
1986.1112,138.74341881924465
1987.7044,127.23078895781396
1989.2968,138.64070196449848
1990.8885,131.82337417371764
1992.4795,126.32902053348516
1994.0697,138.35785467357937
1995.6592,131.41008896049016
1997.2479,136.7359343771284
1998.8359,140.58560059230467
2000.4232,138.35929590747173
2002.0097,128.35722721822617
2003.5955,132.47960003657158
2005.1805,132.72661859093955
2006.7648,132.44848578496635
2008.3484,124.54540319502553
2009.9312,139.56757107300518
2011.5133,129.8651884253411
2013.0946,124.23845286279538
2014.6752,119.63756069747706
2016.2551,140.4627069991136
2017.8342,130.41408564105905
2019.4126,136.4918890920385
2020.9902,126.74630851663937
2022.5672,133.6275337145314
2024.1433,129.13575321792314
2025.7188,137.42115422274992
2027.2935,131.28392263358978
2028.8674,126.6742429808096
2030.4406,129.14229848193895
2032.0131,116.7382710877655
2033.5849,121.16234145765543
2035.1559,119.56468908359443
2036.7261,115.29549224594552
2038.2957,123.95492802942545
2039.8645,130.19317236579695
2041.4325,131.3603999472748
2042.9998,115.90678416414403
2044.5664,121.5824970930862
2046.1323,131.7877096517168
2047.6974,131.07259154182657
2049.2617,125.38731114732991
2050.8254,118.43203554141587
2052.3883,137.95693054340109
2053.9504,136.51216078828202
2055.5118,125.09788953148836
2057.0725,126.46427866332851
2058.6325,120.3114888231321
2060.1917,123.08967938558635
2061.7502,118.4990085222646
2063.3079,131.6396331738449
2064.8649,120.81170909601542
2066.4212,128.1153907280691
2067.9767,126.0508313011826
2069.5315,125.21818276537806
2071.0856,123.86759581017168
2072.6389,121.59921987289795
2074.1915,105.61320315221656
2075.7433,105.55969263079442
2077.2945,110.93883423516831
2078.8448,100.80077283627861
2080.3945,104.6956521956779
2081.9434,107.22361506691209
2083.4916,111.78480315657089
2085.039,106.0793570990088
2086.5857,115.65741641073146
2088.1317,95.46911954745156
2089.677,100.21460380831013
2091.2215,108.84400553775686
2092.7652,98.80746007809671
2094.3083,99.40510168319452
2095.8506,110.23706361884138
2097.3921,99.40347815677774
2098.933,94.6544764663729
2100.4731,117.09018872296247
2102.0124,98.41074415533762
2103.5511,108.46627082138957
2105.089,103.10689579490258
2106.6261,106.53274506499861
2108.1626,96.34394358973145
2109.6983,100.24061526182868
2111.2332,109.67288301057988
2112.7675,107.09086876286847
2114.301,120.79469334885152
2115.8337,107.83447652777681
2117.3657,118.21033685094699
2118.897,103.57239179131761
2120.4276,110.52075763974335
2121.9575,100.00554965135643
2123.4866,113.72688197608068
2125.0149,108.63486776378568
2126.5426,106.12961902707275
2128.0695,111.16124669219539
2129.5956,104.77986062411219
2131.1211,104.38556957616947
2132.6458,102.67848125391515
2134.1698,109.35870231904346
2135.693,101.07633840646304
2137.2155,108.83149405749532
2138.7373,113.17427280270044
2140.2584,113.60477708432336
2141.7787,96.17310821286696
2143.2983,81.72936636278655
2144.8171,83.9236507468072
2146.3353,95.3560597603605
2147.8527,97.92669095964175
2149.3693,93.83564094728581
2150.8853,99.23300534666146
2152.4005,99.86887884278212
2153.9149,90.64335512833122
2155.4287,102.40652689730359
2156.9417,85.45848593726282
2158.454,83.84932301170647
2159.9655,90.07912802954934
2161.4764,101.34799006121375
2162.9865,101.6059972763303
2164.4958,95.10323683105094
2166.0045,99.83979486546764
2167.5124,96.01575656864111
2169.0195,88.23120613123456
2170.526,102.336226783754
2172.0317,96.03090087439432
2173.5367,95.8653097279896
2175.0409,94.28953370906584
2176.5445,87.05365222349656
2178.0473,92.60774373426125
2179.5494,84.05188583380186
2181.0507,93.28615518848414
2182.5513,95.86062762415577
2184.0512,86.22537803380374
2185.5504,95.68048035181073
2187.0488,78.27600765030616
2188.5465,90.11203204461708
2190.0435,83.93862486731155
2191.5397,94.95585654983711
2193.0353,84.36379668425593
2194.5301,78.5125139130721
2196.0241,89.90207603515319
2197.5175,83.08255006424156
2199.0101,83.2540021150603
2200.502,71.86649747150682
2201.9931,74.77010058494011
2203.4835,83.81487518805352
2204.9733,79.40088426584111
2206.4622,72.12818996514875
2207.9505,71.84685363881522
2209.438,75.25693591839763
2210.9248,70.55849671698616
2212.4109,70.55159519510153
2213.8962,68.2362898076808
2215.3809,75.76263830414473
2216.8648,64.180697751553
2218.3479,62.09052445933821
2219.8304,63.39217409512548
2221.3121,50.83570170563621
2222.7931,58.421161703670805
2224.2733,63.29860799367316
2225.7529,54.518093895876746
2227.2317,64.07967209752996
2228.7098,56.433394740700805
2230.1872,63.92931332666171
2231.6638,68.41747879235027
2233.1397,59.847941435412395
2234.6149,57.22075086931818
2236.0894,56.935956109060726
2237.5632,54.99360559742581
2239.0362,47.49374720783999
2240.5085,50.48642826379455
2241.9801,53.42169561384412
2243.4509,54.299595601678675
2244.921,51.820174036773096
2246.3904,41.18347618560665
2247.8591,51.23954679645726
2249.3271,40.08843020576978
2250.7943,34.88017023759312
2252.2608,40.26481031509388
2253.7266,48.39239351263677
2255.1917,35.112962501940046
2256.656,42.97655947079875
2258.1197,42.833226255878344
2259.5826,44.53300426407941
2261.0447,47.725934473970256
2262.5062,32.71205741878953
2263.9669,40.99141315451766
2265.4269,43.76404141001376
2266.8862,32.42998150422454
2268.3448,46.639272318454914
2269.8026,37.2419524097113
2271.2598,38.53805986860675
2272.7162,46.17763241333569
2274.1719,44.360707376712526
2275.6268,39.18732162977585
2277.0811,40.507511599958434
2278.5346,53.671313322821334
2279.9874,55.72876242885036
2281.4395,60.2298940118194
2282.8908,44.27474260821555
2284.3414,51.663342152227415
2285.7914,43.145726135297764
2287.2406,47.321927532235804
2288.689,61.54197888639487
2290.1368,44.505912267909025
2291.5838,50.063759131492816
2293.0302,46.56555048680434
2294.4758,46.211316842864335
2295.9206,43.80108824303716
2297.3648,51.63489426857541
2298.8082,51.412764062719816
2300.251,52.33472625236345
2301.693,48.000808950271676
2303.1343,58.86103974586376
2304.5748,53.015445748550974
2306.0147,50.164053479134054
2307.4538,46.306888928260605
2308.8922,46.39397758493851
2310.3299,40.125344475105976
2311.7669,50.50101416076268
2313.2031,43.571010802654655
2314.6387,46.78535805651745
2316.0735,39.744079142376904
2317.5076,46.4971968124064
2318.941,47.69473342133938
2320.3737,43.78671085893734
2321.8056,41.323150538016534
2323.2369,45.40407343352604
2324.6674,57.72950010718523
2326.0972,48.09945066667251
2327.5263,46.56394464237155
2328.9547,41.523001083672625
2330.3823,50.426638574328535
2331.8092,55.12487528286056
2333.2355,44.817728873525766
2334.661,53.45521645933263
2336.0858,41.537354705111056
2337.5098,39.26415974114002
2338.9332,43.08564728232477
2340.3558,47.351832650929055
2341.7778,37.86273073836037
2343.199,42.96835596250912
2344.6195,41.3687223626398
2346.0393,43.913843548333716
2347.4583,47.25373271548574
2348.8767,48.63840262085364
2350.2943,53.11786554865989
2351.7113,49.39213329674294
2353.1275,47.811217131761396
2354.543,50.17512782645281
2355.9578,56.38387567544146
2357.3718,50.28747047160118
2358.7852,48.2859214439693
2360.1978,50.17923731870883
2361.6098,60.56742633912461
2363.021,52.50049624673102
2364.4315,54.72845417736755
2365.8413,54.95130674186862
2367.2504,52.71906000378465
2368.6587,47.58171947715414
2370.0664,47.989290148826285
2371.4733,42.091776529834306
2372.8795,47.789182651318924
2374.285,47.63151212350306
2375.6899,52.81876807871754
2377.0939,45.1009531729793
2378.4973,46.82806953411705
2379.9,51.10011883894924
2381.3019,41.81710229601504
2382.7032,49.12902060285285
2384.1037,48.08587403882984
2385.5035,48.08766239202362
2386.9027,47.834384969653115
2388.3011,44.52604059806106
2389.6987,50.96262762524748
2391.0957,52.644143953953176
2392.492,48.17058697729135
2393.8876,36.391953561934656
2395.2824,36.15824009285029
2396.6765,40.51944259108677
2398.07,26.075556716109304
2399.4627,37.17657772218968
2400.8547,36.92250060284471
2402.246,46.01331997982663
2403.6366,33.199030105661905
2405.0265,32.679624772746024
2406.4156,39.655097441484486
2407.8041,43.27544124548763
2409.1918,34.19064892181393
2410.5789,33.100712774769136
2411.9652,31.105624766750907
2413.3508,43.555376529149385
2414.7358,30.749959382298584
2416.12,40.6393642109789
2417.5035,46.22358159247176
2418.8863,44.80260169766689
2420.2684,37.17641423521604
2421.6497,33.59500846574724
2423.0304,43.80837327812344
2424.4104,42.96649722525831
2425.7896,41.76936842198029
2427.1682,33.16697455345616
2428.546,36.5093028871612
2429.9232,34.94634035889999
2431.2996,43.278073539384195
2432.6753,39.85448864986165
2434.0503,43.17557147880086
2435.4246,42.14130741612587
2436.7982,38.20168142000591
2438.1711,44.256678027197154
2439.5433,41.70628139243945
2440.9148,38.450475227906395
2442.2856,31.939242828708643
2443.6557,37.22256710545264
2445.025,37.800430649352506
2446.3937,35.32281567939674
2447.7617,36.18970403657033
2449.1289,44.80107720863009
2450.4955,34.05691632143646
2451.8613,37.657202052839466
2453.2265,35.2019147401204
2454.5909,47.94103434398926
2455.9546,44.97454047313681
2457.3177,39.252412256844195
2458.68,22.774628374647705
2460.0416,29.441167113559914
2461.4025,49.3020065328476
2462.7627,41.5071243973664
2464.1222,42.55649797895285
2465.4811,46.35010413437203
2466.8392,42.33791929482459
2468.1966,49.06991942801096
2469.5533,49.59608007825295
2470.9093,47.866376299173794
2472.2645,46.53078264843657
2473.6191,49.989273205040945
2474.973,52.34182158267981
2476.3262,44.73840089515295
2477.6787,54.82898373284331
2479.0305,51.26354223874944
2480.3816,52.34204800758084
2481.7319,59.464472121412086
2483.0816,55.68078513889702
2484.4306,52.090957024045565
2485.7789,55.49495718406047
2487.1264,55.69275450523514
2488.4733,52.13431731891376
2489.8195,50.06961339951374
2491.165,49.548610000109534
2492.5097,56.97127387307978
2493.8538,44.23757127531724
2495.1972,46.04746789400235
2496.5398,44.05092897394002
2497.8818,42.89791929946114
2499.2231,60.288403214387586
2500.5637,48.22234463356233
2501.9035,46.34970686894542
2503.2427,46.720452750273125
2504.5812,50.43454464378567
2505.919,52.84194444851835
2507.256,51.542613559161964
2508.5924,48.636512841988406
2509.9281,55.17360264784338
2511.2631,53.103842841208234
2512.5974,55.77719273482853
2513.9309,48.19361111041144
2515.2638,49.65305619189303
2516.596,52.055485721273385
2517.9275,55.000856944022644
2519.2583,51.28912658505658
2520.5884,55.270250819282296
2521.9178,48.39418530871626
2523.2465,49.91088516267291
2524.5745,55.3703050065252
2525.9018,46.52239896653805
2527.2284,66.61712061527328
2528.5543,62.154423060069234
2529.8796,59.03425874209324
2531.2041,58.2065794809688
2532.5279,55.67133650597691
2533.851,68.92848046433289
2535.1735,59.42796144653903
2536.4952,57.569728853812876
2537.8163,62.10373149309282
2539.1366,46.92991759561994
2540.4562,63.19823477159855
2541.7752,68.05863016193325
2543.0935,70.11105027554754
2544.411,70.05544094077845
2545.7279,64.84174728485289
2547.0441,75.6699137344441
2548.3596,78.0398840678073
2549.6744,77.45160130649947
2550.9885,73.50500769167866
2552.3019,70.45004468998786
2553.6146,77.58665303302018
2554.9266,62.5647727478688
2556.2379,72.83434308576022
2557.5485,65.64530267227326
2558.8585,70.04758940464444
2560.1677,76.4911405236569
2561.4762,80.6758925696189
2562.7841,77.80178131792786
2564.0913,73.3687417372222
2565.3977,71.82670801812287
2566.7035,81.32561361756439
2568.0086,81.91539127421436
2569.313,76.09597291348507
2570.6167,78.66728964163508
2571.9197,78.27927180396318
2573.222,78.98184895909628
2574.5236,81.62494988286858
2575.8246,86.25850256129638
2577.1248,81.4824341641471
2578.4244,87.94667099860328
2579.7232,84.35113855702355
2581.0214,81.99576145229946
2582.3189,101.18046345381129
2583.6157,93.85516751098157
2584.9118,96.86979556142887
2586.2072,94.92426860422063
2587.5019,99.56850666972662
2588.7959,99.4024288390741
2590.0893,97.42595319770555
2591.3819,101.88899683703903
2592.6739,116.84147587423377
2593.9652,107.43330540755937
2595.2557,106.26439936687052
2596.5456,107.03467060768958
2597.8348,105.34403092289494
2599.1234,105.74239103501804
2600.4112,112.02966061315101
2601.6983,115.85574826896209
2602.9848,120.82056149382288
2604.2705,117.12400662054881
2605.5556,112.61598877374911
2606.84,113.54641190679354
2608.1237,120.66517884689222
2609.4067,116.52219128579077
2610.689,106.01734970858342
2611.9707,108.65055343514314
2613.2516,110.57170072516942
2614.5319,107.98068875185606
2615.8115,97.52741358268088
2617.0903,110.41177020531472
2618.3685,112.88365263215496
2619.6461,102.09295377148146
2620.9229,111.03956540273748
2622.199,102.12337828443754
2623.4745,101.64428206470075
2624.7493,112.60216537041254
2626.0234,111.59691581201594
2627.2968,107.87841987393267
2628.5695,107.69656292461536
2629.8415,106.00122925373262
2631.1128,109.14230207398748
2632.3835,114.41966353807129
2633.6535,104.13319470725287
2634.9228,108.48277549860416
2636.1914,106.91828478786556
2637.4593,111.58960036594988
2638.7265,111.39659895458783
2639.9931,108.13915615961378
2641.259,106.56714647289743
2642.5242,98.08044330491668
2643.7887,101.42891900047846
2645.0525,98.96244492358517
2646.3156,105.58089142395022
2647.5781,92.88412786166305
2648.8398,97.82202254100469
2650.1009,92.04444283741509
2651.3613,99.05125514811391
2652.6211,101.39232494987652
2653.8801,100.26751672896614
2655.1385,100.22669395772311
2656.3961,102.71971910581271
2657.6531,102.79645364063344
2658.9094,104.30675800238691
2660.1651,105.15049160331046
2661.42,105.67751281257443
2662.6743,104.53767894784443
2663.9279,110.03084627001124
2665.1808,116.80686999458891
2666.433,122.41560423678328
2667.6846,119.35690194373188
2668.9354,114.2806148384164
2670.1856,126.5365934502496
2671.4351,125.62468716583828
2672.6839,125.44474410642397
2673.9321,123.49661113700148
2675.1795,137.23013386811857
2676.4263,135.54515667535787
2677.6724,135.34152256200025
2678.9179,148.06907317587593
2680.1626,140.52764881139984
2681.4067,134.61708828229712
2682.6501,130.28722899701626
2683.8928,137.83790701783522
2685.1348,133.4689571041601
2686.3761,136.78021263701828
2687.6168,114.47150566274792
2688.8568,120.0926668598849
2690.0961,115.44352576225094
2691.3348,119.37391070274117
2692.5727,115.38364885981582
2693.81,113.47256621819633
2695.0466,116.9904876087682
2696.2826,114.93723672769187
2697.5178,120.06263610122312
2698.7524,115.71650710624561
2699.9863,119.79866991901679
2701.2195,121.80894355862944
2702.452,122.89714584618957
2703.6839,130.21309338471423
2704.9151,135.45660154824918
2706.1456,129.62748440870973
2707.3755,141.72555468344484
2708.6046,151.65062379352884
2709.8331,149.80250174278063
2711.0609,156.13099701851314
2712.2881,163.43591661001494
2713.5145,177.81706594526491
2714.7403,182.6242488178828
2715.9654,189.35726724331812
2717.1899,200.765921410778
2718.4136,211.0500096158973
2719.6367,215.00932814665236
2720.8591,223.8436711805191
2722.0809,240.1528307448811
2723.3019,250.18659662868464
2724.5223,250.64475621934815
2725.7421,262.7770944024245
2726.9611,267.6833935570188
2728.1795,261.6634334344657
2729.3972,251.71699110926562
2730.6142,241.39384103928535
2731.8306,228.64375516522205
2733.0462,219.76650301383484
2734.2612,206.36185182544511
2735.4756,184.0795666427095
2736.6892,171.4194104446658
2737.9022,155.68114436955693
2739.1145,143.71452784143173
2740.3262,135.769318727528
2741.5372,131.44527345793836
2742.7475,114.79214710506221
2743.9571,108.85969342684626
2745.1661,91.147665033316
2746.3744,79.55581344590007
2747.582,71.38388927455082
2748.7889,69.13164233366285
2749.9952,67.44882172379215
2751.2008,65.2351758541783
2752.4057,47.19045245957267
2753.61,49.4643986223756
2754.8136,46.556760953082915
2756.0165,42.56728556754638
2757.2188,41.84571811605065
2758.4204,37.041803823207886
2759.6213,32.70528749517308
2760.8215,37.535913567683906
2762.0211,36.83342614942518
2763.22,26.69756897372224
2764.4182,31.728085405566674
2765.6158,27.974718542974756
2766.8127,16.48721116668179
2768.009,13.86530577767627
2769.2045,11.558744712074713
2770.3994,6.767270167341223
2771.5936,5.690624225352508
2772.7872,3.128548900312751
2773.9801,-5.969213850479889
2775.1723,-13.902922101013075
2776.3639,-8.522774292828387
2777.5548,-7.028829977275905
2778.745,-9.071063563191046
2779.9346,-8.149379241398037
2781.1235,-15.4635905827962
2782.3117,-10.963429745986275
2783.4992,-14.898474408299307
2784.6861,-15.268192722403683
2785.8723,-13.321904005208467
2787.0579,-13.658775044377762
2788.2428,-8.227839541754804
2789.427,1.972005251979681
2790.6106,2.041944282261966
2791.7935,3.933162474808114
2792.9757,12.896844734915476
2794.1573,2.484175928549803
2795.3382,20.246340792708224
2796.5184,17.78452403954691
2797.698,34.74991017875857
2798.8769,41.59368354219157
2800.0551,40.117028114194795
2801.2327,42.77112746318062
2802.4096,65.55716475639133
2803.5859,76.8263227333573
2804.7615,96.67978347803842
2805.9364,114.2187283061321
2807.1106,133.49433756653752
2808.2842,140.45779046596704
2809.4572,162.46026487618997
2810.6294,194.8529372643984
2811.801,224.78698247318187
2812.972,258.86357339660094
2814.1423,287.3838806808461
2815.3119,330.4490723834723
2816.4808,366.9603136881964
2817.6491,407.81876647424417
2818.8167,463.6255889512388
2819.9837,515.6319352506166
2821.15,575.088954867557
2822.3157,619.4477921409207
2823.4807,675.0595856586795
2824.645,735.4254678143263
2825.8086,781.64656425076
2826.9716,839.2239932566241
2828.134,891.3088653040965
2829.2957,924.4522824731159
2830.4567,958.9053379305324
2831.617,988.0191155986732
2832.7767,1007.1446898108129
2833.9358,992.8331250200349
2835.0941,990.1354756079755
2836.2519,975.9027860279407
2837.4089,948.0360908318818
2838.5653,934.2864148127229
2839.7211,916.3047732830273
2840.8761,913.8921722124948
2842.0306,921.3996084077767
2843.1843,932.7780695366038
2844.3374,967.2285340527103
2845.4899,989.3019710820505
2846.6417,1045.9993400782932
2847.7928,1103.621590602089
2848.9433,1165.8196617540939
2850.0931,1208.6444815987497
2851.2422,1270.9969665423007
2852.3907,1329.1780209045482
2853.5385,1383.038536295322
2854.6857,1424.3793910326744
2855.8323,1469.6514496042705
2856.9781,1516.5555622539828
2858.1233,1552.0925645291688
2859.2679,1595.6132768116317
2860.4118,1661.118503962248
2861.555,1696.0090348857623
2862.6976,1740.8856418757339
2863.8395,1763.1490802656335
2864.9808,1796.0500879800738
2866.1214,1812.539385312179
2867.2614,1848.0176745945716
2868.4007,1857.83564003448
2869.5393,1874.0939473589576
2870.6773,1896.2932437167003
2871.8146,1884.484157515466
2872.9513,1884.3172982000792
2874.0874,1873.343256370525
2875.2227,1876.0126037836135
2876.3574,1857.525893462724
2877.4915,1827.0336596711106
2878.6249,1795.1364180967664
2879.7577,1766.1846661573502
2880.8898,1740.9288833191563
2882.0212,1739.3695313866324
2883.152,1724.7070547549379
2884.2821,1709.9418804255376
2885.4116,1713.1244181528264
2886.5405,1716.3550605917803
2887.6686,1713.7841832661313
2888.7962,1734.5621445360614
2889.923,1722.1892856239115
2891.0493,1749.4159304064003
2892.1748,1746.6923855383552
2893.2997,1767.168940180444
2894.424,1781.7458660264094
2895.5476,1799.4734170983074
2896.6706,1814.3518296007346
2897.7929,1823.0813217435525
2898.9145,1846.7120935931066
2900.0355,1869.094326984929
2901.1559,1898.52818528743
2902.2756,1936.7638131780795
2903.3946,1952.2013363490637
2904.513,1995.9908611249325
2905.6308,2008.9824743082218
2906.7479,2054.0762427415593
2907.8643,2068.1222131777495
2908.9801,2074.6204118288324
2910.0953,2084.3708442256275
2911.2098,2087.823495152751
2912.3236,2067.328328551111
2913.4368,2070.0852874833804
2914.5494,2038.2942943389492
2915.6613,2026.3552508063556
2916.7725,1988.8680381911945
2917.8831,1967.4325175355102
2918.9931,1942.5485299926645
2920.1024,1897.4658970416954
2921.211,1875.3844207361572
2922.319,1883.6538841549436
2923.4264,1865.5240516231047
2924.5331,1854.4946686291523
2925.6391,1860.3654620063578
2926.7445,1860.2861400430459
2927.8493,1854.0563924238863
2928.9534,1855.0758902306884
2930.0569,1867.594286004698
2931.1597,1872.911213736401
2932.2619,1888.5762887403419
2933.3634,1881.1391076019534
2934.4643,1896.0492480209055
2935.5645,1870.5062688854764
2936.6641,1875.8597101234532
2937.763,1854.7090929575602
2938.8613,1812.0539198519255
2939.959,1766.7936747235858
2941.056,1723.8278233690396
2942.1523,1660.5558139168484
2943.248,1575.627077257295
2944.3431,1484.9910276751061
2945.4375,1409.847063698736
2946.5313,1321.2945690067304
2947.6244,1214.5329131791632
2948.7169,1124.1614525831642
2949.8087,1055.9795314405337
2950.8999,957.186482731458
2951.9904,890.4816288763277
2953.0803,815.8642827236697
2954.1696,778.1337482171939
2955.2582,718.6393211419679
2956.3462,682.2802895017223
2957.4335,632.1059341137952
2958.5202,616.7155289727216
2959.6062,579.1083417519769
2960.6916,563.0836339578824
2961.7764,546.640661305676
2962.8605,536.0286738797587
2963.9439,529.3969162981263
2965.0267,521.0446278184878
2966.1089,502.32104240458375
2967.1905,510.67538880970824
2968.2714,523.0568907639454
2969.3516,517.5647668906254
2970.4312,518.6982305825097
2971.5102,523.8064900567132
2972.5885,541.5387483433676
2973.6662,539.5442032345404
2974.7432,552.0720471069122
2975.8196,545.6714669417215
2976.8954,538.4416441994863
2977.9705,546.5817548840098
2979.045,533.4909696146792
2980.1188,514.6184535450643
2981.192,511.9133664938254
2982.2645,495.07486313343895
2983.3364,479.452093017248
2984.4077,457.39420074784675
2985.4783,422.5003261333091
2986.5483,413.71960440776695
2987.6177,380.90116658034935
2988.6864,348.54413952298995
2989.7545,331.1976462986106
2990.8219,299.9108064846919
2991.8887,267.88273634673806
2992.9548,241.8625491511454
2994.0204,212.89935548548317
2995.0852,187.54226351869522
2996.1495,161.24037929073245
2997.2131,142.54280696612273
2998.276,124.34864909699081
2999.3383,105.80700681003373
3000.4,90.36697998846194
3001.4611,83.4776674574162
3002.5215,63.88816713836752
3003.5812,51.64757611801036
3004.6404,40.35499084415767
3005.6989,34.85950724814643
3006.7567,24.51022085776401
3007.8139,12.606226852202838
3008.8705,12.8966201655536
3009.9264,3.6804956058446123
3010.9818,1.3069478521382507
3012.0364,-10.32492845330762
3013.0905,-1.0660386813044624
3014.1439,-0.817185056628773
3015.1966,-11.529159154330841
3016.2487,-12.85274438578233
3017.3002,-8.28860898605484
3018.3511,-13.387292791303764
3019.4013,-8.249252834480671
3020.4509,-8.474812409482297
3021.4998,-5.264212400169583
3022.5481,-7.517609027027959
3023.5958,-6.1851059210610515
3024.6428,0.5332683876413284
3025.6892,0.18754715819750345
3026.735,1.827763644393258
3027.7802,2.803951098139123
3028.8247,7.9661427530682545
3029.8685,11.614371814774813
3030.9118,13.248671409191559
3031.9544,17.91907454610771
3032.9963,20.175614102825875
3034.0376,27.668322777458002
3035.0783,30.697233066360127
3036.1184,35.1623771892057
3037.1578,41.913787058695846
3038.1966,51.951494235908285
3039.2348,46.02552986278283
3040.2723,52.23592456174464
3041.3092,57.88270849496382
3042.3455,63.76591130225137
3043.3811,62.885562044591325
3044.4161,64.69168914530883
3045.4505,61.78432039887366
3046.4842,69.81348295283891
3047.5173,66.77920333691435
3048.5498,64.83150738267506
3049.5816,69.3704202539044
3050.6128,62.49596646607063
3051.6434,68.20816984093818
3052.6734,68.80705357531167
3053.7027,67.6926401839143
3054.7314,69.66495149339869
3055.7594,70.67400865349157
3056.7868,65.91983211727018
3057.8136,67.30244163107199
3058.8398,73.52185628203625
3059.8653,65.87809448427834
3060.8902,76.02117391669469
3061.9145,75.1511115994013
3062.9381,75.26792379230227
3063.9612,69.77162600379086
3064.9835,67.91223298958118
3066.0053,72.6397588076714
3067.0264,72.05421683693731
3068.0469,68.05561972985737
3069.0668,69.3439794183679
3070.086,71.21930715384923
3071.1046,58.231613494242026
3072.1226,59.130908285294026
3073.1399,54.41720079043682
3074.1567,56.24049968179321
3075.1727,51.7508130873141
3076.1882,49.14814857254555
3077.203,50.63251318552577
3078.2173,35.103913482811606
3079.2308,42.86235551463497
3080.2438,30.80784498018855
3081.2561,30.490387150041755
3082.2678,23.659986986685738
3083.2789,20.316649147707864
3084.2893,15.410378054095702
3085.2991,17.091177923670415
3086.3083,14.959052820149566
3087.3169,18.56400663633903
3088.3248,12.506043115454275
3089.3321,11.335165815070837
3090.3388,11.701378167703922
3091.3449,7.7546834925171595
3092.3503,4.445084991660508
3093.3551,8.122585789737144
3094.3593,2.0871889668996744
3095.3629,5.188897522074797
3096.3658,3.2277144333174874
3097.3681,2.603642626793885
3098.3698,2.7666849963931384
3099.3708,1.4168444099680073
3100.3713,3.9541237077044116
3101.3711,-0.2714742843801048
3102.3702,6.940053220190805
3103.3688,3.5387117199217073
3104.3667,0.9745066439166123
3105.364,-2.4025566141074535
3106.3607,-2.0924823957548426
3107.3568,-2.445251041089506
3108.3522,5.6391780137236935
3109.347,-2.239130239422394
3110.3412,3.2698891349735106
3111.3348,1.7663234413236353
3112.3277,-1.1997400486587537
3113.32,-0.8282140809235159
3114.3117,5.881000583982427
3115.3028,6.97801145937072
3116.2932,6.762925999743146
3117.2831,4.535851589821448
3118.2723,2.4468955466982436
3119.2608,4.596165142107708
3120.2488,1.7337676233151171
3121.2361,3.6598101916241035
3122.2229,3.5244000310007664
3123.209,4.82764428881319
3124.1944,4.269650077185531
3125.1793,6.7005244599654645
3126.1635,3.170374458304309
3127.1471,6.229307026348238
3128.1301,11.027429086539684
3129.1125,9.264847499028193
3130.0942,8.591669013689085
3131.0753,11.808000287749351
3132.0558,8.913947892519374
3133.0357,11.909618281229612
3134.015,7.595117817971058
3134.9936,11.42055274773854
3135.9716,11.986029239575828
3136.949,17.291653348321162
3137.9258,11.287531008952485
3138.902,15.573767983531269
3139.8775,19.150469921243655
3140.8524,16.367742315538123
3141.8267,18.475690468358508
3142.8004,16.674419517971216
3143.7735,19.01403441788584
3144.7459,18.044639954867662
3145.7178,22.666340725541957
3146.689,23.229241146087645
3147.6596,21.883445406020428
3148.6295,21.329057462563526
3149.5989,21.466181054105718
3150.5676,22.144919705745266
3151.5357,26.515376727918706
3152.5032,24.97765520961333
3153.4701,27.181857974662762
3154.4364,24.478087597123974
3155.402,30.166446379235495
3156.367,26.897036378454885
3157.3315,30.519959350575306
3158.2952,30.635316782419537
3159.2584,28.44320985561089
3160.221,31.94373944541951
3161.1829,32.68700614268347
3162.1442,34.67311021880349
3163.105,33.65215161831016
3164.065,35.22422993900304
3165.0245,35.739444442160234
3165.9834,36.29789403681757
3166.9416,37.74967727461643
3167.8993,38.144892344219315
3168.8563,39.233637056792006
3169.8127,42.56600884205141
3170.7684,40.492104737378035
3171.7236,43.812021354492366
3172.6782,42.525854900193806
3173.6321,44.48370114316158
3174.5854,44.435655426816396
3175.5381,46.931812649741936
3176.4902,43.37226726616536
3177.4417,46.50711326099573
3178.3926,46.33644418541944
3179.3428,49.71035312555177
3180.2924,51.97893270414359
3181.2415,55.69227504684225
3182.1899,53.55047175950583
3183.1377,57.95361389106968
3184.0848,53.85179195496443
3185.0314,54.49509588508461
3185.9773,56.18361507680682
3186.9227,52.46743838055674
3187.8674,57.046654084923965
3188.8115,57.921349953823636
3189.755,59.191613180704415
3190.6979,58.75753037980145
3191.6402,60.469187573433786
3192.5818,59.17667019634517
3193.5229,66.2800630785875
3194.4633,63.37945045844599
3195.4031,61.92491591140521
3196.3423,62.01654237915524
3197.2809,60.10441218413702
3198.2189,68.93860702862607
3199.1563,66.06920801385375
3200.0931,72.29629555166545
3201.0292,66.66994939321438
3201.9648,72.4402485666909
3202.8997,69.15727143358579
3203.834,71.97109563098742
3204.7677,72.58179810441142
3205.7008,68.28945507966245
3206.6333,79.14414205672725
3207.5652,74.64593385269794
3208.4964,76.24490449322528
3209.4271,74.49112725750064
3210.3571,74.93467466226639
3211.2865,80.47561847935359
3212.2154,81.91402973124656
3213.1436,78.99997863567343
3214.0712,83.73353459122205
3214.9982,83.81476620648044
3215.9246,85.74374125270133
3216.8503,81.87052666298972
3217.7755,85.04518851301323
3218.7001,87.5677920597342
3219.624,90.4384017096631
3220.5473,89.85708099363238
3221.4701,87.4738925380906
3222.3922,83.78889807091538
3223.3137,89.30215844524548
3224.2346,89.61373367633068
3225.1549,92.27368288639916
3226.0746,92.28206430154171
3226.9937,94.83893522511232
3227.9121,96.84435203764431
3228.83,95.39837017128164
3229.7473,96.35104408972471
3230.6639,97.55242730269023
3231.5799,99.45257235638445
3232.4954,101.60153082148935
3233.4102,97.2493532741611
3234.3244,101.69608927454061
3235.238,103.29178741027528
3236.151,102.98649525205147
3237.0634,102.48025933763776
3237.9752,103.67312517493765
3238.8864,102.71513724705207
3239.797,103.35633900035072
3240.7069,105.14677285405185
3241.6163,106.83648019381033
3242.5251,110.32550135381325
3243.4332,106.41387559988296
3244.3408,109.9016410945867
3245.2477,109.43883493635298
3246.154,110.67549312459386
3247.0598,111.86165056433306
3247.9649,112.59734105383927
3248.8694,114.23259727276474
3249.7733,113.56745077478814
3250.6766,110.2019319712623
3251.5793,115.78607013786532
3252.4814,116.06989344825612
3253.3829,116.85342891823278
3254.2838,122.73670240289451
3255.1841,115.66973858880618
3256.0838,118.20256093516562
3256.9829,120.83519174447314
3257.8814,120.61765213720352
3258.7792,123.39996202547954
3259.6765,121.4821401152474
3260.5731,123.91420387845373
3261.4692,121.94616957222362
3262.3647,121.4280522145402
3263.2595,125.35986560392477
3264.1538,126.69162232461812
3265.0474,125.5233337072624
3265.9404,126.30500981558346
3266.8329,125.08665945807383
3267.7247,124.41829018017592
3268.616,126.44990827646552
3269.5066,125.13151879733553
3270.3966,127.96312552867964
3271.286,125.49473100507646
