RamanShift,CorrectedData
30.1047,345.680695460688
32.3739,318.37261923874394
34.6426,294.51453955999295
36.9109,264.5064497839018
39.1787,239.04834032479192
41.4461,212.09019895192012
43.7131,187.03201104405977
45.9796,160.17375985908217
48.2456,133.4654267845383
50.5112,110.50699160624141
52.7764,85.54843277535059
55.0411,56.8897276379548
57.3054,28.83085268465876
59.5692,7.471783837169845
61.8326,-20.037503271113067
64.0955,-39.89703308150896
66.3579,-65.2566298606792
68.6199,-90.06571930392468
70.8815,-101.57307519281409
73.1426,-90.77657155238035
75.4032,-22.973067692635254
77.6634,184.34148393435896
79.9231,702.6713603774863
82.1824,1809.2708368422163
84.4412,3764.0941815073047
86.6995,6385.695644458799
88.9574,8839.729438141805
91.2148,10495.699711144473
93.4717,11168.510523657656
95.7282,11181.615830915214
97.9842,10932.669476465902
100.2398,10487.925192042314
102.4949,10052.18660005035
104.7495,9523.40721801666
107.0036,9044.790462946028
109.2573,8606.839656609167
111.5105,8227.80803032888
113.7632,7850.848729359579
116.0154,7561.564816677597
118.2672,7330.459276750775
120.5185,7105.535018431309
122.7693,6948.044877266804
125.0197,6781.341617749513
127.2696,6611.727934891242
129.519,6494.55645589038
131.7679,6319.829741828039
134.0163,6141.400288839766
136.2642,5939.170529862813
138.5117,5721.492836420427
140.7587,5489.86952064415
143.0052,5293.702837450598
145.2512,5096.64498685769
147.4967,4899.598115946321
149.7417,4743.114320830929
151.9863,4630.595648629978
154.2304,4555.044099030788
156.4739,4437.71162541472
158.717,4363.900135612697
160.9596,4256.961493078529
163.2017,4119.197517627021
165.4433,3946.509986503366
167.6844,3769.850635760782
169.925,3612.7211619873897
172.1651,3422.3732240728023
174.4047,3266.8084447794226
176.6439,3117.228412645921
178.8825,2995.434683542884
181.1206,2905.3787821686165
183.3582,2820.6122032670764
185.5954,2756.536412528435
187.832,2713.102847436742
190.0681,2651.5629179106863
192.3037,2642.4680067379268
194.5388,2610.519470190496
196.7734,2599.4186381157465
199.0075,2582.7668142558377
201.2411,2609.8652763587424
203.4742,2631.7652763447686
205.7068,2679.6680400355676
207.9389,2705.624766935144
210.1704,2749.9366297508213
212.4015,2778.754774133675
214.632,2815.2803182354164
216.862,2854.214352420212
219.0915,2870.9579388994225
221.3205,2883.362111342272
223.549,2884.6778747084013
225.777,2877.5562051238344
228.0044,2876.0980498678173
230.2314,2891.454327444035
232.4578,2887.6259275951907
234.6837,2877.4637111494485
236.909,2878.468510058712
239.1339,2848.0411275002475
241.3582,2815.182337866639
243.582,2746.742887070059
245.8053,2699.2734928708574
248.0281,2698.3248455619555
250.2503,2683.2976084435422
252.472,2685.542417832557
254.6932,2740.009883212964
256.9139,2783.950587213307
259.134,2861.665085062027
261.3536,2958.853904148065
263.5727,3136.767543243708
265.7912,3266.85647153271
268.0092,3391.8711268311463
270.2267,3491.9119142865334
272.4436,3540.4292051276752
274.6601,3563.1733356642576
276.8759,3531.9446068016796
279.0913,3464.293283813603
281.3061,3386.969596654248
283.5204,3321.9237406349016
285.7341,3274.1058771971548
287.9473,3276.0161345633655
290.16,3261.80460821483
292.3721,3257.021360872689
294.5837,3305.366422640037
296.7947,3370.4397910497573
299.0052,3434.5914305810707
301.2152,3422.6212720087983
303.4246,3350.67921176185
305.6334,3206.865112042924
307.8418,3019.378801547927
310.0495,2838.370076904115
312.2568,2619.538704544957
314.4635,2392.384422520224
316.6696,2216.9069426843
318.8752,2072.655952967727
321.0802,2015.081119131979
323.2847,1999.8320862119735
325.4887,1998.5084790918154
327.692,2002.5599026572932
329.8949,1967.0359418091075
332.0972,1899.7861614223643
334.2989,1811.4601067018048
336.5001,1673.6573038543124
338.7007,1579.97726097217
340.9008,1458.219469411089
343.1003,1368.1334047270107
345.2992,1294.268527893682
347.4976,1236.024286203518
349.6955,1163.450114006248
351.8927,1140.5454332913614
354.0895,1071.1596544138474
356.2856,1055.1421763232438
358.4812,1020.7923872574911
360.6763,1001.6596649031094
362.8707,989.6433767386952
365.0646,982.8928802262494
367.258,1001.6575229313416
369.4508,1021.0366425906141
371.643,1089.1295669241345
373.8346,1131.4356134416048
376.0257,1165.8540887614322
378.2162,1205.8342881876683
380.4062,1171.925495365825
382.5956,1124.1269818830751
384.7844,1077.2880076073334
386.9726,995.557821165246
389.1603,944.5856604105825
391.3474,910.6707532415348
393.5339,902.5123181104404
395.7199,889.3095643629345
397.9052,906.5116923195264
400.09,936.4178934076326
402.2743,1003.4273499895539
404.4579,1103.3392350634135
406.641,1195.7027115930641
408.8235,1252.0169315089643
411.0054,1318.2810347845493
413.1868,1388.8441488730864
415.3675,1433.6053880450331
417.5477,1392.0138526824094
419.7273,1318.2186288311805
421.9064,1233.0187886171775
424.0848,1201.313390984044
426.2627,1124.0514825452365
428.4399,1017.4820979010801
430.6166,871.7042604113826
432.7928,728.5169832611323
434.9683,575.0692709182763
437.1432,477.8601205655932
439.3176,396.33852363516917
441.4914,345.0534667804918
443.6645,326.05393269166234
445.8371,300.9389006082506
448.0091,296.157346509287
450.1806,288.8082433644163
452.3514,291.34056118170884
454.5216,285.90326708115754
456.6913,305.0953252693521
458.8603,312.76569709384967
461.0288,307.71334085125864
463.1967,317.0372117105321
465.3639,309.53626176349053
467.5306,306.4094399315836
469.6967,291.85569204089916
471.8622,291.8739608534329
474.0271,287.163186212626
476.1914,304.0223050431832
478.3551,303.90025139817635
480.5182,322.2959562904575
482.6807,360.3583476938793
484.8426,472.0863503593341
487.0039,615.9788854341332
489.1647,783.4848693447252
491.3248,911.9532123577715
493.4843,954.4828169050875
495.6432,916.8225762989559
497.8015,850.5713743068345
499.9592,781.3780855279524
502.1163,666.891576055827
504.2728,546.9607041701952
506.4287,414.6343214818803
508.5839,281.7612741320995
510.7386,217.64040411572796
512.8927,179.1205506100282
515.0461,179.100550615859
517.199,220.97923934287428
519.3512,331.7054502097267
521.5029,455.4780144252795
523.6539,595.1457598813417
525.8043,657.3075099149441
527.9541,594.7120819116635
530.1033,511.9582866840001
532.2519,412.14492909733735
534.3999,371.97080889747576
536.5472,381.2847217087665
538.694,441.8354594358552
540.8401,540.6718101705387
542.9856,598.3925575862636
545.1305,614.3964799497576
547.2748,591.2323495438263
549.4185,521.7489325073102
551.5615,499.74498906672807
553.704,502.4192742311102
555.8458,549.0705380120385
557.987,654.8975253969033
560.1276,778.498975882389
562.2675,989.7236224162057
564.4069,1249.0701901610746
566.5456,1531.8373943824822
568.6837,1620.4239378552147
570.8212,1433.0285080356866
572.958,1106.5997761760736
575.0942,786.9363991982677
577.2299,572.5370229581649
579.3648,456.50028544230054
581.4992,404.9248189118398
583.6329,437.70925106294544
585.766,524.3522055425333
587.8985,594.452301620428
590.0304,625.9081533229332
592.1616,616.7683687318317
594.2922,568.5815496698251
596.4222,487.39629179193435
598.5515,385.461185067365
600.6802,306.22481459136134
602.8083,252.68576160455723
604.9358,250.39260428533908
607.0626,278.4439182852361
609.1888,332.9382767518541
611.3144,429.1242500483613
613.4393,521.8504052085445
615.5636,585.3153049749508
617.6873,609.1675068716268
619.8103,606.3055625694678
621.9327,503.17801764769683
624.0544,392.0334116224808
626.1756,294.1202789782069
628.2961,217.1871502789304
630.4159,183.1325531475054
632.5351,171.5050130349182
634.6537,166.60305356083018
636.7716,180.27519662985105
638.8889,190.5699624805652
641.0056,197.48586954880284
643.1216,209.92143436469405
645.237,198.02517148351262
647.3518,154.69559336131852
649.4659,114.73121047392169
651.5793,90.93053175017667
653.6922,78.94206497162759
655.8043,66.91431701051397
657.9159,80.49579394965622
660.0268,74.48500120273411
662.137,90.23044337846795
664.2466,97.5306243407299
666.3556,88.58404705108933
668.4639,77.43921349581115
670.5716,45.2946247753207
672.6786,29.94878121565307
674.785,-0.049817310100934264
676.8907,-18.152671228336658
678.9958,-9.961280467774486
681.1002,-13.02696361195376
683.204,-31.85093973122366
685.3072,-27.53429775656923
687.4097,-32.62780842809025
689.5115,-25.231967418251315
691.6127,-5.6469444477138495
693.7132,-17.172657169784543
695.8131,-2.4089668247979716
697.9123,29.69443690175558
700.0109,29.5878883899627
702.1089,76.1717217229666
704.2061,118.5462706880312
706.3028,149.66186831070672
708.3987,166.11884643108078
710.4941,184.86753539262372
712.5887,199.40826387762172
714.6827,226.9413587196882
716.7761,244.6171447583547
718.8688,296.9359445637406
720.9608,369.4480782597939
723.0522,439.6038630011044
725.1429,499.05361224778426
727.233,573.3976350639055
729.3224,644.8362355230101
731.4112,635.719711964663
733.4993,587.5483562800719
735.5867,473.622454003249
737.6735,363.8922847927247
739.7596,269.30812357080913
741.845,202.82024162088828
743.9298,191.42890753327174
746.014,173.1343878700659
748.0974,164.9869472790897
750.1802,181.78684867681886
752.2624,179.58435332986255
754.3439,201.82972068696154
756.4247,254.32320840101556
758.5048,332.41507210662894
760.5843,468.3555648951751
762.6631,664.2449365338789
764.7413,931.733432106409
766.8188,1269.9712900539898
768.8956,1533.4087395005113
770.9718,1742.3459968701518
773.0473,1736.1332632530057
775.1221,1643.5207223157076
777.1962,1552.1085403635625
779.2697,1519.5468672666657
781.3426,1564.5858373740298
783.4147,1625.1255698392038
785.4862,1637.166168169876
787.557,1511.5577196224854
789.6271,1274.7002950818064
791.6966,995.3439503170389
793.7654,697.0887283503803
795.8335,510.1846622505891
797.901,370.1317781155385
799.9678,296.58009694125485
802.0339,247.67963602244708
804.0993,223.08040968802334
806.1641,189.93242979009665
808.2282,164.63570594997918
810.2916,136.94024588965976
812.3544,121.39605568477145
814.4164,96.9531400415467
816.4778,120.31150245225945
818.5385,136.97114543965245
820.5986,213.13207032335504
822.658,352.69427705328553
824.7166,522.2577634480422
826.7747,784.6225237992821
828.832,1065.9885471760863
830.8886,1258.2558148013145
832.9446,1367.5242972379383
834.9999,1294.0439524663743
837.0545,1136.0147247917976
839.1085,960.5865455789458
841.1618,767.9593348324101
843.2143,652.1830029509197
845.2662,549.8074526536111
847.3175,474.48258013779287
849.368,432.15827610269935
851.4179,402.23442650274
853.467,356.5609129707427
855.5155,343.78761311719336
857.5633,315.41440098696967
859.6105,284.69114718707533
861.6569,253.86771917036958
863.7027,222.7439815428047
865.7478,204.86979637165405
867.7922,166.2950234967543
869.8359,154.16952070924663
871.8789,170.49314413732282
873.9212,196.2157483674796
875.9629,250.83718628128418
878.0039,281.0573087981461
880.0441,321.77596432910696
882.0837,352.6929984746366
884.1226,402.10825361744674
886.1609,439.67156861331887
888.1984,512.2827782969557
890.2352,589.7417131063462
892.2714,615.4481983566529
894.3069,607.1520534656224
896.3416,529.8530916965219
898.3757,423.2011202410981
900.4091,377.44594099257074
902.4418,372.13735161214754
904.4739,390.17514598658045
906.5052,440.8591142812461
908.5358,428.08904275977375
910.5658,372.564713277201
912.595,282.03590340767914
914.6236,167.75238699971214
916.6515,128.8139350814463
918.6786,83.77031700350653
920.7051,70.7713008283763
922.7309,82.46665378083799
924.756,95.80614237795999
926.7804,138.23953231214773
928.8041,134.36658831774366
930.8272,177.63707374669593
932.8495,174.70075060728686
934.8711,186.50737913143166
936.892,174.00671780403945
938.9123,200.24852324494623
940.9318,231.08255033392015
942.9506,257.65855194824553
944.9688,218.3262786543828
946.9862,185.98547844221048
949.003,107.73589711834438
951.019,51.57727862954653
953.0344,28.659365845221146
955.0491,21.231901119001122
957.063,33.99462651792555
959.0763,80.69728389671445
961.0888,78.73961477014518
963.1007,120.92135984602191
965.1119,121.99225904475588
967.1223,113.85205107754518
969.1321,102.10047343566657
971.1412,96.58726247187587
973.1495,88.26215351792825
975.1572,90.37488093970614
977.1641,106.52517822047048
979.1704,95.61277793973477
981.1759,102.13741161176449
983.1808,100.94880979469599
985.1849,106.24670202529387
987.1884,115.13081683083465
989.1911,152.15088167613158
991.1932,182.9066228746883
993.1945,196.54776521850408
995.1951,161.77403167051125
997.1951,167.03514322816545
999.1943,182.1808192711851
1001.1928,188.06077750893883
1003.1906,225.6747338289888
1005.1877,286.17240223829094
1007.1841,340.903494487055
1009.1798,381.0677194637692
1011.1748,338.6647826478875
1013.1691,289.49438570818666
1015.1627,202.156226926797
1017.1556,120.50000169090663
1019.1477,76.6754033661432
1021.1392,25.93212411313425
1023.1299,13.31985532575436
1025.12,23.58828813855871
1027.1093,55.88711355290616
1029.0979,102.01602233427138
1031.0859,150.47470468925894
1033.0731,174.06284980431565
1035.0596,191.8301453611416
1037.0454,127.92627730080994
1039.0304,111.55092964609321
1041.0148,44.25378514050408
1042.9985,5.4845254120496065
1044.9814,1.5928316461991017
1046.9636,-35.22161502642257
1048.9452,-18.359149387578327
1050.926,-7.519754355097575
1052.9061,21.846770561093308
1054.8855,31.540700973409912
1056.8642,53.56231227580247
1058.8421,73.76187954681473
1060.8194,101.38967732936953
1062.7959,119.69597942877363
1064.7717,146.2310586364374
1066.7469,197.2951865468117
1068.7213,244.13863329203787
1070.695,289.61166703130675
1072.6679,318.71455348242534
1074.6402,339.7975554670834
1076.6117,328.6109326198284
1078.5826,259.2049411772332
1080.5527,187.02983408976297
1082.5221,122.83586171583283
1084.4908,108.5232725435626
1086.4587,91.59231383271208
1088.426,92.74323175781092
1090.3925,121.27627157746474
1092.3584,134.99167762284787
1094.3235,155.23969301237503
1096.2879,216.02055951454395
1098.2515,292.28451734545706
1100.2145,388.93180456101254
1102.1767,467.4626562942667
1104.1382,597.2273037889563
1106.099,712.8759736141924
1108.0591,822.2588863668179
1110.0185,891.1262555149174
1111.9771,943.5282863039865
1113.9351,908.3151750682587
1115.8923,889.6871087066884
1117.8488,842.044265035076
1119.8045,790.4368129723516
1121.7596,714.3149130170036
1123.7139,638.7787177631526
1125.6675,605.0283726617718
1127.6204,621.0140167760478
1129.5726,590.4357831188854
1131.524,547.543798493049
1133.4748,483.28818379694667
1135.4248,374.61905445354887
1137.3741,299.3365210529437
1139.3226,240.24069043903046
1141.2705,223.13166646234413
1143.2176,193.95955057101264
1145.164,171.97444198184849
1147.1097,136.1264379720701
1149.0546,85.51563409915025
1150.9989,29.64212455930101
1152.9424,-7.3439973064218975
1154.8852,-33.1926384533831
1156.8272,-39.05363247041396
1158.7686,-32.12648135188783
1160.7092,-5.910296946392009
1162.6491,19.496129841035327
1164.5883,61.994067149218154
1166.5267,118.83478292202199
1168.4644,202.66954448337128
1170.4014,294.09961796884363
1172.3377,415.4262674873221
1174.2732,569.7007542066949
1176.2081,773.4743351405905
1178.1421,1029.6982616056303
1180.0755,1304.623777183694
1182.0082,1503.552115159679
1183.9401,1595.0844957722493
1185.8713,1530.5721242245454
1187.8017,1347.2161897688657
1189.7315,1144.5678663517892
1191.6605,941.2783144477326
1193.5888,789.7986830854338
1195.5163,714.4801118808491
1197.4432,672.4737325519495
1199.3693,652.5806696719055
1201.2947,620.352041089151
1203.2193,598.838958126315
1205.1432,599.6925259025056
1207.0664,581.9138435484429
1208.9889,571.1540041979229
1210.9106,580.6140951656034
1212.8316,579.8451980546056
1214.7519,600.4483886619082
1216.6715,622.67473698604
1218.5903,674.525307021046
1220.5084,703.9011565342266
1222.4257,779.9533365476304
1224.3424,818.1328910442926
1226.2583,890.7908562077187
1228.1735,968.0782600400839
1230.0879,1044.846121635656
1232.0016,1147.2454504079242
1233.9146,1246.9772453219161
1235.8269,1278.7924938702063
1237.7384,1275.3921710755967
1239.6492,1245.5772391729652
1241.5592,1243.8986476432683
1243.4686,1298.7573335116913
1245.3772,1404.4042213644339
1247.285,1561.9402228001259
1249.1922,1683.7662353733544
1251.0986,1811.483141019307
1253.0042,1874.2918048355086
1254.9092,1935.0930738046577
1256.8134,1993.087776166532
1258.7169,2054.976720809981
1260.6196,2141.0606966929786
1262.5216,2249.7904722237313
1264.4229,2332.266794399839
1266.3234,2407.9903877209977
1268.2232,2495.9619533642363
1270.1223,2520.8321684266825
1272.0207,2548.7016850458467
1273.9183,2527.7211301509187
1275.8151,2500.941105184075
1277.7113,2524.912186310281
1279.6067,2602.4849246850918
1281.5014,2777.859846214944
1283.3953,3028.2374507814243
1285.2885,3346.7682104875234
1287.181,3688.1025671538578
1289.0727,4001.2909291333644
1290.9637,4169.483667897955
1292.854,4310.531114906632
1294.7435,4288.783559923568
1296.6323,4199.391249607621
1298.5204,4054.70438772982
1300.4077,3919.7731360672788
1302.2943,3710.0476158500674
1304.1802,3527.5279091105276
1306.0653,3274.814060780526
1307.9497,3004.0560805166515
1309.8333,2751.6039452273512
1311.7162,2584.7576017805177
1313.5984,2475.1169695279987
1315.4798,2378.931941974074
1317.3605,2318.50238787185
1319.2405,2272.8781521851165
1321.1197,2125.6090566926414
1322.9982,1955.1449004444103
1324.876,1799.0854612343223
1326.753,1633.0804973048275
1328.6293,1519.9797489075218
1330.5048,1395.782939963197
1332.3796,1299.6897791928482
1334.2537,1231.3499613596418
1336.127,1207.6131682298487
1337.9996,1173.8790692562407
1339.8714,1163.397321815462
1341.7426,1165.167571545367
1343.6129,1174.1394524498378
1345.4826,1184.1625868810806
1347.3515,1205.9865854499117
1349.2196,1188.2110469255194
1351.087,1215.485558017227
1352.9537,1231.8596935522492
1354.8197,1296.0830162029451
1356.6849,1367.3050763230785
1358.5493,1449.275411305584
1360.4131,1550.5935448703449
1362.276,1657.908986244492
1364.1383,1687.6712291492204
1365.9998,1630.779750726635
1367.8606,1483.93401124213
1369.7206,1337.2834546533054
1371.5799,1199.9775100784195
1373.4384,1096.365593262898
1375.2962,975.5471079523927
1377.1533,833.4214469288986
1379.0096,666.8379932189428
1380.8652,534.1961215148385
1382.7201,376.0451998405201
1384.5742,303.1345908779617
1386.4275,215.81365354868285
1388.2802,172.28174374286027
1390.132,121.63821519253725
1391.9832,92.73241990693896
1393.8336,71.31370867890837
1395.6832,56.53143137396637
1397.5322,43.53493714449769
1399.3803,38.27357457757353
1401.2278,33.29669182491534
1403.0745,29.6536366555124
1404.9204,38.64375650538659
1406.7656,31.416398514023058
1408.6101,47.220909434472105
1410.4538,75.95663570561828
1412.2968,93.52292329413945
1414.139,117.6191174071489
1415.9805,145.49456231653244
1417.8213,191.49860111798694
1419.6613,244.23057545226357
1421.5006,329.3898250451284
1423.3391,414.625687180044
1425.1769,549.9374958465742
1427.0139,754.1745808880271
1428.8502,986.8362666483372
1430.6858,1241.7718699296952
1432.5206,1427.2806976659288
1434.3547,1518.9120443731501
1436.188,1537.8651902946654
1438.0206,1485.7894004846603
1439.8524,1420.8339246186692
1441.6835,1392.197997514334
1443.5139,1351.9308397809584
1445.3435,1336.5816581058657
1447.1724,1324.0996456570729
1449.0005,1314.4839822367796
1450.8279,1310.6838344061916
1452.6545,1325.1483555816733
1454.4804,1344.2766860727522
1456.3056,1342.2679529374725
1458.13,1323.7712697911113
1459.9536,1268.835736826267
1461.7766,1153.5104409978267
1463.5987,1025.0944565723198
1465.4202,894.1368462811727
1467.2409,755.9366626048684
1469.0608,652.5929490825224
1470.88,528.1547416938852
1472.6984,436.57106989277736
1474.5161,372.3909578514747
1476.3331,304.41342537654305
1478.1493,268.4874885506399
1479.9648,238.2121604122899
1481.7795,212.5364513151444
1483.5935,197.85936923073223
1485.4067,185.07992000521904
1487.2192,175.8971075061777
1489.031,175.55993375038315
1490.842,173.4173989956396
1492.6522,171.7185017441543
1494.4618,138.26223876396057
1496.2705,146.89760510590804
1498.0785,137.12359443822515
1499.8858,123.13919896016546
1501.6924,111.89340949974735
1503.4981,90.53521565359802
1505.3032,81.8136058994105
1507.1075,76.22756780952591
1508.911,59.92608813814945
1510.7138,46.00815287721093
1512.5159,34.222747419380994
1514.3172,17.36885669724984
1516.1178,17.895465301180593
1517.9176,3.0515576478489947
1519.7166,1.186117974977833
1521.515,-16.151869510225197
1523.3126,-8.363420612412938
1525.1094,-19.39938977906172
1526.9055,-14.960547907076261
1528.7008,-19.097472093457327
1530.4954,-20.810589979332462
1532.2893,-23.400138422085547
1534.0824,-16.76614638130718
1535.8747,-18.308409049206603
1537.6663,-2.5265541241910796
1539.4572,6.729973596338596
1541.2473,19.461754555255766
1543.0367,20.369369128135986
1544.8253,41.803397495936906
1546.6132,68.4644196359252
1548.4003,82.70301510733452
1550.1867,119.8697627847555
1551.9723,170.61524071574945
1553.7572,222.14002574918186
1555.5414,298.0446930277658
1557.3247,361.62981547281584
1559.1074,454.54596302519826
1560.8893,559.2937020094832
1562.6705,644.3735942047808
1564.4509,718.9361957972662
1566.2305,765.7820565293775
1568.0094,792.9117189541919
1569.7876,807.2757179669652
1571.565,805.7745805338373
1573.3417,803.8088255481925
1575.1176,786.5289638456704
1576.8928,817.5354982238221
1578.6672,855.9789236149097
1580.4409,881.9597267758425
1582.2138,918.2283859037395
1583.986,971.0353703761248
1585.7575,1038.4311403882384
1587.5282,1115.0661464249647
1589.2981,1188.9908285868796
1591.0673,1266.4556158238947
1592.8358,1333.960925196019
1594.6035,1391.7571610987013
1596.3704,1449.844714587785
1598.1366,1506.9239628015387
1599.9021,1560.8452683797827
1601.6668,1608.5089788930998
1603.4308,1663.5654263036192
1605.194,1737.1649264883845
1606.9564,1868.057778688785
1608.7182,1998.9942647745618
1610.4791,2167.8746479348774
1612.2394,2335.8991713689566
1613.9988,2498.1180565972745
1615.7576,2656.381501781318
1617.5156,2767.689680101392
1619.2728,2791.89273817399
1621.0293,2740.1907949387073
1622.785,2590.9839414162125
1624.54,2402.4222412252657
1626.2942,2189.3557320747896
1628.0477,1960.3344276494831
1629.8005,1769.158319740489
1631.5525,1568.8273805356057
1633.3037,1432.691564531048
1635.0542,1314.9508105347593
1636.804,1230.905043027767
1638.553,1146.85417334159
1640.3013,1134.748100498698
1642.0488,1095.686712053019
1643.7955,1097.6198842110002
1645.5416,1128.1974822222228
1647.2868,1161.7693603600703
1649.0313,1221.6853616159522
1650.7751,1278.8953173635848
1652.5181,1350.4490467598323
1654.2604,1418.946356172605
1656.0019,1533.7370384653257
1657.7427,1635.170872311952
1659.4828,1760.3476210490724
1661.222,1848.7170316615666
1662.9606,1833.5788335308373
1664.6984,1746.7827375511188
1666.4354,1584.4284362808569
1668.1717,1347.115604810671
1669.9072,1111.7939023868953
1671.642,892.862974784709
1673.3761,736.8224566613512
1675.1094,599.7219737454338
1676.8419,513.2111443973431
1678.5737,417.9395809802477
1680.3048,358.60689072520427
1682.0351,309.31267668387613
1683.7646,266.70653832185735
1685.4934,226.08807201161676
1687.2215,207.35687145855695
1688.9488,171.0625281072007
1690.6754,164.70463132850227
1692.4012,140.73276878279216
1694.1263,120.44652648335455
1695.8506,120.29548903614591
1697.5742,99.47923984265799
1699.297,93.09736110142876
1701.0191,84.19943401620367
1702.7404,74.7350388597547
1704.461,56.653755062859545
1706.1808,56.5051613089463
1707.8999,47.18883571490733
1709.6182,41.054355832582814
1711.3358,36.00129874192476
1713.0527,35.729241112342834
1714.7688,33.43775925323462
1716.4841,24.526429116705913
1718.1987,27.044826320485072
1719.9126,17.442526237036645
1721.6257,14.819103968377476
1723.338,23.124134442099148
1725.0496,15.407192437603499
1726.7605,30.917852503051904
1728.4706,26.655689032533928
1730.18,32.6202761109613
1731.8886,21.461187556689538
1733.5964,24.17799686187209
1735.3036,15.970277304051137
1737.0099,19.487601918989867
1738.7156,13.229543582748306
1740.4204,14.295674976511009
1742.1246,-1.5644313508332743
1743.8279,8.698797006648192
1745.5306,3.3849480835564236
1747.2325,-3.606390172494912
1748.9336,-8.125629847740356
1750.634,-9.723147000577228
1752.3336,-9.049236514361041
1754.0325,-3.2540961382098885
1755.7307,-8.987833219368667
1757.4281,-0.5005225966619946
1759.1247,-2.642149320461499
1760.8206,0.08730655908220797
1762.5158,-0.012108613110513033
1764.2102,-4.94034849299203
1765.9039,5.752633384450519
1767.5968,1.9169328383106858
1769.289,-7.347354369842719
1770.9804,1.6098675023896476
1772.6711,10.738767597477135
1774.361,8.039515041790764
1776.0502,9.412278854314081
1777.7386,5.157227973635486
1779.4263,10.824531244221703
1781.1132,16.31435745896715
1782.7994,11.126875302522194
1784.4849,17.612253296393646
1786.1696,8.470659850820425
1787.8535,20.70226319991923
1789.5367,13.357231493100358
1791.2192,21.535732672752488
1792.9009,4.837934547692157
1794.5818,24.16400471137956
1796.2621,13.51411070889526
1797.9415,18.08841984368007
1799.6202,16.437099284033593
1801.2982,34.660316017371315
1802.9755,24.958236866737252
1804.6519,24.48102830857283
1806.3277,23.77885656973774
1808.0027,20.501887632282205
1809.6769,31.000287240468197
1811.3504,24.17422093353946
1813.0231,24.37385394073715
1814.6951,35.99935124956107
1816.3664,34.80087760377228
1818.0369,33.17859738713844
1819.7067,44.88267463541945
1821.3757,43.913273052589716
1823.044,43.92055589379697
1824.7115,39.554685975056714
1826.3783,36.0158256731786
1828.0443,39.75413696942644
1829.7096,42.01978148490582
1831.3741,48.56292044318059
1833.0379,43.5837146476174
1834.701,50.38232441595403
1836.3633,54.758909630091125
1838.0248,39.91362966810641
1839.6856,50.94664336048868
1841.3457,56.95810913859077
1843.005,48.398184924299585
1844.6636,51.917028069920775
1846.3214,51.464795443778826
1847.9785,64.29164339502825
1849.6349,58.097727758176234
1851.2904,54.03320372481346
1852.9453,71.69822590555407
1854.5994,68.74294837068078
1856.2528,61.817524473494245
1857.9054,64.62210687986635
1859.5572,69.80684763749366
1861.2083,73.27189814785265
1862.8587,70.91740911435136
1864.5084,74.59353050767913
1866.1572,74.05041158935217
1867.8054,68.63820087495128
1869.4528,63.35704613955329
1871.0994,67.00709447185272
1872.7453,68.43849232697426
1874.3905,77.05138548997218
1876.0349,69.54591906151609
1877.6786,65.62223737176225
1879.3215,78.28048405540858
1880.9637,73.7208020909311
1882.6051,87.3433336740012
1884.2458,74.1982202630827
1885.8858,75.98560244320618
1887.525,86.9556200574209
1889.1634,78.65841218892035
1890.8011,70.89411705134205
1892.4381,79.7128720717393
1894.0743,83.61481396822467
1895.7098,71.10007866178262
1897.3446,78.26880123724914
1898.9786,70.42111606846026
1900.6118,83.30715674656403
1902.2443,75.17705615849752
1903.8761,76.88094635812638
1905.5071,77.56895864754574
1907.1374,82.0912235600423
1908.7669,79.39787085321291
1910.3957,82.53902946374285
1912.0237,72.31482753433886
1913.651,83.67539238231734
1915.2776,70.870850601847
1916.9034,77.95132795034249
1918.5285,74.16694947651081
1920.1528,75.21783944954541
1921.7764,76.30412139697137
1923.3992,83.32591809413532
1925.0213,77.93335155334296
1926.6427,71.52654295364096
1928.2633,66.15561269474301
1929.8832,73.32068046109748
1931.5023,68.6218652755972
1933.1207,76.25928542792849
1934.7383,78.5330585215595
1936.3552,77.34330139736562
1937.9714,74.94013011089226
1939.5868,74.62365994425181
1941.2015,69.244005430156
1942.8154,71.20128035508003
1944.4286,70.49559781305948
1946.041,69.57707018611688
1947.6528,71.7458091513189
1949.2637,71.75192568996181
1950.8739,67.19553006588444
1952.4834,76.42673182540591
1954.0921,69.5956398428907
1955.7001,71.95236222843641
1957.3074,62.94700639618452
1958.9139,62.629679040753444
1960.5197,69.50048622729184
1962.1247,64.80953339465202
1963.729,66.50692528668208
1965.3325,64.74276599913503
1966.9353,63.067158962694975
1968.5374,68.18020696061808
1970.1387,67.88201214548974
1971.7393,68.92267598809303
1973.3392,61.352299280391776
1974.9383,63.270982125123055
1976.5366,60.97882401150116
1978.1342,68.3759237960312
1979.7311,65.66237972543036
1981.3273,62.28828936265688
1982.9227,64.65374961404507
1984.5173,58.158856763046515
1986.1112,65.00370644657573
1987.7044,62.23839371995837
1989.2968,58.36301298848366
1990.8885,62.727658035057175
1992.4795,64.43242205895444
1994.0697,61.52739763217494
1995.6592,60.66267668239391
1997.2479,56.83835052201266
1998.8359,59.50450985680686
2000.4232,58.51124482416833
2002.0097,58.2086449664439
2003.5955,62.24679924086843
2005.1805,58.325796022590225
2006.7648,55.84572306428993
2008.3484,57.20666753539001
2009.9312,60.80871604685558
2011.5133,63.451954637585686
2013.0946,58.03646873839273
2014.6752,54.26234314556996
2016.2551,60.5296620750463
2017.8342,63.53850920012758
2019.4126,58.038967588823425
2020.9902,54.48111967375871
2022.5672,65.61504730716877
2024.1433,57.54083179647819
2025.7188,61.30855379296156
2027.2935,59.11829337248514
2028.8674,62.92012999782969
2030.4406,54.514142540593525
2032.0131,57.60040924317332
2033.5849,53.32900780282523
2035.1559,63.200015340800974
2036.7261,53.41350844506269
2038.2957,52.36956307157243
2039.8645,53.2182546421576
2041.4325,60.75965805495002
2042.9998,50.993847675899076
2044.5664,61.270897263357824
2046.1323,59.140880065741044
2047.6974,54.55386871875527
2049.2617,56.50993526669839
2050.8254,58.5091512083298
2052.3883,57.951587477309715
2053.9504,49.38731442220728
2055.5118,57.7164018120759
2057.0725,63.038918922095604
2058.6325,51.00493445028337
2060.1917,53.76451646426659
2061.7502,58.71773252162399
2063.3079,54.96464964228949
2064.8649,56.70533425901954
2066.4212,60.789852254924426
2067.9767,60.368268946061335
2069.5315,46.64064904058921
2071.0856,54.65705664298497
2072.6389,57.667555391318444
2074.1915,45.622208377089805
2075.7433,47.37107811512357
2077.2945,50.16422666402201
2078.8448,49.7517156086775
2080.3945,52.68360603233998
2081.9434,50.959958520743044
2083.4916,47.330833132784505
2085.039,51.99628941776257
2086.5857,46.70638645166724
2088.1317,47.96118279052621
2089.677,48.110736523303274
2091.2215,37.25510525935056
2092.7652,51.29434612691273
2094.3083,43.02851588168403
2095.8506,48.307670766415356
2097.3921,51.331866593572954
2098.933,49.80115869254587
2100.4731,46.415601879405415
2102.0124,53.87525047221112
2103.5511,48.13015832486718
2105.089,48.08037875252518
2106.6261,45.72596458903553
2108.1626,47.01696818744483
2109.6983,50.10344144354042
2111.2332,42.78543578293977
2112.7675,45.163002130226346
2114.301,48.13619098212956
2115.8337,45.45505238374932
2117.3657,47.21963589882398
2118.897,44.17999063654162
2120.4276,45.83616523389435
2121.9575,45.788207886074645
2123.4866,43.28616632991333
2125.0149,45.38008784435959
2126.5426,40.82001927550118
2128.0695,46.9560070156254
2129.5956,48.58809704881958
2131.1211,43.71633488961106
2132.6458,48.54076556664643
2134.1698,48.11143367140926
2135.693,47.07838330997589
2137.2155,36.19165810730851
2138.7373,41.851301217585615
2140.2584,42.80735543306946
2141.7787,40.10986312750964
2143.2983,41.15886624658191
2144.8171,40.754406334863916
2146.3353,42.09652452534482
2147.8527,38.53526154346946
2149.3693,37.770657693717965
2150.8853,45.55275289521791
2152.4005,32.58158668939035
2153.9149,49.15719816212902
2155.4287,38.8796260735121
2156.9417,42.698908692046246
2158.454,35.765083897442196
2159.9655,35.478189142421854
2161.4764,34.73826152205612
2162.9865,35.59533777663421
2164.4958,36.399454299062995
2166.0045,42.20064712629619
2167.5124,31.948951931293152
2169.0195,39.24440396500705
2170.526,39.587038158901464
2172.0317,35.32688905199575
2173.5367,42.36399078743921
2175.0409,33.49837715511245
2176.5445,37.980081521256125
2178.0473,34.8591369171275
2179.5494,37.335575994183216
2181.0507,36.9594310552888
2182.5513,34.63073402995434
2184.0512,31.899516478095677
2185.5504,35.31580961332173
2187.0488,34.97964433024623
2188.5465,42.491051170325136
2190.0435,39.7500603252181
2191.5397,41.20670156167387
2193.0353,37.16100424894074
2194.5301,31.162997344199823
2196.0241,30.162709433022826
2197.5175,36.610168789351064
2199.0101,31.30540338549889
2200.502,34.8484408276791
2201.9931,30.689308409050682
2203.4835,29.878033074288794
2204.9733,29.464641461175518
2206.4622,36.4991599087129
2207.9505,29.231614461256868
2209.438,30.112030798171986
2210.9248,28.890434306506734
2212.4109,34.06685007218954
2213.8962,25.19130289224455
2215.3809,29.613817223027752
2216.8648,29.684417268982088
2218.3479,28.403126938412754
2219.8304,22.769969842780938
2221.3121,26.034969309516896
2222.7931,19.84814843835136
2224.2733,30.959530068665458
2225.7529,26.96913684135859
2227.2317,25.476991087735257
2228.7098,28.283114869408394
2230.1872,26.13752999322128
2231.6638,23.24025798318587
2233.1397,16.391320101939243
2234.6149,25.790737379715665
2236.0894,19.938530682836472
2237.5632,19.284720619715756
2239.0362,23.02932759938261
2240.5085,23.57237183801925
2241.9801,16.413873321514643
2243.4509,25.003851800034113
2244.921,17.942326859604805
2246.3904,16.77931783621534
2247.8591,25.714843886431254
2249.3271,18.84892399902492
2250.7943,15.031576905620682
2252.2608,19.16282114935376
2253.7266,16.192675123043955
2255.1917,20.371157027883214
2256.656,13.548284903136675
2258.1197,18.57407658435818
2259.5826,11.448549771618445
2261.0447,17.321721979247798
2262.5062,13.993610607091227
2263.9669,16.914232881776627
2265.4269,19.73360588999617
2266.8862,12.451746549299571
2268.3448,14.318671579900581
2269.8026,20.98439757749594
2271.2598,19.848940994595807
2272.7162,14.762318073866368
2274.1719,15.974544859485093
2275.6268,8.885637248005764
2277.0811,18.295610976237242
2278.5346,20.754481692132174
2279.9874,19.562264860687435
2281.4395,12.718975739355244
2282.8908,10.874629389965094
2284.3414,14.629240747156757
2285.7914,15.132824636824239
2287.2406,15.035395738568809
2288.689,23.486968580663756
2290.1368,10.787557541028661
2291.5838,16.287176762713443
2293.0302,13.535840280892728
2294.4758,16.283561967869275
2295.9206,23.330355560587464
2297.3648,16.326234633156275
2298.8082,10.67121252638151
2300.251,16.265302417806822
2301.693,14.2585173782644
2303.1343,18.650870315933105
2304.5748,14.142373996407343
2306.0147,13.183040998772753
2307.4538,17.972883760691445
2308.8922,14.86191458799533
2310.3299,14.05014560678751
2311.7669,10.837588794552346
2313.2031,15.374255988272807
2314.6387,10.610158916556088
2316.0735,9.89530915426701
2317.5076,14.279718170169247
2318.941,10.413397334073522
2320.3737,9.096357872993508
2321.8056,13.778610909809515
2323.2369,9.760167476438255
2324.6674,13.891038467010617
2326.0972,14.121234678055714
2327.5263,16.350766767192283
2328.9547,19.279645250827002
2330.3823,13.007880481858763
2331.8092,17.185482620390076
2333.2355,20.862461696444427
2334.661,18.43882756819073
2336.0858,12.31458988517295
2337.5098,15.689758112546997
2338.9332,15.014341592322978
2340.3558,16.83834950961335
2341.7778,12.011790899387393
2343.199,6.3846746282312665
2344.6195,13.25700944261348
2346.0393,15.228804025156023
2347.4583,13.950066925911074
2348.8767,19.5208065426429
2350.2943,16.59103113361516
2351.7113,15.51074876188386
2353.1275,14.929967324594543
2354.543,13.048694563786228
2355.9578,17.416938072198036
2357.3718,18.884705312082417
2358.7852,15.102003571522062
2360.1978,5.268839949752817
2361.6098,10.185221394990549
2363.021,20.85115480276238
2364.4315,10.466646966743951
2365.8413,14.68170447209934
2367.2504,21.396333799326214
2368.6587,11.01054128210518
2370.0664,14.974333040153795
2371.4733,11.93771508308447
2372.8795,15.100693270766385
2374.285,24.763273343691992
2375.6899,15.675460891346404
2377.0939,14.837261255582803
2378.4973,17.298679621499616
2379.9,9.109721025822807
2381.3019,14.570390332291367
2382.7032,13.330692313547615
2384.1037,9.440631596530352
2385.5035,13.750212674871705
2386.9027,18.059439947797443
2388.3011,18.418317677031382
2389.6987,12.376849943702837
2391.0957,8.535040644758453
2392.492,13.592893553376882
2393.8876,6.950412357386028
2395.2824,9.307600608684936
2396.6765,13.214461789668917
2398.07,7.0209992896568565
2399.4627,17.52721636582379
2400.8547,4.183116205134979
2402.246,5.1887018192838354
2403.6366,3.443976178132914
2405.0265,9.848942199657586
2406.4156,7.6036027673936815
2407.8041,12.907960666387794
2409.1918,9.262018605650837
2410.5789,8.465779165113815
2411.9652,9.469244832087838
2413.3508,9.222418009226601
2414.7358,6.825301004491678
2416.12,8.177896033620755
2417.5035,9.780205244098738
2418.8863,8.132230701631613
2420.2684,13.933974374123636
2421.6497,10.835438148156413
2423.0304,6.186623770972062
2424.4104,4.837532881457605
2425.7896,8.538167056634165
2427.1682,15.33852782514765
2428.546,10.738616630262527
2429.9232,8.188434761858048
2431.2996,9.637983402427551
2432.6753,11.237263652580111
2434.0503,13.286276516544774
2435.4246,11.485022886178228
2436.7982,10.93350352047463
2438.1711,9.531719063578066
2439.5433,1.9796700502976137
2440.9148,6.777356920125499
2442.2856,15.624760335649626
2443.6557,10.471860891684855
2445.025,13.618639026798405
2446.3937,11.065075074839285
2447.7617,14.611149233470258
2449.1289,8.806841589703197
2450.4955,4.952132084438858
2451.8613,7.497000570509442
2453.2265,9.191426851226083
2454.5909,6.935390654930131
2455.9546,15.12887161804872
2457.3177,8.42184930765518
2458.68,6.264303139534263
2460.0416,14.056212445252356
2461.4025,8.747556493732844
2462.7627,11.288314413337105
2464.1222,7.2784652449510645
2465.4811,5.917987916577772
2466.8392,5.256861283435597
2468.1966,9.095064141563341
2469.5533,14.932575234431084
2470.9093,13.769373214558783
2472.2645,13.005436585140473
2473.6191,17.84074371167668
2474.973,15.275272829613527
2476.3262,14.009001995989792
2477.6787,16.441909115091647
2479.0305,16.42397195111525
2480.3816,15.755168103837804
2481.7319,14.085475008796692
2483.0816,12.714869943978016
2484.4306,16.093330046513074
2485.7789,13.77083232638472
2487.1264,14.447353632642546
2488.4733,17.67287067662795
2489.8195,15.94736002520898
2491.165,11.97079806852497
2492.5097,15.943161037242078
2493.8538,17.164425042318527
2495.1972,21.534566035281074
2496.5398,11.553559796012479
2497.8818,14.421381889049712
2499.2231,15.88800776339437
2500.5637,12.153412723834322
2501.9035,18.01757191627746
2503.2427,16.130460365097633
2504.5812,18.092052914493223
2505.919,20.402324247358052
2507.256,13.061248865665391
2508.5924,19.218801067365433
2509.9281,18.474955019795885
2511.2631,13.779684698106678
2512.5974,15.732963892698336
2513.9309,18.93476625617447
2515.2638,15.335065283809229
2516.596,17.18383428152933
2517.9275,12.381046401910993
2519.2583,14.926674625692215
2520.5884,17.22069180980037
2521.9178,16.86307066189633
2523.2465,17.85378371743394
2524.5745,11.792803343236358
2525.9018,17.030101727589027
2527.2284,21.365650940849548
2528.5543,20.39942288307475
2529.8796,20.63138924066493
2531.2041,14.761521496026319
2532.5279,19.489790925251327
2533.851,20.86616865681725
2535.1735,18.89062562430351
2536.4952,21.86313255262783
2537.8163,22.283659977801932
2539.1366,18.302178217206233
2540.4562,21.168657365384576
2541.7752,23.38306733385906
2543.0935,24.2453778224654
2544.411,22.205558297208626
2545.7279,19.263577981640168
2547.0441,22.219405877256065
2548.3596,21.423010792916642
2549.6744,24.22436131528832
2550.9885,23.97342581680732
2552.3019,23.870172427666432
2553.6146,23.764569038324368
2554.9266,26.856583300538404
2556.2379,25.696182628420047
2557.5485,23.18333416751514
2558.8585,25.468004806407833
2560.1677,31.90016120184893
2561.4762,23.129769755909336
2562.7841,26.75679655165851
2564.0913,24.63120744086831
2565.3977,28.402968007742686
2566.7035,27.072043590173593
2568.0086,24.038399242023615
2569.313,29.251999746434848
2570.6167,31.31280964616562
2571.9197,27.020793191454345
2573.222,29.575914319411567
2574.5236,25.328136696939765
2575.8246,30.8774236951825
2577.1248,32.423738432002125
2578.4244,31.01704371648694
2579.7232,27.707302033487878
2581.0214,29.994475557685604
2582.3189,33.728526186687844
2583.6157,32.959415518157556
2584.9118,31.837104812472518
2586.2072,37.611555000416644
2587.5019,36.832726694402794
2588.7959,35.75058013072851
2590.0893,34.46507517736413
2591.3819,36.62617134477435
2592.6739,32.63382779877307
2593.9652,38.5380033389126
2595.2557,37.78865643840709
2596.5456,45.285745185090605
2597.8348,45.27922728891099
2599.1234,39.76906000695857
2600.4112,43.005200143531425
2601.6983,40.93760410523717
2602.9848,46.01622786863129
2604.2705,38.49102700089324
2605.5556,45.21195660904033
2606.84,47.678971415179774
2608.1237,45.392025689299174
2609.4067,40.35107322459663
2610.689,42.15606736034985
2611.9707,45.15696103232611
2613.2516,37.50370675473209
2614.5319,44.29625659020496
2615.8115,35.08456222634479
2617.0903,41.46857490778922
2618.3685,42.798245528330426
2619.6461,38.87352456707484
2620.9229,46.04436207514661
2622.199,39.31070771493469
2623.4745,38.22251068838435
2624.7493,40.129719804333945
2626.0234,40.432283489396696
2627.2968,40.83014976888873
2628.5695,42.97326626380351
2629.8415,35.16158018683285
2631.1128,42.89503832093607
2632.3835,45.92358709745696
2633.6535,38.34717251878885
2634.9228,39.11574012808947
2636.1914,43.12923508504477
2637.4593,45.437602158183665
2638.7265,38.490785684742804
2639.9931,38.48872954758292
2641.259,37.73137724465684
2642.5242,38.2686718890302
2643.7887,41.90055621645496
2645.0525,36.22697257999647
2646.3156,37.84786291371472
2647.5781,38.913168789399975
2648.8398,38.9728314003641
2650.1009,43.676791550787215
2651.3613,39.12498965512114
2652.6211,37.16736569104998
2653.8801,34.60385924500787
2655.1385,42.23440953175549
2656.3961,42.45895542001503
2657.6531,38.97743535616459
2658.9094,40.639787361992745
2660.1651,42.795949069513796
2661.42,42.64585770434434
2662.6743,42.38945006414144
2663.9279,42.82666252010378
2665.1808,47.10743101953548
2666.433,52.131691081474116
2667.6846,41.39937775388299
2668.9354,44.860425563408455
2670.1856,44.7147686227033
2671.4351,48.912340595816175
2672.6839,51.60307469964806
2673.9321,49.386903661976646
2675.1795,58.7137596945488
2676.4263,51.08357451524259
2677.6724,51.79627925479849
2678.9179,58.301804533121384
2680.1626,57.050080452153395
2681.4067,50.34103653081857
2682.6501,51.12460171754043
2683.8928,50.550704457332074
2685.1348,51.76927268396071
2686.3761,44.53023382568654
2687.6168,52.933514793077194
2688.8568,45.87904205139799
2690.0961,44.166741536579195
2691.3348,43.396538725760706
2692.5727,47.018358654415096
2693.81,44.08212592404968
2695.0466,44.83776466598829
2696.2826,42.885198570733564
2697.5178,48.724350880410725
2698.7524,44.40514440829304
2699.9863,49.32750148041035
2701.2195,50.19134397874106
2702.452,47.64659329198875
2703.6839,57.94317030694353
2704.9151,49.63099543392971
2706.1456,53.109988503840015
2707.3755,60.13006885125728
2708.6046,61.541155279664366
2709.8331,60.593165991243524
2711.0609,68.98601857276543
2712.2881,66.91963000506917
2713.5145,71.64391657913382
2714.7403,77.75879391674215
2715.9654,78.51417692323787
2717.1899,82.05997972637681
2718.4136,93.54611566877313
2719.6367,89.42249727244129
2720.8591,98.38903612393466
2722.0809,102.09564291558175
2723.3019,109.39222735582106
2724.5223,111.8786981321343
2725.7421,113.60496283808129
2726.9611,107.02092794843469
2728.1795,108.87649880191782
2729.3972,111.0715796670448
2730.6142,101.30607372356494
2731.8306,104.72988304051148
2733.0462,86.99290867385747
2734.2612,84.84505063227684
2735.4756,77.98620805451458
2736.6892,65.9162792308654
2737.9022,62.785161671761955
2739.1145,60.09275222847424
2740.3262,57.53894712442059
2741.5372,54.42364198209211
2742.7475,49.846731848590395
2743.9571,40.85811122678072
2745.1661,34.45767412106119
2746.3744,33.89531412724887
2747.582,29.970924496584104
2748.7889,31.53439814135433
2749.9952,25.93562767413775
2751.2008,22.374505392168686
2752.4057,19.400923333325096
2753.61,21.014773311740015
2754.8136,19.465946947537276
2756.0165,19.154335650693127
2757.2188,13.429830636524343
2758.4204,15.942322928804543
2759.6213,13.841703417008944
2760.8215,15.02786283118968
2762.0211,17.550691762981927
2763.22,13.960080653742267
2764.4182,14.0059197693204
2765.6158,7.238099235965393
2766.8127,9.756509039867097
2768.009,4.4610390948343195
2769.2045,8.60157921711081
2770.3994,7.128019178330021
2771.5936,3.390248664109606
2772.7872,2.538157288787204
2773.9801,-5.278365367201985
2775.1723,-0.6594297488042287
2776.3639,-2.3050935700960338
2777.5548,-2.6654079574508103
2778.745,-2.0404010093573106
2779.9346,-3.8800741968788657
2781.1235,-3.9344086074729603
2782.3117,-9.853346566655745
2783.4992,-2.086791095201619
2784.6861,-6.734546778952591
2785.8723,-5.596397356707598
2787.0579,-6.42205928914359
2788.2428,-6.511193128927886
2789.427,-1.1133952723556888
2790.6106,0.2718029310969996
2791.7935,-2.005118745227122
2792.9757,7.406319469296733
2794.1573,0.7566173764295456
2795.3382,7.9962747038691475
2796.5184,8.325791171747369
2797.698,13.895666420233425
2798.8769,10.50640000623872
2800.0551,15.858491347718086
2801.2327,21.95243975756236
2802.4096,27.938744390077574
2803.5859,29.91790418004564
2804.7615,36.89041778286111
2805.9364,44.106783554739565
2807.1106,48.41749948299241
2808.2842,55.17306311386318
2809.4572,64.22397150942061
2810.6294,74.32072118000266
2811.801,95.06380799370794
2812.972,103.70372707542771
2814.1423,116.94097259941549
2815.3119,138.3760377028875
2816.4808,160.95941435365017
2817.6491,172.0915931357498
2818.8167,189.1730630236386
2819.9837,209.90431127085282
2821.15,237.28582323919844
2822.3157,261.61808219143836
2823.4807,294.60156901747735
2824.645,309.58676199103945
2825.8086,338.32413643983324
2826.9716,353.5141645956996
2828.134,383.8073153072383
2829.2957,407.1540538879075
2830.4567,415.9048418130925
2831.617,427.91013648663784
2832.7767,430.7203911533398
2833.9358,426.0360547788933
2835.0941,422.1575720217894
2836.2519,422.3853832801588
2837.4089,401.06992473055664
2838.5653,394.3116283256842
2839.7211,389.06092200754375
2840.8761,384.6182297750216
2842.0306,391.43397173639426
2843.1843,393.9085641537569
2844.3374,405.74241937486465
2845.4899,423.2359458083871
2846.6417,438.28954780557
2847.7928,459.50362548529944
2848.9433,477.0785745835664
2850.0931,501.6647862413258
2851.2422,524.5126468287464
2852.3907,554.4725376993495
2853.5385,554.1448349615298
2854.6857,590.9299091789569
2855.8323,605.478125373852
2856.9781,629.9898426591376
2858.1233,644.9154140929545
2859.2679,668.955186433546
2860.4118,693.3094999900012
2861.555,708.3286883818568
2862.6976,718.4630782955553
2863.8395,745.6629893342522
2864.9808,760.1787339164721
2866.1214,768.86061700411
2867.2614,773.408935957274
2868.4007,778.423980447466
2869.5393,789.5560324120981
2870.6773,790.1053660043441
2871.8146,793.9722474818158
2872.9513,791.5569352010731
2874.0874,787.7596795789525
2875.2227,781.6807231167214
2876.3574,768.1703004380515
2877.4915,759.6786383498063
2878.6249,758.355955977147
2879.7577,747.7024648484486
2880.8898,728.1683689085263
2882.0212,726.553864625171
2883.152,719.8091411844902
2884.2821,722.8343805070526
2885.4116,718.1797573153361
2886.5405,725.5954391034745
2887.6686,714.8315861838041
2888.7962,722.888351612707
2889.923,729.1658812982495
2891.0493,732.8143139196145
2892.1748,736.2837808643262
2893.2997,740.9244061917659
2894.424,747.4363065984771
2895.5476,748.869591371759
2896.6706,761.1243623245482
2897.7929,766.0007137810852
2898.9145,782.7987324543674
2900.0355,797.5184973973845
2901.1559,803.4100798351394
2902.2756,812.5735430174504
2903.3946,828.1589421600346
2904.513,833.5663243528738
2905.6308,838.9957284043616
2906.7479,850.4971847872271
2907.8643,863.4707155842434
2908.9801,871.4663343732109
2910.0953,869.234046097224
2911.2098,878.7738469847125
2912.3236,866.535724571767
2913.4368,850.3696576067391
2914.5494,854.8756161726233
2915.6613,842.0535618487177
2916.7725,826.9534476655649
2917.8831,814.6752182331711
2918.9931,798.9688098920092
2920.1024,806.0341508357989
2921.211,779.4211612685724
2922.319,781.2797533340206
2923.4264,771.4098313816226
2924.5331,777.9112919480601
2925.6391,773.6840238559171
2926.7445,771.5779081486638
2927.8493,767.3428181329311
2928.9534,776.228619399571
2930.0569,785.3351698660072
2931.1597,785.6123196873775
2932.2619,792.109911165468
2933.3634,798.9277787459421
2934.4643,797.2157489533637
2935.5645,788.773640323019
2936.6641,789.5512634180375
2937.763,775.6984209138113
2938.8613,758.664907590221
2939.959,746.1505104701625
2941.056,726.2050089898835
2942.1523,702.8781751241258
2943.248,666.8697735855824
2944.3431,631.5795620581641
2945.4375,589.4572915570839
2946.5313,552.4527067817594
2947.6244,516.4655465370358
2948.7169,468.44554410323076
2949.8087,440.1924275960069
2950.8999,407.9059204465713
2951.9904,380.48574168420754
2953.0803,347.5816062591394
2954.1696,327.34322531673376
2955.2582,308.5203065265417
2956.3462,290.9625542846818
2957.4335,273.56966990207025
2958.5202,256.69135177999726
2959.6062,252.77729558405667
2960.6916,240.02719441292882
2961.7764,230.3907388375214
2962.8605,230.7676170284701
2963.9439,225.70751485250338
2965.0267,223.46011586867368
2966.1089,221.57510137895832
2967.1905,225.90215045073364
2968.2714,226.19093993562518
2969.3516,230.091144426237
2970.4312,224.9524362532639
2971.5102,232.0744854464895
2972.5885,236.05695978617285
2973.6662,231.84952473182864
2974.7432,236.15184338240167
2975.8196,241.76357651834152
2976.8954,233.8343825585796
2977.9705,233.5139175044113
2979.045,227.70183501878842
2980.1188,224.04778642952368
2981.192,231.3514207874115
2982.2645,221.31238490276866
2983.3364,210.1303232723974
2984.4077,203.80487817997658
2985.4783,193.3856898078816
2986.5483,175.12239630043914
2987.6177,168.9146338681191
2988.6864,160.46203697016753
2989.7545,147.01423837668415
2990.8219,134.02086925314833
2991.8887,120.13155929489724
2992.9548,109.04593685705922
2994.0204,96.81362909344733
2995.0852,86.7842620674152
2996.1495,75.20746087418038
2997.2131,65.53284974111784
2998.276,53.31005214352794
2999.3383,51.58869090138242
3000.4,43.51838830155276
3001.4611,31.598766115023523
3002.5215,32.92944567759554
3003.5812,24.11004800908202
3004.6404,20.840193800001828
3005.6989,15.069503499773333
3006.7567,18.597597349413064
3007.8139,7.274095439242558
3008.8705,8.348617673607407
3009.9264,4.070783884112416
3010.9818,3.1402138188762763
3012.0364,-1.2934728146901477
3013.0905,-1.1806563405778832
3014.1439,1.5282958390153567
3015.1966,-1.966971883351448
3016.2487,-4.016815130402165
3017.3002,-3.221569874811564
3018.3511,0.768468038728713
3019.4013,-3.8969650509899054
3020.4509,-5.8681328128606935
3021.4998,-5.395259985096089
3022.5481,-3.5285126832617664
3023.5958,-1.9180031242764812
3024.6428,-4.163808275217207
3025.6892,-3.515985942309925
3026.735,-0.6745523353359033
3027.7802,0.41051146062304156
3028.8247,3.0392310992629064
3029.8685,4.911632230174661
3030.9118,7.227740472556974
3031.9544,5.087581396492254
3032.9963,12.591180499785509
3034.0376,9.538563229366105
3035.0783,8.379754906251605
3036.1184,13.414780756073952
3037.1578,14.943665920667598
3038.1966,16.316435407719297
3039.2348,14.53311407547902
3040.2723,20.943726619032475
3041.3092,23.99829758813425
3042.3455,19.346851323101788
3043.3811,21.48941192426952
3044.4161,22.826003298503508
3045.4505,28.30664913777575
3046.4842,23.331372905798133
3047.5173,24.25019778321601
3048.5498,27.113146717360962
3049.5816,27.5702424130627
3050.6128,28.871507304019545
3051.6434,28.366963548227375
3052.6734,30.206633014967153
3053.7027,30.6405372898501
3054.7314,32.31869765642139
3055.7594,29.54113509182055
3056.7868,31.057870250000505
3057.8136,27.56892348950275
3058.8398,32.574314858290535
3059.8653,30.874064128637954
3060.8902,29.71819074707612
3061.9145,32.05671385139556
3062.9381,29.989652282204943
3063.9612,34.167024559545965
3064.9835,28.638848903563797
3066.0053,32.20514319273339
3067.0264,30.81592501914139
3068.0469,32.97121165282303
3069.0668,35.42102005565431
3070.086,29.76536685979916
3071.1046,25.704268343211382
3072.1226,26.637740486191234
3073.1399,29.015799011996293
3074.1567,28.388459377506734
3075.1727,20.50573674944485
3076.1882,21.667646010648355
3077.203,23.374201838897605
3078.2173,21.425418695296557
3079.2308,12.971310807207232
3080.2438,17.91189218773745
3081.2561,15.047176720281968
3082.2678,11.27717810911669
3083.2789,12.601909908045727
3084.2893,14.571385558101483
3085.2991,12.685618374297249
3086.3083,9.59462152593251
3087.3169,10.348408055450648
3088.3248,4.596990909348847
3089.3321,7.490382930640195
3090.3388,4.528596916367917
3091.3449,6.161645588671448
3092.3503,3.3895416244043304
3093.3551,3.962297638803733
3094.3593,4.029926213211439
3095.3629,4.442439889346318
3096.3658,0.5498511686280096
3097.3681,3.3021725080517967
3098.3698,5.199416359114508
3099.3708,3.691595140291227
3100.3713,2.4287212180629894
3101.3711,-0.9891930780051723
3102.3702,2.0378645573646423
3103.3688,0.7599163114891354
3104.3667,0.6769843513064586
3105.364,-0.660909163844444
3106.3607,3.296257918605619
3107.3568,3.798514353708299
3108.3522,0.5458888635527757
3109.347,5.888410132243024
3110.3412,3.3761068384241995
3111.3348,2.659007601857354
3112.3277,0.6371410085425495
3113.32,-0.23946438211016385
3114.3117,3.929219982937866
3115.3028,3.0932250489744533
3116.2932,2.802581721995253
3117.2831,2.7073208770636725
3118.2723,2.957473361217353
3119.2608,-1.0969300055792601
3120.2488,4.944141567063568
3121.2361,2.9307298278663083
3122.2229,3.562876476108066
3123.209,2.090623181760691
3124.1944,2.0640115791672713
3125.1793,3.233083281764692
3126.1635,4.997879882349764
3127.1471,0.008442941388452141
3128.1301,2.2148139693680093
3129.1125,4.067034392430664
3130.0942,5.965145614570581
3131.0753,3.4091889991115636
3132.0558,3.999205849725982
3133.0357,4.585237435994365
3134.015,2.517324987505205
3134.9936,3.6455096879946467
3135.9716,4.169832696025651
3136.949,6.940335133706064
3137.9258,5.75705808144545
3138.902,9.270042550249997
3139.8775,6.829329493555349
3140.8524,3.884959772096714
3141.8267,5.786974178316079
3142.8004,10.585413465805829
3143.7735,7.730318330288625
3144.7459,7.821729361633025
3145.7178,5.859687072404412
3146.689,4.794231896950905
3147.6596,7.025404211023755
3148.6295,11.90324434243189
3149.5989,7.677792548730203
3150.5676,9.999088968441171
3151.5357,11.517173663309336
3152.5032,8.08208659508836
3153.4701,11.143867610360154
3154.4364,8.002556474885793
3155.402,11.658192842987695
3156.367,10.210816288962715
3157.3315,12.760466270525825
3158.2952,11.357182143283808
3159.2584,10.851003135238816
3160.221,15.291968360821208
3161.1829,11.98011682595132
3162.1442,10.365487383629809
3163.105,14.398118767056197
3164.065,13.778049605775117
3165.0245,15.40531838535006
3165.9834,15.429963453564024
3166.9416,12.852023004146805
3167.8993,17.821535076528576
3168.8563,14.388537581619268
3169.8127,12.503068252113504
3170.7684,14.515164676820593
3171.7236,18.524864319519207
3172.6782,16.182204498836366
3173.6321,19.5872223481505
3174.5854,17.789954839017977
3175.5381,15.240438747122962
3176.4902,18.188710670250064
3177.4417,17.184807053779515
3178.3926,17.27876416120447
3179.3428,18.370618084170005
3180.2924,20.81040474153356
3181.2415,22.398159868446413
3182.1899,19.43391899195577
3183.1377,20.967717415127268
3184.0848,23.899590246687346
3185.0314,20.829572385685278
3185.9773,19.657698492174443
3186.9227,23.2340030179125
3187.8674,22.20852021808012
3188.8115,20.78128411551797
3189.755,21.0023285109815
3190.6979,23.621686997413335
3191.6402,26.889392957732817
3192.5818,23.70547953864243
3193.5229,25.16997961795071
3194.4633,22.782925836411422
3195.4031,24.79435058307852
3196.3423,24.854286019176705
3197.2809,27.86276405798717
3198.2189,28.51981636424826
3199.1563,26.77547432407067
3200.0931,28.579769038366944
3201.0292,24.53273134029489
3201.9648,25.534391777214612
3202.8997,26.18478065115891
3203.834,25.53392800881667
3204.7677,26.93186363502896
3205.7008,29.17861705929759
3206.6333,29.224217541805707
3207.5652,28.818694050950306
3208.4964,28.912075262886205
3209.4271,32.80438956558127
3210.3571,29.345665057882613
3211.2865,34.13592951059346
3212.2154,30.42521040106039
3213.1436,29.61353486527066
3214.0712,31.500929734959442
3214.9982,33.13742154572655
3215.9246,32.77303651816251
3216.8503,32.407800541483624
3217.7755,31.3417391771758
3218.7001,33.02487766264697
3219.624,30.807240921887647
3220.5473,36.138853548639574
3221.4701,34.569739828572075
3222.3922,32.89992368596593
3223.3137,33.97942869940454
3224.2346,35.458278118472016
3225.1549,36.93649485295823
3226.0746,36.91410145807024
3226.9937,35.141120119650154
3227.9121,35.11757265439905
3228.83,36.04348052760681
3229.7473,36.318864853387595
3230.6639,37.593746385420744
3231.5799,39.56814551419694
3232.4954,37.79208225426942
3233.4102,38.41557622450991
3234.3244,37.43864666586937
3235.238,36.66131243514294
3236.151,37.18359201473931
3237.0634,42.25550352045403
3237.9752,41.127064696246734
3238.8864,38.79829286352201
3239.797,40.91920493241378
3240.7069,41.38981742507305
3241.6163,42.51014645445876
3242.5251,44.530207719631655
3243.4332,40.750016494551005
3244.3408,42.96958760787398
3245.2477,44.588935480757584
3246.154,41.70807410466293
3247.0598,42.777017025161754
3247.9649,40.89577737074508
3248.8694,45.164367842133714
3249.7733,41.48280073109068
3250.6766,42.70108787773529
3251.5793,43.91924070735886
3252.4814,45.2872702182418
3253.3829,47.05518696947212
3254.2838,44.37300106726509
3255.1841,47.79072214728414
3256.0838,47.10835940146263
3256.9829,48.225921543826715
3257.8814,48.34341681731893
3258.7792,48.66085298262259
3259.6765,46.6282373169868
3260.5731,45.745576611052115
3261.4692,44.5128771891767
3262.3647,49.78014491826295
3263.2595,46.247385220084446
3264.1538,48.214603018613325
3265.0474,50.43180277534785
3265.9404,47.34898846964022
3266.8329,47.86616357652462
3267.7247,47.98333109754531
3268.616,52.000493555584924
3269.5066,52.71765299369274
3270.3966,49.48481093491306
3271.286,50.10196837511371
