RamanShift,CorrectedData
30.1047,503.4085446289632
32.3739,467.4453684764104
34.6426,431.382187289772
36.9109,392.26899136050895
39.1787,355.9557666662602
41.4461,319.7924952619746
43.7131,279.77915564304334
45.9796,245.7157231069324
48.2456,207.80217015331596
50.5112,171.03846682471078
52.7764,133.62458108561202
55.0411,99.21047919012992
57.3054,60.74612605612896
59.5692,23.231485609368754
61.8326,-11.58347883185234
64.0955,-40.74880418155084
66.3579,-76.6144116347898
68.6199,-107.87981530607853
70.8815,-130.3937639319541
73.1426,-127.20392852959898
75.4032,-68.10667748249386
77.6634,141.65289159312624
79.9231,695.7803614667343
82.1824,1846.8313134912746
84.4412,3848.811322061888
86.6995,6498.825943105402
88.9574,8965.980694060532
91.2148,10649.981027377733
93.4717,11451.982305847654
95.7282,11610.339785761134
97.9842,11535.908608889189
100.2398,11320.443800899437
102.4949,11050.45027210041
104.7495,10862.082819596206
107.0036,10613.096129986414
109.2573,10405.4447812498
111.5105,10136.533245234172
113.7632,9770.115889732879
116.0154,9401.996981173952
118.2672,9034.08068828425
120.5185,8575.771085770673
122.7693,8127.222157999311
125.0197,7711.487803578544
127.2696,7358.02183984453
129.519,7093.728007018551
131.7679,6886.259971741671
134.0163,6737.221329717677
136.2642,6646.465607787753
138.5117,6583.796265420873
140.7587,6481.516695621355
143.0052,6351.130225555554
145.2512,6146.290117574658
147.4967,5886.099570518556
149.7417,5626.211721764233
151.9863,5412.229649827679
154.2304,5263.5563769627715
156.4739,5185.844871301088
158.717,5184.548048338645
160.9596,5226.21877171301
163.2017,5324.009853216274
165.4433,5391.27405237834
167.6844,5406.714075489014
169.925,5299.63257492536
172.1651,5082.732148997306
174.4047,4849.015343018452
176.6439,4612.784651475078
178.8825,4450.742520363312
181.1206,4326.691349551438
183.3582,4207.633494400313
185.5954,4130.171267003884
187.832,4062.8069373797653
190.0681,4066.8927342438583
192.3037,4049.0808456839986
194.5388,4009.1734191190944
196.7734,3991.4725614772474
199.0075,4003.680339594827
201.2411,4041.0487803934766
203.4742,4080.72987075804
205.7068,4161.22555716287
207.9389,4222.987745275026
210.1704,4264.918299149313
212.4015,4257.469040610655
214.632,4244.091748834804
216.862,4213.038160422815
219.0915,4208.259969534833
221.3205,4258.508828200616
223.549,4270.036346367335
225.777,4249.844091397063
228.0044,4213.68358795152
230.2314,4159.506318193983
232.4578,4092.263722150894
234.6837,4011.3571982536337
236.909,3895.8381040109452
239.1339,3816.3077568180024
241.3582,3745.817435111598
243.582,3692.6683791654496
245.8053,3694.361791795098
248.0281,3679.1488388894063
250.2503,3660.1306493936177
252.472,3665.8083154614887
254.6932,3676.78289264547
256.9139,3642.105399839932
259.134,3635.9268191714145
261.3536,3683.1480963454082
263.5727,3783.570140708136
265.7912,3899.4938247743416
268.0092,4096.719983223067
270.2267,4326.849411738422
272.4436,4529.182865037318
274.6601,4650.421054568173
276.8759,4707.1146464875765
279.0913,4781.314260447914
281.3061,4829.7204690304225
283.5204,4922.233797003198
285.7341,4989.454720837133
287.9473,5079.933667780784
290.16,5063.421015188165
292.3721,4906.967089613949
294.5837,4648.072166978609
296.7947,4430.186474132947
299.0052,4339.210191447044
301.2152,4204.943454989115
303.4246,4151.63635743528
305.6334,4112.6389494122195
307.8418,4080.30124003026
310.0495,3983.3231972733315
312.2568,3854.704748322358
314.4635,3642.245780525032
316.6696,3414.7461426819996
318.8752,3204.655647171453
321.0802,3061.0240722241256
323.2847,2966.001164024194
325.4887,2936.4866381456004
327.692,2963.4301805022733
329.8949,3094.831447643276
332.0972,3282.040066483372
334.2989,3460.505632989007
336.5001,3536.3777103062284
338.7007,3424.805826976028
340.9008,3222.9894761756254
343.1003,2935.428116834182
345.2992,2674.2211756509682
347.4976,2439.2680499709722
349.6955,2247.8681103969743
351.8927,2158.0707031390743
354.0895,2056.225151928696
356.2856,1992.130758916558
358.4812,1926.0868056911263
360.6763,1891.9425539195613
362.8707,1841.0972460081575
365.0646,1800.5501054437832
367.258,1790.6503373023388
369.4508,1838.447128654224
371.643,1925.439648663339
373.8346,2032.6770481091116
376.0257,2166.258458516574
378.2162,2302.2329910839903
380.4062,2403.599735347041
382.5956,2344.957757819081
384.7844,2217.3061009774647
386.9726,1974.9437838499707
389.1603,1805.7698032913204
391.3474,1682.9331364067984
393.5339,1642.7827422439968
395.7199,1648.817563021179
397.9052,1714.2865245287821
400.09,1852.9885360690678
402.2743,2067.6224898014343
404.4579,2227.5872593554013
406.641,2354.43169768426
408.8235,2484.154635465432
411.0054,2671.054879832028
413.1868,2736.1312130756087
415.3675,2767.4323907771923
417.5477,2736.057141156487
419.7273,2643.4041647588774
421.9064,2539.222134769183
424.0848,2337.0096979381788
426.2627,2064.4154756244216
428.4399,1794.5380658163704
430.6166,1541.0260458583307
432.7928,1323.6279751492293
434.9683,1168.8923976777296
437.1432,1065.0678441962218
439.3176,977.2028337681722
441.4914,888.2458748063682
443.6645,859.6454659515721
445.8371,834.9500969620894
448.0091,827.7082489997729
450.1806,823.7683948769745
452.3514,790.6289991289696
454.5216,788.3385180533496
456.6913,798.5954000414231
458.8603,829.3980856011121
461.0288,839.5950072543937
463.1967,819.7845892292607
465.3639,817.8152473577629
467.5306,795.935389274101
469.6967,729.7434144343297
471.8622,698.1877143351494
474.0271,712.3666731758294
476.1914,681.4286681737658
478.3551,665.9720694226917
480.5182,648.345240202053
482.6807,656.2465371315793
484.8426,698.8743103475481
487.0039,840.8769034237748
489.1647,1062.8026529453336
491.3248,1317.8998870885307
493.4843,1385.416923401648
495.6432,1351.1520662539724
497.8015,1227.9536061606213
499.9592,1077.6198201251918
502.1163,831.0989728717414
504.2728,642.5393183481374
506.4287,510.78910219125464
508.5839,428.3965636125786
510.7386,401.20993671570614
512.8927,388.02745132026394
515.0461,388.79733323378787
517.199,454.7178043835338
519.3512,598.3870828087902
521.5029,870.0533820016735
523.6539,1202.6649094704298
525.8043,1318.2698640227763
527.9541,1164.21643243978
530.1033,845.6027883198121
532.2519,587.2270936190835
534.3999,431.0375018377754
536.5472,386.2321606038031
538.694,366.00921323470357
540.8401,414.4667991856959
542.9856,486.90305425190945
545.1305,553.516110083805
547.2748,635.2540934628187
549.4185,674.7151256352245
551.5615,675.8973214947591
553.704,722.948789188008
555.8458,823.3676301025844
557.987,897.351938396615
560.1276,1014.3997999945541
562.2675,1293.1092918473314
564.4069,1673.428480761887
566.5456,1942.6554206140636
568.6837,1913.888148545423
570.8212,1532.0746822709789
572.958,1085.563020366857
575.0942,746.2511460884489
577.2299,559.9870318355088
579.3648,463.6686425452899
581.4992,409.6439375551736
583.6329,447.21087156585236
585.766,557.9673951815848
587.8985,712.9614545345221
590.0304,926.4909901771398
592.1616,1156.3539355323055
594.2922,1272.848214757978
596.4222,1196.7217404485764
598.5515,967.3724124700402
600.6802,698.2981187210944
602.8083,453.3967374267422
604.9358,339.71613982900453
607.0626,313.8041926359365
609.1888,342.00875915843517
611.3144,394.627699569357
613.4393,542.7588706214756
615.5636,791.8501251212901
617.6873,1041.399310447714
619.8103,1208.1542660611622
621.9327,1275.3628210080606
624.0544,1215.5727922532942
626.1756,976.1319840081178
628.2961,655.4381883280621
630.4159,499.5391875073392
632.5351,434.43275728578647
634.6537,431.6166684078471
636.7716,423.28868727363715
638.8889,390.89657596711095
641.0056,434.18809233933644
643.1216,493.5109903324128
645.237,576.0630195465592
647.3518,516.8419246468893
649.4659,394.7454445378871
651.5793,264.82131295561885
653.6922,219.31725968869887
655.8043,148.73101187752673
657.9159,89.61029446933571
660.0268,47.60283092404825
662.137,42.806343805484175
664.2466,83.21855520143708
666.3556,91.68718677163952
668.4639,43.509959343640276
670.5716,22.53459282811673
672.6786,-1.4411932993489245
674.785,-19.119679788518624
676.8907,-41.1531329916329
678.9958,-39.29362825533326
681.1002,-27.39282980646385
683.204,-14.902009328528948
685.3072,-7.922164850665013
687.4097,-19.404145530938422
689.5115,-11.148721384991859
691.6127,-13.806468581058198
693.7132,-17.427851911648304
695.8131,-36.11319824265274
697.9123,-17.062660335721375
700.0109,-6.376030181656915
702.1089,49.79707068471134
704.2061,109.3570844250944
706.3028,219.95445270323535
708.3987,338.3896160893073
710.4941,429.11301295394105
712.5887,468.5250782838707
714.6827,447.2762427746993
716.7761,410.5169324367853
718.8688,376.647568807718
720.9608,362.2685693199237
723.0522,392.48034763935175
725.1429,479.68331380927066
727.233,584.6278739481486
729.3224,825.9644293776191
731.4112,1119.3433755730443
733.4993,1288.2650997501405
735.5867,1188.2799779311972
737.6735,859.9883732558519
739.7596,535.940636980943
741.845,324.08711176342786
743.9298,235.37813490086
746.014,181.71404044992232
748.0974,216.29516011351916
750.1802,209.27182377741565
752.2624,223.39435916442653
754.3439,207.41309190465063
756.4247,219.62834539424603
758.5048,274.79044095523886
760.5843,370.7996977133753
762.6631,486.2064320464965
764.7413,705.8109566244502
766.8188,1060.66357925502
768.8956,1466.214600687882
770.9718,1812.8143110660762
773.0473,1837.2129858705007
775.1221,1685.2608824539125
777.1962,1542.6082397969412
779.2697,1714.0052800276108
781.3426,2186.002209847863
783.4147,2636.89921881959
785.4862,2795.5464746446605
787.557,2490.0941186559535
789.6271,1964.5422642308854
791.6966,1337.0409998459304
793.7654,827.0903943321446
795.8335,528.4405031501724
797.901,343.74137348975455
799.9678,268.7430472562278
802.0339,273.5955629175173
804.0993,297.4989562541218
806.1641,313.0032603105851
808.2282,277.80850515646216
810.2916,203.06471773127532
812.3544,125.52192219646395
814.4164,77.98014068282191
816.4778,94.73939406592308
818.5385,134.74970244154383
820.5986,270.71108495806857
822.658,495.07355941638525
824.7166,783.9871409102734
826.7747,1149.1018395827787
828.832,1497.9676577370778
830.8886,1804.9845861853314
832.9446,1983.2026007600261
834.9999,2002.3216592438012
837.0545,1750.0916995872717
839.1085,1383.4126397178388
841.1618,975.7343800619828
843.2143,701.3568072120638
845.2662,520.3297980030989
847.3175,425.00322225653554
849.368,370.0769445905262
851.4179,346.8008253731914
853.467,336.1247212718845
855.5155,387.69848548595064
857.5633,405.62196785348806
859.6105,420.79501433561563
861.6569,390.7674668372324
863.7027,336.2391630552884
865.7478,248.9599367790588
867.7922,207.77961843542607
869.8359,164.04803596167767
871.8789,128.31501521730388
873.9212,125.93038042131593
875.9629,143.74395450957581
878.0039,194.40555915864343
880.0441,263.7150146076383
882.0837,357.17213915162984
884.1226,439.2267484485392
886.1609,584.2786545845684
888.1984,806.8776652536558
890.2352,1052.023582306952
892.2714,1165.6161995268349
894.3069,1126.1553001754482
896.3416,899.0906558587785
898.3757,674.3720269212563
900.4091,514.8991647164116
902.4418,519.1718138540564
904.4739,600.9397137950123
906.5052,737.5525988083841
908.5358,808.1101971538824
910.5658,744.4622297156893
912.595,616.0584092968884
914.6236,449.24844125593927
916.6515,292.1820247907208
918.6786,200.90885460662503
920.7051,164.6286224872265
922.7309,147.7410182070107
924.756,146.34572989417939
926.7804,195.24244419952538
928.8041,242.2808463103861
930.8272,339.3606194616759
932.8495,391.4314444655033
934.8711,441.2929987403718
936.892,441.2449557904706
938.9123,540.036984707062
940.9318,670.2187501689582
942.9506,769.7899114546053
944.9688,810.0001211402619
946.9862,715.0990241042864
949.003,590.4362571250381
951.019,471.5114498298881
953.0344,399.1242259418459
955.0491,326.9242044688076
957.063,268.4110004274289
959.0763,270.4342255651254
961.0888,246.59348894520326
963.1007,275.23839692662887
965.1119,239.91855340243364
967.1223,197.83355951326394
969.1321,170.33301400058417
971.1412,147.91651362752236
973.1495,147.53365345387647
975.1572,145.98402706028355
977.1641,176.66722655204376
979.1704,186.73284257461728
981.1759,187.58046400679223
983.1808,170.8596778600281
985.1849,119.2700692699841
987.1884,92.26122166372306
989.1911,119.73271727560905
991.1932,159.13413741739532
993.1945,201.01506220350984
995.1951,230.0750701570405
997.1951,212.76373779092683
999.1943,186.7806393173587
1001.1928,192.82534682089
1003.1906,222.99743051826954
1005.1877,329.09645869799215
1007.1841,464.22199741858185
1009.1798,591.2736094475995
1011.1748,585.2508529103861
1013.1691,499.45328001954977
1015.1627,348.38043713518937
1017.1556,200.78186562287328
1019.1477,107.65710336436769
1021.1392,50.90568623362151
1023.1299,7.027149028014719
1025.12,-4.778973964130728
1027.1093,34.686851475239564
1029.0979,110.92420730612639
1031.0859,218.2326751416649
1033.0731,318.56183548574927
1035.0596,322.3112666599468
1037.0454,323.4805438002095
1039.0304,285.11923881937946
1041.0148,196.5269203954922
1042.9985,115.15315435539333
1044.9814,47.9975045606584
1046.9636,5.859533721334628
1048.9452,26.088804067496767
1050.926,99.93487777062319
1052.9061,184.19731674130708
1054.8855,264.1256818907955
1056.8642,281.9695322883631
1058.8421,288.82842436202736
1060.8194,264.90191172011237
1062.7959,264.13954508266124
1064.7717,249.84087252070003
1066.7469,228.90543946385924
1068.7213,251.3827888433625
1070.695,301.8724613013792
1072.6679,388.1239949662495
1074.6402,525.6869249475913
1076.6117,633.4607824737841
1078.5826,622.8450935163387
1080.5527,455.78937771216124
1082.5221,293.09314846970574
1084.4908,169.65591463953479
1086.4587,56.9771821412819
1088.426,2.756455198020376
1090.3925,-25.756762536947463
1092.3584,-5.362967437882162
1094.3235,48.48760143101072
1096.2879,115.04475858157139
1098.2515,225.85831804076315
1100.2145,333.37809268510637
1102.1767,463.4538931325387
1104.1382,623.9355266672187
1106.099,870.5727959387677
1108.0591,1110.3154973574542
1110.0185,1319.963418627819
1111.9771,1483.8663363512487
1113.9351,1663.1740139294952
1115.8923,1986.8861999256515
1117.8488,2265.8526262710684
1119.8045,2239.8730050282365
1121.7596,1891.8470256011233
1123.7139,1357.2743549949682
1125.6675,965.3546412965429
1127.6204,861.2375190198741
1129.5726,927.7726130254468
1131.524,1026.5595395613695
1133.4748,928.4479055980269
1135.4248,671.3373078402115
1137.3741,419.827333708236
1139.3226,248.8175639090441
1141.2705,192.85757495130565
1143.2176,225.44694085551646
1145.164,287.83523371360025
1147.1097,350.8720233630165
1149.0546,308.0568767628697
1150.9989,184.3893573635496
1152.9424,72.56902553487635
1154.8852,-13.854560197219598
1156.8272,-48.58184203249675
1158.7686,-51.81312376365804
1160.7092,-66.74822385080506
1162.6491,-48.93644314093581
1164.5883,-5.726415666291814
1166.5267,55.28371341594993
1168.4644,137.54585615550513
1170.4014,274.96192404925296
1172.3377,430.383827218614
1174.2732,628.163473035394
1176.2081,933.6027645675608
1178.1421,1415.5535986014497
1180.0755,2020.9678625873667
1182.0082,2540.7474298200855
1183.9401,2742.794153384699
1185.8713,2445.109860958825
1187.8017,1889.0963527921417
1189.7315,1286.3554046832342
1191.6605,855.6887735397186
1193.5888,587.6982034056632
1195.5163,414.03542976824747
1197.4432,291.6521822376694
1199.3693,211.2001862837733
1201.2947,146.6311644598818
1203.2193,80.246837207319
1205.1432,59.048923501098216
1207.0664,40.239141513765844
1208.9889,31.919208827377588
1210.9106,55.190842621602314
1212.8316,57.40575975691718
1214.7519,98.96567654189403
1216.6715,139.02230871104666
1218.5903,213.42737100923478
1220.5084,258.33257679109465
1222.4257,323.3896372769891
1224.3424,363.2002611039584
1226.2583,426.21615367514687
1228.1735,549.8890167616978
1230.0879,697.5705478725931
1232.0016,866.5124390179253
1233.9146,1024.066375232083
1235.8269,1132.03403288433
1237.7384,1173.7670781032703
1239.6492,1146.867165697166
1241.5592,1166.8859387366115
1243.4686,1289.72502882353
1245.3772,1583.6360558909896
1247.285,1953.2206269748062
1249.1922,2336.7303332744386
1251.0986,2646.26674645714
1253.0042,2935.6314148228585
1254.9092,3309.7758602088816
1256.8134,3722.40157509618
1258.7169,4217.560018867969
1260.6196,4674.602613683446
1262.5216,4993.330739526211
1264.4229,5122.345729633841
1266.3234,5041.448867310608
1268.2232,4825.691384637323
1270.1223,4509.774463280313
1272.0207,4244.599236648995
1273.9183,4125.166793055039
1275.8151,4078.278178364125
1277.7113,4154.334397190265
1279.6067,4423.836413364692
1281.5014,4954.785149175295
1283.3953,5781.881482671604
1285.2885,6776.426242355292
1287.181,7721.220198909224
1289.0727,8297.814055252
1290.9637,8224.858437090023
1292.854,7730.35388715155
1294.7435,7006.550865916259
1296.6323,6329.44975656029
1298.5204,5688.400872194271
1300.4077,5214.6544626343375
1302.2943,4886.01072081262
1304.1802,4679.119787514703
1306.0653,4456.681754666064
1307.9497,4286.296667400985
1309.8333,4174.9645262869335
1311.7162,4071.285289028414
1313.5984,3967.4588715802815
1315.4798,3887.535149184544
1317.3605,3899.8139574086226
1319.2405,3986.0950929445876
1321.1197,4080.4783134863737
1322.9982,4060.713336866965
1324.876,3901.5998401145625
1326.753,3575.3374596502345
1328.6293,3149.3757928790546
1330.5048,2677.914401452722
1332.3796,2215.202815529179
1334.2537,1817.290538487226
1336.127,1565.027051553635
1337.9996,1397.0118177822746
1339.8714,1268.544284576743
1341.7426,1160.1738853705197
1343.6129,1085.0000409116415
1345.4826,1001.3721603464078
1347.3515,936.2896419711192
1349.2196,859.2518740683563
1351.087,794.2582355578033
1352.9537,766.6580967666268
1354.8197,776.5008200794136
1356.6849,820.9857602141683
1358.5493,866.5622641238897
1360.4131,949.0296705517198
1362.276,1122.5873095751813
1364.1383,1312.4845017814987
1365.9998,1441.1205565320265
1367.8606,1462.444770063274
1369.7206,1422.4564242005458
1371.5799,1421.6547861446998
1373.4384,1440.739108872032
1375.2962,1366.008631142291
1377.1533,1175.562577307835
1379.0096,935.9001580609365
1380.8652,776.2205723382453
1382.7201,650.3730097174093
1384.5742,519.2566520138712
1386.4275,408.0706745393445
1388.2802,311.06424741297633
1390.132,248.23653667320787
1391.9832,207.6367052478381
1393.8336,193.56391358230348
1395.6832,170.9673200456723
1397.5322,141.94608107137583
1399.3803,119.29935138317205
1401.2278,83.32628428535781
1403.0745,37.37603188923822
1404.9204,-2.4022545271432136
1406.7656,-4.1094240595034535
1408.6101,-24.746301805036637
1410.4538,-30.613671807793708
1412.2968,-30.46207089626978
1414.139,-27.941730068382185
1415.9805,18.397423994042583
1417.8213,53.10574374706039
1419.6613,133.53358146275468
1421.5006,258.1312888821535
1423.3391,413.5492164109519
1425.1769,639.1877118735329
1427.0139,974.1971189587871
1428.8502,1405.8777749637302
1430.6858,1811.4300074434086
1432.5206,2007.6041298940895
1434.3547,2023.8504376977417
1436.188,1956.1692061602957
1438.0206,1890.9106903491756
1439.8524,1845.1251257701142
1441.6835,1822.6127290197396
1443.5139,1813.2236982434283
1445.3435,1832.008213360431
1447.1724,1866.7664361577627
1449.0005,1878.4985101023553
1450.8279,1845.804559993483
1452.6545,1847.284691845432
1454.4804,1828.4389932144472
1456.3056,1780.3175331839284
1458.13,1729.9703625528864
1459.9536,1627.3975143171588
1461.7766,1483.1490041728803
1463.5987,1327.2748315422118
1465.4202,1145.324981015825
1467.2409,969.6494239116437
1469.0608,826.4981200943425
1470.88,668.1210197321034
1472.6984,531.168064728126
1474.5161,395.83919030440256
1476.3331,334.43432637124533
1478.1493,264.50339888057533
1479.9648,264.49633043996937
1481.7795,241.2130410119721
1483.5935,256.3034479141638
1485.4067,261.06746605199623
1487.2192,281.4550077678855
1489.031,294.76598279357586
1490.842,310.30029804626247
1492.6522,319.60785749548086
1494.4618,317.18856200776554
1496.2705,310.3923092535724
1498.0785,314.1689937314727
1499.8858,293.61850683611647
1501.6924,269.9907368204658
1503.4981,251.13556900130015
1505.3032,246.45288599549121
1507.1075,213.3425679085558
1508.911,196.6544923814822
1510.7138,186.28853492183362
1512.5159,177.2945690706306
1514.3172,142.02246650600955
1516.1178,109.22209713316124
1517.9176,104.24332943705235
1519.7166,87.73603081042984
1521.515,70.55006760360811
1523.3126,39.485305289542794
1525.1094,44.99160863569091
1526.9055,31.168842014657457
1528.7008,9.516869349132094
1530.4954,5.435554250117093
1532.2893,5.724760233447341
1534.0824,-19.16564923939609
1535.8747,7.264189235820368
1537.6663,28.414330528166147
1539.4572,13.834829434067615
1541.2473,27.975740465809622
1543.0367,41.23711799732973
1544.8253,52.11901612280826
1546.6132,57.07148852405476
1548.4003,75.74458836168947
1550.1867,126.83836822561739
1551.9723,173.45287994829846
1553.7572,227.08817409380868
1555.5414,316.3442994916986
1557.3247,438.57130270063635
1559.1074,607.5192271158492
1560.8893,781.2881117468523
1562.6705,975.2779895279698
1564.4509,1164.9888855806457
1566.2305,1264.8208152735463
1568.0094,1308.7237823254493
1569.7876,1320.3477778069248
1571.565,1309.8427797013067
1573.3417,1327.8087527884518
1575.1176,1349.4456487497894
1576.8928,1417.353405988664
1578.6672,1525.2819494139644
1580.4409,1686.181189761046
1582.2138,1876.0010225124452
1583.986,2079.341326288889
1585.7575,2295.2019609510935
1587.5282,2525.732765566364
1589.2981,2699.7335562499866
1591.0673,2807.9541238599177
1592.8358,2870.744232256784
1594.6035,2878.803617221667
1596.3704,2825.8819858282113
1598.1366,2748.029016362023
1599.9021,2643.3443588498903
1601.6668,2511.927635838315
1603.4308,2398.778443440351
1605.194,2327.196352649781
1606.9564,2389.5309104726016
1608.7182,2576.4316406428457
1610.4791,2934.2980429992404
1612.2394,3453.5295916161954
1613.9988,4040.7757312251397
1615.7576,4602.885872022211
1617.5156,4949.459383795787
1619.2728,5022.095590305391
1621.0293,4787.29376581595
1622.785,4281.753134371439
1624.54,3655.6728721428935
1626.2942,3029.3021124838197
1628.0477,2437.689952190995
1629.8005,1975.635457768178
1631.5525,1600.1376713422258
1633.3037,1291.5456152836423
1635.0542,1084.3082959615576
1636.804,900.5247068296453
1638.553,754.9438304984956
1640.3013,662.4146405734539
1642.0488,564.7361031104276
1643.7955,494.90717754117713
1645.5416,448.82681765010375
1647.2868,396.5439722725364
1649.0313,369.7575857555371
1650.7751,350.8665984807285
1652.5181,329.8699471321588
1654.2604,319.66656488520925
1656.0019,341.25538161656436
1657.7427,383.43532400624304
1659.4828,459.5053153217116
1661.222,591.0142749960839
1662.9606,781.211117867422
1664.6984,1001.4947528636465
1666.4354,1158.9640811005656
1668.1717,1205.4179936790433
1669.9072,1080.3553701103017
1671.642,866.4250778513847
1673.3761,636.5759735557835
1675.1094,448.6569052127395
1676.8419,307.5167144457355
1678.5737,225.3042383916861
1680.3048,161.7183111123395
1682.0351,110.30776441640137
1683.7646,99.1714284953955
1685.4934,69.20813243776843
1687.2215,54.56670434025364
1688.9488,34.39597160750304
1690.6754,29.544761098502477
1692.4012,28.411899328279105
1694.1263,27.446212516413198
1695.8506,20.84652659836547
1697.5742,19.66166723513652
1699.297,16.54045987926088
1701.0191,5.081729786657888
1702.7404,5.084302047843494
1704.461,-6.1529982974832365
1706.1808,-15.83134626046558
1707.8999,-6.351855383793691
1709.6182,-5.365481055008786
1711.3358,-4.023115206618968
1713.0527,-5.875596169976461
1714.7688,-13.123722085513464
1716.4841,-7.818232396457233
1718.1987,-15.659735440051008
1719.9126,-8.048761449396807
1721.6257,-10.885684216841582
1723.338,-16.27079712760542
1725.0496,-11.604284818923588
1726.7605,-1.5861693827687304
1728.4706,-12.16635698430855
1730.18,1.7552620571195803
1731.8886,-3.4210810359156767
1733.5964,-1.1951550583983135
1735.3036,1.3333053712874516
1737.0099,0.41457757435568965
1738.7156,3.5489388586897803
1740.4204,6.286666528026672
1742.1246,0.7280378506159195
1743.8279,7.773330031842079
1745.5306,10.922820269807971
1747.2325,9.576785684883134
1748.9336,9.785503288208474
1750.634,9.899249995158243
1752.3336,18.918302623251293
1754.0325,17.942937891016072
1755.7307,12.323432327799082
1757.4281,32.360062283516754
1759.1247,25.85310398485285
1760.8206,18.30283333489092
1762.5158,31.85952597818391
1764.2102,23.473457376257784
1765.9039,32.444902672042645
1767.5968,35.22413677373402
1769.289,25.661434265078924
1770.9804,42.90706937758341
1772.6711,47.761316086140596
1774.361,40.474447936573256
1776.0502,40.59673799709094
1777.7386,47.47845893116016
1779.4263,48.0698829962804
1781.1132,56.02128197516686
1782.7994,57.132927169836535
1784.4849,67.90508932209411
1786.1696,49.63803860241478
1787.8535,60.43204450222379
1789.5367,53.98737601656546
1791.2192,57.60430153616403
1792.9009,61.133088911870914
1794.5818,61.37400541849422
1796.2621,66.92731771951253
1797.9415,64.04329186466532
1799.6202,54.672193234418614
1801.2982,68.66428656880692
1802.9755,67.21983606114293
1804.6519,65.98910521809762
1806.3277,58.82235687414379
1808.0027,72.01985320386405
1809.6769,75.9818557936178
1811.3504,62.5086255095664
1813.0231,65.65042245805341
1814.6951,82.20750612033623
1816.3664,79.03013532116847
1818.0369,83.31856806322912
1819.7067,81.623061558897
1821.3757,73.84387218736481
1823.044,81.33125551159651
1824.7115,88.6854663561171
1826.3783,78.20675873213986
1828.0443,85.99538576402347
1829.7096,86.85159979406001
1831.3741,95.52565230458708
1833.0379,94.66779390942736
1834.701,97.57827426714721
1836.3633,91.75734208963581
1838.0248,101.90524511299986
1839.6856,109.0722301557729
1841.3457,111.95854301743668
1843.005,106.46442840675059
1844.6636,109.84012991288932
1846.3214,108.3358900603829
1847.9785,107.75195027536085
1849.6349,115.23855090059487
1851.2904,114.8459312013373
1852.9453,120.82432929045513
1854.5994,121.82398213235695
1856.2528,116.39512548320806
1857.9054,114.18799388093385
1859.5572,113.45282069950883
1861.2083,118.08983817102774
1862.8587,129.74927739305758
1864.5084,124.33136828226714
1866.1572,116.5863394578331
1867.8054,118.86441829561852
1869.4528,128.71583100562395
1871.0994,127.1408026092056
1872.7453,127.63955684056214
1874.3905,122.21231616248372
1876.0349,121.40930176136612
1877.6786,127.78073360148176
1879.3215,130.42683043301008
1880.9637,132.34780972832323
1882.6051,133.3938876555253
1884.2458,133.5152790592423
1885.8858,129.06219745016233
1887.525,136.83485500382062
1889.1634,122.13346260513106
1890.8011,123.3582297706588
1892.4381,130.6093647956351
1894.0743,136.18707474170913
1895.7098,137.74156536443672
1897.3446,140.02304105750363
1898.9786,128.93170483718018
1900.6118,133.11775831950604
1902.2443,127.03140183120422
1903.8761,125.82283436782029
1905.5071,120.0422536545858
1907.1374,113.08985615850418
1908.7669,123.51583714615663
1910.3957,126.12039075322616
1912.0237,124.2537098802369
1913.651,118.11598616651008
1915.2776,120.15741000882952
1916.9034,128.22817062282002
1918.5285,124.47845602253255
1920.1528,125.30845293973641
1921.7764,120.81834686141667
1923.3992,121.05832202147405
1925.0213,121.07856144562652
1926.6427,123.57924694900885
1928.2633,108.56055913597072
1929.8832,118.77267737506963
1931.5023,125.86577994925835
1933.1207,117.39004395376298
1934.7383,131.84564522515245
1936.3552,123.98275842609564
1937.9714,110.20155690080549
1939.5868,113.85221275366757
1941.2015,117.38489698705257
1942.8154,113.5497794648087
1944.4286,115.29702887693577
1946.041,112.47681277793629
1947.6528,116.08929756934265
1949.2637,121.63464852791947
1950.8739,118.21302976953848
1952.4834,109.57460419372512
1954.0921,114.41953351787492
1955.7001,113.14797836363778
1957.3074,101.86009820846812
1958.9139,105.30605139834131
1960.5197,112.4859952606314
1962.1247,101.50008606965207
1963.729,103.54847897485706
1965.3325,108.48132811069979
1966.9353,112.598786576149
1968.5374,109.95100638536121
1970.1387,99.88813842650518
1971.7393,107.51033248824012
1973.3392,105.86773736034434
1974.9383,114.31050075749283
1976.5366,93.18876933568367
1978.1342,92.85268860781048
1979.7311,104.40240315487995
1981.3273,98.93805662937177
1982.9227,103.90979163974248
1984.5173,101.21774980506746
1986.1112,95.16207170532493
1987.7044,95.44289690831499
1989.2968,92.16036403021803
1990.8885,96.96461073278545
1992.4795,94.40577375616499
1994.0697,104.83398887085866
1995.6592,97.249390903311
1997.2479,93.00211363162657
1998.8359,99.34228986141659
2000.4232,104.77005146827128
2002.0097,100.33552933435817
2003.5955,98.43885329414468
2005.1805,93.38015217874351
2006.7648,94.7095538348783
2008.3484,100.3771851754725
2009.9312,99.03317216635378
2011.5133,104.67763976957826
2013.0946,94.61071195687055
2014.6752,94.98251165317924
2016.2551,101.4931608373463
2017.8342,95.09278053838864
2019.4126,98.18149077039175
2020.9902,94.05941059651377
2022.5672,88.27665809809844
2024.1433,93.18335041589557
2025.7188,95.42960380788838
2027.2935,91.96553360022631
2028.8674,95.39125416476338
2030.4406,87.55687895369886
2032.0131,84.1125204653199
2033.5849,87.45829032234508
2035.1559,89.69429930636772
2036.7261,91.47065732439876
2038.2957,81.73747338650628
2039.8645,93.39485558805268
2041.4325,88.14291120702524
2042.9998,83.63174658746311
2044.5664,79.01146719197686
2046.1323,93.18217764685915
2047.6974,89.64398178828901
2049.2617,87.29698252062349
2050.8254,86.2412818517796
2052.3883,85.87698091670461
2053.9504,90.00417998793296
2055.5118,81.5229784792291
2057.0725,82.43347490431643
2058.6325,82.38576696168855
2060.1917,83.92995152550486
2061.7502,88.56612464606758
2063.3079,77.5943815343802
2064.8649,75.76481651578524
2066.4212,84.27752313968142
2067.9767,83.83259419781973
2069.5315,81.23012163917599
2071.0856,72.77019657440053
2072.6389,82.50290930184303
2074.1915,81.57834939215104
2075.7433,84.64660559094352
2077.2945,77.1577658280562
2078.8448,70.61191718685882
2080.3945,72.30914597914409
2081.9434,82.94953781058541
2083.4916,71.6831775637653
2085.039,77.06014929177104
2086.5857,72.68053633085844
2088.1317,79.14442124668199
2089.677,71.80188587809141
2091.2215,71.20301127249218
2092.7652,74.19787775927188
2094.3083,70.7865649557873
2095.8506,72.51915173741781
2097.3921,75.39571627167754
2098.933,68.26633600088928
2100.4731,63.38108761341891
2102.0124,70.79004711496941
2103.5511,80.99328987743252
2105.089,67.14089056479895
2106.6261,70.18292303112702
2108.1626,71.01946045906607
2109.6983,78.45057532943645
2111.2332,73.72633941286398
2112.7675,62.39682369546938
2114.301,71.01209842611019
2115.8337,74.67223322967578
2117.3657,71.4272970209347
2118.897,74.92735796793374
2120.4276,69.87248352444652
2121.9575,73.86274039497317
2123.4866,76.6981945852894
2125.0149,65.57891136254386
2126.5426,66.30495522690347
2128.0695,64.07639002274652
2129.5956,70.89327893140216
2131.1211,61.80568449343582
2132.6458,65.06366854048036
2134.1698,66.16729228611206
2135.693,72.16661629327086
2137.2155,66.71170046322356
2138.7373,72.25260397557099
2140.2584,70.93938534279687
2141.7787,63.372102354859464
2143.2983,63.200812092323474
2144.8171,65.77557100203211
2146.3353,67.39643489882133
2147.8527,63.26345893977151
2149.3693,52.42669760799862
2150.8853,64.78620475398407
2152.4005,61.84203370394249
2153.9149,58.244237136226616
2155.4287,65.14286711076909
2156.9417,62.73797510506063
2158.454,52.129611945163106
2159.9655,61.46782782975919
2161.4764,57.85267243623605
2162.9865,58.18419482730309
2164.4958,58.96244348714305
2166.0045,52.88746631809687
2167.5124,54.859310632882114
2169.0195,60.528023215341705
2170.526,61.79365030072563
2172.0317,55.856237519004026
2173.5367,52.86582988221022
2175.0409,56.32247184381595
2176.5445,63.97620732863476
2178.0473,47.977079698256205
2179.5494,60.72513167450768
2181.0507,50.170405499445735
2182.5513,55.96294280787595
2184.0512,48.60278473290009
2185.5504,49.4399718479911
2187.0488,48.37454424059416
2188.5465,58.30654150375483
2190.0435,46.83600274677326
2191.5397,59.162966495884575
2193.0353,54.587470808963815
2194.5301,53.25955315225622
2196.0241,50.27925044613244
2197.5175,48.346599078368115
2199.0101,54.56163493394655
2200.502,54.87439341438477
2201.9931,50.684909375583686
2203.4835,47.493217124701005
2204.9733,45.64935046204505
2206.4622,49.95334271299288
2207.9505,49.305226746428104
2209.438,49.05503493170096
2210.9248,47.45279914510962
2212.4109,47.79855077240177
2213.8962,41.94232072479713
2215.3809,46.83413943552978
2216.8648,43.17403691841105
2218.3479,41.06204271891119
2219.8304,39.898185950760194
2221.3121,42.7324953170679
2222.7931,40.914999121962694
2224.2733,38.54572524224818
2225.7529,35.07470114557776
2227.2317,31.90195391414784
2228.7098,36.62751027940783
2230.1872,30.701396653787413
2231.6638,33.823639083441265
2233.1397,31.09426330751046
2234.6149,38.91329472689927
2236.0894,33.13075843156952
2237.5632,29.096679122350224
2239.0362,34.411081168762905
2240.5085,33.82398864936232
2241.9801,26.485425298592702
2243.4509,30.445414512657976
2244.921,26.603979422908367
2246.3904,26.211142856240542
2247.8591,30.216927373511567
2249.3271,24.87135527346743
2250.7943,25.074448552685283
2252.2608,27.32622895902898
2253.7266,25.276717989618987
2255.1917,26.475936868313624
2256.656,14.373906566205108
2258.1197,20.620647789626275
2259.5826,25.71618110117072
2261.0447,21.460526857225943
2262.5062,20.003705157018203
2263.9669,27.695735885168176
2265.4269,20.586638726259707
2266.8862,23.476433087919588
2268.3448,19.115138171908598
2269.8026,23.252772945223285
2271.2598,18.239356183709333
2272.7162,18.67490643068504
2274.1719,16.959442047075925
2275.6268,17.692981207057983
2277.0811,21.025541915213353
2278.5346,19.607141999194482
2279.9874,14.987799076398915
2281.4395,22.36753056815286
2282.8908,22.246353745904344
2284.3414,24.174285657426594
2285.7914,19.501343128030044
2287.2406,25.427542741282707
2288.689,28.252900885739507
2290.1368,26.377433695680793
2291.5838,24.051157022858547
2293.0302,20.374086455250676
2294.4758,19.146237340324262
2295.9206,22.267624821805725
2297.3648,17.388263851958186
2298.8082,25.55816916036929
2300.251,30.177355302743592
2301.693,25.995836579204536
2303.1343,29.51362698810226
2304.5748,19.63074026782914
2306.0147,20.69718986164139
2307.4538,21.162989016486506
2308.8922,20.278150772340666
2310.3299,20.892687957550436
2311.7669,20.406613197681224
2313.2031,21.3199389093715
2314.6387,19.482677305193818
2316.0735,15.044840384521535
2317.5076,24.70643995190136
2318.941,18.86748766143171
2320.3737,18.777994920146625
2321.8056,14.48797294640542
2323.2369,16.097432770788032
2324.6674,19.95638527899456
2326.0972,15.01484119575116
2327.5263,18.472811046220443
2328.9547,24.880305205416676
2330.3823,22.387333863625884
2331.8092,20.24390696233138
2333.2355,11.700034219143276
2334.661,19.955725149232762
2336.0858,17.610989150770763
2337.5098,12.665835422371288
2338.9332,18.170272986538293
2340.3558,12.224310739117698
2341.7778,13.877957394252917
2343.199,15.63122154384439
2344.6195,16.134111641013305
2346.0393,16.38663598256892
2347.4583,10.588802703979582
2348.8767,15.640619776847586
2350.2943,17.09209506688711
2351.7113,11.543236283406827
2353.1275,15.6940509647942
2354.543,11.694546534004871
2355.9578,14.694730257054005
2357.3718,15.594609283011664
2358.7852,16.04419061400108
2360.1978,19.293481096199173
2361.6098,14.192487415341418
2363.021,15.241216064228695
2364.4315,12.489673393737007
2365.8413,17.087865602330453
2367.2504,15.635798763576474
2368.6587,9.233478780163807
2370.0664,17.080911398423666
2371.4733,18.978102272352544
2372.8795,12.42505688513802
2374.285,14.421780530187107
2375.6899,16.118278376656576
2377.0939,20.214555449485317
2378.4973,11.110616612429794
2379.9,10.206466527101213
2381.3019,23.502109744004883
2382.7032,18.39755071158163
2384.1037,21.042793643251343
2385.5035,15.7878425684587
2386.9027,18.23270130622052
2388.3011,20.47737351767512
2389.6987,17.62186268163424
2391.0957,9.016172072135873
2392.492,11.560304786999438
2393.8876,5.404263833882908
2395.2824,3.898052104841213
2396.6765,8.591672437887155
2398.07,9.385127632053013
2399.4627,15.02842040045482
2400.8547,12.321553362357633
2402.246,7.064528986742232
2403.6366,8.457349619374384
2405.0265,9.80001753537448
2406.4156,4.092534925289556
2407.8041,4.38490388166673
2409.1918,2.2271264561275075
2410.5789,13.66920465644489
2411.9652,6.661118241398242
2413.3508,10.502846833075296
2414.7358,11.444369986952438
2416.12,7.735667153478062
2417.5035,5.976717668656761
2418.8863,9.517500791136342
2420.2684,12.357995719797714
2421.6497,6.448181558346903
2423.0304,8.08803728690981
2424.4104,10.177541821130603
2425.7896,4.716673995773078
2427.1682,-1.244587456174088
2428.546,9.74373615111108
2429.9232,13.581635936879309
2431.2996,8.019102922944
2432.6753,5.456127995302268
2434.0503,9.792701959759995
2435.4246,10.678815567562083
2436.7982,5.014459472026431
2438.1711,9.949624219683074
2439.5433,9.634300306917623
2440.9148,10.368478130619621
2442.2856,5.852147991335585
2443.6557,5.135300085927554
2445.025,4.0179245527360195
2446.3937,8.40001147874898
2447.7617,6.181550910775002
2449.1289,8.912532811622896
2450.4955,12.092947082285889
2451.8613,11.772783534632026
2453.2265,8.902031859600015
2454.5909,6.180681630400784
2455.9546,4.508722331225044
2457.3177,8.786143384457034
2458.68,5.712934167393826
2460.0416,12.539083969471164
2461.4025,9.364582022995307
2462.7627,12.93941743488216
2464.1222,6.913579218401708
2465.4811,16.387056257430174
2466.8392,10.65983736670779
2468.1966,10.581911197104375
2469.5533,9.053266292891578
2470.9093,6.723891092521967
2472.2645,11.59377394391538
2473.6191,13.762903127753248
2474.973,11.281266808779094
2476.3262,12.098853014107817
2477.6787,8.015649658041582
2479.0305,17.78164453389411
2480.3816,18.746825354822874
2481.7319,13.611179656168986
2483.0816,14.974694785805298
2484.4306,13.887357955493314
2485.7789,16.349156227247306
2487.1264,16.860076524208296
2488.4733,18.9201056060258
2489.8195,24.429230063748832
2491.165,16.587436299225317
2492.5097,12.544710470010784
2493.8538,12.401038567787168
2495.1972,21.806406458788615
2496.5398,14.710799885239567
2497.8818,17.96420437130041
2499.2231,15.56660529402376
2500.5637,16.167987850820623
2501.9035,18.968337083435756
2503.2427,18.017637871934596
2504.5812,17.665874906699287
2505.919,19.56303269793574
2507.256,18.409095579191217
2508.5924,21.854047688382764
2509.9281,20.44787297933624
2511.2631,23.990555187336895
2512.5974,16.98207784319152
2513.9309,17.42242423780135
2515.2638,18.661577492246465
2516.596,17.39952055338324
2517.9275,19.33623618145225
2519.2583,15.921706962699147
2520.5884,15.65591529000747
2521.9178,24.188843397043712
2523.2465,18.670473360915196
2524.5745,14.750787016841002
2525.9018,23.679766013335524
2527.2284,19.957391851405532
2528.5543,20.483645795260202
2529.8796,20.208508909534714
2531.2041,21.581962054027798
2532.5279,17.903985886453512
2533.851,21.174560848706335
2535.1735,16.343667203641218
2536.4952,17.011285002367202
2537.8163,21.377394132556958
2539.1366,20.991974311770434
2540.4562,24.50500504379349
2541.7752,24.366465622492512
2543.0935,23.976335096683727
2544.411,19.93459227151922
2545.7279,23.041215712387697
2547.0441,23.096183785331903
2548.3596,20.199474625982816
2549.6744,19.15106613900923
2550.9885,19.150936027085322
2552.3019,23.29906180137482
2553.6146,22.24542078153192
2554.9266,15.989990054220357
2556.2379,22.882746483649953
2557.5485,24.723666774130578
2558.8585,18.56272740114477
2560.1677,19.349904592938486
2561.4762,25.435174392130392
2562.7841,25.11851264784022
2564.0913,24.399894954836157
2565.3977,19.27929665670132
2566.7035,28.356692853020263
2568.0086,31.932058450584464
2569.313,22.50536807261892
2570.6167,28.776596023027963
2571.9197,24.495716380662486
2573.222,27.862702936607576
2574.5236,26.37752923699125
2575.8246,28.540168549314586
2577.1248,30.350593877303538
2578.4244,27.958777939282356
2579.7232,27.11469315006937
2581.0214,31.868311644895442
2582.3189,28.56960528784441
2583.6157,24.81854562431721
2584.9118,29.515103914018795
2586.2072,32.659251168468785
2587.5019,33.350958104035925
2588.7959,25.890195110496478
2590.0893,34.476932244117364
2591.3819,36.01113930226353
2592.6739,40.74278573753068
2593.9652,38.22184064240349
2595.2557,36.648272701938794
2596.5456,43.772050218975096
2597.8348,45.443141129868394
2599.1234,41.861512933254204
2600.4112,44.22713267333677
2601.6983,50.4399669757054
2602.9848,47.749982023678
2604.2705,47.60714349617305
2605.5556,48.211416594609375
2606.84,55.512766044334455
2608.1237,46.411156088581805
2609.4067,45.45655041545737
2610.689,42.84891224895563
2611.9707,47.23820435850595
2613.2516,43.97438908504853
2614.5319,42.15742829714176
2615.8115,43.53728342360006
2617.0903,43.26391547166358
2618.3685,50.38728501319983
2619.6461,44.50735218743705
2620.9229,43.174076629730735
2622.199,39.53741753036297
2623.4745,41.747333647875166
2624.7493,39.4537833454346
2626.0234,38.906724568735314
2627.2968,43.356114868933645
2628.5695,42.15191140811862
2629.8415,46.54407091481838
2631.1128,39.13254969604208
2632.3835,39.31730359335833
2633.6535,40.898288057010376
2634.9228,42.77545814406855
2636.1914,41.89876850262044
2637.4593,42.568173352999
2638.7265,42.38362649654957
2639.9931,42.54508130893592
2641.259,42.052490741985764
2642.5242,42.25580732207598
2643.7887,38.654983155058574
2645.0525,44.54996992422764
2646.3156,37.940718926327605
2647.5781,36.12718101260322
2648.8398,39.459306654892
2650.1009,35.8870459637599
2651.3613,45.46034865517987
2652.6211,39.77916408625438
2653.8801,36.99344115948247
2655.1385,38.10312837957156
2656.3961,33.75817388129482
2657.6531,37.258525418394214
2658.9094,28.004130407030146
2660.1651,36.29493589077779
2661.42,36.73088863317116
2662.6743,38.86193503479501
2663.9279,37.7380211289252
2665.1808,39.60909256021833
2666.433,44.97509459595082
2667.6846,45.08597210730812
2668.9354,44.291669515724834
2670.1856,49.79213079177583
2671.4351,42.237299463119484
2672.6839,55.477118559492936
2673.9321,55.26153068826051
2675.1795,55.990477902015414
2676.4263,56.763901700735744
2677.6724,57.18174302449498
2678.9179,60.94394224572781
2680.1626,59.15043916505155
2681.4067,57.951172973644105
2682.6501,58.496082271179006
2683.8928,53.48510507781816
2685.1348,52.91817882876265
2686.3761,48.29524042436253
2687.6168,45.41622623578607
2688.8568,46.131072151249384
2690.0961,38.139713604806246
2691.3348,39.84208556919975
2692.5727,40.488122635775994
2693.81,40.27775899746041
2695.0466,37.460928442297046
2696.2826,36.88756435555251
2697.5178,40.40759974788412
2698.7524,43.27096726107362
2699.9863,41.22759913282698
2701.2195,43.227427168140366
2702.452,48.07038275973429
2703.6839,44.25639686805502
2704.9151,49.63539997284511
2706.1456,52.157322111283094
2707.3755,57.47209282419348
2708.6046,60.67964113082772
2709.8331,59.529895475716415
2711.0609,58.87278369659376
2712.2881,60.70823303589523
2713.5145,65.7361701473285
2714.7403,68.25652107751907
2715.9654,71.51921121573079
2717.1899,77.67416526866239
2718.4136,80.37130722782052
2719.6367,94.2105603079703
2720.8591,90.24184692016394
2722.0809,92.96508853334794
2723.3019,105.18020571405063
2724.5223,107.73711809914937
2725.7421,104.2357442737196
2726.9611,101.02600174546555
2728.1795,94.75780697973414
2729.3972,92.18107543161233
2730.6142,78.09572160860895
2731.8306,76.70165909642222
2733.0462,66.8488006997932
2734.2612,66.83705845644636
2735.4756,63.66634373561831
2736.6892,61.78656723817505
2737.9022,55.14763902831925
2739.1145,54.449468552388
2740.3262,49.09196470524199
2741.5372,47.87503583724745
2742.7475,46.798589807851016
2743.9571,43.66253399774911
2745.1661,35.66677531965226
2746.3744,34.21122024964575
2747.582,26.54577490714715
2748.7889,26.420345069462
2749.9952,24.834836248438165
2751.2008,20.639153691720196
2752.4057,21.883202398604396
2753.61,23.066887161995624
2754.8136,17.640112555966624
2756.0165,19.90278292392142
2757.2188,17.90480243286288
2758.4204,18.996075050766194
2759.6213,15.176504566558549
2760.8215,19.795994579206507
2762.0211,11.05444853591149
2763.22,16.501769685915065
2764.4182,14.537861167914457
2765.6158,9.712625955589232
2766.8127,12.825966877240404
2768.009,9.377786664042816
2769.2045,3.7679879189117855
2770.3994,7.996473150984656
2771.5936,6.61314483171904
2772.7872,5.667905352607875
2773.9801,2.1606570390128184
2775.1723,3.941302159616413
2776.3639,3.659742961494942
2777.5548,-6.484118347688252
2778.745,-0.34037959686710906
2779.9346,1.2409261613665308
2781.1235,0.8597692748130612
2782.3117,-5.333879921136344
2783.4992,-0.29005109968812803
2784.6861,-5.658720648588371
2785.8723,-3.7398620579728004
2787.0579,-6.133392287357907
2788.2428,-2.4891909350383514
2789.427,-7.2070763267199425
2790.6106,-2.8868419210911895
2791.7935,-6.628209178148211
2792.9757,-1.7808707183363595
2794.1573,-0.9944529462914034
2795.3382,2.631435524249355
2796.5184,-0.8028039858666034
2797.698,-0.09677018210601318
2798.8769,-2.3500537499239442
2800.0551,1.9877555919586598
2801.2327,3.3170916018576406
2802.4096,7.038388018211435
2803.5859,2.502078546287521
2804.7615,4.058596820969683
2805.9364,10.55837645212091
2807.1106,12.201851009018526
2808.2842,13.039453955356123
2809.4572,20.72161863280874
2810.6294,22.24877825265679
2811.801,30.671365818964915
2812.972,35.639814113309825
2814.1423,39.15455561055521
2815.3119,52.01602242916661
2816.4808,62.87464629606421
2817.6491,77.48085841800807
2818.8167,93.13508937301188
2819.9837,112.23776896428092
2821.15,134.33932606366957
2822.3157,168.74018842065476
2823.4807,196.64078244132006
2824.645,235.94153284434745
2825.8086,277.99286238201114
2826.9716,320.7951914471701
2828.134,360.04893765275506
2829.2957,400.15451540374494
2830.4567,424.7623355046293
2831.617,449.7728047583528
2832.7767,465.43632572023665
2833.9358,462.0532964478741
2835.0941,466.3741103444953
2836.2519,445.94915619279755
2837.4089,430.92881811173703
2838.5653,407.8634757607782
2839.7211,397.0035044900977
2840.8761,381.5992755712374
2842.0306,377.7511563057041
2843.1843,375.8595101790119
2844.3374,380.9246968991638
2845.4899,394.49707241556706
2846.6417,397.27698886838255
2847.7928,408.21479445280033
2848.9433,407.9108333912408
2850.0931,418.8154458239767
2851.2422,420.22896781217247
2852.3907,416.151731228838
2853.5385,413.0340637446942
2854.6857,422.4762888689438
2855.8323,427.62872598044993
2856.9781,445.99169023331234
2858.1233,454.7154925053438
2859.2679,465.6504392144401
2860.4118,497.69683223134246
2861.555,513.3549687702873
2862.6976,526.8751410685433
2863.8395,538.8576362298292
2864.9808,553.5527360891123
2866.1214,564.0607170927843
2867.2614,571.8318501517087
2868.4007,584.7664005361427
2869.5393,593.8146277980245
2870.6773,613.776785641629
2871.8146,619.5531218330842
2872.9513,639.5938780007511
2874.0874,639.1992895774595
2875.2227,659.1695856001002
2876.3574,663.3549887135711
2877.4915,663.405714971075
2878.6249,682.6219737922645
2879.7577,691.7039679627351
2880.8898,704.301893441863
2882.0212,713.3159392719845
2883.152,734.446287452417
2884.2821,749.8431128493187
2885.4116,760.1565829843854
2886.5405,768.2868578808814
2887.6686,776.7840899605056
2888.7962,783.0484239620886
2889.923,775.2299968566201
2891.0493,776.3789377846056
2892.1748,777.5453681342511
2893.2997,773.8794015299732
2894.424,765.3811438207347
2895.5476,783.1006931167044
2896.6706,776.18813987424
2897.7929,772.3935667186925
2898.9145,777.5170485135309
2900.0355,775.5586523982897
2901.1559,763.1184377373321
2902.2756,763.2964561394356
2903.3946,757.992751582193
2904.513,748.7573604102331
2905.6308,739.2403113882568
2906.7479,731.391625793392
2907.8643,732.5613175103633
2908.9801,741.349393109979
2910.0953,742.2058518374347
2911.2098,735.9306855244319
2912.3236,737.5238785806138
2913.4368,728.6854080563169
2914.5494,724.215243626639
2915.6613,729.1133476798243
2916.7725,705.8296753619636
2917.8831,696.7141745280154
2918.9931,678.6667859746411
2920.1024,669.5374435313604
2921.211,652.8260742410257
2922.319,635.4825984511144
2923.4264,635.206929980844
2924.5331,624.5489762946061
2925.6391,627.6086385047223
2926.7445,625.4858114780257
2927.8493,626.7803838052623
2928.9534,636.0422378223205
2930.0569,642.2712495972851
2931.1597,651.9672888378179
2932.2619,645.4802188288694
2933.3634,658.6098963357164
2934.4643,666.8561716688341
2935.5645,665.8188885525988
2936.6641,679.8978840428248
2937.763,684.8429885371379
2938.8613,688.904025634185
2939.959,685.4308120841833
2941.056,676.0231577483104
2942.1523,646.0808656334349
2943.248,618.2037319861946
2944.3431,576.1415465924185
2945.4375,541.2940930558989
2946.5313,504.51114921901205
2947.6244,466.44248751119386
2948.7169,427.83787531676865
2949.8087,395.0470753556359
2950.8999,362.61984606931685
2951.9904,331.4059419488615
2953.0803,303.6551138591218
2954.1696,289.1171093508905
2955.2582,267.94167293840894
2956.3462,260.2285462447479
2957.4335,250.57746821356093
2958.5202,244.28817518621665
2959.6062,235.31040099830884
2960.6916,246.84387704254974
2961.7764,244.78833235854765
2962.8605,251.64349351747236
2963.9439,247.1090846426103
2965.0267,251.93482734081329
2966.1089,246.97044074784222
2967.1905,242.76564148010993
2968.2714,239.9701436843248
2969.3516,235.5336590795389
2970.4312,232.65589698510277
2971.5102,224.68656436503056
2972.5885,233.27536585677737
2973.6662,234.12200385093277
2974.7432,237.37617840533264
2975.8196,242.887587236593
2976.8954,244.10592568756792
2977.9705,239.080886672236
2979.045,243.16216066351637
2980.1188,244.14943574351955
2981.192,238.99239756273434
2982.2645,239.9907293301554
2983.3364,228.84411186485332
2984.4077,220.05222358599156
2985.4783,206.56474062429243
2986.5483,197.13133690995627
2987.6177,182.2016843075359
2988.6864,179.32545271027092
2989.7545,161.5023101893841
2990.8219,160.7319230228438
2991.8887,144.56395587359535
2992.9548,142.24807179726503
2994.0204,124.38393240383976
2995.0852,116.22119788082563
2996.1495,104.45952717188962
2997.2131,88.74857805848666
2998.276,78.53800727747648
2999.3383,66.07747067823308
3000.4,57.66662332475053
3001.4611,42.25511962024822
3002.5215,37.24261339127938
3003.5812,32.028758041846174
3004.6404,25.913206603524486
3005.6989,26.595611787602962
3006.7567,15.825626046238142
3007.8139,11.152901565630458
3008.8705,11.077090373724303
3009.9264,11.747844386935071
3010.9818,9.364815410907397
3012.0364,8.57765513380744
3013.0905,2.7860151501534176
3014.1439,-3.6604530313130965
3015.1966,-1.8120979297106032
3016.2487,3.780768503768229
3017.3002,-5.432147579211218
3018.3511,-4.301140064791085
3019.4013,2.1735514280406676
3020.4509,0.6917302486853316
3021.4998,-2.8968002751911968
3022.5481,-9.192236822840357
3023.5958,0.9552528655211745
3024.6428,-1.5044071198775413
3025.6892,-5.271292698359787
3026.735,-1.1954647602219097
3027.7802,-3.5769315355461657
3028.8247,0.08431068827816546
3029.8685,2.1383013574077268
3030.9118,3.335079917156193
3031.9544,1.3246857914542716
3032.9963,-1.542841629118115
3034.0376,3.83253703277218
3035.0783,7.550876567446053
3036.1184,5.462231726899034
3037.1578,5.766657187617994
3038.1966,8.614207571467489
3039.2348,12.654937442645505
3040.2723,11.188901279208139
3041.3092,17.716153432662125
3042.3455,16.686748142625106
3043.3811,18.50073947155302
3044.4161,16.40818131503444
3045.4505,25.809127383650576
3046.4842,22.303631223900908
3047.5173,21.14174612419359
3048.5498,19.02352514990058
3049.5816,24.09902115497644
3050.6128,23.518286803140427
3051.6434,25.781374517121648
3052.6734,25.888336484466407
3053.7027,26.539224634907242
3054.7314,29.18409063929346
3055.7594,28.872985903082153
3056.7868,27.955961539889543
3057.8136,37.033068374602095
3058.8398,36.10435695254665
3059.8653,37.41987744871952
3060.8902,40.729679677073335
3061.9145,43.933813077362075
3062.9381,45.882326682043015
3063.9612,44.925269084235296
3064.9835,48.0126884182348
3066.0053,48.09463236908488
3067.0264,52.47114814170193
3068.0469,48.19228246005615
3069.0668,49.30808152340623
3070.086,53.768591049088
3071.1046,50.7238562613565
3072.1226,52.32392184678102
3073.1399,50.16883198469219
3074.1567,47.70863033118154
3075.1727,44.143360040652226
3076.1882,42.37306379042123
3077.203,43.697783816371825
3078.2173,40.71756193065677
3079.2308,37.582439508451
3080.2438,33.84245751775383
3081.2561,28.74765655074023
3082.2678,31.34807686116058
3083.2789,27.99375841528878
3084.2893,27.184740865917973
3085.2991,23.471063585903806
3086.3083,23.70276567625453
3087.3169,23.679886003267768
3088.3248,18.40246319621356
3089.3321,21.920535647563085
3090.3388,21.434141565762985
3091.3449,20.44331894005454
3092.3503,17.248105545337694
3093.3551,19.998538952079215
3094.3593,19.34465655826486
3095.3629,23.686495561895015
3096.3658,19.87409296752358
3097.3681,19.0574855428395
3098.3698,16.836709856790897
3099.3708,20.16180228775098
3100.3713,15.582799045725949
3101.3711,18.899736139103936
3102.3702,17.36264942044511
3103.3688,15.821574553312324
3104.3667,16.326547027642007
3105.364,11.877602175154806
3106.3607,16.424775164306013
3107.3568,16.0681010447749
3108.3522,9.057614701993003
3109.347,11.44335086071088
3110.3412,15.625344155102944
3111.3348,13.45362910491015
3112.3277,13.828240073620023
3113.32,12.199211290183854
3114.3117,8.566576845270518
3115.3028,11.430370707556825
3116.2932,11.590626760053858
3117.2831,9.347378771469046
3118.2723,11.750660394603557
3119.2608,11.2505051887848
3120.2488,7.146946595833555
3121.2361,4.34001794506559
3122.2229,9.529752494327177
3123.209,11.266183458064425
3124.1944,11.149343955425913
3125.1793,9.179266992898398
3126.1635,8.855985465475229
3127.1471,8.879532176357102
3128.1301,7.2499398401848865
3129.1125,5.417241082804097
3130.0942,4.931468457560946
3131.0753,7.842654463629195
3132.0558,8.15083155086797
3133.0357,11.556032090709884
3134.015,7.208288373079249
3134.9936,4.657632572340077
3135.9716,10.304096790773514
3136.949,7.997713084084424
3137.9258,9.588513404936698
3138.902,7.076529626017134
3139.8775,10.861793524127378
3140.8524,9.844336805303811
3141.8267,9.824191066964907
3142.8004,10.351387808085782
3143.7735,10.125958429399653
3144.7459,10.597934228125894
3145.7178,10.167346400224304
3146.689,8.434226035675337
3147.6596,8.048604122786017
3148.6295,9.660511565521105
3149.5989,11.119979187359363
3150.5676,8.877037715174424
3151.5357,11.181717764640148
3152.5032,10.884049862660035
3153.4701,12.334064424320417
3154.4364,10.331791755867123
3155.402,11.777262040205354
3156.367,11.520505356922435
3157.3315,10.061551667833054
3158.2952,13.850430819546855
3159.2584,14.187172558057984
3160.221,13.071806490856275
3161.1829,10.854362083559856
3162.1442,11.584868671068822
3163.105,10.163355479739678
3164.065,14.839851620080253
3165.0245,10.814386100964839
3165.9834,15.33698778286923
3166.9416,11.707685418125404
3167.8993,10.42650760569548
3168.8563,12.443482827464738
3169.8127,16.058639461053374
3170.7684,16.272005759646788
3171.7236,17.183609815843983
3172.6782,14.443479559523904
3173.6321,15.8016427487294
3174.5854,13.958126997068536
3175.5381,18.312959760132944
3176.4902,13.61616835393301
3177.4417,14.467779911349503
3178.3926,17.067821429101517
3179.3428,18.466319759230338
3180.2924,18.56330158309903
3181.2415,16.658793397407475
3182.1899,16.25282151322254
3183.1377,17.29541207502318
3184.0848,15.736591064760134
3185.0314,16.326384291430053
3185.9773,18.714817406663677
3186.9227,15.65191589882794
3187.8674,16.637705069141607
3188.8115,16.622210062304294
3189.755,19.95545585663858
3190.6979,20.237467264244962
3191.6402,18.86826889766936
3192.5818,18.397885167083047
3193.5229,18.7263402939746
3194.4633,17.65365831585373
3195.4031,16.17986308296674
3196.3423,15.854978269023364
3197.2809,19.779027385934697
3198.2189,17.852033787062055
3199.1563,18.374020627976478
3200.0931,21.39501088572868
3201.0292,20.315027353629155
3201.9648,21.53409261103829
3202.8997,20.40222903416621
3203.834,20.31945878388212
3204.7677,22.135803817032915
3205.7008,20.8012858872709
3206.6333,22.715926526890357
3207.5652,19.779747060172724
3208.4964,19.142768584240166
3209.4271,22.8050119984174
3210.3571,18.516498010601445
3211.2865,21.677247100639203
3212.2154,24.1372795632126
3213.1436,24.49661547623109
3214.0712,21.205274676231337
3214.9982,22.61327675478385
3215.9246,23.220641091406396
3216.8503,27.977386839483977
3217.7755,23.683532920195194
3218.7001,25.789097974944763
3219.624,25.594100408302097
3220.5473,23.848558366945618
3221.4701,28.75248974161276
3222.3922,24.955912184555352
3223.3137,28.85884306050032
3224.2346,26.011299484615463
3225.1549,26.71329828348015
3226.0746,26.314856023560743
3226.9937,28.66598900419062
3227.9121,27.766713261554614
3228.83,27.267044545177644
3229.7473,25.616998326917518
3230.6639,31.116589805961606
3231.5799,31.415833925327284
3232.4954,30.564745316866034
3233.4102,29.613338298270996
3234.3244,27.06162688158786
3235.238,31.659624782728933
3236.151,24.707345446990242
3237.0634,30.30480200307155
3237.9752,32.40200733259918
3238.8864,28.948974014151386
3239.797,32.24571430228637
3240.7069,28.792240162072606
3241.6163,34.83856323612138
3242.5251,31.884694879121618
3243.4332,31.030646097376582
3244.3408,30.8764275783426
3245.2477,29.072049699169554
3246.154,33.66752252824303
3247.0598,31.21285584322814
3247.9649,33.40805908511476
3248.8694,31.303141382764196
3249.7733,31.74811153095716
3250.6766,33.14297801144296
3251.5793,31.78774898848976
3252.4814,30.432432294935936
3253.3829,33.077035445742354
3254.2838,31.37156565154553
3255.1841,32.41602979221164
3256.0838,33.76043443389115
3256.9829,32.60478581857426
3257.8814,35.84908985064676
3258.7792,33.09335210844664
3259.6765,37.037577811820945
3260.5731,35.38177184968322
3261.4692,34.82593874057123
3262.3647,33.97008264920501
3263.2595,32.8642073920452
3264.1538,34.75831644585161
3265.0474,34.30241295874195
3265.9404,35.44649973125076
3266.8329,36.89057922088847
3267.7247,35.73465353070048
3268.616,34.62872439482641
3269.5066,34.37279319005935
3270.3966,33.516860946905105
3271.286,35.16092835214158
