RamanShift,CorrectedData
30.1047,134.05034021250253
32.3739,124.93289880931417
34.6426,114.21545606562235
36.9109,104.79800939159473
39.1787,95.38055505524436
41.4461,83.76308827660411
43.7131,75.1456033219013
45.9796,64.07809361973234
48.2456,53.910551847237556
50.5112,46.792970040776254
52.7764,33.32533969760222
55.0411,23.75765184703954
57.3054,10.589897185158874
59.5692,4.822066170454367
61.8326,-4.445850844478818
64.0955,-13.563863555266185
66.3579,-21.38193724348331
68.6199,-32.34990168770887
70.8815,-34.56737306096851
73.1426,-34.233644360770015
75.4032,-11.297663256564363
77.6634,53.24196457630458
79.9231,225.13674632614885
82.1824,582.438188648861
84.4412,1174.997795948966
86.6995,1903.3670668066072
88.9574,2621.8974880519495
91.2148,3119.190527481488
93.4717,3304.1976266727424
95.7282,3304.370196011327
97.9842,3276.2096128408807
100.2398,3209.71722146134
102.4949,3123.9443334105463
104.7495,3097.6922281291663
107.0036,3014.6621538184263
109.2573,2918.205327702629
111.5105,2806.822936859456
113.7632,2701.266139184536
116.0154,2565.9860645052677
118.2672,2444.783815636388
120.5185,2309.0104697327756
122.7693,2202.9170795014693
125.0197,2084.204674559404
127.2696,1994.124262494343
129.519,1934.2268300520045
131.7679,1874.063344036864
134.0163,1840.3347519111287
136.2642,1823.1919823963729
138.5117,1793.8359458108225
140.7587,1755.3175342407842
143.0052,1698.8376218342064
145.2512,1633.7970651858607
147.4967,1565.0467039021435
149.7417,1496.787361251481
151.9863,1465.8198448518312
154.2304,1439.7449473532797
156.4739,1419.013446747714
158.717,1418.7761066295716
160.9596,1423.9836764031568
163.2017,1450.4368912850125
165.4433,1453.3364722518454
167.6844,1424.9831257759934
169.925,1376.07754379643
172.1651,1304.7704040022982
174.4047,1246.7623703219647
176.6439,1190.054093636094
178.8825,1146.696212357725
181.1206,1112.0893529993573
183.3582,1093.9841306065293
185.5954,1068.0311491038851
187.832,1067.2310014762284
190.0681,1063.784270028052
192.3037,1053.5415263915388
194.5388,1045.95333156103
196.7734,1044.620235995451
199.0075,1047.842779694195
201.2411,1073.821492210453
203.4742,1071.4568926189884
205.7068,1100.8994892563496
207.9389,1105.599779744517
210.1704,1104.7582506964766
212.4015,1102.7253776692164
214.632,1108.9516251721432
216.862,1113.4374466874096
219.0915,1111.3332846076532
221.3205,1114.4895701911373
223.549,1113.606723582792
225.777,1097.0851537826543
228.0044,1095.1752586546932
230.2314,1075.027425092026
232.4578,1046.3920290360188
234.6837,1023.5694356777627
236.909,1002.45999974443
239.1339,970.1140657274977
241.3582,964.8819680938436
243.582,934.7140316092054
245.8053,958.8105713905006
248.0281,941.3218932075077
250.2503,952.3982932418998
252.472,954.4400582621302
254.6932,962.6974655126703
256.9139,943.0207826935915
259.134,959.9602678779905
261.3536,974.1661697087569
263.5727,1004.6387272291776
265.7912,1053.5781697408788
268.0092,1112.6847164991
270.2267,1169.8585762232992
272.4436,1216.1499465060879
274.6601,1238.7090132414928
276.8759,1254.8359501620416
279.0913,1266.9809186131715
281.3061,1277.8440673919622
283.5204,1305.8755326256824
285.7341,1315.625437663162
287.9473,1331.393892794476
290.16,1331.1809951534442
292.3721,1277.5368285599504
294.5837,1240.1114635220674
296.7947,1205.1549577725013
299.0052,1168.9173566428435
301.2152,1154.8486934131363
303.4246,1124.198989674248
305.6334,1099.3682554685624
307.8418,1067.7064895964718
310.0495,1031.2136798646868
312.2568,988.789803402854
314.4635,946.3848270284832
316.6696,879.0487076711875
318.8752,818.5813927967312
321.0802,780.3328210803932
323.2847,770.9529230116386
325.4887,772.491621276605
327.692,793.498830851901
329.8949,828.6744589892191
332.0972,868.8684050052641
334.2989,882.8305599299956
336.5001,859.6108061046889
338.7007,829.4090170423153
340.9008,780.025057659738
343.1003,704.9087845797305
345.2992,658.9100466248171
347.4976,615.0786855684335
349.6955,564.5645365949163
351.8927,538.8674287378155
354.0895,515.4371853850364
356.2856,501.42362453581086
358.4812,477.9265590349987
360.6763,478.74579671322454
362.8707,464.8811406218465
365.0646,463.03238902476596
367.258,478.79933553707406
369.4508,480.53176914353753
371.643,513.8794740409307
373.8346,539.1922296207101
376.0257,550.8698101355385
378.2162,592.5119844461558
380.4062,594.3685159046054
382.5956,559.3391619378106
384.7844,520.5736740290097
386.9726,477.17179806804984
389.1603,455.1332747390418
391.3474,424.70783995437955
393.5339,423.8452250751254
395.7199,430.34515721526304
397.9052,462.60735925032577
400.09,499.38154975239445
402.2743,537.3174426674777
404.4579,587.5647469477692
406.641,622.6731661722886
408.8235,680.9923980444075
411.0054,722.6721340407689
413.1868,761.21205882809
415.3675,814.2618498463682
417.5477,805.7211769234816
419.7273,737.43970174469
421.9064,657.6670779380415
424.0848,595.4029517571885
426.2627,517.9469628791123
428.4399,461.39874502676525
430.6166,392.6079267436296
432.7928,336.5241319592003
434.9683,289.4469806768941
437.1432,261.1760895348864
439.3176,238.76107227688317
441.4914,221.00154003483044
443.6645,222.59710155306334
445.8371,206.74736336590217
448.0091,208.60192978169744
450.1806,212.81040304132557
452.3514,209.72238329964534
454.5216,202.6374685834112
456.6913,187.9552548221559
458.8603,199.97533591903812
461.0288,198.29730389766496
463.1967,196.9707487818905
465.3639,199.24525861259622
467.5306,187.22041946095715
469.6967,183.3458154056957
471.8622,172.0210286533311
474.0271,175.0956395769249
476.1914,165.2692268293299
478.3551,154.4913673124429
480.5182,165.2116362754682
482.6807,163.02960742269806
484.8426,181.69485280630852
487.0039,229.10694284818055
489.1647,286.26544615324656
491.3248,338.8199290353698
493.4843,350.86995494576036
495.6432,326.8150839474297
497.8015,299.2048725946895
499.9592,258.5388741737006
502.1163,194.46663897857547
504.2728,144.3877147180383
506.4287,129.5516471561466
508.5839,105.9079806130826
510.7386,95.10625811351133
512.8927,105.04602162301899
515.0461,103.37681215612861
517.199,127.69816967690349
519.3512,177.75963311564055
521.5029,255.31074012565546
523.6539,314.6510265826689
525.8043,329.2300258092944
527.9541,259.0472679816355
530.1033,182.95227998349674
532.2519,134.54458610820984
534.3999,103.32370881958491
536.5472,100.4391692359859
538.694,100.04048744253964
540.8401,116.12718251998217
542.9856,120.49877254864555
545.1305,143.95477444758967
547.2748,154.34470393088782
549.4185,176.71807527306623
551.5615,179.474401205204
553.704,205.21319269120022
555.8458,218.28395890021056
557.987,244.63620694925862
560.1276,269.0194417725288
562.2675,339.9831658578437
564.4069,413.0268790028317
566.5456,465.1500776052901
568.6837,443.1522539327484
570.8212,371.18289560123503
572.958,277.09148579525754
575.0942,214.3275039874943
577.2299,177.54042687970946
579.3648,151.72972903039363
581.4992,127.69488322263305
583.6329,147.33536072221727
585.766,174.65063151798654
587.8985,227.4401641254285
590.0304,266.50342531352544
592.1616,311.78987957685786
594.2922,310.89898874497294
596.4222,258.33021152951915
598.5515,199.9830035331563
600.6802,133.7068177752426
602.8083,100.8011052753061
604.9358,84.66531571580686
607.0626,77.2488977711946
609.1888,84.85129926926675
611.3144,126.32196726533152
613.4393,163.5103479661866
615.5636,218.1158863154094
617.6873,279.33802562147525
619.8103,299.4762070117024
621.9327,301.9298688200281
624.0544,256.59844638562913
626.1756,211.03137202838298
628.2961,152.77807550218336
630.4159,128.7879844506117
632.5351,123.21052498946847
634.6537,123.34512194667582
636.7716,107.89119891805012
638.8889,93.24817826595768
641.0056,105.86548127385208
643.1216,114.34252829270599
645.237,102.77873861483658
647.3518,104.32353038913766
649.4659,76.2263207367148
651.5793,64.98652573543927
653.6922,51.653560700919115
655.8043,42.17684029889824
657.9159,13.805778678585057
660.0268,21.18978956742035
662.137,17.0782865547867
664.2466,16.470683018169893
666.3556,17.86639216427284
668.4639,11.264827035092367
670.5716,0.06540049396267023
672.6786,-3.2324747084310275
674.785,-11.729386474753937
676.8907,-4.52589041525016
678.9958,-8.872424963592948
681.1002,-8.069383339810202
683.204,-15.26707012840484
685.3072,-5.315709300740764
687.4097,3.134627689848685
689.5115,0.583922493964792
691.6127,-3.017843269136165
693.7132,-1.0706938135847395
695.8131,-10.024623205258195
697.9123,4.270385186197473
700.0109,6.164448137121553
702.1089,15.30768238114888
704.2061,44.950204590270914
706.3028,66.9421312834022
708.3987,95.28357852995532
710.4941,100.52466172992172
712.5887,109.06549533045836
714.6827,111.2561927734746
716.7761,108.84686641022745
718.8688,99.68762747941241
720.9608,101.92858613125645
723.0522,128.8698515191095
725.1429,149.21153177703582
727.233,180.8537337504015
729.3224,281.84656279245587
731.4112,317.4401224479129
733.4993,325.2845134430204
735.5867,284.8798333296263
737.6735,202.7761764067343
739.7596,132.82363412454993
741.845,113.32229590551765
743.9298,105.82224984384607
746.014,108.62358290052157
748.0974,117.17638097830877
750.1802,122.33072889373648
752.2624,115.03671029156976
754.3439,99.0444075932669
756.4247,93.9539020699201
758.5048,106.46527400217724
760.5843,136.52860273114743
762.6631,171.34396653328758
764.7413,235.96144231976882
766.8188,337.1311052883227
768.8956,422.1530282770668
770.9718,491.87728075280756
773.0473,476.25392796082133
775.1221,434.03303022761224
777.1962,427.9646431171466
779.2697,492.7988178530593
781.3426,603.035601379341
783.4147,684.7250357119929
785.4862,674.1171568366613
787.557,568.5119938917417
789.6271,423.959569274459
791.6966,297.1098996969188
793.7654,173.91299763163124
795.8335,136.61887258000775
797.901,101.32753230433104
799.9678,88.43898320069479
802.0339,89.25323065191765
804.0993,91.62027915642898
806.1641,94.24013232012749
808.2282,71.36279283270915
810.2916,42.888262441468896
812.3544,35.466542180075066
814.4164,28.89763265331362
816.4778,40.93153411130584
818.5385,50.06824651519696
820.5986,82.90776941681679
822.658,151.40010186731365
824.7166,216.9952420887589
826.7747,316.09318678922307
828.832,411.1939305068256
830.8886,483.29746461875413
832.9446,509.10377639025853
834.9999,458.7628482536129
837.0545,396.7746575500548
839.1085,294.0391770331943
841.1618,209.8063754888958
843.2143,156.02621876263242
845.2662,132.1486706018136
847.3175,110.97369319358597
849.368,101.55124740361055
851.4179,99.38129298781132
853.467,90.36378868660154
855.5155,106.24869224658232
857.5633,111.38596051071647
859.6105,108.87554925948098
861.6569,95.26741315949312
863.7027,72.21150578861489
865.7478,70.3077797720349
867.7922,51.056187012827195
869.8359,47.056678710988535
871.8789,46.209205555954554
873.9212,41.36371776659428
875.9629,65.87016509968623
878.0039,71.52849689837149
880.0441,89.8386618470895
882.0837,113.20060791499566
884.1226,152.46428217285893
886.1609,182.5796305594431
888.1984,234.69659748886875
890.2352,298.6651255494621
892.2714,310.5351549825825
894.3069,278.95662304293944
896.3416,225.82946387989023
898.3757,179.80360885322693
900.4091,156.22898706444755
902.4418,163.10552581701427
904.4739,184.18315085210054
906.5052,204.91178627982458
908.5358,190.54135436847366
910.5658,165.3717753372173
912.595,138.70296749981276
914.6236,90.88484751629937
916.6515,67.56733065968683
918.6786,46.05033129413721
920.7051,41.18376310813949
922.7309,41.06753932968002
924.756,51.351572774907936
926.7804,52.53577584929815
928.8041,63.92006044481025
930.8272,84.35433792804554
932.8495,95.88851902640545
934.8711,108.12251362374877
936.892,124.05623064505028
938.9123,138.68957793405968
940.9318,171.67246209396535
942.9506,187.65478834105943
944.9688,182.43646017490948
946.9862,152.51737921853612
949.003,114.8474452705957
951.019,94.32655660457158
953.0344,74.80461034547284
955.0491,70.48150267504377
957.063,65.85712902698367
959.0763,60.18138413017709
961.0888,57.95416205493768
963.1007,62.62535626976603
965.1119,59.844859663621605
967.1223,51.66256449921059
969.1321,43.57836244079101
971.1412,46.49214463599617
973.1495,41.70380179667529
975.1572,32.86322416975713
977.1641,47.7703015851323
979.1704,48.224923544058925
981.1759,38.47697907009274
983.1808,34.076356704540785
985.1849,32.82294460394053
987.1884,24.066630584066047
989.1911,36.407302132462064
991.1932,56.29484649600704
993.1945,57.72915055750752
995.1951,51.760100636821676
997.1951,53.58758247651713
999.1943,54.761481301560366
1001.1928,57.08168180104292
1003.1906,72.89806811644166
1005.1877,100.71052381841719
1007.1841,117.66893174864947
1009.1798,129.1731737417133
1011.1748,130.17313045549417
1013.1691,110.26868125614567
1015.1627,69.10970420809076
1017.1556,40.04607627306598
1019.1477,21.927673721710335
1021.1392,6.404372424203075
1023.1299,3.2260480314469078
1025.12,7.542576130301768
1027.1093,18.95383227536763
1029.0979,46.25969194581921
1031.0859,53.56003043129306
1033.0731,68.50472255882937
1035.0596,80.79364261986791
1037.0454,68.42666422080174
1039.0304,45.35366016008777
1041.0148,30.824502551916908
1042.9985,16.98906305694379
1044.9814,3.6472130275791415
1046.9636,-0.8011763536570697
1048.9452,16.143766059284076
1050.926,33.08191941620282
1052.9061,52.063162705462446
1054.8855,59.58737458460723
1056.8642,60.15443319054998
1058.8421,62.06421606433048
1060.8194,56.06660014544423
1062.7959,60.91146175274491
1064.7717,60.54867664442054
1066.7469,59.67811996954458
1068.7213,55.94966627170413
1070.695,80.31318949770605
1072.6679,102.76856303486022
1074.6402,128.06565946734577
1076.6117,133.3543503516563
1078.5826,117.83450596362911
1080.5527,80.20599524555837
1082.5221,47.11868596139391
1084.4908,25.122445073025006
1086.4587,4.217139071154861
1088.426,-1.5973658047373647
1090.3925,-3.8212033573435065
1092.3584,7.945508568328478
1094.3235,24.50269030109132
1096.2879,36.200262090302886
1098.2515,73.78814394029484
1100.2145,97.1162554933968
1102.1767,139.33451565405642
1104.1382,184.49284235555933
1106.099,253.99115213784694
1108.0591,296.4793596959323
1110.0185,334.6573771849178
1111.9771,387.52511379511157
1113.9351,441.5824753702491
1115.8923,504.82936387881523
1117.8488,526.4156768734699
1119.8045,473.09130685857986
1121.7596,377.8061410743554
1123.7139,280.2600620300939
1125.6675,202.20294845703165
1127.6204,205.68467628380483
1129.5726,231.95511941702102
1131.524,229.56414970644107
1133.4748,186.86163668227528
1135.4248,129.8474475790931
1137.3741,73.12144776284765
1139.3226,50.08350130101792
1141.2705,49.333471529868234
1143.2176,62.87122128482861
1145.164,68.59661290799431
1147.1097,64.70950811274906
1149.0546,47.30976792651143
1150.9989,22.74725272960552
1152.9424,6.421822429258668
1154.8852,-7.866663294774639
1156.8272,-11.01834482695699
1158.7686,-21.633283963785516
1160.7092,-11.211432428492003
1162.6491,-8.602525827802538
1164.5883,4.693812233767062
1166.5267,25.978044090933395
1168.4644,64.45063203147515
1170.4014,86.56203808339092
1172.3377,129.06272363017365
1174.2732,190.75314918969627
1176.2081,292.6337739892051
1178.1421,424.0050553484152
1180.0755,551.2174476607042
1182.0082,623.6714010793993
1183.9401,588.3173602456529
1185.8713,486.15576356390477
1187.8017,340.7870435554205
1189.7315,235.66162787990834
1191.6605,153.67994078920628
1193.5888,107.34240417853596
1195.5163,80.7994384063204
1197.4432,65.60146275755835
1199.3693,42.94889570925466
1201.2947,22.442155082400063
1203.2193,18.48165826849629
1205.1432,19.26782243462469
1207.0664,12.651064563048976
1208.9889,9.981801443355607
1210.9106,20.060449738620378
1212.8316,18.437426012101696
1214.7519,33.06314662645343
1216.6715,47.5880277599565
1218.5903,63.8624852602602
1220.5084,84.83693449913449
1222.4257,100.31179020972479
1224.3424,106.43746627680707
1226.2583,134.56437558204027
1228.1735,160.24292994270854
1230.0879,204.9735398304524
1232.0016,261.5566141144841
1233.9146,299.8925596142801
1235.8269,315.6317805337512
1237.7384,326.1246780778828
1239.6492,325.0716502953428
1241.5592,346.0730919735521
1243.4686,398.879394649216
1245.3772,464.4409463983093
1247.285,568.5581313080128
1249.1922,664.1313288210988
1251.0986,736.410912694758
1253.0042,803.3972500448687
1254.9092,911.6407006231996
1256.8134,1003.1916161475478
1258.7169,1077.0503392193036
1260.6196,1121.1172024079412
1262.5216,1122.6425275124327
1264.4229,1089.626625120578
1266.3234,1080.9197945937526
1268.2232,1017.0223243970667
1270.1223,951.7844921864314
1272.0207,926.7065654475366
1273.9183,899.0888021482272
1275.8151,910.5314509892833
1277.7113,966.084751680597
1279.6067,1048.6989348267466
1281.5014,1209.6242213714627
1283.3953,1399.2608217714883
1285.2885,1595.408934387324
1287.181,1723.8687435868621
1289.0727,1786.9404177839078
1290.9637,1732.9241081535777
1292.854,1635.8199480015853
1294.7435,1514.5280533044024
1296.6323,1388.5985236803026
1298.5204,1306.7314436022793
1300.4077,1234.7768836573396
1302.2943,1172.9849013651776
1304.1802,1155.9555418977184
1306.0653,1109.1888386970395
1307.9497,1072.3348136456625
1309.8333,1026.3934775342213
1311.7162,1005.1148304300019
1313.5984,963.2488621363557
1315.4798,937.1955524054858
1317.3605,922.7048713571073
1319.2405,917.5267797389804
1321.1197,899.661229071817
1322.9982,836.5581617010622
1324.876,758.6675109755482
1326.753,660.839201878527
1328.6293,570.0231518065752
1330.5048,492.16927154787766
1332.3796,419.67746619038803
1334.2537,351.2476359003674
1336.127,321.62967664730195
1337.9996,288.72348088820183
1339.8714,269.4289378637807
1341.7426,255.14593392751829
1343.6129,239.87435273860467
1345.4826,221.01407540477123
1347.3515,212.81498063500555
1349.2196,200.57694492815494
1351.087,187.5998426549171
1352.9537,192.88354618022083
1354.8197,196.72792599299646
1356.6849,214.08285065333916
1358.5493,233.0481867540658
1360.4131,252.17379874716482
1362.276,298.509548754143
1364.1383,341.35529637476964
1365.9998,348.11089822371844
1367.8606,341.4262075021111
1369.7206,333.5010739299597
1371.5799,333.83534381301513
1373.4384,315.42886012201745
1375.2962,299.631462489354
1377.1533,245.3429873931235
1379.0096,191.61326831511042
1380.8652,162.59213628367002
1382.7201,134.97942041102544
1384.5742,99.52494818347861
1386.4275,80.32854573753718
1388.2802,66.3900382144601
1390.132,55.559249952221535
1391.9832,49.18600462489462
1393.8336,36.47012535096087
1395.6832,38.41143475704223
1397.5322,28.4597551050598
1399.3803,17.96490827282048
1401.2278,14.82671585353387
1403.0745,6.444999260761051
1404.9204,-2.3304202402040346
1406.7656,5.900278551483439
1408.6101,-8.713059882433754
1410.4538,-7.670591119215487
1412.2968,-3.4723836926532385
1414.139,4.181570492665742
1415.9805,13.791314221267157
1417.8213,25.206890235861692
1419.6613,46.12834114124735
1421.5006,76.25570929015282
1423.3391,117.78903657402384
1425.1769,177.27836412174884
1427.0139,257.9737318843264
1428.8502,347.57517803997155
1430.6858,424.4327381871626
1432.5206,448.2464444486261
1434.3547,442.61632470276163
1436.188,432.5924023455042
1438.0206,412.82469634662664
1439.8524,394.2132213499781
1441.6835,390.7079878711605
1443.5139,402.7090024836441
1445.3435,408.7162678538193
1447.1724,414.62978262098727
1449.0005,418.1995413372862
1450.8279,394.7755344085575
1452.6545,403.20774805864687
1454.4804,409.0961645636453
1456.3056,383.7907621675661
1458.13,375.2915150234609
1459.9536,355.7483934464742
1461.7766,318.71136399883494
1463.5987,271.73038968528886
1465.4202,239.00543032346752
1467.2409,197.03644301369957
1469.0608,170.07338246625977
1470.88,134.86620142105846
1472.6984,108.36485091727263
1474.5161,84.96928064541737
1476.3331,74.92943921235997
1478.1493,71.19527437527518
1479.9648,68.71673314204395
1481.7795,72.29376180859401
1483.5935,68.0763059836869
1485.4067,76.11431055314574
1487.2192,74.05771972203195
1489.031,78.10647693426358
1490.842,80.56052489318245
1492.6522,78.16980552106543
1494.4618,77.83425993458468
1496.2705,79.15382846871466
1498.0785,67.47845068008763
1499.8858,67.7080653337976
1501.6924,63.74261052015447
1503.4981,56.382023652387716
1505.3032,52.32624150630096
1507.1075,51.02520029387773
1508.911,46.67883570383941
1510.7138,44.68708291465549
1512.5159,37.89987663800713
1514.3172,29.66715113870532
1516.1178,27.488840302561982
1517.9176,21.66487771871789
1519.7166,22.445196701425516
1521.515,12.929730348288729
1523.3126,14.218411532459584
1525.1094,9.611172997792892
1526.9055,8.907947345959997
1528.7008,10.058667082520344
1530.4954,11.413264623954262
1532.2893,2.571672286155433
1534.0824,7.83382227088498
1535.8747,-1.9003532458124255
1537.6663,11.569077833770109
1539.4572,13.94206659186824
1541.2473,17.068563995026977
1543.0367,11.89852087037093
1544.8253,18.53188787433936
1546.6132,23.618615544386273
1548.4003,33.2586542326473
1550.1867,44.55195405507209
1551.9723,51.44846479502439
1553.7572,70.04813579034862
1555.5414,94.30091586440437
1557.3247,121.75675314007003
1559.1074,166.46559479721526
1560.8893,215.22738679814216
1562.6705,255.44207344049704
1564.4509,280.4595968696523
1566.2305,287.72989667656026
1568.0094,293.10290964757723
1569.7876,294.87856969176096
1571.565,283.2568077871403
1573.3417,292.7375519629589
1575.1176,293.1207274158923
1576.8928,320.8062564152413
1578.6672,347.6940582990995
1580.4409,380.48404919749794
1582.2138,402.62614176352747
1583.986,450.8702448454388
1585.7575,481.5162632652211
1587.5282,513.4640973361618
1589.2981,552.9136425563855
1591.0673,562.9647892893761
1592.8358,574.567422369481
1594.6035,587.7714210014005
1596.3704,569.6766586441605
1598.1366,564.1330028790728
1599.9021,545.4403155906834
1601.6668,509.8484530222079
1603.4308,506.2072659624591
1605.194,510.9166001017656
1606.9564,547.6762960683836
1608.7182,609.1861893814032
1610.4791,691.3461100831521
1612.2394,796.055882124096
1613.9988,896.2153225412395
1615.7576,961.0242404110288
1617.5156,993.3824358477561
1619.2728,954.8396993554729
1621.0293,875.1458115044054
1622.785,765.7505433163826
1624.54,631.5536570617764
1626.2942,526.054907353453
1628.0477,426.70404248874235
1629.8005,341.85080550442547
1631.5525,282.9449351702432
1633.3037,240.13616683742845
1635.0542,202.27423302776498
1636.804,162.70886386167473
1638.553,149.33978743683798
1640.3013,128.46673022384635
1642.0488,113.78941719989359
1643.7955,100.60757205750645
1645.5416,90.97091735131772
1647.2868,84.0291746298845
1649.0313,79.88206453205515
1650.7751,76.47930685638642
1652.5181,75.42062060261452
1654.2604,73.60572400568259
1656.0019,88.43433454632799
1657.7427,102.20616896923087
1659.4828,127.72094313472792
1661.222,153.02837188109436
1662.9606,188.52816876939613
1664.6984,218.07004583041544
1666.4354,224.4537132096532
1668.1717,205.42887887190955
1669.9072,163.99524853744816
1671.642,120.8525258722438
1673.3761,82.15041290231892
1675.1094,62.48861044517088
1676.8419,43.76681849679312
1678.5737,29.434736428293206
1680.3048,23.94206317311057
1682.0351,10.938497370337359
1683.7646,15.82373741964517
1685.4934,11.297481611320563
1687.2215,10.109428077412986
1688.9488,4.109274836997258
1690.6754,5.396719808054058
1692.4012,7.421460867471637
1694.1263,1.1831958381708318
1695.8506,3.581622468858484
1697.5742,-0.08356150359060166
1699.297,0.43734162188241044
1701.0191,-1.0059696188843645
1702.7404,-1.1637966944263098
1704.461,-2.4864310236424103
1706.1808,-6.474152399103048
1707.8999,-4.9772157739325
1709.6182,0.7541885755272517
1711.3358,-3.6300799046805423
1713.0527,-6.680161776054064
1714.7688,-4.096161335593536
1716.4841,-1.9281161454831306
1718.1987,7.423977152744499
1719.9126,-4.239858820563256
1721.6257,5.380398480701331
1723.338,-3.4151860411644748
1725.0496,2.1234524623325512
1726.7605,7.646412957394034
1728.4706,8.003794388987131
1730.18,0.14569562561470661
1731.8886,9.12221545574181
1733.5964,7.68345266637678
1735.3036,6.729505953305932
1737.0099,1.460473935481133
1738.7156,8.026455164559309
1740.4204,9.477548177592723
1742.1246,1.3138514313688745
1743.8279,13.5354632879002
1745.5306,8.342482096060564
1747.2325,10.085006069369626
1748.9336,14.013133337922312
1750.634,10.376961930963517
1752.3336,16.276589737606912
1754.0325,17.062114543196714
1755.7307,16.783633970311342
1757.4281,18.49124547090824
1759.1247,16.18504632910856
1760.8206,11.415133644120942
1762.5158,17.78160435330375
1764.2102,18.784555279864094
1765.9039,19.82408306919325
1767.5968,18.500284178836978
1769.289,18.413254868100438
1770.9804,21.563091211285894
1772.6711,19.999889098563273
1774.361,25.973744204471643
1776.0502,19.234752003551364
1777.7386,21.53300771060549
1779.4263,22.468606348089565
1781.1132,22.5416427231292
1782.7994,25.552211418164177
1784.4849,24.500406790217625
1786.1696,22.336322940790865
1787.8535,26.010053726381045
1789.5367,23.021692780122066
1791.2192,26.071333475047396
1792.9009,25.909068953973758
1794.5818,29.434992099004518
1796.2621,30.84919553315231
1797.9415,27.15177158508007
1799.6202,24.04281227495875
1801.2982,24.722409351441854
1802.9755,25.74065432275478
1804.6519,27.897638449899034
1806.3277,31.643452736469555
1808.0027,26.07818790708515
1809.6769,35.10193436993015
1811.3504,32.96478227240712
1813.0231,29.31682141089931
1814.6951,30.058141252142264
1816.3664,26.788830969703383
1818.0369,30.358979436568603
1819.7067,31.218675257835827
1821.3757,30.818006735013228
1823.044,33.40706185742238
1824.7115,36.385928306204875
1826.3783,36.404693428431784
1828.0443,37.31344420731486
1829.7096,29.012267262019037
1831.3741,37.451248838575
1833.0379,31.68047489289063
1834.701,36.55003100636162
1836.3633,37.76000244357883
1838.0248,37.51047410363307
1839.6856,33.001530508015264
1841.3457,37.98325580311163
1843.005,37.90573380529321
1844.6636,33.319047951098526
1846.3214,39.973281298008914
1847.9785,41.41851657031535
1849.6349,36.40483609257589
1851.2904,40.43232177516367
1852.9453,41.10105516440356
1854.5994,37.961117402297305
1856.2528,37.31258921983613
1857.9054,39.755550968400286
1859.5572,38.7400826262442
1861.2083,31.01626377406683
1862.8587,44.98417360516643
1864.5084,40.44389100267867
1866.1572,41.3954943998977
1867.8054,39.98906182567879
1869.4528,42.02467089492234
1871.0994,36.952398822638145
1872.7453,38.07232240358934
1874.3905,43.68451806301516
1876.0349,46.93906184543181
1877.6786,39.68602935851027
1879.3215,37.17549574053098
1880.9637,41.95753573291418
1882.6051,41.03222370532515
1884.2458,39.949633607853855
1885.8858,41.7098389802681
1887.525,43.16291296283947
1889.1634,39.50892827874111
1890.8011,43.64795721951711
1892.4381,46.380071681622354
1894.0743,42.055343125032266
1895.7098,42.323842545921536
1897.3446,44.03564051991154
1898.9786,41.79080719938537
1900.6118,41.78941229636973
1902.2443,41.33152510498326
1903.8761,44.517214501450525
1905.5071,39.84654894868092
1907.1374,39.56959646441169
1908.7669,36.63642466791464
1910.3957,46.39710078276559
1912.0237,38.35169166617624
1913.651,43.00026371138725
1915.2776,39.792882928122424
1916.9034,39.929614896103004
1918.5285,40.910524797121525
1920.1528,41.93567741367423
1921.7764,35.40513711915227
1923.3992,42.81896786759009
1925.0213,37.97723325897087
1926.6427,40.029996465088345
1928.2633,31.777320277963867
1929.8832,41.26926708931907
1931.5023,36.00589897310243
1933.1207,37.23727759056979
1934.7383,43.06346424291803
1936.3552,38.034519858971265
1937.9714,38.100504936919094
1939.5868,38.91147959460602
1941.2015,35.21750356887151
1942.8154,37.41863620744036
1944.4286,34.81493650586248
1946.041,35.05646308550136
1947.6528,31.693274219571208
1949.2637,36.32542783072168
1950.8739,38.05298152466962
1952.4834,37.77599254387775
1954.0921,37.94451775027892
1955.7001,40.808613628046174
1957.3074,37.56833628190745
1958.9139,30.823741408504418
1960.5197,36.97488432879557
1962.1247,35.62182005550207
1963.729,37.014603231596254
1965.3325,37.303288143832376
1966.9353,38.38792870881872
1968.5374,37.718578470130694
1970.1387,37.29529058746448
1971.7393,35.468117843330475
1973.3392,34.13711264728633
1974.9383,37.152327054208484
1976.5366,34.56381277760224
1978.1342,33.17162115944967
1979.7311,32.625803196094864
1981.3273,34.126409552165654
1982.9227,31.37349056603199
1984.5173,33.1170962347997
1986.1112,32.00727624183976
1987.7044,34.14407993935231
1989.2968,33.477556359464785
1990.8885,35.507754192863956
1992.4795,35.034721795461024
1994.0697,29.50850716808975
1995.6592,33.0791579612367
1997.2479,32.34672153030343
1998.8359,31.81124489990006
2000.4232,31.62277477116956
2002.0097,32.081357527142416
2003.5955,30.987039234621392
2005.1805,36.48986563959579
2006.7648,36.73988217818447
2008.3484,37.83713392160786
2009.9312,32.83166557368757
2011.5133,36.92352145987395
2013.0946,31.562745577300902
2014.6752,31.449381553867013
2016.2551,33.58347270184356
2017.8342,29.015062019007928
2019.4126,30.89419216730286
2020.9902,33.87090551852057
2022.5672,33.445244135511416
2024.1433,30.567249742416834
2025.7188,36.886963728925764
2027.2935,32.70442717905473
2028.8674,33.46968080795078
2030.4406,31.88276500371647
2032.0131,33.243719819757814
2033.5849,30.152584990653224
2035.1559,33.359399918543886
2036.7261,33.8142037040452
2038.2957,29.567035114178637
2039.8645,29.31793257782371
2041.4325,34.7169342281895
2042.9998,31.86407790530592
2044.5664,30.95940110203354
2046.1323,31.702940992592232
2047.6974,26.89473444160791
2049.2617,30.634817996676986
2050.8254,32.07322793644872
2052.3883,31.610000233224127
2053.9504,29.14517053857213
2055.5118,32.82877418796167
2057.0725,30.21084622541005
2058.6325,32.39142136664684
2060.1917,27.670534025293293
2061.7502,30.798218291056386
2063.3079,34.074507976937795
2064.8649,32.249436587957064
2066.4212,32.223037288388625
2067.9767,25.545342920012587
2069.5315,29.966386002378798
2071.0856,29.98619879958366
2072.6389,30.854813276059758
2074.1915,30.672261096377767
2075.7433,26.08857361656024
2077.2945,28.90378188590705
2078.8448,27.917916692832534
2080.3945,33.881008536713125
2081.9434,27.54308763774624
2083.4916,33.30418387731919
2085.039,28.66432686138856
2086.5857,26.923545862869062
2088.1317,33.58186986803226
2089.677,24.139327593914288
2091.2215,26.645947421732814
2092.7652,27.301757491312173
2094.3083,30.40678567601725
2095.8506,29.961059576195396
2097.3921,29.46460648812618
2098.933,27.617453408478468
2100.4731,28.769627039275292
2102.0124,30.221153806365052
2103.5511,28.97205984789997
2105.089,31.022370999820794
2106.6261,25.422112808347748
2108.1626,30.571310509477343
2109.6983,24.31998908498494
2111.2332,29.168173210933077
2112.7675,30.415887320184254
2114.301,25.513155553919347
2115.8337,28.410001749160386
2117.3657,27.20644948779787
2118.897,29.002522067622436
2120.4276,29.348242514360138
2121.9575,28.34363356371192
2123.4866,27.588717657896453
2125.0149,29.233516955696032
2126.5426,26.578053340005837
2128.0695,31.52234840138594
2129.5956,23.916423464615946
2131.1211,28.16029953925195
2132.6458,25.003997395685985
2134.1698,27.14753752270704
2135.693,29.740940159064195
2137.2155,28.634225272031273
2138.7373,28.377412531472658
2140.2584,28.27052132091059
2141.7787,27.063570740093056
2143.2983,31.306579606062954
2144.8171,24.49956646522746
2146.3353,25.642549550928095
2147.8527,24.335546851510685
2149.3693,30.078576098895766
2150.8853,21.871654781648402
2152.4005,26.21480008754793
2153.9149,27.208028985657222
2155.4287,25.50135818289121
2156.9417,30.294804114084457
2158.454,29.288382959058055
2159.9655,29.132110594685045
2161.4764,25.77600260495474
2162.9865,28.570074282535458
2164.4958,25.764340662335528
2166.0045,22.208816493562637
2167.5124,24.60351626778109
2169.0195,24.49845425446705
2170.526,23.743644477061594
2172.0317,21.0891007140213
2173.5367,23.084836506366358
2175.0409,28.730865184225948
2176.5445,25.92719984688091
2178.0473,22.97385330630358
2179.5494,20.72083811519431
2181.0507,24.51816659651493
2182.5513,24.81585086601899
2184.0512,23.663902794278385
2185.5504,23.862334003706565
2187.0488,22.66115588007807
2188.5465,25.56037957054403
2190.0435,25.660015995644187
2191.5397,20.56007582031448
2193.0353,21.310569452890775
2194.5301,22.661507096108167
2196.0241,25.812898739596207
2197.5175,26.964754146369557
2199.0101,17.617082821313844
2200.502,23.369893999667354
2201.9931,23.173196740497445
2203.4835,19.926999869172548
2204.9733,21.131311979329183
2206.4622,21.486141465333844
2207.9505,20.791496510240066
2209.438,24.147385082239936
2210.9248,19.703814941610673
2212.4109,17.660793607155767
2213.8962,20.818328400640553
2215.3809,17.626426467222657
2216.8648,18.085094743876454
2218.3479,18.244339991312188
2219.8304,19.504168789389013
2221.3121,19.614587535522773
2222.7931,19.625602432087604
2224.2733,16.787219485311795
2225.7529,22.199444505167648
2227.2317,18.412283133755338
2228.7098,19.97574079118077
2230.1872,16.789822713427043
2231.6638,17.854533936719903
2233.1397,18.369879329386947
2234.6149,19.885863581210458
2236.0894,21.802491198273913
2237.5632,18.719766487802303
2239.0362,15.48769353899577
2240.5085,14.656276253856774
2241.9801,15.875518379510922
2243.4509,13.095423516521052
2244.921,14.365995106694939
2246.3904,15.98723646088618
2247.8591,15.809150746288395
2249.3271,15.18174097022299
2250.7943,17.105009981919935
2252.2608,13.12896047879184
2253.7266,18.203594987201356
2255.1917,14.128915902221593
2256.656,11.954925436889795
2258.1197,14.78162566295407
2259.5826,12.809018532613251
2261.0447,10.587105850250097
2262.5062,7.515889292157226
2263.9669,10.745370428756303
2265.4269,10.625550755310243
2266.8862,13.40643165962831
2268.3448,7.988014423264261
2269.8026,13.67030019370749
2271.2598,13.00329003856723
2272.7162,15.436984888749677
2274.1719,11.371385545128234
2275.6268,11.206492654206528
2277.0811,12.242306748774325
2278.5346,11.37882824955662
2279.9874,11.366057454855323
2281.4395,14.803994549184125
2282.8908,14.142639603396077
2284.3414,16.281992540304387
2285.7914,11.272053141295956
2287.2406,16.512821024937793
2288.689,9.554295697076427
2290.1368,13.59647649843005
2291.5838,9.189362674173893
2293.0302,8.432953333518412
2294.4758,13.677247493780612
2295.9206,10.972244087947928
2297.3648,12.617941912235437
2298.8082,12.764339653135764
2300.251,10.761435870962146
2301.693,9.559228998384384
2303.1343,13.107717360457983
2304.5748,7.906899186646058
2306.0147,11.556772575334719
2307.4538,10.957335545841019
2308.8922,11.408586001914315
2310.3299,12.260521737730542
2311.7669,9.863140433379854
2313.2031,9.716439646347155
2314.6387,10.870416835485983
2316.0735,11.275069362485553
2317.5076,16.18039448033099
2318.941,8.536389329256693
2320.3737,7.743050887693187
2321.8056,12.600376048707147
2323.2369,12.158361627934767
2324.6674,17.167004315008512
2326.0972,17.37630067797734
2327.5263,16.58624711322014
2328.9547,22.446839843352905
2330.3823,20.20807492512911
2331.8092,17.019948190833873
2333.2355,10.932455270671781
2334.661,7.045591624647983
2336.0858,9.35935260344317
2337.5098,6.823733487282041
2338.9332,10.988729462796044
2340.3558,11.20433564837927
2341.7778,8.22054705253862
2343.199,6.637358571737707
2344.6195,9.954765020234731
2346.0393,8.972761145914347
2347.4583,9.041341597113629
2348.8767,9.61050093244215
2350.2943,7.530233620096098
2351.7113,9.200534032166743
2353.1275,8.921396465443024
2354.543,11.442815124708588
2355.9578,9.264784125533126
2357.3718,7.537297469058146
2358.7852,4.66034906377746
2360.1978,9.683932742811933
2361.6098,10.55804229267899
2363.021,9.632671403056833
2364.4315,10.60781365804317
2365.8413,8.033462545409122
2367.2504,10.509611446847629
2368.6587,9.286253663717133
2370.0664,9.613382392279917
2371.4733,6.040990735935807
2372.8795,8.869071701950844
2374.285,7.297618237181112
2375.6899,9.876623199792036
2377.0939,5.356079374972907
2378.4973,7.535979449146737
2379.9,7.316316055175832
2381.3019,10.097081750562708
2382.7032,7.528269019646785
2384.1037,5.609870245796685
2385.5035,4.591877737098386
2386.9027,8.62428374553923
2388.3011,1.2570804771877562
2389.6987,6.0902600518697625
2391.0957,6.173814576840229
2392.492,5.007736098451588
2393.8876,6.942016601318244
2395.2824,7.22664801997729
2396.6765,8.211622219545603
2398.07,6.046930992873683
2399.4627,5.282566050695863
2400.8547,8.568519043277163
2402.246,5.854781568057035
2403.6366,7.041345136789701
2405.0265,5.82820120268164
2406.4156,5.565341148525889
2407.8041,8.902756298833552
2409.1918,1.7404379224622915
2410.5789,6.628377199242294
2411.9652,3.616565291599315
2413.3508,0.4049932956753963
2414.7358,5.143652271446953
2416.12,1.9325332748405089
2417.5035,4.221627310346108
2418.8863,5.11092536312843
2420.2684,3.000418376135997
2421.6497,4.990097241208048
2423.0304,7.179952820179722
2424.4104,4.719975924985221
2425.7896,4.960157295759217
2427.1682,3.000487625436719
2428.546,2.3909575573512
2429.9232,3.1315577048312377
2431.2996,7.6222786572959365
2432.6753,8.163110972848742
2434.0503,3.3040451333703658
2435.4246,5.695071539110444
2436.7982,5.436180557278178
2438.1711,2.4773624981320665
2439.5433,4.718607617568921
2440.9148,7.1099061467119355
2442.2856,4.001248269498163
2443.6557,2.99262409876566
2445.025,4.134023707340077
2446.3937,4.975437138120867
2447.7617,3.416854392667247
2449.1289,6.708265422784081
2450.4955,0.7496601461077574
2451.8613,6.791028413192066
2453.2265,5.3323600670941715
2454.5909,3.2736448829610936
2455.9546,5.714872582616167
2457.3177,6.256032855146415
2458.68,4.54711533249008
2460.0416,6.588109584025176
2461.4025,4.079005133658626
2462.7627,3.8197914394162495
2464.1222,5.510457918533874
2465.4811,-0.9490060499505688
2466.8392,5.09138885789632
2468.1966,2.5816414465782884
2469.5533,2.3217504696852416
2470.9093,5.461714654990658
2472.2645,4.701532707050589
2473.6191,6.1912032758039715
2474.973,2.9307249641744306
2476.3262,1.6200963131736614
2477.6787,8.459315834506143
2479.0305,2.2483820236753758
2480.3816,7.087293291591834
2481.7319,6.176048026682182
2483.0816,5.314644546500162
2484.4306,8.653081106839096
2485.7789,4.5413559103458425
2487.1264,8.97946707313649
2488.4733,5.317412665913537
2489.8195,6.7551906695849055
2491.165,5.742799011884401
2492.5097,7.4802355529939035
2493.8538,2.6674980956673835
2495.1972,6.504584367856495
2496.5398,2.691492070837924
2497.8818,7.328218840842581
2499.2231,6.61476228718648
2500.5637,3.4011199459034316
2501.9035,4.737289286879658
2503.2427,7.923267745990202
2504.5812,5.309052711737294
2505.919,7.744641493390503
2507.256,5.080031347128923
2508.5924,1.4652194516852148
2509.9281,3.4502029349917933
2511.2631,8.184978910328851
2512.5974,3.919544456474597
2513.9309,5.103896570357463
2515.2638,2.1380322097104596
2516.596,5.921948281227614
2517.9275,5.105641670222738
2519.2583,3.089109202790169
2520.5884,5.072347653967867
2521.9178,6.205353767902665
2523.2465,2.688124238018041
2524.5745,7.8706556956838725
2525.9018,2.8029447453889134
2527.2284,6.534987912915362
2528.5543,5.766781696016039
2529.8796,1.2483225270939045
2531.2041,3.979606780884147
2532.5279,6.810630819638789
2533.851,8.591390965813751
2535.1735,7.721883473758766
2536.4952,4.60210451190963
2537.8163,6.682050171483382
2539.1366,5.811716497676059
2540.4562,1.8410994688632911
2541.7752,2.0701950053035034
2543.0935,5.198999008844176
2544.411,4.277507360630828
2545.7279,2.105715889819045
2547.0441,7.983620382789347
2548.3596,4.66121660486516
2549.6744,3.5885002415337084
2550.9885,6.16546693167011
2552.3019,4.892112278264506
2553.6146,5.9684318226523345
2554.9266,5.24442105724804
2556.2379,7.070075414781705
2557.5485,4.8953902755392775
2558.8585,7.720360949105903
2560.1677,5.794982696112925
2561.4762,4.869250699988079
2562.7841,5.693160086209325
2564.0913,5.166705931562156
2565.3977,2.7398832559004305
2566.7035,5.362687027411077
2568.0086,8.18511218688215
2569.313,6.90715362147499
2570.6167,2.7788061364997247
2571.9197,8.95006446819503
2573.222,8.970923325011583
2574.5236,7.7413773258994
2575.8246,5.511421000099375
2577.1248,9.4310487994386
2578.4244,9.150255120629943
2579.7232,5.369034266075808
2581.0214,7.087380446676008
2582.3189,6.355287819640104
2583.6157,8.72275047130379
2584.9118,8.089762424449951
2586.2072,2.8563176146339515
2587.5019,6.372409896513567
2588.7959,5.138033096183442
2590.0893,10.7531809760141
2591.3819,7.667847246995805
2592.6739,4.782025512587005
2593.9652,7.845709299567709
2595.2557,8.858892086897669
2596.5456,9.421567275079553
2597.8348,13.58372817602718
2599.1234,9.595368007438651
2600.4112,10.656479851174893
2601.6983,8.86705669314312
2602.9848,10.927091412685826
2604.2705,12.78657680047494
2605.5556,7.495505537911484
2606.84,10.80387017853073
2608.1237,8.311663200912925
2609.4067,9.318876975599622
2610.689,13.525503790015748
2611.9707,15.481535838397477
2613.2516,9.58696517972598
2614.5319,9.041783718167046
2615.8115,6.045983262016861
2617.0903,11.349555529153797
2618.3685,9.652492176996425
2619.6461,11.504784749467767
2620.9229,7.4564246939659355
2622.199,7.4574033428411965
2623.4745,8.907711953879655
2624.7493,9.207341710293363
2626.0234,4.15628370621728
2627.2968,8.304528943712967
2628.5695,7.302068383279128
2629.8415,8.098892902369215
2631.1128,6.694993305416041
2632.3835,6.390360315863468
2633.6535,6.584984590205451
2634.9228,7.278856721032362
2636.1914,12.221967235084762
2637.4593,8.564306586314657
2638.7265,6.055865106454469
2639.9931,5.74663304159354
2641.259,6.536600577262568
2642.5242,7.12575784152596
2643.7887,8.614094897082133
2645.0525,9.951601735371923
2646.3156,5.488268261695232
2647.5781,8.774084281836004
2648.8398,4.559039546695544
2650.1009,7.093123719434331
2651.3613,9.026326417622471
2652.6211,9.058637187898846
2653.8801,9.190045486639093
2655.1385,5.320540679632508
2656.3961,4.900112040767979
2657.6531,8.928748790728974
2658.9094,6.706440101197835
2660.1651,7.633175054569442
2661.42,6.508942666174313
2662.6743,7.0337318750112345
2663.9279,6.007531554989562
2665.1808,7.580330509681367
2666.433,7.1021174825834095
2667.6846,10.072881141389196
2668.9354,10.192610082771047
2670.1856,7.061292802672519
2671.4351,9.528917695111055
2672.6839,10.395473083491162
2673.9321,10.260947195928196
2675.1795,8.875328156582768
2676.4263,9.688603987006033
2677.6724,9.5507626199959
2678.9179,10.361791891464222
2680.1626,12.921679541815251
2681.4067,10.330413207835306
2682.6501,11.787980397093946
2683.8928,11.644368513856591
2685.1348,12.049564844508872
2686.3761,9.653556558992769
2687.6168,5.406330706754645
2688.8568,10.757874240705348
2690.0961,7.158174059692428
2691.3348,6.657216954984712
2692.5727,6.654989646269321
2693.81,8.251478786661188
2695.0466,7.796670962725393
2696.2826,7.440552678512198
2697.5178,9.183110360105204
2698.7524,9.174330359182498
2699.9863,5.114198935591048
2701.2195,7.552702257434582
2702.452,9.589826441674802
2703.6839,10.575557529746447
2704.9151,5.709881467186008
2706.1456,10.592784093774455
2707.3755,12.074251192193941
2708.6046,11.354268439198847
2709.8331,11.882821390801013
2711.0609,13.059895489469639
2712.2881,8.435476058845701
2713.5145,9.509548291971235
2714.7403,14.732097297533578
2715.9654,11.103108089124575
2717.1899,16.32256553301513
2718.4136,14.190454384445104
2719.6367,15.906759235428758
2720.8591,18.671464536075796
2722.0809,22.284554577428338
2723.3019,17.096013463813904
2724.5223,19.50582507671448
2725.7421,18.263973126651933
2726.9611,19.57044112908992
2728.1795,17.375212416852406
2729.3972,15.37827012705889
2730.6142,14.92959722307679
2731.8306,12.62917651449083
2733.0462,15.126990661589772
2734.2612,14.123022198370641
2735.4756,11.9672535075606
2736.6892,14.059666830656582
2737.9022,9.900244289483027
2739.1145,10.5389678652677
2740.3262,11.775819440235963
2741.5372,9.810780791223515
2742.7475,7.143833577307888
2743.9571,6.874959359458813
2745.1661,8.654139627207691
2746.3744,6.231355801336342
2747.582,7.106589216085233
2748.7889,3.7298211433812867
2749.9952,4.651032784085544
2751.2008,4.570205301760858
2752.4057,6.237319813459791
2753.61,2.952357390532889
2754.8136,1.0652990419574877
2756.0165,4.026125747187372
2757.2188,2.684818475023377
2758.4204,3.2913581540050316
2759.6213,-0.35427431417626565
2760.8215,2.3979019392573164
2762.0211,5.197871322284023
2763.22,0.6456182189030599
2764.4182,6.641126961135008
2765.6158,0.18438187454424337
2766.8127,1.8253672182839082
2768.009,1.564067249663367
2769.2045,-0.09953379226167414
2770.3994,1.2845483159238498
2771.5936,0.06629879197756594
2772.7872,1.2957028408116216
2773.9801,3.772745666675199
2775.1723,1.8474124608604399
2776.3639,2.5196883769320593
2777.5548,-0.4104414500193414
2778.745,-0.34299191010000385
2779.9346,1.872026206893885
2781.1235,-0.7653944623447018
2782.3117,1.7947387001569624
2783.4992,2.002425958662272
2784.6861,1.8576675594872398
2785.8723,2.0104637289236322
2787.0579,1.010814674686543
2788.2428,-1.391279415613539
2789.427,-1.4958183644742746
2790.6106,-2.8027880955119358
2791.7935,-0.3121595891173925
2792.9757,-0.22387582582847187
2794.1573,0.21212333229131985
2795.3382,0.545900259697973
2796.5184,2.0275173287262476
2797.698,-1.0429630937480496
2798.8769,0.18452133887574718
2800.0551,-0.6899566076004433
2801.2327,3.133675830780142
2802.4096,-0.4945016893592964
2803.5859,-0.17440954273222786
2804.7615,1.7440368360197027
2805.9364,3.960923754606185
2807.1106,4.076337503296493
2808.2842,2.690364332750704
2809.4572,3.9530904528655313
2810.6294,5.91460204663408
2811.801,6.074985257518556
2812.972,9.034326169835083
2814.1423,9.342710807149885
2815.3119,12.800225102686007
2816.4808,11.406954896239341
2817.6491,15.06298589960359
2818.8167,22.318403710502864
2819.9837,27.473293776031475
2821.15,34.02774132009971
2822.3157,35.93183129188493
2823.4807,46.58564830028712
2824.645,52.73927659488795
2825.8086,55.842799959412616
2826.9716,62.296301650193605
2828.134,69.79986436513539
2829.2957,80.70357017917945
2830.4567,88.75750046926862
2831.617,94.7117358053101
2832.7767,86.21635586963603
2833.9358,93.87143939746132
2835.0941,91.47706426183724
2836.2519,89.98330739710076
2837.4089,87.9402448228181
2838.5653,79.79795165872261
2839.7211,76.00650214514503
2840.8761,73.76596972443673
2842.0306,73.62642707888399
2843.1843,68.13794615311352
2844.3374,72.30059815548775
2845.4899,76.01445361298966
2846.6417,78.82958232959626
2847.7928,80.69605334914016
2848.9433,75.76393492715803
2850.0931,79.73329451222615
2851.2422,79.80419879528141
2852.3907,81.57671366992773
2853.5385,87.70090423172715
2854.6857,82.12683476047451
2855.8323,90.90456865895567
2856.9781,94.98416850868819
2858.1233,94.76569598214395
2859.2679,98.34921180195322
2860.4118,103.38477574308925
2861.555,104.42244659703329
2862.6976,108.96228212141882
2863.8395,110.05433902965493
2864.9808,106.8486729455278
2866.1214,112.64533839228037
2867.2614,113.24438882466876
2868.4007,115.19587657099574
2869.5393,120.29985282712022
2870.6773,119.9063676369424
2871.8146,118.01546984136397
2872.9513,122.77720708222289
2874.0874,126.04162582120256
2875.2227,120.50877129221422
2876.3574,122.57868746875292
2877.4915,131.45141711922605
2878.6249,130.4270017862541
2879.7577,135.00548169794342
2880.8898,136.8368957781305
2882.0212,142.47128160059688
2883.152,138.0086753707553
2884.2821,137.94911186930554
2885.4116,143.14262449686078
2886.5405,146.18924527454303
2887.6686,147.83900479204803
2888.7962,154.24193217717914
2889.923,151.3980550793496
2891.0493,146.65739960555345
2892.1748,141.6199903488042
2893.2997,147.38585043554127
2894.424,143.65500157600434
2895.5476,141.37746400657446
2896.6706,150.25325652708284
2897.7929,143.33239652358594
2898.9145,146.76489987960775
2900.0355,144.15078104534823
2901.1559,148.9900530033584
2902.2756,142.4827272946815
2903.3946,143.22881397046024
2904.513,143.27832165701014
2905.6308,143.4812575483585
2906.7479,151.93762740574954
2907.8643,149.19743555561476
2908.9801,147.11068480500964
2910.0953,147.12737646901513
2911.2098,144.69751039160548
2912.3236,145.971084945481
2913.4368,141.7480970563672
2914.5494,139.62854219027844
2915.6613,139.86241439574843
2916.7725,138.19970632502532
2917.8831,137.8404092317332
2918.9931,131.43451298749906
2920.1024,129.83200608554586
2921.211,129.4328757047515
2922.319,128.63710772567373
2923.4264,124.94468673454146
2924.5331,125.65559603121275
2925.6391,125.31981766609871
2926.7445,121.68733243305454
2927.8493,125.85811987273725
2928.9534,126.08215830893067
2930.0569,125.90942480683734
2931.1597,128.2398951708383
2932.2619,132.72354394622045
2933.3634,134.81034439587154
2934.4643,133.00026845544414
2935.5645,134.24328671248722
2936.6641,133.83936842454716
2937.763,135.33848150673748
2938.8613,133.09059253577811
2939.959,134.945666735004
2941.056,129.80366799684435
2942.1523,124.51455886427172
2943.248,110.57830058222189
2944.3431,108.99485315048513
2945.4375,97.6141754630687
2946.5313,93.03622532403143
2947.6244,86.96095956129031
2948.7169,77.63833407240014
2949.8087,74.61830388530615
2950.8999,63.75082325157017
2951.9904,62.48584567657113
2953.0803,58.773324028179665
2954.1696,54.86321054940802
2955.2582,50.80545689553516
2956.3462,48.35001417320798
2957.4335,46.24683298101885
2958.5202,49.59586343405997
2959.6062,51.847055184955295
2960.6916,48.900357390370104
2961.7764,43.355718688499216
2962.8605,46.16308722853385
2963.9439,45.87241072610807
2965.0267,45.93363643522512
2966.1089,49.946711151164095
2967.1905,45.36158120986781
2968.2714,42.22819244781194
2969.3516,46.19649024785645
2970.4312,39.26641957057936
2971.5102,44.28792491459379
2972.5885,43.76095038584873
2973.6662,45.435439647413915
2974.7432,49.7613359247496
2975.8196,47.6385819889617
2976.8954,48.667120113542694
2977.9705,49.74689209559929
2979.045,48.02783924556703
2980.1188,45.109902376412464
2981.192,48.34302182082384
2982.2645,45.52713746039036
2983.3364,44.66218869327098
2984.4077,40.99811446235336
2985.4783,45.334853263903206
2986.5483,38.47234318420517
2987.6177,35.96052185619534
2988.6864,31.949326528086388
2989.7545,32.188694088485775
2990.8219,29.528561106507716
2991.8887,26.96886382937953
2992.9548,24.759538209042894
2994.0204,21.400519927750906
2995.0852,17.64174442016126
2996.1495,12.783146906926454
2997.2131,16.324662432281563
2998.276,12.016225912630226
2999.3383,15.107772101129466
3000.4,7.799235630774081
3001.4611,10.540550983481154
3002.5215,5.581652563175403
3003.5812,3.1724746683760685
3004.6404,6.212951541785909
3005.6989,3.5030173943829226
3006.7567,3.542606375015634
3007.8139,5.431652597502396
3008.8705,3.62009014023554
3009.9264,2.1078530272908793
3010.9818,3.044875246543313
3012.0364,-0.06890923521075365
3013.0905,0.6164335183763612
3014.1439,-2.3491618679444493
3015.1966,2.0342392244134118
3016.2487,3.4165948821635688
3017.3002,1.5978631716773037
3018.3511,2.078002125159937
3019.4013,0.8569697588381793
3020.4509,0.0347240681587202
3021.4998,-0.938776960001416
3022.5481,-3.013575339112432
3023.5958,2.5102962957373016
3024.6428,1.682835415077033
3025.6892,-0.14596053566691936
3026.735,2.4739058721033835
3027.7802,-0.30756647486836997
3028.8247,1.209621285422461
3029.8685,-0.7245289124304186
3030.9118,2.1899848540705094
3031.9544,2.0031717454665667
3032.9963,0.3650409003992685
3034.0376,4.525601437478397
3035.0783,4.384862471663354
3036.1184,4.54283307265753
3037.1578,4.599522266315709
3038.1966,5.704939033064328
3039.2348,1.1090923073346204
3040.2723,3.1619909665084194
3041.3092,4.663643876876659
3042.3455,2.1640598731103573
3043.3811,0.9132477432441135
3044.4161,2.061216253671919
3045.4505,1.607974161655278
3046.4842,4.803530203843536
3047.5173,7.5978931008063135
3048.5498,5.541071525077921
3049.5816,7.483074073213757
3050.6128,3.373909286358515
3051.6434,5.063585630826161
3052.6734,7.702111539191584
3053.7027,8.139495393393812
3054.7314,9.075745498350784
3055.7594,8.810870077585488
3056.7868,7.094877263863477
3057.8136,6.077775101841617
3058.8398,9.059571565227984
3059.8653,10.040274566952931
3060.8902,6.119891929351088
3061.9145,9.548431374354337
3062.9381,11.825900562695654
3063.9612,13.302307059623711
3064.9835,10.927658312128173
3066.0053,7.7019616341756425
3067.0264,10.525224230456136
3068.0469,11.847453228640077
3069.0668,10.918655651145638
3070.086,9.73883840191646
3071.1046,13.308008275709646
3072.1226,7.5261719698939125
3073.1399,10.343336048757909
3074.1567,9.959507001328564
3075.1727,10.474691213199463
3076.1882,9.53889497036911
3077.203,11.552124454089114
3078.2173,9.61438575022212
3079.2308,8.275684829109544
3080.2438,6.5860275649489495
3081.2561,7.195419749181058
3082.2678,6.7538671073863235
3083.2789,6.311375293191009
3084.2893,6.817949892682705
3085.2991,4.823596428835264
3086.3083,4.828320356443031
3087.3169,6.782127082064415
3088.3248,6.885021963974632
3089.3321,2.0370102926276434
3090.3388,4.388097289627183
3091.3449,5.68828815620688
3092.3503,6.937588049719416
3093.3551,6.086002070634585
3094.3593,8.533535250046308
3095.3629,5.080192558188497
3096.3658,4.325978879959692
3097.3681,4.670899049456544
3098.3698,7.664957857515901
3099.3708,5.908160048265636
3100.3713,6.950510289184033
3101.3711,1.3920131886677929
3102.3702,3.6826732856085105
3103.3688,5.07249510497766
3104.3667,4.161483134919987
3105.364,4.099641812855273
3106.3607,0.4369755345885
3107.3568,5.473488654928222
3108.3522,3.2091855243132468
3109.347,2.1940704384475005
3110.3412,7.828147660943062
3111.3348,4.561421433471315
3112.3277,4.243895919422167
3113.32,0.9255752365713192
3114.3117,2.0564634602555163
3115.3028,0.8865646565557554
3116.2932,3.16588287098841
3117.2831,4.194422140204217
3118.2723,5.472186469195082
3119.2608,2.4991798210086884
3120.2488,4.6254061039708745
3121.2361,1.8508692014156765
3122.2229,3.6255729504230683
3123.209,4.549521169564345
3124.1944,3.172717641155071
3125.1793,3.945166102015607
3126.1635,1.6168702572391407
3127.1471,4.687833772467206
3128.1301,1.8580602971726279
3129.1125,3.6775534339499085
3130.0942,1.4463167668129397
3131.0753,2.514353843000089
3132.0558,3.5816681952865537
3133.0357,3.3482633313040058
3134.015,3.5141427228674313
3134.9936,0.6793098083091884
3135.9716,5.19376799082022
3136.949,1.5575206667983643
3137.9258,2.77057118070379
3138.902,4.132922861421456
3139.8775,2.894579010130614
3140.8524,2.8055428866812857
3141.8267,-0.5341822780222971
3142.8004,0.025406718868673295
3143.7735,3.6343184166839606
3144.7459,6.792561354499263
3145.7178,2.0501440350471025
3146.689,2.3070748931343896
3147.6596,3.7133623430666063
3148.6295,3.6690147760784892
3149.5989,6.124040546271161
3150.5676,3.6284479710555964
3151.5357,1.8822453066023668
3152.5032,2.6354407727975655
3153.4701,7.138042570704839
3154.4364,4.840058875033433
3155.402,3.8914977891121696
3156.367,2.092367367869282
3157.3315,5.142675627318032
3158.2952,4.292430562548011
3159.2584,1.0416401172220526
3160.221,6.340312192078686
3161.1829,5.288454677440047
3162.1442,1.8860754002251463
3163.105,5.2331821344684535
3164.065,3.8797826353436857
3165.0245,3.6258846056927396
3165.9834,6.721495709559688
3166.9416,4.866623574729758
3167.8993,4.611275761773221
3168.8563,3.705459782594115
3169.8127,6.049183102983726
3170.7684,4.192453151678743
3171.7236,4.0352772969240265
3172.6782,2.677662865039907
3173.6321,3.5196171419939466
3174.5854,8.31114738697708
3175.5381,4.2522608239840665
3176.4902,4.542964593898201
3177.4417,5.333265795080173
3178.3926,5.623171480461018
3179.3428,5.312688649639124
3180.2924,4.251824245981167
3181.2415,2.190585159726928
3182.1899,7.028978238597954
3183.1377,4.417010308409941
3184.0848,7.854688124688801
3185.0314,8.042018398790345
3185.9773,4.029007763523508
3186.9227,5.115662771277046
3187.8674,4.901989934149627
3188.8115,5.837995713083303
3189.755,6.423686520000224
3190.6979,5.159068708442585
3191.6402,5.144148567715719
3192.5818,5.678932335534275
3193.5229,6.313426198171418
3194.4633,2.8476362851109855
3195.4031,5.981568662702564
3196.3423,4.815229368819373
3197.2809,3.9986243815189524
3198.2189,1.831759630706547
3199.1563,5.964641006301157
3200.0931,4.997274379904187
3201.0292,9.829665563470638
3201.9648,4.911820318982757
3202.8997,5.943744310126146
3203.834,5.575443151468198
3204.7677,4.906922398138866
3205.7008,5.888187549513674
3206.6333,7.519244055898923
3207.5652,4.850097308719045
3208.4964,8.080752624206022
3209.4271,2.961215270090877
3210.3571,6.3414904332971
3211.2865,6.271583271136034
3212.2154,5.85149887750412
3213.1436,7.881242283581968
3214.0712,6.510818462035195
3214.9982,4.3902323067169995
3215.9246,8.519488646372395
3216.8503,5.09859226584407
3217.7755,9.177547864779836
3218.7001,7.856360091841574
3219.624,3.635033503915693
3220.5473,7.113572579324995
3221.4701,4.641981760041947
3222.3922,7.620265416903292
3223.3137,7.898427874325958
3224.2346,6.076473380524219
3225.1549,6.25440610472807
3226.0746,6.682230155402772
3226.9937,9.709949578469523
3227.9121,7.337568353027225
3228.83,5.315090361075284
3229.7473,6.942519411237427
3230.6639,6.16985925898648
3231.5799,10.247113590370077
3232.4954,6.824286029737256
3233.4102,5.101380098965922
3234.3244,8.77839925169112
3235.238,7.405346890534096
3236.151,4.232226330332095
3237.0634,6.559040811868899
3237.9752,3.9357935336060175
3238.8864,10.962487628414555
3239.797,5.889126189807678
3240.7069,8.165712201673678
3241.6163,9.942248589009589
3242.5251,7.06873819515532
3243.4332,7.295183764028296
3244.3408,10.57158796885856
3245.2477,8.297953409924315
3246.154,8.574282581787884
3247.0598,7.3005778960320535
3247.9649,9.676841678496785
3248.8694,8.203076182016268
3249.7733,7.229283562656265
3250.6766,9.305465894451784
3251.5793,5.931625179145
3252.4814,11.907763325423428
3253.3829,8.883882182658335
3254.2838,7.659983481143341
3255.1841,7.83606886233324
3256.0838,7.1621398910829885
3256.9829,9.288198053886852
3257.8814,7.864244765617697
3258.7792,7.740281348266412
3259.6765,8.666309045181432
3260.5731,8.892329022308383
3261.4692,8.418342358929793
3262.3647,8.5443500454049
3263.2595,6.320352987909526
3264.1538,8.096352007175978
3265.0474,5.52234786073304
3265.9404,7.798341225145971
3266.8329,8.87433272175655
3267.7247,9.850322893923146
3268.616,10.826312196260796
3269.5066,7.602300984881308
3270.3966,7.778289507633366
3271.286,9.404277936342645
