RamanShift,CorrectedData
30.1047,1612.1076148074303
32.3739,1498.6234240909312
34.6426,1390.7392172533555
36.9109,1276.354963187393
39.1787,1167.0706168783413
41.4461,1055.3861205479473
43.7131,943.1514047472514
45.9796,834.3163894734329
48.2456,727.4809852921555
50.5112,613.295094425919
52.7764,507.4086118224129
55.0411,396.6714262963755
57.3054,283.9334215884587
59.5692,184.9444774726001
61.8326,68.10447088340295
64.0955,-31.436723093974223
66.3579,-139.97923005541773
68.6199,-237.72286154395007
70.8815,-317.4160307100857
73.1426,-361.8047758529525
75.4032,-269.8819642855319
77.6634,131.5631511089058
79.9231,1224.5440135679123
82.1824,3742.874065013408
84.4412,8355.216735121874
86.6995,14723.235416141053
88.9574,20876.34341676652
91.2148,25090.853898461486
93.4717,27008.079813925753
95.7282,27325.333864950564
97.9842,27163.828483246372
100.2398,26567.625827270287
102.4949,25895.23778384115
104.7495,25030.475974101522
107.0036,24126.25176024161
109.2573,23299.326254146843
111.5105,22474.310326440147
113.7632,21595.364614751183
116.0154,20844.549531966506
118.2672,20245.87527501903
120.5185,19661.85183239617
122.7693,19159.9889901266
125.0197,18739.54633762047
127.2696,18315.933272688042
129.519,18080.459005744124
131.7679,17766.732564044178
134.0163,17543.112794039087
136.2642,17237.308364512413
138.5117,16954.52776881659
140.7587,16633.729327930974
143.0052,16361.771193289635
145.2512,16011.761349989367
147.4967,15662.407619509238
149.7417,15436.41766321072
151.9863,15241.598985831184
154.2304,15020.158937743852
156.4739,14775.204716905955
158.717,14653.443371073126
160.9596,14372.581800248963
163.2017,14041.076757902629
165.4433,13681.184853777471
167.6844,13257.962557206069
169.925,12805.166200709158
172.1651,12313.251984227849
174.4047,11954.275979651593
176.6439,11573.094135737312
178.8825,11196.362281699192
181.1206,10950.436131020466
183.3582,10701.971285220756
185.5954,10473.923236315306
187.832,10283.397369299666
190.0681,10172.998964430151
192.3037,10079.783199129102
194.5388,9956.905149088885
196.7734,9894.969789204022
199.0075,9885.131994799996
201.2411,9942.24654225259
203.4742,9923.66810908627
205.7068,9974.351273403041
207.9389,9973.450514068234
210.1704,10066.670210203672
212.4015,10060.764641196663
214.632,10194.437985767832
216.862,10276.24432203015
219.0915,10332.987626152215
221.3205,10533.721771540188
223.549,10703.450528270343
225.777,10958.97756108176
228.0044,11236.106427679006
230.2314,11593.590576176874
232.4578,11986.23334232909
234.6837,12295.787945953487
236.909,12480.807487005563
239.1339,12344.144942482946
241.3582,12064.153164575197
243.582,11615.884882030423
245.8053,11176.842702955208
248.0281,10737.129119297286
250.2503,10387.796511235976
252.472,10134.297151579305
254.6932,9964.283209257344
256.9139,9786.206751857198
259.134,9658.569747323147
261.3536,9527.624065737406
263.5727,9453.021480596492
265.7912,9318.51367012069
268.0092,9259.652218000065
270.2267,9111.138614739553
272.4436,8994.474258247574
274.6601,8869.660455321162
276.8759,8712.398422812614
279.0913,8604.089288877625
281.3061,8525.734094547914
283.5204,8543.433794814318
285.7341,8543.38925941033
287.9473,8652.901272635114
290.16,8797.020533353938
292.3721,9115.847653903087
294.5837,9475.633158648616
296.7947,9753.127480798134
299.0052,9909.58095880291
301.2152,9703.793833582937
303.4246,9324.216246962405
305.6334,8740.998243727576
307.8418,8131.889775422558
310.0495,7624.79070618148
312.2568,7264.250818819581
314.4635,6952.069819904193
316.6696,6828.697343360158
318.8752,6693.982953591614
321.0802,6683.226146715737
323.2847,6728.7263519098815
325.4887,6702.232931519135
327.692,6593.545180601333
329.8949,6449.512327191982
332.0972,6157.583533391131
334.2989,5820.957896803731
336.5001,5467.934453458896
338.7007,5206.312181176154
340.9008,5023.690003095704
343.1003,4831.116790294631
345.2992,4726.241363613115
347.4976,4627.562495580185
349.6955,4619.228911462447
351.8927,4633.239290250902
354.0895,4546.942264744257
356.2856,4541.33642140884
358.4812,4474.870301241559
360.6763,4511.842399825964
362.8707,4451.00116799691
365.0646,4432.7450114708445
367.258,4322.972291454205
369.4508,4330.081324825991
371.643,4318.970385235476
373.8346,4287.387703031125
376.0257,4215.331465371701
378.2162,4071.0498165420995
380.4062,3954.3908586738908
382.5956,3758.252653188172
384.7844,3616.5832219621298
386.9726,3466.230549290445
389.1603,3353.7425833019697
391.3474,3272.7172374632573
393.5339,3238.8523917034363
395.7199,3124.1958932244725
397.9052,3104.1455568398032
400.09,3106.2491661209115
402.2743,3104.754473597839
404.4579,3132.0592007381383
406.641,3237.361037961813
408.8235,3433.1076443682778
411.0054,3716.5966466833524
413.1868,4122.225637301781
415.3675,4440.942171452336
417.5477,4637.993763141558
419.7273,4688.177881966558
421.9064,4514.091951144521
424.0848,4362.533347010856
426.2627,4068.699400760059
428.4399,3752.687399961289
430.6166,3361.9945914967357
432.7928,2926.96818472172
434.9683,2588.3553553716283
437.1432,2330.6532499121677
439.3176,2137.558988925495
441.4914,1976.0196696872426
443.6645,1923.282368097458
445.8371,1822.3441402959852
448.0091,1717.6520231898558
450.1806,1645.703035462664
452.3514,1561.8941786214928
454.5216,1528.1224377163944
456.6913,1443.8347821784828
458.8603,1457.2281661576471
461.0288,1473.2995293654349
463.1967,1474.8457969411156
465.3639,1585.413879290969
467.5306,1660.35067207282
469.6967,1788.4530550903582
471.8622,1882.317891543782
474.0271,2081.242026748774
476.1914,2161.422287197831
478.3551,2080.80547857105
480.5182,2072.788384934305
482.6807,2043.367769545428
484.8426,2088.4903749343684
487.0039,2328.9529231974175
489.1647,2669.552115545959
491.3248,3150.034629901862
493.4843,3330.697117491489
495.6432,3307.6361980408547
497.8015,3193.7484579690135
499.9592,3205.380450618666
502.1163,3138.728697395036
504.2728,2916.939687649541
506.4287,2628.8598793463298
508.5839,2140.7357012801513
510.7386,1807.713555957167
512.8927,1614.589824476192
515.0461,1451.8108698588967
517.199,1368.0730389810687
519.3512,1325.8726642003912
521.5029,1379.506064193809
523.6539,1402.1695443795597
525.8043,1450.4093963808155
527.9541,1430.2218977990651
530.1033,1435.4033117316958
532.2519,1450.099886973907
534.3999,1591.257857966857
536.5472,1888.323444650734
538.694,2333.8428510531357
540.8401,2928.512262318438
542.9856,3451.277840252591
545.1305,3650.085717376449
547.2748,3506.131991698083
549.4185,3120.962724724717
551.5615,2743.0739429022524
553.704,2582.0616414669857
555.8458,2497.3717882244637
557.987,2507.6003251596285
560.1276,2431.7431692837163
562.2675,2409.5962125319584
564.4069,2408.005322522171
566.5456,2363.2163427762134
568.6837,2263.175092735899
570.8212,1994.0273682108927
572.958,1672.418942379103
575.0942,1414.1455684781886
577.2299,1254.2529830216245
579.3648,1232.936908381429
581.4992,1289.6430543870974
583.6329,1498.3171185387655
585.766,1677.2047854401408
587.8985,1882.7017247117692
590.0304,1854.9535892021431
592.1616,1763.40601293275
594.2922,1677.5046113755434
596.4222,1523.8449823684114
598.5515,1377.4727069742166
600.6802,1197.033351017366
602.8083,985.4724665475605
604.9358,947.335593644164
607.0626,891.6682625318226
609.1888,817.9159939618366
611.3144,737.1742997688416
613.4393,604.6386836083129
615.5636,517.1546417640002
617.6873,361.0176644732819
619.8103,345.273236801997
621.9327,253.26684020581342
624.0544,255.99395268767148
626.1756,216.05004971785456
628.2961,171.38060420671172
630.4159,107.73108690410481
632.5351,68.84696684609844
634.6537,15.523711991441814
636.7716,-13.393210389573142
638.8889,7.541666818104204
641.0056,77.87394452769149
643.1216,42.14914831114584
645.237,75.66280296169134
647.3518,92.76043285106789
649.4659,150.0875615943969
651.5793,155.28971187919706
653.6922,108.86240489212469
655.8043,94.65116026693977
657.9159,101.25149654877896
660.0268,50.80893133627433
662.137,22.018981215542226
664.2466,-31.672837735386565
666.3556,-53.67100965866666
668.4639,-96.17970228480226
670.5716,-15.802547170917023
672.6786,50.757784961067955
674.785,127.44878125668401
676.8907,203.21792835387532
678.9958,262.9127116161126
681.1002,257.7306143746937
683.204,248.01911733179986
685.3072,189.12569861230259
687.4097,164.54783386089184
689.5115,101.88299683099649
691.6127,45.27865963057775
693.7132,-6.617706651222761
695.8131,-18.258631378039354
697.9123,-33.04657780263187
700.0109,-73.13382677403933
702.1089,-90.57232900598137
704.2061,-87.76330460528334
706.3028,-53.95706886120024
708.3987,26.19693969240143
710.4941,105.89982155277357
712.5887,290.25267695520233
714.6827,597.0066050759815
716.7761,956.6627021888962
718.8688,1337.472058597661
720.9608,1552.6857550393797
723.0522,1608.104858876428
725.1429,1419.280421944355
727.233,1139.213479997663
729.3224,902.9550545980546
731.4112,600.2561559151072
733.4993,387.16778508885
735.5867,204.24093725675812
737.6735,117.67660368463112
739.7596,83.8757735958643
741.845,26.689435037083967
743.9298,-11.181424783824696
746.014,25.563914713557097
748.0974,53.77628581207318
750.1802,36.00626541105703
752.2624,14.504429872087712
754.3439,65.17135519668409
756.4247,130.3574724871105
758.5048,249.56321219391793
760.5843,432.38900346409173
762.6631,792.7352729489776
764.7413,1168.7524429760433
766.8188,1762.1909279454085
768.8956,2206.6011305696866
770.9718,2574.333435939585
773.0473,2425.288207079813
775.1221,2138.115781271754
777.1962,1762.6664715439074
779.2697,1535.190569543649
781.3426,1586.0383492916699
783.4147,1873.5600694567765
785.4862,2219.0559728473872
787.557,2287.2762835363374
789.6271,1951.7212034059048
791.6966,1410.790911465614
793.7654,917.4855672077865
795.8335,626.4053160168405
797.901,426.4002941023573
799.9678,364.5706314098479
802.0339,340.1164536208362
804.0993,403.93788277114254
806.1641,421.93503749542833
808.2282,385.1080323889819
810.2916,302.30697782774223
812.3544,215.78198033657827
814.4164,127.23314341729201
816.4778,116.76056841387435
818.5385,134.61435539800004
820.5986,199.6446032737349
822.658,278.40140959901146
824.7166,389.88486993532024
826.7747,648.5450770601492
828.832,808.2321198521586
830.8886,933.5460807045565
832.9446,1115.2870339282454
834.9999,1150.5050444986664
837.0545,1189.9001662383962
839.1085,1229.7224414649718
841.1618,1234.5719005969295
843.2143,1212.998561755605
845.2662,1141.5524307166033
847.3175,1096.3835011255596
849.368,979.3417552126011
851.4179,866.5771642440195
853.467,730.2396896926912
855.5155,611.4292843657367
857.5633,544.8458937678861
859.6105,461.48945728959916
861.6569,407.7099088728737
863.7027,352.1071778448222
865.7478,375.68118945546667
867.7922,377.1818654337676
869.8359,401.00912375186635
871.8789,577.012878610085
873.9212,739.8930401986618
875.9629,894.7495129377057
878.0039,1081.1321938484107
880.0441,1196.740971004463
882.0837,1247.92572166824
884.1226,1136.336311134717
886.1609,1052.072592219618
888.1984,963.2344063753189
890.2352,993.0215845334824
892.2714,923.183947993426
894.3069,931.4713081242699
896.3416,858.3834670632968
898.3757,879.8202176330724
900.4091,870.5813440723432
902.4418,861.4166218216451
904.4739,897.7258176157229
906.5052,921.1086895751614
908.5358,835.5149868432891
910.5658,666.8944493523504
912.595,549.696808679455
914.6236,428.12178973276605
916.6515,386.11911192349726
918.6786,383.2384903816437
920.7051,458.62963637602115
922.7309,601.39225734307
924.756,669.3260561329407
926.7804,751.4807295818737
928.8041,699.8059678328664
930.8272,778.1014535140966
932.8495,690.8668622556979
934.8711,653.301861906788
936.892,528.2561134078223
938.9123,372.5792711662525
940.9318,249.22098430697952
942.9506,133.83089822913462
944.9688,70.80865583963714
946.9862,46.203898707110056
949.003,-40.13373230790785
951.019,-29.10459680689746
953.0344,-0.45865345536367386
955.0491,55.20442983610519
957.063,151.8849897388627
959.0763,323.883362372233
961.0888,335.6498823366801
963.1007,459.2348809938412
965.1119,525.2886863488566
967.1223,554.2616218145286
969.1321,566.8540055507765
971.1412,629.666150174915
973.1495,645.7983626357236
975.1572,692.7009435853361
977.1641,794.7241872178947
979.1704,763.6183808005499
981.1759,774.5338036532066
983.1808,842.7207274595821
985.1849,957.2794161580769
987.1884,1084.460125259884
989.1911,1228.7631007034088
991.1932,1404.2885775824689
993.1945,1476.6367787032486
995.1951,1427.757912829049
997.1951,1417.3021739568248
999.1943,1376.769741805958
1001.1928,1304.9107819228102
1003.1906,1268.6754460860811
1005.1877,1342.1138730253606
1007.1841,1304.5261887834895
1009.1798,1239.962505982181
1011.1748,1100.6729241978828
1013.1691,911.0575306074388
1015.1627,688.8664013809557
1017.1556,486.7996035779688
1019.1477,402.7571973693557
1021.1392,301.2392380579968
1023.1299,308.3457769192082
1025.12,329.7768622159292
1027.1093,402.7825391276365
1029.0979,506.5628495360452
1031.0859,578.8678312950451
1033.0731,564.597517192904
1035.0596,487.9019342292213
1037.0454,327.78110375763026
1039.0304,253.73504225276156
1041.0148,130.26376291142878
1042.9985,46.617276393122665
1044.9814,45.445592054698864
1046.9636,5.84871878685226
1048.9452,-43.923334974175305
1050.926,-21.170619220843946
1052.9061,-15.14274515152465
1054.8855,29.460887529898173
1056.8642,95.14103039555448
1058.8421,108.44814070329994
1060.8194,174.2826747595809
1062.7959,220.84508778636882
1064.7717,202.6358332628024
1066.7469,304.3553624595843
1068.7213,296.3041246210487
1070.695,303.5825659480015
1072.6679,202.14112967820438
1074.6402,188.13025601361005
1076.6117,171.9003831347618
1078.5826,181.45194734091092
1080.5527,213.48538321231354
1082.5221,328.4511235147147
1084.4908,521.0995988790182
1086.4587,744.8812366516249
1088.426,889.2964589679377
1090.3925,922.0956805145543
1092.3584,880.7793070851058
1094.3235,764.447735252279
1096.2879,691.951352780974
1098.2515,678.2905397916202
1100.2145,752.2156694851492
1102.1767,848.1271082795938
1104.1382,1011.2752150708402
1106.099,1213.6603402735072
1108.0591,1424.2828241894913
1110.0185,1599.0429949840764
1111.9771,1623.7911665797383
1113.9351,1423.4276369085183
1115.8923,1155.6526876645494
1117.8488,842.4665863076971
1119.8045,609.169588741308
1121.7596,458.46194244407343
1123.7139,410.29388880298575
1125.6675,394.26566462042683
1127.6204,513.1275025958475
1129.5726,480.47963148604686
1131.524,551.3222749165507
1133.4748,570.7056517080982
1135.4248,535.8299751682098
1137.3741,569.5954528973598
1139.3226,536.6022871377336
1141.2705,504.5506744355589
1143.2176,436.7408059710542
1145.164,456.77286787892444
1147.1097,487.2470419264846
1149.0546,515.8135053133246
1150.9989,428.072430366572
1152.9424,339.4739842552135
1154.8852,170.61832986751142
1156.8272,52.105626696997206
1158.7686,12.886032531023375
1160.7092,-17.690295364098347
1162.6491,-22.773199850909805
1164.5883,82.78765293408469
1166.5267,160.19282435863715
1168.4644,322.3428749626237
1170.4014,487.73836368400225
1172.3377,754.4798462373074
1174.2732,989.3678734596906
1176.2081,1295.0529886435197
1178.1421,1490.5357251874757
1180.0755,1724.5666035397262
1182.0082,1814.2961292430937
1183.9401,1805.6247905947312
1185.8713,1675.9030577488484
1187.8017,1477.1813828034174
1189.7315,1237.960201097394
1191.6605,948.1399331979374
1193.5888,759.4209872926112
1195.5163,674.6037620875941
1197.4432,563.9386486948497
1199.3693,530.2260314803079
1201.2947,470.8662891705135
1203.2193,441.00979518976783
1205.1432,511.4069182537023
1207.0664,542.5080226678656
1208.9889,611.5134676237376
1210.9106,657.22360688773
1212.8316,704.7887881111201
1214.7519,810.2593523729665
1216.6715,827.1356337044417
1218.5903,859.4179580341279
1220.5084,844.3066430192575
1222.4257,809.601997722888
1224.3424,795.8043227650123
1226.2583,877.2139106696159
1228.1735,943.7310460026529
1230.0879,1063.5060045579448
1232.0016,1189.7890526920019
1233.9146,1263.6804461262818
1235.8269,1208.4804286843646
1237.7384,1091.8392315530455
1239.6492,919.8070738343085
1241.5592,818.9841637117661
1243.4686,764.020700170955
1245.3772,739.3168740075816
1247.285,715.0728683771449
1249.1922,692.7888590419789
1251.0986,733.2650146137003
1253.0042,724.0514967760428
1254.9092,778.6984598800955
1256.8134,885.3560510364277
1258.7169,1052.0244095686394
1260.6196,1197.603665946781
1262.5216,1381.7439401206593
1264.4229,1578.6953400640596
1266.3234,1739.8079599333323
1268.2232,1839.581878097888
1270.1223,1847.2171555290624
1272.0207,1850.5638348023767
1273.9183,1813.1219400212012
1275.8151,1790.3414767832655
1277.7113,1719.9224325550877
1279.6067,1623.7647768997776
1281.5014,1562.5184621812368
1283.3953,1472.7334245257225
1285.2885,1469.6095844343072
1287.181,1475.6468476807368
1289.0727,1597.1951053426637
1290.9637,1650.7042337412731
1292.854,1815.3740932258133
1294.7435,1961.4545276384852
1296.6323,2210.345362667751
1298.5204,2484.6964043875396
1300.4077,2735.407436768335
1302.2943,2947.878218933658
1304.1802,3024.0084826529637
1306.0653,2927.7979302169315
1307.9497,2790.6462336761706
1309.8333,2645.153035803316
1311.7162,2604.7179514645504
1313.5984,2670.6905690745443
1315.4798,2710.3704510007738
1317.3605,2803.857132903826
1319.2405,2924.800123340581
1321.1197,2921.8489028293498
1322.9982,2830.0529226404524
1324.876,2831.061604825729
1326.753,2732.224343136497
1328.6293,2723.4405030134694
1330.5048,2740.959422575106
1332.3796,2725.9804127054795
1334.2537,2699.9027568790643
1336.127,2693.7257113105334
1337.9996,2663.9485052155324
1339.8714,2637.7203408724545
1341.7426,2590.790393920219
1343.6129,2630.1078136205397
1345.4826,2586.2217233272386
1347.3515,2569.881220093057
1349.2196,2515.135375108528
1351.087,2548.1832338653676
1352.9537,2601.2738167039533
1354.8197,2750.106118482836
1356.6849,2931.1291080478313
1358.5493,3016.791726743695
1360.4131,3071.0928866038976
1362.276,3062.7314694939996
1364.1383,2940.4563265686447
1365.9998,2704.366278355168
1367.8606,2431.760115976347
1369.7206,2217.3366035112977
1371.5799,2027.2444807215488
1373.4384,1844.5324651952506
1375.2962,1768.4992542481286
1377.1533,1502.5935267505884
1379.0096,1196.3639438880564
1380.8652,978.9091518200312
1382.7201,726.3277847423815
1384.5742,512.468467061879
1386.4275,355.6798159220343
1388.2802,272.610443341664
1390.132,160.50895778280938
1391.9832,124.17396498140624
1393.8336,46.90406906830867
1395.6832,51.24787293263216
1397.5322,-11.996021005546936
1399.3803,2.720989161369289
1401.2278,-45.702374818769385
1403.0745,-6.067391225320534
1404.9204,5.62511822907436
1406.7656,23.474392444999467
1408.6101,52.229670266799076
1410.4538,79.19019030408344
1412.2968,149.30519064416876
1414.139,207.37390858247454
1415.9805,269.3955799213709
1417.8213,359.0194383895032
1419.6613,505.1947150215583
1421.5006,717.4206372620501
1423.3391,983.7464275035418
1425.1769,1323.5213009643958
1427.0139,1797.7444630255213
1428.8502,2406.165105832619
1430.6858,3014.932403553943
1432.5206,3457.1955062961115
1434.3547,3742.2535340164195
1436.188,3826.2555721002045
1438.0206,3780.2506685102853
1439.8524,3629.537832946926
1441.6835,3575.6660373078976
1443.5139,3478.8342171955974
1445.3435,3437.591272455771
1447.1724,3412.7860681458114
1449.0005,3339.8174349472174
1450.8279,3305.0341694136223
1452.6545,3258.13503470049
1454.4804,3307.168760912955
1456.3056,3362.1340455748013
1458.13,3259.829553138141
1459.9536,3070.203914433756
1461.7766,2761.105727694141
1463.5987,2384.983560449753
1465.4202,2012.4859526200034
1467.2409,1699.6614202744804
1469.0608,1424.1584593579173
1470.88,1193.725548818442
1472.6984,968.8611533626026
1474.5161,761.6637257597067
1476.3331,626.6317090904467
1478.1493,524.5635388188894
1479.9648,441.95764414278347
1481.7795,352.21244901425416
1483.5935,334.6763729658451
1485.4067,303.0978320079812
1487.2192,261.5752388043202
1489.031,237.65700298755473
1490.842,201.7915315746286
1492.6522,211.87722920590386
1494.4618,200.71249850384993
1496.2705,207.2957399721745
1498.0785,193.82535210745846
1499.8858,184.89973133332387
1501.6924,176.06727213515296
1503.4981,173.07636714933142
1505.3032,169.0254072515727
1507.1075,173.36278158682944
1508.911,154.68687760980356
1510.7138,132.44608104157487
1512.5159,81.43877605635862
1514.3172,75.21334550391839
1516.1178,70.51817141963329
1517.9176,50.801635086758324
1519.7166,15.562117083374687
1521.515,20.04799747955076
1523.3126,58.35765618973528
1525.1094,12.489472927900351
1526.9055,3.541826824450254
1528.7008,16.21309688489964
1530.4954,-56.348337920659105
1532.2893,-7.5940987842550385
1534.0824,-28.22524397802954
1535.8747,-12.092755909079642
1537.6663,-31.747335014324563
1539.4572,-34.989560924057514
1541.2473,0.38030388729748665
1543.0367,5.362346491025164
1544.8253,11.906653954609283
1546.6132,39.913313291912345
1548.4003,42.582411397739634
1550.1867,76.76403476777341
1551.9723,113.35826947187525
1553.7572,191.26520081227682
1555.5414,242.58491295761814
1557.3247,287.6674881638919
1559.1074,370.1630062612476
1560.8893,449.9715442031593
1562.6705,538.0931752414763
1564.4509,634.5279681283373
1566.2305,712.275986234954
1568.0094,813.187286587261
1569.7876,879.8619190884383
1571.565,925.6999255097962
1573.3417,979.0013388240295
1575.1176,962.4161827468379
1576.8928,978.1944712039058
1578.6672,936.1862084967579
1580.4409,834.7413891449833
1582.2138,750.6099983063086
1583.986,655.4920127910482
1585.7575,606.2374019034269
1587.5282,558.1961283927394
1589.2981,524.1181489459159
1591.0673,508.10341466793034
1592.8358,516.4518714225796
1594.6035,539.0134599926314
1596.3704,563.338115996341
1598.1366,626.1257696618304
1599.9021,667.0263455838449
1601.6668,751.5897620958876
1603.4308,819.4659308612008
1605.194,925.654756027141
1606.9564,1060.6561335464048
1608.7182,1210.0199501151474
1610.4791,1374.5960818229632
1612.2394,1548.9843926592512
1613.9988,1739.8347328674554
1615.7576,1959.7969372011758
1617.5156,2174.970823015665
1619.2728,2414.956188068214
1621.0293,2584.902808366409
1622.785,2641.710435768282
1624.54,2594.9787962828377
1626.2942,2453.9575895019825
1628.0477,2253.396489067829
1629.8005,2063.0951440829194
1631.5525,1847.2531811158315
1633.3037,1690.1202061041977
1635.0542,1557.645806513121
1636.804,1450.0295529065033
1638.553,1385.821000271797
1640.3013,1374.3696890961583
1642.0488,1363.875146008536
1643.7955,1416.5868838941878
1645.5416,1460.354401999628
1647.2868,1578.6271854054976
1649.0313,1666.8047045889043
1650.7751,1815.7864142406816
1652.5181,1987.0717523836192
1654.2604,2221.310138882648
1656.0019,2515.5509737319844
1657.7427,2857.9436347127457
1659.4828,3168.5874744505427
1661.222,3398.931816991553
1662.9606,3419.775954696084
1664.6984,3262.0191459351217
1666.4354,2934.0606148819043
1668.1717,2474.9995530894703
1669.9072,2006.5351227702586
1671.642,1602.5664613867184
1673.3761,1294.0926863359564
1675.1094,1038.7128989894245
1676.8419,838.7761877776466
1678.5737,666.0316307440244
1680.3048,565.578297544208
1682.0351,471.16525117353467
1683.7646,369.6915489715684
1685.4934,338.75624356622666
1687.2215,287.95838388850734
1688.9488,243.44701548185003
1690.6754,212.17118101011056
1692.4012,211.3799207026741
1694.1263,175.72227266722348
1695.8506,172.1972728976416
1697.5742,166.1539556305961
1699.297,153.34135338078704
1701.0191,109.60849700138351
1702.7404,85.65441581213963
1704.461,73.92813803673289
1706.1808,48.478691042297214
1707.8999,65.25510145669341
1709.6182,40.656395422995956
1711.3358,65.7815984317258
1713.0527,63.72973556685156
1714.7688,40.59983125452618
1716.4841,33.290909283610745
1718.1987,30.151993036967724
1719.9126,18.282105564552694
1721.6257,37.33026961480664
1723.338,22.64550775335192
1725.0496,-13.773157827493378
1726.7605,12.623294838137554
1728.4706,3.1340253099497204
1730.18,-2.591806978582099
1731.8886,-6.755042625317401
1733.5964,-2.756496335969132
1735.3036,0.753084666625
1737.0099,-1.3770193029677102
1738.7156,-10.74752793771222
1740.4204,-21.059147174149984
1742.1246,-7.562475581021317
1743.8279,15.342098653810353
1745.5306,-7.795737108393951
1747.2325,-11.07629565978641
1748.9336,12.900188086885464
1750.634,-23.266410128932876
1752.3336,-19.926214696797615
1754.0325,-10.27911757482525
1755.7307,3.9751883417457066
1757.4281,17.68711284606252
1759.1247,17.357065691519892
1760.8206,18.48545645464219
1762.5158,34.62269453838417
1764.2102,-3.4808108391480346
1765.9039,9.32534919392674
1767.5968,27.89161828278702
1769.289,24.068439979359937
1770.9804,26.556257556659148
1772.6711,33.30551404701691
1774.361,38.316652217208684
1776.0502,25.790114500957316
1777.7386,53.82634294882155
1779.4263,29.025779353459257
1781.1132,62.93886496927098
1782.7994,41.61604076040021
1784.4849,55.50774706160337
1786.1696,40.46442379147811
1787.8535,66.1865103135533
1789.5367,66.97444558671395
1791.2192,76.62866790798216
1792.9009,63.54961490464029
1794.5818,84.83772343768487
1796.2621,91.64342973261591
1797.9415,84.46716916656624
1799.6202,82.85937620023287
1801.2982,85.77048444964475
1802.9755,97.75092670224967
1804.6519,113.85113488778552
1806.3277,96.32153995848694
1808.0027,99.11257172807655
1809.6769,95.32465904706169
1811.3504,105.4582297748193
1813.0231,105.21371081748475
1814.6951,103.44152802661574
1816.3664,138.6921062016354
1818.0369,133.86586910755977
1819.7067,140.26323912248154
1821.3757,158.53463728583938
1823.044,147.38048323443945
1824.7115,135.75119501974677
1826.3783,127.74718921941894
1828.0443,123.0688810536094
1829.7096,129.46668446499916
1831.3741,145.99101216558483
1833.0379,148.59227557269605
1834.701,150.17088464375502
1836.3633,147.37724785026512
1838.0248,148.1617721620205
1839.6856,167.32486307504678
1841.3457,156.81692460375598
1843.005,170.8383590893127
1844.6636,200.43956730471564
1846.3214,190.2709483145818
1847.9785,188.2328991791337
1849.6349,191.3258150558886
1851.2904,208.15008922003744
1852.9453,208.2561130335189
1854.5994,196.9442757767656
1856.2528,226.16496464765623
1857.9054,238.5185648746292
1859.5572,216.7554594244757
1861.2083,242.37602887880803
1862.8587,257.18065165168355
1864.5084,237.81970373340118
1866.1572,221.74355854245096
1867.8054,223.80258711913302
1869.4528,229.59715828631124
1871.0994,225.02763862882512
1872.7453,269.0943924355479
1874.3905,261.09778174507665
1876.0349,246.6381659050685
1877.6786,250.76590165220478
1879.3215,265.13134325678857
1880.9637,251.9848424814645
1882.6051,267.67674843756504
1884.2458,263.60740771657765
1885.8858,258.7271642332271
1887.525,258.7863592661615
1889.1634,250.8353315067625
1890.8011,259.22441705854544
1892.4381,266.8539495166724
1894.0743,289.47425988406576
1895.7098,260.9356764951117
1897.3446,260.23852478945173
1898.9786,258.9331275973791
1900.6118,271.5698051467971
1902.2443,262.5988750762799
1903.8761,258.12065230870576
1905.5071,239.5354491409671
1907.1374,238.24357528875134
1908.7669,244.0953380723904
1910.3957,237.54104242978428
1912.0237,236.0309908578838
1913.651,247.01548347822882
1915.2776,254.8948180520565
1916.9034,266.01928987045085
1918.5285,255.38919167554832
1920.1528,219.40481354929761
1921.7764,252.81644301975757
1923.3992,227.22436542094238
1925.0213,205.32886355870414
1926.6427,202.98021796665125
1928.2633,181.87870712510994
1929.8832,240.6246074846049
1931.5023,189.96819367687112
1933.1207,204.10973792740242
1934.7383,216.39951056201153
1936.3552,210.58777986541554
1937.9714,208.1248119583388
1939.5868,201.91087085562594
1941.2015,192.64621849087962
1942.8154,176.58111477859075
1944.4286,186.66581770679477
1946.041,180.65058349771334
1947.6528,176.9856665069192
1949.2637,169.82131928347735
1950.8739,159.9077926065993
1952.4834,183.89533555728303
1954.0921,190.23419561745777
1955.7001,171.17461843009278
1957.3074,155.21684773582183
1958.9139,163.31112556353673
1960.5197,156.15769238995927
1962.1247,148.8067870587065
1963.729,135.55864685181677
1965.3325,155.41350756325755
1966.9353,144.92160363141738
1968.5374,153.83316794054826
1970.1387,135.79843192568296
1971.7393,121.8676254835309
1973.3392,114.6909771528126
1974.9383,109.16871425357567
1976.5366,115.55106295896167
1978.1342,123.43824835042597
1979.7311,111.58049435391604
1981.3273,119.42802366099932
1982.9227,113.53105784743911
1984.5173,115.2398172947187
1986.1112,109.7045212490134
1987.7044,110.6753878041036
1989.2968,99.10263395672473
1990.8885,111.13647559686387
1992.4795,114.42712762348219
1994.0697,89.87480382417971
1995.6592,103.7297168422865
1997.2479,95.04207842238475
1998.8359,111.4120992717626
2000.4232,94.98998914728736
2002.0097,98.27595669170978
2003.5955,86.57020959788042
2005.1805,99.82295457589271
2006.7648,108.93439747013781
2008.3484,118.9047431267818
2009.9312,132.38419530264764
2011.5133,95.5229565655095
2013.0946,106.37122815930434
2014.6752,110.07921037274264
2016.2551,116.4471024308209
2017.8342,98.82510245774665
2019.4126,110.31340741325812
2020.9902,89.0122132688457
2022.5672,95.52171489286866
2024.1433,104.69210626356607
2025.7188,112.72358040396057
2027.2935,99.41632929015441
2028.8674,106.8205437710144
2030.4406,92.43641370124396
2032.0131,84.1641278673419
2033.5849,72.60387413144508
2035.1559,73.70583951405206
2036.7261,85.22021030962378
2038.2957,95.34717207556332
2039.8645,101.93690951707458
2041.4325,99.68960638588896
2042.9998,88.35544541437002
2044.5664,105.08460833798517
2046.1323,89.52727600864819
2047.6974,94.38362822742829
2049.2617,96.75384390012005
2050.8254,99.43810098868607
2052.3883,117.08657648755343
2053.9504,105.94944639676987
2055.5118,91.62688554552142
2057.0725,111.31906770349951
2058.6325,93.17616572412908
2060.1917,107.8483513476458
2061.7502,104.98579538252807
2063.3079,87.93866755877207
2064.8649,95.30713655651925
2066.4212,77.09137017652483
2067.9767,107.39153526647533
2069.5315,80.70779790314373
2071.0856,76.19032308939359
2072.6389,72.73927502100742
2074.1915,84.90481713187091
2075.7433,51.9371121284762
2077.2945,65.98632186826853
2078.8448,57.30260768932385
2080.3945,57.486130269855494
2081.9434,87.28704971505158
2083.4916,76.20552555524046
2085.039,67.14171644788257
2086.5857,59.19578028838441
2088.1317,69.66787430073646
2089.677,74.25815511697374
2091.2215,84.3667786724518
2092.7652,62.29390015994932
2094.3083,71.73967392857776
2095.8506,78.3542537045114
2097.3921,67.78779249653144
2098.933,74.94044252987715
2100.4731,85.76235535191154
2102.0124,80.65368176059155
2103.5511,83.96457169625273
2105.089,85.39517429269426
2106.6261,89.74563784407155
2108.1626,93.91610979059033
2109.6983,93.4567366749975
2111.2332,85.06766410088176
2112.7675,81.19903673726412
2114.301,74.80099840248977
2115.8337,95.02369210291545
2117.3657,100.71726009688837
2118.897,102.83184369252149
2120.4276,85.61758319075943
2121.9575,83.77461786423146
2123.4866,89.10308612939116
2125.0149,92.60312556494955
2126.5426,72.07487285858724
2128.0695,75.26846377195488
2129.5956,81.28403334595941
2131.1211,96.7217158688236
2132.6458,88.6816448159343
2134.1698,93.4139526954632
2135.693,74.01877112876628
2137.2155,96.54623080306237
2138.7373,110.3464616653846
2140.2584,94.96959269730678
2141.7787,89.36575177694112
2143.2983,97.1350658327051
2144.8171,89.27766089936131
2146.3353,81.94366204032212
2147.8527,87.7831934262249
2149.3693,88.996378408272
2150.8853,93.88333945983504
2152.4005,86.09419816432228
2153.9149,90.22907516630994
2155.4287,82.93809024943312
2156.9417,87.6713622950383
2158.454,97.72900935509278
2159.9655,90.7611486048504
2161.4764,113.31789624227713
2162.9865,94.24936755772842
2164.4958,97.75567670838382
2166.0045,92.03693690892896
2167.5124,88.89326039649586
2169.0195,84.02475848784525
2170.526,93.0315416108092
2172.0317,91.86371935297211
2173.5367,90.87140037160407
2175.0409,110.75469240533721
2176.5445,94.51370228409223
2178.0473,104.89853573024311
2179.5494,96.80929752102884
2181.0507,95.49609138470487
2182.5513,96.90902008143576
2184.0512,100.2481854164239
2185.5504,87.51368822578434
2187.0488,89.95562834314887
2188.5465,80.02410472701331
2190.0435,79.46921543631879
2191.5397,86.64105772976609
2193.0353,80.23972807136488
2194.5301,78.31532205871417
2196.0241,80.4679344870151
2197.5175,86.79765936831836
2199.0101,83.10458990999678
2200.502,59.38881845144624
2201.9931,71.25043650101861
2203.4835,82.23953497317689
2204.9733,59.956204069882915
2206.4622,83.6505331707026
2207.9505,53.37261105563948
2209.438,53.972525668194066
2210.9248,64.80036441814309
2212.4109,67.8062141755372
2213.8962,53.04016116242474
2215.3809,67.20229092279578
2216.8648,58.64268847023641
2218.3479,54.961438146316596
2219.8304,44.30862370617888
2221.3121,42.88432835535423
2222.7931,61.688634856288445
2224.2733,57.321625542584115
2225.7529,51.933382130961036
2227.2317,62.87398576492342
2228.7098,53.243517068643996
2230.1872,40.74205603755718
2231.6638,49.91968213466407
2233.1397,42.47647441554818
2234.6149,54.76251143659783
2236.0894,52.32787132943713
2237.5632,56.07263167806741
2239.0362,43.046869543211415
2240.5085,50.60066142486585
2241.9801,50.18408339256075
2243.4509,40.547211009820785
2244.921,34.99011933833026
2246.3904,31.962883034301285
2247.8591,52.51557640404735
2249.3271,54.64827343425577
2250.7943,43.01104758645806
2252.2608,34.753971775707214
2253.7266,39.97711848694553
2255.1917,38.08055985757801
2256.656,39.414367625239265
2258.1197,23.82861314675938
2259.5826,28.623367384825087
2261.0447,34.598701063839144
2262.5062,30.3046846219695
2263.9669,41.7913881514005
2265.4269,38.908881441265294
2266.8862,45.40723386278569
2268.3448,42.0365143980971
2269.8026,54.446791575261614
2271.2598,49.888133501979155
2272.7162,57.46060774148009
2274.1719,46.21428135811493
2275.6268,48.09922084162827
2277.0811,50.615492219625594
2278.5346,61.963161038718226
2279.9874,47.59229233936503
2281.4395,51.90295054239505
2282.8908,50.94519959271429
2284.3414,64.71910291620179
2285.7914,47.52472342928468
2287.2406,42.96212340120064
2288.689,58.43136462594293
2290.1368,56.63250846788196
2291.5838,55.165615707076995
2293.0302,58.88074655726314
2294.4758,48.12796068052285
2295.9206,50.5073171501308
2297.3648,57.21887455808519
2298.8082,47.412690991313866
2300.251,59.68882396455456
2301.693,53.397330518419494
2303.1343,61.5882670966339
2304.5748,59.76168960895029
2306.0147,64.31765334923875
2307.4538,56.00621301375395
2308.8922,64.77742265557299
2310.3299,64.58133576771206
2311.7669,55.41800519541448
2313.2031,53.68748313811011
2314.6387,49.439821241049685
2316.0735,55.1750706126104
2317.5076,62.19328186677103
2318.941,51.09450506576195
2320.3737,65.62878964987976
2321.8056,63.146184548479596
2323.2369,46.54673803462879
2324.6674,43.6804977499346
2326.0972,56.847510870538144
2327.5263,56.49782413577532
2328.9547,46.53148371650968
2330.3823,64.94853521862501
2331.8092,60.4990237826928
2333.2355,57.382993899798066
2334.661,52.00048945603771
2336.0858,57.801553763680886
2337.5098,48.93622961499091
2338.9332,55.15455922421984
2340.3558,65.0565843162592
2341.7778,56.79234606445675
2343.199,57.961884991593934
2344.6195,47.66524105252779
2346.0393,61.002453622497114
2347.4583,58.97356160008667
2348.8767,68.72860327385888
2350.2943,70.86761634264076
2351.7113,59.94063781797513
2353.1275,74.29770400272923
2354.543,65.63885060036455
2355.9578,84.06411257136665
2357.3718,59.42352421983446
2358.7852,69.21711900922469
2360.1978,56.24492980876221
2361.6098,62.5569887955005
2363.021,70.75332758404375
2364.4315,74.83397716342711
2365.8413,70.29896781515549
2367.2504,72.9483290723922
2368.6587,60.18208976531423
2370.0664,65.45027799461627
2371.4733,64.55292125917208
2372.8795,55.14004640335338
2374.285,69.36167962600393
2375.6899,63.917846574566966
2377.0939,61.70857220286871
2378.4973,50.73388082555425
2379.9,57.19379614018476
2381.3019,60.18834133698124
2382.7032,50.71753903422723
2384.1037,64.13141124832532
2385.5035,50.47997948850434
2386.9027,51.66326462268216
2388.3011,60.13128701397795
2389.6987,48.08406650887832
2391.0957,61.971622352558825
2392.492,51.59397330935349
2393.8876,54.55113752388206
2395.2824,33.2931326248256
2396.6765,43.66997569535533
2398.07,36.23168348571198
2399.4627,46.62827230943981
2400.8547,60.459758117766796
2402.246,66.17615639563951
2403.6366,33.977482023409266
2405.0265,39.41374921966258
2406.4156,44.73497186321288
2407.8041,38.94116343873725
2409.1918,52.132336983565665
2410.5789,38.508505145616255
2411.9652,46.91968005148465
2413.3508,47.865873442681504
2414.7358,42.09709659152327
2416.12,59.213360291670824
2417.5035,46.364674915812884
2418.8863,36.0010502445034
2420.2684,35.62249559465022
2421.6497,31.479019923154738
2423.0304,35.27063183069299
2424.4104,37.74733960315325
2425.7896,39.759151173718465
2427.1682,47.206074098100316
2428.546,43.48811553442374
2429.9232,41.50528216875614
2431.2996,46.95758025228383
2432.6753,38.795015621140465
2434.0503,34.91759364188374
2435.4246,35.42531929312213
2436.7982,43.468197204288344
2438.1711,51.296231650564096
2439.5433,40.60942647244792
2440.9148,29.907784997478075
2442.2856,31.691310147099557
2443.6557,42.360004543679224
2445.025,48.21387049267173
2446.3937,31.652909875931982
2447.7617,37.57712409317628
2449.1289,45.58651422759226
2450.4955,47.881080986597
2451.8613,52.51082462174327
2453.2265,51.32574490577372
2454.5909,51.02584108632277
2455.9546,59.51111189776884
2457.3177,50.981555564233076
2458.68,62.18716971472577
2460.0416,55.97795146844351
2461.4025,65.90389732271115
2462.7627,57.71500321507574
2464.1222,57.61126442404543
2465.4811,54.04267565097962
2466.8392,51.10923102112611
2468.1966,61.6609241193064
2469.5533,66.74774801925082
2470.9093,71.46969517807975
2472.2645,59.92675738543812
2473.6191,72.01892571627354
2474.973,71.49619064626677
2476.3262,61.358541930909496
2477.6787,70.45596861073295
2479.0305,67.48845911268131
2480.3816,64.55600115914126
2481.7319,61.85858179761476
2483.0816,60.346187430045575
2484.4306,58.4188038397906
2485.7789,53.57641620674599
2487.1264,59.969009126620904
2488.4733,54.94656665936145
2489.8195,54.20907226522331
2491.165,56.456508854996855
2492.5097,56.638858797382454
2493.8538,58.00610389651479
2495.1972,50.90822539014175
2496.5398,57.595203935950394
2497.8818,57.2170196825457
2499.2231,58.823652202582025
2500.5637,48.415080496543396
2501.9035,53.041282976678076
2503.2427,65.45223757108442
2504.5812,53.997921677448176
2505.919,56.52831203893311
2507.256,68.64338485872418
2508.5924,48.79311577472322
2509.9281,61.077479738398324
2511.2631,56.69645121328858
2512.5974,51.10000405215851
2513.9309,52.33811154080945
2515.2638,52.31074645404419
2516.596,63.31788104328484
2517.9275,51.75948703684617
2519.2583,62.33553552986632
2520.5884,64.39599709988738
2521.9178,56.690841701096815
2523.2465,65.12003864372195
2524.5745,54.2335566710824
2525.9018,60.13136387529812
2527.2284,68.71342780615396
2528.5543,59.32971541212146
2529.8796,66.48019295453832
2531.2041,52.114826101445715
2532.5279,62.93357985608395
2533.851,73.33641870054521
2535.1735,64.07330648758602
2536.4952,71.59420633659943
2537.8163,72.5990807262458
2539.1366,68.08789141924422
2540.4562,67.16059945232382
2541.7752,73.41716518133512
2543.0935,72.55754829052398
2544.411,81.58170772996482
2545.7279,71.03960172415759
2547.0441,77.38118768178742
2548.3596,82.55642230114267
2549.6744,84.26526150670179
2550.9885,84.60766039737928
2552.3019,76.93357322943757
2553.6146,84.9929534130631
2554.9266,90.23575358910671
2556.2379,83.86192554848981
2557.5485,79.3714201797768
2558.8585,86.01418753291432
2560.1677,87.34017686413449
2561.4762,81.39933656952849
2562.7841,86.24161417178516
2564.0913,83.11695637960179
2565.3977,80.57530903925976
2566.7035,82.11661716587196
2568.0086,82.09082496879773
2569.313,89.34787583623142
2570.6167,96.68771233545999
2571.9197,98.16027614029258
2573.222,88.2155079576612
2574.5236,94.75334751289574
2575.8246,98.12373364917107
2577.1248,101.07660426212942
2578.4244,94.21189626617593
2579.7232,104.57954556495042
2581.0214,113.57948711997369
2582.3189,107.81165484697249
2583.6157,107.97598152587875
2584.9118,112.472398858509
2586.2072,111.95083746692012
2587.5019,110.46122684844636
2588.7959,126.05349538091309
2590.0893,131.2275703375343
2591.3819,132.7833777309895
2592.6739,139.1708422616831
2593.9652,133.73988730218548
2595.2557,129.4904348333596
2596.5456,132.62240549866954
2597.8348,138.1357186466763
2599.1234,138.73029229971644
2600.4112,139.70604309877035
2601.6983,137.81288629751566
2602.9848,129.20073575256947
2604.2705,128.31950394242108
2605.5556,137.3191020535528
2606.84,126.59943998925178
2608.1237,135.81042627961529
2609.4067,134.45196818874763
2610.689,131.52397162264856
2611.9707,137.62634114280002
2613.2516,132.75897999544452
2614.5319,123.52179005056053
2615.8115,134.46467185053712
2617.0903,125.08752470254524
2618.3685,137.6902465691096
2619.6461,131.07273416188025
2620.9229,129.78488281560533
2622.199,125.27658655430594
2623.4745,135.3477381041546
2624.7493,138.1982289385587
2626.0234,136.2779491774487
2627.2968,148.0367875587732
2628.5695,131.974631457702
2629.8415,131.4913667690372
2631.1128,134.0368780678349
2632.3835,139.26104861423835
2633.6535,127.91376032802157
2634.9228,136.74489373634856
2636.1914,139.05432808724686
2637.4593,131.39194126129496
2638.7265,137.0576097485291
2639.9931,143.45120872506538
2641.259,129.62261199644536
2642.5242,130.42169193369875
2643.7887,131.24831961162874
2645.0525,138.20236480082303
2646.3156,139.28369595938648
2647.5781,133.74218016340023
2648.8398,131.52768309610985
2650.1009,123.14006910333933
2651.3613,134.92920121563577
2652.6211,121.29494123214579
2653.8801,129.98714960272468
2655.1385,130.05568556427886
2656.3961,137.10040705384392
2657.6531,129.5711707078989
2658.9094,132.66783179191907
2660.1651,139.8402442756684
2661.42,137.98826080223273
2662.6743,136.01173261629583
2663.9279,148.46050958265846
2665.1808,136.43444020600475
2666.433,149.33337150641307
2667.6846,144.70714913961808
2668.9354,150.7056172680201
2670.1856,157.97861860694877
2671.4351,154.5759943646774
2672.6839,155.59758416969373
2673.9321,162.1932261047258
2675.1795,153.81275669652575
2676.4263,166.90601084991397
2677.6724,170.47282193158378
2678.9179,153.7130216391688
2680.1626,160.4764399655744
2681.4067,166.5629053665764
2682.6501,162.8222446931867
2683.8928,157.454283130789
2685.1348,163.5588442365447
2686.3761,161.98574999307334
2687.6168,156.73482074740616
2688.8568,152.10587522671744
2690.0961,143.9487305908333
2691.3348,145.46320247852123
2692.5727,152.0991050890617
2693.81,134.3562511671031
2695.0466,143.134451936304
2696.2826,151.53351727676045
2697.5178,136.1532556372241
2698.7524,137.54347395111176
2699.9863,145.65397779030855
2701.2195,135.78457135126496
2702.452,139.88505737389198
2703.6839,154.90523724025604
2704.9151,149.49491093357278
2706.1456,164.45387688800656
2707.3755,165.03193204277306
2708.6046,170.77887169254905
2709.8331,171.54448948169352
2711.0609,184.8785773467763
2712.2881,202.08092550892354
2713.5145,201.90132234047542
2714.7403,212.2395541929635
2715.9654,220.14540539890686
2717.1899,234.01865816842917
2718.4136,244.20909251020078
2719.6367,253.21648609270528
2720.8591,252.84061414233588
2722.0809,263.2812493533213
2723.3019,277.6381618914844
2724.5223,282.0111192898363
2725.7421,278.1998863050071
2726.9611,300.804224873516
2728.1795,290.9238941498835
2729.3972,275.85865028058834
2730.6142,270.95824650287227
2731.8306,257.3224332953889
2733.0462,244.3509584272108
2734.2612,226.09356709418603
2735.4756,212.35000204865332
2736.6892,193.47000378201687
2737.9022,170.75331066218098
2739.1145,159.89965912235016
2740.3262,141.00878388819683
2741.5372,140.8304180863969
2742.7475,116.11429343353916
2743.9571,111.7101402379086
2745.1661,93.81768764664741
2746.3744,94.73666368979696
2747.582,92.06679545922248
2748.7889,73.05780909942303
2749.9952,76.05942983423006
2751.2008,65.47138215689756
2752.4057,56.14338980008529
2753.61,56.02517584173984
2754.8136,50.066462798373664
2756.0165,42.916972626248366
2757.2188,38.92642678096058
2758.4204,39.29454628893836
2759.6213,34.67105178734607
2760.8215,27.055663520402845
2762.0211,41.148101385617565
2763.22,29.298085009943748
2764.4182,26.705333608853607
2765.6158,23.969566104839487
2766.8127,11.890501153341006
2768.009,10.767857170102161
2769.2045,13.851352451962157
2770.3994,10.34070518808187
2771.5936,-3.0143665708909566
2772.7872,-4.3641448777153755
2773.9801,-10.108881671628751
2775.1723,-16.098785294061713
2776.3639,-9.133963098717231
2777.5548,-7.16436161243405
2778.745,-16.639836113759202
2779.9346,-19.61017030926837
2781.1235,-17.17498167357394
2782.3117,-18.433691775687976
2783.4992,-12.03555060655583
2784.6861,-11.52962400454237
2785.8723,-15.864857572862434
2787.0579,-2.4400817337871104
2788.2428,-1.8039684196613734
2789.427,2.3448348135858623
2790.6106,13.807698431670588
2791.7935,16.88599287685986
2792.9757,29.8310884533455
2794.1573,29.39435529645857
2795.3382,48.527163243221025
2796.5184,55.33088183671089
2797.698,68.25688013473484
2798.8769,87.55652664179058
2800.0551,98.13118917980762
2801.2327,113.53223469514944
2802.4096,127.2110291528686
2803.5859,139.66893738269516
2804.7615,163.70732294225138
2805.9364,183.8275479924706
2807.1106,202.5309730572137
2808.2842,232.26895682206646
2809.4572,253.89285594730552
2810.6294,282.00402477051875
2811.801,328.55381509036624
2812.972,366.54357588546793
2814.1423,414.4746528489062
2815.3119,444.8483880083287
2816.4808,501.46611924663614
2817.6491,544.6791799982468
2818.8167,583.0888986829178
2819.9837,628.2965982736154
2821.15,676.0035959124173
2822.3157,719.8612024584347
2823.4807,762.5707220107431
2824.645,807.483451469807
2825.8086,841.0006801103834
2826.9716,899.6736891323953
2828.134,935.8537513257592
2829.2957,984.3421304836552
2830.4567,1010.0900810407256
2831.617,1019.0988475881923
2832.7767,1028.3696646163758
2833.9358,1039.7537564246104
2835.0941,1014.3523370285322
2836.2519,1016.7166100462417
2837.4089,1008.3477689523161
2838.5653,988.2969970541669
2839.7211,984.3154675757285
2840.8761,1004.3543438579655
2842.0306,1021.264779398688
2843.1843,1050.6479176521636
2844.3374,1099.9048918600115
2845.4899,1141.9868247573722
2846.6417,1219.4948280803392
2847.7928,1289.3300021451357
2848.9433,1365.693435073039
2850.0931,1446.9362020920253
2851.2422,1520.4593647731383
2852.3907,1586.7139702180593
2853.5385,1642.5010503238768
2854.6857,1693.5716211205386
2855.8323,1749.7266822129855
2856.9781,1808.8672162704418
2858.1233,1845.5941884648646
2859.2679,1885.7085458795402
2860.4118,1932.1612171418126
2861.555,1969.0031120219414
2862.6976,2014.5351209685748
2863.8395,2034.1081147403306
2864.9808,2064.922943950475
2866.1214,2059.630438871195
2867.2614,2093.3814091254467
2868.4007,2112.5766437398834
2869.5393,2113.416910807344
2870.6773,2122.402957294902
2871.8146,2129.635509035463
2872.9513,2128.1652706379027
2874.0874,2132.692925414741
2875.2227,2131.219135396847
2876.3574,2113.3945412881617
2877.4915,2081.519762480434
2878.6249,2056.1953972314686
2879.7577,2043.6220229838732
2880.8898,2025.7501966183008
2882.0212,1998.4804545791858
2883.152,1970.71331305346
2884.2821,1960.6992682432515
2885.4116,1959.088796643554
2886.5405,1955.332355142371
2887.6686,1953.830381036818
2888.7962,1963.033292070687
2889.923,1979.0414864494676
2891.0493,1984.905342748316
2892.1748,1995.4252197519738
2893.2997,2004.6514563961318
2894.424,2029.8343716622257
2895.5476,2046.924264485179
2896.6706,2088.2214135015706
2897.7929,2101.226076878738
2898.9145,2132.6384919018033
2900.0355,2160.458874843631
2901.1559,2180.3374206506983
2902.2756,2223.924302664896
2903.3946,2254.86967242474
2904.513,2288.4736592295035
2905.6308,2313.736369829764
2906.7479,2327.857888091362
2907.8643,2347.538274742775
2908.9801,2383.5275672339003
2910.0953,2375.725779539256
2911.2098,2377.1829017980826
2912.3236,2384.548900392365
2913.4368,2367.0237179322585
2914.5494,2358.25727318243
2915.6613,2322.19946123731
2916.7725,2301.0001536087575
2917.8831,2266.309198586636
2918.9931,2239.076421450808
2920.1024,2220.5016248180445
2921.211,2196.384588914354
2922.319,2184.2250717607276
2923.4264,2169.172809414312
2924.5331,2164.627516090003
2925.6391,2136.2388843109693
2926.7445,2130.806584954105
2927.8493,2115.5802675339146
2928.9534,2111.959560256839
2930.0569,2102.744070173516
2931.1597,2117.5333832149863
2932.2619,2115.3770642848544
2933.3634,2112.0246571113876
2934.4643,2100.775684269084
2935.5645,2073.2296472121975
2936.6641,2055.836026387223
2937.763,2006.7442815083596
2938.8613,1957.953851731448
2939.959,1889.2141561448852
2941.056,1839.9245942575303
2942.1523,1745.7345466861007
2943.248,1675.0933756480674
2944.3431,1575.1504259035582
2945.4375,1485.7050254617643
2946.5313,1387.8064865803765
2947.6244,1284.0541066600329
2948.7169,1193.097169223308
2949.8087,1097.5849449522361
2950.8999,1005.4666925978795
2951.9904,923.7916599354514
2953.0803,858.1590846854983
2954.1696,792.1181953306509
2955.2582,744.1182117719494
2956.3462,699.1083459892519
2957.4335,665.8878025212354
2958.5202,621.2057789154937
2959.6062,597.1114660607436
2960.6916,584.4040486336437
2961.7764,557.3327053397386
2962.8605,542.9966090405337
2963.9439,533.0949270242073
2965.0267,531.426821148973
2966.1089,529.9414479420947
2967.1905,529.4879586165689
2968.2714,530.415499085978
2969.3516,528.9732099690258
2970.4312,534.660226580261
2971.5102,543.3756789445008
2972.5885,535.9686917399604
2973.6662,542.588384211098
2974.7432,541.2338702426855
2975.8196,531.6042582936122
2976.8954,524.298651410428
2977.9705,523.8161473236416
2979.045,517.8558385207751
2980.1188,490.76681225118887
2981.192,481.49815058568515
2982.2645,461.4489306873993
2983.3364,448.0682249044844
2984.4077,431.3051009706064
2985.4783,407.05862213874775
2986.5483,372.52784734884096
2987.6177,345.16183147023287
2988.6864,310.4596256469921
2989.7545,276.7202775715692
2990.8219,251.84283183181924
2991.8887,219.62633024839465
2992.9548,199.36981212351986
2994.0204,172.62231456315624
2995.0852,146.73287267956766
2996.1495,126.15051985879495
2997.2131,106.32428801955041
2998.276,86.95320781904206
2999.3383,69.03630885123493
3000.4,57.92261984056199
3001.4611,39.06116882109393
3002.5215,29.650983247674958
3003.5812,21.54109018453812
3004.6404,12.280516399406679
3005.6989,7.218288444593895
3006.7567,-0.19656725039169487
3007.8139,-9.815024328224467
3008.8705,-3.3380544678722117
3009.9264,-14.066531296209973
3010.9818,-15.401295092948658
3012.0364,-9.643045613152026
3013.0905,-12.642328752946355
3014.1439,-6.699594074432639
3015.1966,-7.265164842847867
3016.2487,-4.689297394484129
3017.3002,3.6278245133629525
3018.3511,3.3860639694786414
3019.4013,10.285284026369709
3020.4509,5.575347702682848
3021.4998,14.106117914211723
3022.5481,15.277457520997245
3023.5958,19.439229242019223
3024.6428,27.141295643483204
3025.6892,29.033519097202202
3026.735,41.41576170357723
3027.7802,39.43788527267395
3028.8247,48.749751200401306
3029.8685,52.05122048828895
3030.9118,65.04215365036964
3031.9544,75.82241068016287
3032.9963,74.14185092076741
3034.0376,84.75033295705788
3035.0783,89.04771463249051
3036.1184,99.48385294301823
3037.1578,110.00860399411698
3038.1966,117.32182289642435
3039.2348,114.02336366049212
3040.2723,118.61307912365345
3041.3092,128.59082098300843
3042.3455,122.85643974952637
3043.3811,132.80978464826887
3044.4161,124.30070367573342
3045.4505,132.52904350031974
3046.4842,127.9946495474208
3047.5173,123.5973659171392
3048.5498,120.43703542963158
3049.5816,113.9634996690803
3050.6128,116.57659901529837
3051.6434,111.07617270846379
3052.6734,108.16205882298891
3053.7027,105.2340943225247
3054.7314,109.09211508910158
3055.7594,106.78595595240904
3056.7868,92.41545065121545
3057.8136,93.13043185642988
3058.8398,95.38073131480684
3059.8653,102.81617984179667
3060.8902,100.08660729904261
3061.9145,99.49184252002647
3062.9381,90.33171333736385
3063.9612,82.20604658875243
3064.9835,91.9146682085726
3066.0053,93.70740330914452
3067.0264,91.1340760836419
3068.0469,79.6445097881645
3069.0668,78.63852676747138
3070.086,82.01594856987685
3071.1046,71.27659595731018
3072.1226,62.42028887154123
3073.1399,60.046846541574155
3074.1567,57.85608757221058
3075.1727,54.94782996778372
3076.1882,47.32189115406601
3077.203,38.32808800735154
3078.2173,37.36623693071596
3079.2308,30.436153943954253
3080.2438,25.037654693199215
3081.2561,19.870554520222015
3082.2678,17.48466851641757
3083.2789,11.629811574475639
3084.2893,14.0057984122393
3085.2991,7.962443631253564
3086.3083,5.849561693005796
3087.3169,3.666966979358847
3088.3248,4.864473813680377
3089.3321,1.541896482668733
3090.3388,0.2490492243774156
3091.3449,-3.564253738558591
3092.3503,-2.898200671506487
3093.3551,-0.3529442329387962
3094.3593,-6.2286081283034775
3095.3629,-3.4753125371354656
3096.3658,0.0068845848253999975
3097.3681,-6.63203999978856
3098.3698,-6.192109597122112
3099.3708,1.4267187407592985
3100.3713,-1.325450179034931
3101.3711,0.20148843633742786
3102.3702,-0.5923473790342655
3103.3688,2.843158396069697
3104.3667,-3.0918722995807855
3105.364,3.502682444352729
3106.3607,-2.5730245739869417
3107.3568,0.731159408516163
3108.3522,0.6654128594935571
3109.347,2.9299142392651447
3110.3412,4.124835360676201
3111.3348,2.8503480072729417
3112.3277,3.506623921353338
3113.32,8.04383481671195
3114.3117,4.262152372077082
3115.3028,7.511748185738895
3116.2932,11.292793813366075
3117.2831,16.0054607355099
3118.2723,13.449920319793904
3119.2608,14.626343773786942
3120.2488,17.784902170558723
3121.2361,19.125766436915626
3122.2229,16.549107321815114
3123.209,19.25509538295711
3124.1944,19.393901012550543
3125.1793,20.16569441025362
3126.1635,24.62064558178568
3127.1471,22.758924331209357
3128.1301,22.030700216380808
3129.1125,19.986142567566674
3130.0942,27.37542049472708
3131.0753,33.848702907960785
3132.0558,25.806158443612276
3133.0357,27.49795539953911
3134.015,29.824261815537227
3134.9936,26.58524545642311
3135.9716,31.381073788770664
3136.949,34.16191401330141
3137.9258,37.7279330169261
3138.902,37.029297344936424
3139.8775,44.516173165344725
3140.8524,39.73872627587062
3141.8267,42.54712202907193
3142.8004,34.691525380119344
3143.7735,43.522100858712435
3144.7459,41.989012647635505
3145.7178,47.89242449445203
3146.689,46.83249972683532
3147.6596,48.70940119353445
3148.6295,44.02329127497366
3149.5989,52.27433186448306
3150.5676,50.662684415160015
3151.5357,49.93850985735847
3152.5032,54.15196861480558
3153.4701,52.10322061184354
3154.4364,54.092425231294754
3155.402,57.31974133494958
3156.367,59.18532724367415
3157.3315,60.73934070513724
3158.2952,59.03193887515425
3159.2584,58.66327830214739
3160.221,62.13351494421936
3161.1829,60.492804172840124
3162.1442,63.99130073814463
3163.105,62.07915878533966
3164.065,64.25653181971916
3165.0245,63.97357272578539
3165.9834,67.43043374547537
3166.9416,76.1272664809904
3167.8993,68.16422186022753
3168.8563,74.24145004981104
3169.8127,70.55910053472309
3170.7684,67.91732205753136
3171.7236,73.06626265521255
3172.6782,71.90606968557012
3173.6321,74.18688977574496
3174.5854,77.05886883381729
3175.5381,80.72215202599841
3176.4902,85.42688374791106
3177.4417,81.9232075879564
3178.3926,85.61126628026682
3179.3428,82.6912017397426
3180.2924,83.96315502517137
3181.2415,87.4272663684288
3182.1899,87.53367516175898
3183.1377,87.73251992313337
3184.0848,93.77393829518667
3185.0314,91.25806704322842
3185.9773,89.1850419948288
3186.9227,92.35499806497731
3187.8674,91.46806927681303
3188.8115,97.42438872992511
3189.755,99.47408860922201
3190.6979,95.71730012536825
3191.6402,99.95415349428758
3192.5818,93.93477797473066
3193.5229,96.45930182590666
3194.4633,103.92785236767699
3195.4031,104.69055595530997
3196.3423,100.49753790479548
3197.2809,107.64892248521781
3198.2189,105.04483296068588
3199.1563,111.88539151881938
3200.0931,111.67071929678967
3201.0292,110.60093631291419
3201.9648,109.62616146880316
3202.8997,112.0465125600575
3203.834,111.2621062860164
3204.7677,117.42305822555407
3205.7008,116.77948284492358
3206.6333,122.63149343614742
3207.5652,112.82920212345323
3208.4964,120.37271980475371
3209.4271,121.01215624966959
3210.3571,123.19762002409429
3211.2865,124.22921848379971
3212.2154,123.00705775258155
3213.1436,122.58124271194326
3214.0712,125.90187701331779
3214.9982,130.01906308232554
3215.9246,128.6829020855683
3216.8503,128.743493889457
3217.7755,130.60093707357376
3218.7001,128.35532893006558
3219.624,130.65676544507016
3220.5473,133.7553413211719
3221.4701,135.35114995438744
3222.3922,137.19428340318004
3223.3137,137.28483237250148
3224.2346,139.02288619536063
3225.1549,138.25853283191796
3226.0746,140.4418588521052
3226.9937,138.47294944326865
3227.9121,144.201888388336
3228.83,145.8787580855054
3229.7473,146.6536394909562
3230.6639,147.82661210208005
3231.5799,145.89775394973213
3232.4954,149.2671415865015
3233.4102,152.03485010599974
3234.3244,152.70095310916676
3235.238,150.91552267659415
3236.151,151.92862936186387
3237.0634,153.29034220940255
3237.9752,155.25072874435062
3238.8864,156.10985495894494
3239.797,160.26778529291516
3240.7069,160.32458262489223
3241.6163,158.5303082308293
3242.5251,160.88502178343364
3243.4332,161.88878137010943
3244.3408,159.5416434694106
3245.2477,167.09366294100312
3246.154,163.8448930491365
3247.0598,167.64538538712358
3247.9649,168.64518990982816
3248.8694,170.84435489566025
3249.7733,169.94292693657778
3250.6766,170.44095091609512
3251.5793,171.68847001829744
3252.4814,169.9855257228602
3253.3829,171.73215779257424
3254.2838,173.82840429037523
3255.1841,179.22430156187704
3256.0838,178.31988421440948
3256.9829,175.21518506305938
3257.8814,176.91023513971447
3258.7792,176.80506372411082
3259.6765,182.59969832688193
3260.5731,179.04416469061061
3261.4692,178.78848673188259
3262.3647,180.63268657684182
3263.2595,183.97678456374746
3264.1538,184.57079922453158
3265.0474,186.9147472513584
3265.9404,188.90864349068391
3266.8329,185.55250091981674
3267.7247,185.14633062697897
3268.616,185.89014184486754
3269.5066,180.9839419547161
3270.3966,183.9277364788568
3271.286,187.32152912978216
