RamanShift,CorrectedData
30.1047,1339.6959529969106
32.3739,1244.719945812287
34.6426,1147.9439252307038
36.9109,1053.067865408002
39.1787,962.3417290205831
41.4461,865.9154682141696
43.7131,775.4390255110666
45.9796,676.512334774424
48.2456,589.1353221130007
50.5112,495.65790687043193
52.7764,402.0300024989994
55.0411,309.3015174944056
57.3054,219.27235633205282
59.5692,122.44242039432808
61.8326,35.66160887089478
64.0955,-56.22018027300791
66.3579,-142.9530494287569
68.6199,-224.8365393481283
70.8815,-292.7187626819344
73.1426,-314.6455859639598
75.4032,-207.7599514675499
77.6634,195.59834184335352
79.9231,1284.1415705267232
82.1824,3724.232009184548
84.4412,8194.831919577404
86.6995,14443.103526223544
88.9574,20503.758971692903
91.2148,24632.960254124388
93.4717,26450.81916661931
95.7282,26688.297255949372
97.9842,26410.455804378103
100.2398,25620.155827286046
102.4949,24790.208075949195
104.7495,23822.323045441983
107.0036,22898.560982936764
109.2573,21954.281897382658
111.5105,21112.595568743185
113.7632,20332.56155743904
116.0154,19666.489212764965
118.2672,19123.187680690087
120.5185,18595.865910518645
122.7693,18183.632660323
125.0197,17777.89650221686
127.2696,17377.6658264776
129.519,17116.748845603637
131.7679,16756.25359831673
134.0163,16467.93795217115
136.2642,16096.409607158634
138.5117,15699.276098591543
140.7587,15278.494800818149
143.0052,14909.922931193956
145.2512,14550.667554289525
147.4967,14196.685585576193
149.7417,13903.133795018613
151.9863,13662.56881061459
154.2304,13483.997121330587
156.4739,13215.875079507392
158.717,13045.858902645818
160.9596,12753.654676087926
163.2017,12430.018354717198
165.4433,12052.905765880561
167.6844,11628.222612624766
169.925,11222.124477467507
172.1651,10768.566826644255
174.4047,10413.205014169233
176.6439,10050.794286370996
178.8825,9744.889785446057
181.1206,9517.596553082993
183.3582,9260.869533521472
185.5954,9069.463575825208
187.832,8912.633436449214
190.0681,8788.883781153869
192.3037,8703.969186573231
194.5388,8623.044141452516
196.7734,8592.513047497247
199.0075,8554.480220182515
201.2411,8585.399889058277
203.4742,8623.57619812969
205.7068,8681.113205547921
207.9389,8681.014883228378
210.1704,8793.635116275334
212.4015,8822.97770298292
214.632,8917.196353708914
216.862,9012.744690581327
219.0915,9057.876246556201
221.3205,9133.39446446214
223.549,9277.352696548985
225.777,9414.204203732636
228.0044,9557.60215415547
230.2314,9783.649621817818
232.4578,9983.249585143996
234.6837,10144.504924721827
236.909,10236.568421306642
239.1339,10119.24275420872
241.3582,9924.380500372677
243.582,9630.584135550687
245.8053,9347.20603625113
248.0281,9063.698482676551
250.2503,8871.81366155743
252.472,8744.20366898727
254.6932,8711.120512341444
256.9139,8656.166111553292
259.134,8686.092299444961
261.3536,8754.500822276932
263.5727,8878.243339448763
265.7912,8886.421422815012
268.0092,8974.736555447806
270.2267,9006.59013155505
272.4436,8970.8834555973
274.6601,8871.917741969211
276.8759,8720.4941153566
279.0913,8578.663611726119
281.3061,8417.527179839477
283.5204,8357.935682671758
285.7341,8310.08989902278
287.9473,8332.240524112995
290.16,8437.788170061975
292.3721,8620.433365666886
294.5837,8884.97655534702
296.7947,9098.268097317337
299.0052,9261.858260943038
301.2152,9113.397224606635
303.4246,8738.885074072066
305.6334,8215.97180396931
307.8418,7686.307321539494
310.0495,7240.441451864033
312.2568,6801.623943161279
314.4635,6469.954471245168
316.6696,6210.782643913404
318.8752,6040.708004264152
321.0802,5969.480033287755
323.2847,5999.198151567485
325.4887,5981.561719991811
327.692,5882.370039457222
329.8949,5760.522351044594
332.0972,5473.017837011106
334.2989,5153.955622008723
336.5001,4861.384775959234
338.7007,4589.404317244869
340.9008,4413.2632156340205
343.1003,4218.510395001045
345.2992,4092.4947350876646
347.4976,4006.515073450504
349.6955,3911.4202067212464
351.8927,3904.3588914664233
354.0895,3795.0298451383806
356.2856,3758.9817461458715
358.4812,3709.513234947355
360.6763,3702.872914411484
362.8707,3674.109350311781
365.0646,3681.7710713930537
367.258,3642.9065696590224
369.4508,3653.5143002956975
371.643,3713.7926820600314
373.8346,3704.74009717383
376.0257,3696.004890720982
378.2162,3621.9353707379687
380.4062,3504.5298083012294
382.5956,3339.836438267861
384.7844,3225.4034604496683
386.9726,3055.179041260095
389.1603,2979.2613148585697
391.3474,2868.4983848527318
393.5339,2826.3383250576007
395.7199,2740.379180603224
397.9052,2726.568968356265
400.09,2744.555677779601
402.2743,2848.9372710704247
404.4579,2904.661682980377
406.641,3054.5768197717243
408.8235,3222.530558660117
411.0054,3425.1207463154515
413.1868,3703.4451971823128
415.3675,3895.5016914540884
417.5477,3997.837972289719
419.7273,3948.50174389313
421.9064,3846.6406704898764
424.0848,3737.202376820498
426.2627,3500.884449159128
428.4399,3201.534436407883
430.6166,2806.0498524600443
432.7928,2454.87817919356
434.9683,2098.0168704258904
437.1432,1821.7133554257107
439.3176,1643.3650424815405
441.4914,1539.2693216647567
443.6645,1479.9735666131
445.8371,1391.6251355716122
448.0091,1303.671371985607
450.1806,1255.7096053841524
452.3514,1230.8371522596062
454.5216,1236.25131654723
456.6913,1161.2493898739194
458.8603,1158.8786515040574
461.0288,1220.7863690895374
463.1967,1193.6197986934676
465.3639,1261.0761841710937
467.5306,1297.3027574414755
469.6967,1348.8967378129055
471.8622,1387.8053316206697
474.0271,1495.9757317110834
476.1914,1538.2051170524264
478.3551,1521.6906516532144
480.5182,1539.5294841399264
482.6807,1544.0687479221433
484.8426,1724.3555610141502
487.0039,1960.9870259895579
489.1647,2376.610228178424
491.3248,2731.1722333009493
493.4843,2872.220083311233
495.6432,2819.650792851664
497.8015,2680.711347842436
499.9592,2642.4487060072333
502.1163,2489.3097982626405
504.2728,2211.9415291007554
506.4287,1909.7907781205886
508.5839,1522.004402801731
510.7386,1245.1792415258824
512.8927,1084.1121174547006
515.0461,1008.2498412980531
517.199,993.7892129246848
519.3512,1078.6270221208524
521.5029,1244.4600487349217
523.6539,1398.6850618289864
525.8043,1485.4988180205546
527.9541,1422.6980599402814
530.1033,1312.429515363834
532.2519,1253.4398978399204
534.3999,1280.1259077929517
536.5472,1482.534233112956
538.694,1786.3615488887026
540.8401,2250.6045153836167
542.9856,2592.7097749975237
545.1305,2677.173947624213
547.2748,2556.6436272303854
549.4185,2288.515381010995
551.5615,2019.4857505945747
553.704,1940.1012547245045
555.8458,1914.8583919493176
557.987,2045.1536414165275
560.1276,2149.8834631250757
562.2675,2349.8442966223793
564.4069,2622.33255995702
566.5456,2857.094647679147
568.6837,2866.676928115592
570.8212,2516.1257410222424
572.958,1978.9373974882274
575.0942,1566.7581834414232
577.2299,1229.4343650203427
579.3648,1131.1621926959233
581.4992,1129.9879046447531
583.6329,1298.1577277318102
585.766,1519.1178775221997
587.8985,1663.8645565994484
590.0304,1599.7939523559107
592.1616,1561.402235545298
594.2922,1455.685560923379
596.4222,1266.0400676319114
598.5515,1056.0118802557972
600.6802,910.997110719547
602.8083,739.4918603875594
604.9358,717.2422215142615
607.0626,670.9942789591732
609.1888,751.2941104093934
611.3144,802.5877868420939
613.4393,799.8713717215105
615.5636,777.140920486012
617.6873,760.9924805752635
619.8103,717.0220916575272
621.9327,566.8757857911478
624.0544,447.5995878642516
626.1756,369.0395170962147
628.2961,265.8915882304227
630.4159,192.55181231988172
632.5351,141.96619775868203
634.6537,146.03075101539253
636.7716,130.99147713893217
638.8889,137.04437971791413
641.0056,161.8354610310289
643.1216,149.46072198653928
645.237,198.96616187435575
647.3518,94.99777848978738
649.4659,130.75156763849554
651.5793,100.82352417617585
653.6922,98.90964165101832
655.8043,82.95591260297988
657.9159,64.25832858292779
660.0268,37.412880312173
662.137,9.815557869451368
664.2466,-12.78764904061427
666.3556,-10.950750811554826
668.4639,-51.47763008828588
670.5716,-32.62206011773196
672.6786,-2.8872998852966703
674.785,-7.926282482014358
676.8907,55.658087845205955
678.9958,88.61298603300384
681.1002,70.7855864614503
683.204,63.423062624500744
685.3072,37.272587308256334
687.4097,-8.468667335409918
689.5115,-17.753529527346473
691.6127,-25.03474288641155
693.7132,-57.46487367372356
695.8131,-75.89623805332121
697.9123,-37.530578115151
700.0109,-42.068877745752616
702.1089,-36.96174590119699
704.2061,-12.659371269472103
706.3028,35.5884267092697
708.3987,91.33195506199445
710.4941,143.97152045979237
712.5887,260.2574286604395
714.6827,455.63998398200783
716.7761,694.6194881399933
718.8688,1003.4962382934755
720.9608,1198.12052465536
723.0522,1270.8926274035875
725.1429,1178.2128147348994
727.233,1099.1813421371135
729.3224,1025.9984533159222
731.4112,867.7643809852198
733.4993,711.5793475989158
735.5867,518.143566933295
737.6735,364.05724564884804
739.7596,267.9705852246407
741.845,144.78378349917693
743.9298,96.29703563124895
746.014,108.86053533182348
748.0974,118.22447534890489
750.1802,109.1890473418971
752.2624,141.45444178796242
754.3439,182.22084807237115
756.4247,273.6384541658608
758.5048,436.35744621696176
760.5843,702.6280076378243
762.6631,1083.9003174770387
764.7413,1640.1745477569111
766.8188,2280.650859660749
768.8956,2795.729397970119
770.9718,3122.560284660096
773.0473,2993.143613748469
775.1221,2737.4794480274195
777.1962,2379.36782035772
779.2697,2239.4087362253504
781.3426,2315.5021773226144
783.4147,2485.0981029477443
785.4862,2688.8464492439416
787.557,2615.197127503434
789.6271,2229.700022129995
791.6966,1643.20499137544
793.7654,1070.661871194583
795.8335,747.9704811102001
797.901,514.8806299384505
799.9678,398.59211901578965
802.0339,365.40474452988565
804.0993,395.51829868248024
806.1641,367.9325700212885
808.2282,293.9473431388433
810.2916,229.26239894836544
812.3544,172.92751542359292
814.4164,82.49246824565489
816.4778,140.65703136639968
818.5385,161.37097791276028
820.5986,269.98407960511213
822.658,467.5961065501233
824.7166,706.5068261546276
826.7747,1084.2660011495027
828.832,1425.023387200561
830.8886,1726.2787291309523
832.9446,1880.4317575136065
834.9999,1843.08218565867
837.0545,1694.1797080719807
839.1085,1526.8740008285677
841.1618,1371.5647230616632
843.2143,1255.801518635777
845.2662,1108.4840176997732
847.3175,1012.0118378445095
849.368,873.8345855760035
851.4179,818.0518572801593
853.467,695.9132406045374
855.5155,633.7183150161909
857.5633,555.7166530230515
859.6105,445.55782079587334
861.6569,383.6913789482551
863.7027,349.11688363823487
865.7478,322.9338871869313
867.7922,338.4419384243047
869.8359,368.64058295097493
871.8789,407.0293629831449
873.9212,576.3078170506142
875.9629,692.0754796128986
878.0039,868.9318793664443
880.0441,971.9765380869376
882.0837,1019.3089688607542
884.1226,973.0786750545067
886.1609,988.7351498417192
888.1984,1007.9278766651423
890.2352,1086.75632908017
892.2714,1097.4199705629362
894.3069,1055.8182537220055
896.3416,944.700620191752
898.3757,844.8165010483735
900.4091,822.2653179210665
902.4418,828.2464839908789
904.4739,849.0094042161982
906.5052,919.8534752729538
908.5358,819.328085346986
910.5658,714.532613425612
912.595,554.2164303028658
914.6236,390.0788996274605
916.6515,289.9693795059575
918.6786,234.5872241441266
920.7051,292.68178484805503
922.7309,421.4524105779619
924.756,429.94844736725827
926.7804,571.3692370348399
928.8041,525.3141171001225
930.8272,593.1824193688371
932.8495,538.4234703935836
934.8711,523.7365907951444
936.892,415.5210958100779
938.9123,333.37629543757976
940.9318,332.30149552164767
942.9506,284.1459985725105
944.9688,210.10910377739128
946.9862,141.29010748205656
949.003,22.038303931190967
951.019,-1.7470140434161294
953.0344,-21.36655383035395
955.0491,-2.971005365539895
957.063,94.5391548669686
959.0763,223.76348006345688
961.0888,219.90152247482365
963.1007,316.30283211433743
965.1119,379.81695679625955
967.1223,405.3934411718328
969.1321,411.6318260941207
971.1412,446.68164836225696
973.1495,461.3424406590566
975.1572,493.26373120052995
977.1641,536.2450435892661
979.1704,507.6358964952087
981.1759,492.93580322586786
983.1808,572.0442720123956
985.1849,584.5108061565916
987.1884,730.5849032398182
989.1911,899.1660549983353
991.1932,1007.9037458625517
993.1945,1040.9474512712259
995.1951,973.3466365840777
997.1951,984.7007567513701
999.1943,930.0592569899018
1001.1928,912.7715726694605
1003.1906,950.5371298592418
1005.1877,1059.6553455007233
1007.1841,1085.4256270300211
1009.1798,1057.7973712867115
1011.1748,952.719964256119
1013.1691,758.9927813455924
1015.1627,567.6151884352985
1017.1556,371.4365438154782
1019.1477,249.70620010022503
1021.1392,164.2235061892752
1023.1299,186.5878084853066
1025.12,211.19845174876536
1027.1093,268.8547788742235
1029.0979,362.6561306442745
1031.0859,444.75184515297406
1033.0731,482.991256867821
1035.0596,433.0736958088037
1037.0454,301.6984871659988
1039.0304,220.7649517987411
1041.0148,99.87240754939194
1042.9985,22.170170052668254
1044.9814,8.157553944562096
1046.9636,-64.51612636063328
1048.9452,-62.651556530194284
1050.926,-18.59877771531319
1052.9061,-32.107205178126605
1054.8855,4.073931621009251
1056.8642,66.49572397270822
1058.8421,141.25926312684715
1060.8194,160.61563966834365
1062.7959,213.3159427695391
1064.7717,248.16125999662654
1066.7469,304.80267678263954
1068.7213,374.4412760790019
1070.695,422.7781377891315
1072.6679,387.1143380720205
1074.6402,402.9509488588992
1076.6117,385.3890382098489
1078.5826,340.82967015545364
1080.5527,256.02390487240336
1082.5221,291.67279912909544
1084.4908,391.67740713368767
1086.4587,510.88878017762545
1088.426,603.2579656355792
1090.3925,608.7860057733378
1092.3584,595.3739368241113
1094.3235,555.972788933268
1096.2879,588.5335862924348
1098.2515,664.2073475335274
1100.2145,766.9450854031238
1102.1767,930.9978060057365
1104.1382,1108.6665077764264
1106.099,1397.1021798402835
1108.0591,1601.0558002357284
1110.0185,1759.1783330301732
1111.9771,1816.8707262804655
1113.9351,1680.133910451681
1115.8923,1484.3187978401875
1117.8488,1257.2262839410214
1119.8045,1022.1572494060365
1121.7596,920.212562314824
1123.7139,835.4430805254051
1125.6675,843.999652693683
1127.6204,894.1831191211368
1129.5726,880.944311669251
1131.524,859.6340532576887
1133.4748,776.553157996661
1135.4248,660.9524314000591
1137.3741,590.7826712162514
1139.3226,494.3946685840783
1141.2705,479.6892087345677
1143.2176,401.4170719548001
1145.164,368.5290337349652
1147.1097,364.325865551089
1149.0546,335.75833519391017
1150.9989,264.1272068109065
1152.9424,132.48324119198696
1154.8852,30.227196485793684
1156.8272,-24.040170483860493
1158.7686,-31.818103195430012
1160.7092,-12.655604966068495
1162.6491,-14.451361250088667
1164.5883,103.14606892768643
1166.5267,224.6882709115289
1168.4644,378.0768290142514
1170.4014,532.4133253017844
1172.3377,826.7993380592925
1174.2732,1102.7864402478244
1176.2081,1477.3261965604288
1178.1421,1835.4701606622948
1180.0755,2216.3198714453483
1182.0082,2441.576849446834
1183.9401,2597.942593040787
1185.8713,2483.6685761854933
1187.8017,2224.5062468598153
1189.7315,1920.4070282059474
1191.6605,1583.0223211210086
1193.5888,1329.3035072980601
1195.5163,1241.7019525999403
1197.4432,1161.0190095964554
1199.3693,1095.2060184404017
1201.2947,1076.3643076743901
1203.2193,1073.6951948889782
1205.1432,1125.9999869110852
1207.0664,1099.3799798306864
1208.9889,1109.2864584777617
1210.9106,1135.4706966885042
1212.8316,1158.0339572062476
1214.7519,1204.277491419618
1216.6715,1251.2525391369109
1218.5903,1305.510328123646
1220.5084,1328.3020736328162
1222.4257,1410.7289778623272
1224.3424,1390.3922297270728
1226.2583,1505.4430040346524
1228.1735,1629.3824616887505
1230.0879,1748.0117485386218
1232.0016,1901.5819941397094
1233.9146,1979.6443105673425
1235.8269,1964.49979088104
1237.7384,1879.8495083438847
1239.6492,1724.2945165739675
1241.5592,1686.7358503908854
1243.4686,1642.124527371292
1245.3772,1749.1115482244895
1247.285,1838.597897238542
1249.1922,1939.6845412103994
1251.0986,2004.5224285510376
1253.0042,2032.0624882745833
1254.9092,2111.5556293499485
1256.8134,2219.152740425412
1258.7169,2364.154689033703
1260.6196,2554.2623205160307
1262.5216,2801.1264565720485
1264.4229,2994.097893358794
1266.3234,3190.2273990220456
1268.2232,3301.96571176661
1270.1223,3361.613537895022
1272.0207,3378.2215506901666
1273.9183,3350.5403898188015
1275.8151,3297.670661165459
1277.7113,3273.3129371092764
1279.6067,3266.2177570526746
1281.5014,3353.235627664959
1283.3953,3569.8670229532545
1285.2885,3797.6623833923386
1287.181,4108.272113758314
1289.0727,4395.396580850675
1290.9637,4584.886110386191
1292.854,4789.390984127667
1294.7435,4820.611437989066
1296.6323,4887.2976599904305
1298.5204,4919.349789945703
1300.4077,4950.2679187958565
1302.2943,4950.452088288361
1304.1802,4842.052290668014
1306.0653,4563.518468675098
1307.9497,4237.150516629379
1309.8333,3979.1982832154354
1311.7162,3800.761574746348
1313.5984,3715.440157743209
1315.4798,3675.6337607195146
1317.3605,3667.49207503435
1319.2405,3662.0647552904684
1321.1197,3535.701419415718
1322.9982,3326.6016487172947
1324.876,3140.6649891453944
1326.753,3010.0409533841903
1328.6293,2920.8290227112193
1330.5048,2850.7786483036107
1332.3796,2742.339252130212
1334.2537,2739.960227652091
1336.127,2700.090940906932
1337.9996,2667.680730532811
1339.8714,2705.378908166911
1341.7426,2665.8347587696044
1343.6129,2723.6975402474727
1345.4826,2702.966483848755
1347.3515,2740.790793584725
1349.2196,2707.9696464369936
1351.087,2758.252191979267
1352.9537,2814.7875527055676
1354.8197,2952.1248235273833
1356.6849,3148.1630712083443
1358.5493,3279.6013329908274
1360.4131,3417.3386146355897
1362.276,3482.923889107369
1364.1383,3434.056095197533
1365.9998,3240.284136868215
1367.8606,2931.25688374098
1369.7206,2590.3231730345706
1371.5799,2319.981812655162
1373.4384,2093.4815846057027
1375.2962,1942.321247689324
1377.1533,1659.9495397743394
1379.0096,1338.6151793058689
1380.8652,1044.9168681295432
1382.7201,812.3532947048461
1384.5742,579.9231370421039
1386.4275,387.87506502812175
1388.2802,256.2077427504719
1390.132,177.6198304179943
1391.9832,151.60998567744537
1393.8336,74.57686439939607
1395.6832,52.16912093831161
1397.5322,22.435408902903873
1399.3803,33.77438138018624
1401.2278,15.634691232826299
1403.0745,53.414990985746044
1404.9204,28.463933007529704
1406.7656,94.98016913261563
1408.6101,116.3123509108027
1410.4538,153.60912894208923
1412.2968,215.81915266336182
1414.139,283.7410699754146
1415.9805,401.9235266208525
1417.8213,460.4151655048754
1419.6613,594.6146255134499
1421.5006,787.7205409284034
1423.3391,1038.7315400854113
1425.1769,1328.9462434429515
1427.0139,1812.063261072195
1428.8502,2388.1811897548523
1430.6858,2961.7486081520165
1432.5206,3374.814071042967
1434.3547,3624.326103589501
1436.188,3659.6831972052787
1438.0206,3612.7338070606984
1439.8524,3449.526351729337
1441.6835,3346.009213657435
1443.5139,3256.630740795983
1445.3435,3224.339247635875
1447.1724,3212.7330161017017
1449.0005,3175.51029587467
1450.8279,3114.2693045086653
1452.6545,3125.9082278024625
1454.4804,3174.8252204121636
1456.3056,3154.468405734776
1458.13,3125.485875419059
1459.9536,2945.3256895690993
1461.7766,2667.635877034115
1463.5987,2327.114437210077
1465.4202,1982.409342816598
1467.2409,1684.8185433021463
1469.0608,1411.9899682911027
1470.88,1175.521530559662
1472.6984,963.7611287641266
1474.5161,767.8066498055823
1476.3331,648.1559709475041
1478.1493,543.9069617753066
1479.9648,463.10748539284305
1481.7795,416.5553994648999
1483.5935,386.89855702519617
1485.4067,327.0848069418971
1487.2192,305.26199421418187
1489.031,292.72796057038795
1490.842,271.6305446862334
1492.6522,237.96758231015428
1494.4618,239.13690647428757
1496.2705,228.18634783109428
1498.0785,200.2137346416739
1499.8858,191.01689288526904
1501.6924,198.593646538985
1503.4981,173.99181766976835
1505.3032,154.00922635862935
1507.1075,158.49369094666326
1508.911,150.34302823488088
1510.7138,109.95505343935929
1512.5159,80.57758027275395
1514.3172,64.60842134816448
1516.1178,34.84538847292788
1517.9176,38.78629280830046
1519.7166,9.328945167082566
1521.515,-18.178844025782382
1523.3126,-5.139264438636928
1525.1094,-32.154324133181944
1526.9055,-13.0759798298659
1528.7008,-25.555867027443128
1530.4954,-42.495490595629235
1532.2893,-44.546100101037155
1534.0824,-53.40852058032942
1535.8747,-24.63313205462873
1537.6663,-3.8697809939449144
1539.4572,-37.36806778329537
1541.2473,2.172445851409975
1543.0367,23.80257149125464
1544.8253,26.273120695596845
1546.6132,57.88490478577933
1548.4003,102.838734820416
1550.1867,174.08542127927922
1551.9723,225.77577361375825
1553.7572,333.9105995343898
1555.5414,425.4407044939571
1557.3247,550.816890606141
1559.1074,685.189955730214
1560.8893,807.8606922172867
1562.6705,937.479885566574
1564.4509,1068.5483131986884
1566.2305,1140.5167431594482
1568.0094,1220.7859328091881
1569.7876,1227.4566281030802
1571.565,1255.8795627884465
1573.3417,1260.4054583380403
1575.1176,1277.1350236658282
1576.8928,1289.3189550817233
1578.6672,1261.7579361242906
1580.4409,1215.1026374389094
1582.2138,1210.3537170533791
1583.986,1195.8118208444712
1585.7575,1205.7775825854187
1587.5282,1253.0516240913357
1589.2981,1288.5345551195742
1591.0673,1334.4269728969693
1592.8358,1410.2294617650105
1594.6035,1482.1425927209239
1596.3704,1599.4169226596387
1598.1366,1649.2029936546642
1599.9021,1767.4013317853432
1601.6668,1832.512446638988
1603.4308,1991.686830128906
1605.194,2149.874955843283
1606.9564,2331.4772774534376
1608.7182,2583.7442271319396
1610.4791,2800.526213736588
1612.2394,3066.323620287748
1613.9988,3329.6868018005207
1615.7576,3595.316082626782
1617.5156,3777.1117538215367
1619.2728,3933.874070486637
1621.0293,3968.1532499528194
1622.785,3882.5994702120834
1624.54,3716.3628695749076
1626.2942,3477.1435475257713
1628.0477,3178.591566385533
1629.8005,2919.7569537036143
1631.5525,2669.6897052435315
1633.3037,2489.289787571225
1635.0542,2346.5571405557475
1636.804,2209.6416791732536
1638.553,2118.493294934332
1640.3013,2138.111857253157
1642.0488,2127.0972143589697
1643.7955,2198.849193099899
1645.5416,2243.317599053099
1647.2868,2390.802215807238
1649.0313,2501.052804517809
1650.7751,2648.319102432283
1652.5181,2863.550821787612
1654.2604,3054.09764833755
1656.0019,3299.459239200347
1657.7427,3578.735220953279
1659.4828,3883.0751871790344
1661.222,4040.928695672944
1662.9606,4029.995265399596
1664.6984,3811.8243749143003
1666.4354,3411.115462472404
1668.1717,2899.167928211021
1669.9072,2383.031138156116
1671.642,1912.0544293419734
1673.3761,1566.0871149725708
1675.1094,1263.2784891313459
1676.8419,1032.2778302408688
1678.5737,862.5344040909258
1680.3048,758.2974661485314
1682.0351,626.7162632553518
1683.7646,522.4400346700877
1685.4934,474.01801338427686
1687.2215,417.39942716505993
1688.9488,349.43349903939907
1690.6754,341.5694478602636
1692.4012,320.45648898629133
1694.1263,294.4938343604217
1695.8506,255.33069272103876
1697.5742,227.0662698615879
1699.297,228.89976902221406
1701.0191,186.8303911724015
1702.7404,153.8573349926428
1704.461,139.32979729512772
1706.1808,120.1969733534761
1707.8999,115.8080570480106
1709.6182,119.86224105709152
1711.3358,113.80871690099684
1713.0527,85.346674901386
1714.7688,80.02530424183806
1716.4841,63.493793252468095
1718.1987,55.20132946313879
1719.9126,45.69709976877766
1721.6257,49.03029051229896
1723.338,60.3500875796517
1725.0496,62.755676366481566
1726.7605,67.8962416649365
1728.4706,59.720967639611445
1730.18,32.92903777614265
1731.8886,31.669634962961936
1733.5964,24.741941759217298
1735.3036,41.09514040735576
1737.0099,39.77841290240849
1738.7156,26.490940828457497
1740.4204,-8.968094628196013
1742.1246,1.3504874538393778
1743.8279,11.49595758722171
1745.5306,7.017586271105756
1747.2325,-11.735356110309112
1748.9336,-16.06359924299977
1750.634,-24.06775557673609
1752.3336,-16.64827708593839
1754.0325,-7.855375308146904
1755.7307,-17.189095464626007
1757.4281,-6.649404301433606
1759.1247,4.663903154430045
1760.8206,-6.298901696488429
1762.5158,20.362452499723076
1764.2102,-2.351699976998134
1765.9039,6.70897494966357
1767.5968,-2.755165150495486
1769.289,17.30623722522705
1770.9804,11.39356710363245
1772.6711,34.75720933846242
1774.361,27.047548669520438
1776.0502,13.164969489040232
1777.7386,11.609855918783978
1779.4263,16.03259194886232
1781.1132,47.83356145329071
1782.7994,46.26314814575926
1784.4849,28.271735261626418
1786.1696,28.009705573619613
1787.8535,50.027441571754025
1789.5367,38.47532546594357
1791.2192,54.90373896583333
1792.9009,11.613063396315738
1794.5818,38.6536795332504
1796.2621,51.37596803636825
1797.9415,42.63030917886863
1799.6202,62.16708272019059
1801.2982,67.58666799347156
1802.9755,57.33944371017151
1804.6519,84.62578790588668
1806.3277,75.19607804282532
1808.0027,60.150690736938486
1809.6769,67.99000185221757
1811.3504,66.51438665115256
1813.0231,78.37421971633557
1814.6951,82.01987496521451
1816.3664,76.70172553150041
1818.0369,98.2201437287049
1819.7067,87.72550110332577
1821.3757,82.86816821966204
1823.044,100.94851476475833
1824.7115,94.11690959697899
1826.3783,95.82372056520171
1828.0443,82.76931457713681
1829.7096,106.40405758225643
1831.3741,113.77831470234196
1833.0379,123.9424499951374
1834.701,114.09682638060349
1836.3633,130.5918055392808
1838.0248,148.37774801074556
1839.6856,133.80501302865514
1841.3457,138.32395834288945
1843.005,134.2349403652811
1844.6636,136.73831412442314
1846.3214,147.38443330656128
1847.9785,155.12365023055509
1849.6349,177.706315741425
1851.2904,166.63277913295315
1852.9453,151.0533879218642
1854.5994,150.2684879585563
1856.2528,162.07842358289827
1857.9054,168.23353763207388
1859.5572,184.08417132248678
1861.2083,186.380664188207
1862.8587,185.32335392246432
1864.5084,182.46257635468237
1866.1572,175.99866546105295
1867.8054,188.98195339314543
1869.4528,192.1127705425465
1871.0994,182.89144541102496
1872.7453,180.81830457922433
1874.3905,191.79367279887765
1876.0349,183.91787301353634
1877.6786,192.8912262488161
1879.3215,207.11405169115415
1880.9637,198.23666659808077
1882.6051,200.45938615598743
1884.2458,214.5325235688988
1885.8858,199.2063900362482
1887.525,195.18129461214585
1889.1634,197.4575443586391
1890.8011,192.23544438596537
1892.4381,209.11529782978732
1894.0743,230.5474059034177
1895.7098,229.08206772901576
1897.3446,207.0195801232694
1898.9786,218.8102376120455
1900.6118,222.90433265101547
1902.2443,199.95215550775356
1903.8761,209.05399422078926
1905.5071,200.31013482913295
1907.1374,208.22086128125784
1908.7669,230.73645552253492
1910.3957,226.65719741613066
1912.0237,214.4833645178478
1913.651,203.8152321169191
1915.2776,211.6030733577436
1916.9034,210.99715934657252
1918.5285,198.54775907362682
1920.1528,187.00513941915642
1921.7764,208.46956527793554
1923.3992,187.84129967468834
1925.0213,166.47060354944597
1926.6427,176.70773596382833
1928.2633,147.50295431474842
1929.8832,216.15651423204554
1931.5023,193.868669870531
1933.1207,191.0896732234537
1934.7383,185.06977434537657
1936.3552,191.25922137996758
1937.9714,175.40826062019687
1939.5868,180.31713644644424
1941.2015,154.4360914850081
1942.8154,170.3153665590189
1944.4286,155.05520094724488
1946.041,149.4058322253045
1947.6528,144.867496418266
1949.2637,153.3404280571408
1950.8739,141.5248602242691
1952.4834,148.9210244685869
1954.0921,162.5791509237847
1955.7001,147.2994682343451
1957.3074,169.4322034189613
1958.9139,139.42758202333198
1960.5197,149.18582789883612
1962.1247,151.45716350258
1963.729,135.89180979981074
1965.3325,129.98998624120668
1966.9353,120.40191091852967
1968.5374,133.97780062364154
1970.1387,130.66787094438632
1971.7393,124.12233612883165
1973.3392,128.24140911836867
1974.9383,137.7253016131649
1976.5366,113.3242240309778
1978.1342,129.73838541231225
1979.7311,122.06799366443329
1981.3273,103.86325539722202
1982.9227,120.42437599988034
1984.5173,98.85155982297874
1986.1112,108.04501001284416
1987.7044,104.55492872728928
1989.2968,123.38151704367692
1990.8885,109.97497499382234
1992.4795,101.23550137572693
1994.0697,101.11329388764398
1995.6592,106.15854921547134
1997.2479,111.7714630339774
1998.8359,128.8522299563465
2000.4232,107.801043478049
2002.0097,100.6680958060324
2003.5955,93.65357806923794
2005.1805,105.9076803899261
2006.7648,114.73059195382393
2008.3484,117.87250088758265
2009.9312,121.58359417054862
2011.5133,118.06405760334383
2013.0946,112.96407577075479
2014.6752,100.93383207693114
2016.2551,100.27350879638152
2017.8342,101.88328719427727
2019.4126,98.76334753305673
2020.9902,104.51386905632353
2022.5672,102.98503002005054
2024.1433,98.57700763507364
2025.7188,97.2399780823821
2027.2935,105.37411655719552
2028.8674,92.87959728233818
2030.4406,99.7065934268935
2032.0131,88.40527723115247
2033.5849,101.52581993833974
2035.1559,87.41839190763085
2036.7261,96.38316248294313
2038.2957,94.77030013401009
2039.8645,115.02997236673673
2041.4325,99.01234573932425
2042.9998,101.86758565967648
2044.5664,96.29585654557422
2046.1323,110.19732179612492
2047.6974,92.62214384747722
2049.2617,104.62048403380959
2050.8254,111.24250276308157
2052.3883,111.03835939704732
2053.9504,106.90821218503697
2055.5118,108.45221826599936
2057.0725,91.77053370980138
2058.6325,100.66331350179007
2060.1917,97.63071170960848
2061.7502,112.72288139426837
2063.3079,98.28997464047507
2064.8649,100.63214240570778
2066.4212,102.04953466454572
2067.9767,98.89230038524965
2069.5315,103.56058751558476
2071.0856,97.10454301439404
2072.6389,93.92431280491519
2074.1915,76.72004183933859
2075.7433,70.991874130616
2077.2945,73.88995292449863
2078.8448,76.06442075682116
2080.3945,73.91541942451931
2081.9434,81.84308996388381
2083.4916,74.54757267205423
2085.039,75.87900702773959
2086.5857,65.18753176417476
2088.1317,83.6232848558052
2089.677,83.83640362520373
2091.2215,91.27702455870894
2092.7652,79.44528330429875
2094.3083,79.84131459718128
2095.8506,91.81525237811411
2097.3921,95.01722978944053
2098.933,84.04737905535421
2100.4731,84.55583144987531
2102.0124,102.09271740655458
2103.5511,82.25816651338528
2105.089,96.05230733743429
2106.6261,89.82526762318821
2108.1626,89.47717415461193
2109.6983,82.30815281741798
2111.2332,85.11832860254708
2112.7675,91.40782567786164
2114.301,85.92676736003978
2115.8337,106.5252760516828
2117.3657,89.15347329612678
2118.897,99.66147957145495
2120.4276,91.89941446421744
2121.9575,75.51739656434847
2123.4866,102.76554354279051
2125.0149,87.99397231531248
2126.5426,93.20279877002804
2128.0695,82.54213791511256
2129.5956,90.86210382671607
2131.1211,87.11280975556792
2132.6458,97.04436804377747
2134.1698,93.00689016232582
2135.693,91.05048661175306
2137.2155,97.07526696252899
2138.7373,97.68133987462079
2140.2584,84.51881303724349
2141.7787,82.03779316279906
2143.2983,89.48838611850124
2144.8171,86.37069695118589
2146.3353,86.38482981280731
2147.8527,82.08088799161396
2149.3693,92.50897391200488
2150.8853,86.21918917757193
2152.4005,77.96163446681567
2153.9149,88.23640959604973
2155.4287,83.39361360197017
2156.9417,82.43334463891051
2158.454,85.60570002726763
2159.9655,80.3607762631068
2161.4764,93.04866898643513
2162.9865,74.8194730336545
2164.4958,72.52328231068168
2166.0045,77.76018997523897
2167.5124,89.63028845981762
2169.0195,92.18366941930844
2170.526,90.97042361230115
2172.0317,93.59064087554589
2173.5367,100.34441013609239
2175.0409,85.13181938508296
2176.5445,90.30295561021876
2178.0473,84.35790494788307
2179.5494,83.74675263142831
2181.0507,78.71958305062981
2182.5513,95.22647975779591
2184.0512,90.66752551803847
2185.5504,93.24280214420605
2187.0488,83.45239054247259
2188.5465,77.74637068658376
2190.0435,76.87482171576266
2191.5397,78.1878219917694
2193.0353,87.83544910761748
2194.5301,70.56777987444252
2196.0241,75.98489022502713
2197.5175,69.43685538647901
2199.0101,68.47374982605629
2200.502,71.29564731664868
2201.9931,62.15262094641048
2203.4835,60.39474309054049
2204.9733,77.57208550271253
2206.4622,70.68471933265414
2207.9505,63.28271495437275
2209.438,60.76614203503141
2210.9248,45.73506960896566
2212.4109,67.08956610285168
2213.8962,57.17969948601467
2215.3809,63.40553705688649
2216.8648,61.21714554210121
2218.3479,61.3645910342384
2219.8304,52.64793901370717
2221.3121,60.11725434727191
2222.7931,63.87260137521935
2224.2733,54.964043836665724
2225.7529,53.7916448320027
2227.2317,60.955466911982285
2228.7098,66.95557208944047
2230.1872,51.04202176765898
2231.6638,62.61487668036466
2233.1397,52.174197050863086
2234.6149,47.52004247631385
2236.0894,44.702472032133755
2237.5632,48.92154431854124
2239.0362,47.32731748873198
2240.5085,48.86984920668715
2241.9801,48.39919666311562
2243.4509,33.165416560028916
2244.921,31.818565115446745
2246.3904,45.70869821573615
2247.8591,45.33587142908004
2249.3271,45.10013986657577
2250.7943,39.301558185962904
2252.2608,43.540180593979585
2253.7266,39.816060904350024
2255.1917,43.82925249539835
2256.656,32.129808347288645
2258.1197,31.567781001894673
2259.5826,45.993222679791415
2261.0447,32.006185285878246
2262.5062,44.456720265120794
2263.9669,28.444878742423953
2265.4269,37.420711398126286
2266.8862,44.5842686281178
2268.3448,44.78560045408153
2269.8026,42.37475645185964
2271.2598,42.701785749437704
2272.7162,38.06673705105618
2274.1719,41.519658633938434
2275.6268,37.96059839464215
2277.0811,47.18960381452803
2278.5346,45.4567219953542
2279.9874,37.111999566981694
2281.4395,49.455482704704764
2282.8908,37.08721721269649
2284.3414,55.15724840057737
2285.7914,52.46562120709655
2287.2406,52.81238001943143
2288.689,52.84756870010301
2290.1368,54.821230583510214
2291.5838,47.833408475574515
2293.0302,37.284144634007134
2294.4758,47.67348083818615
2295.9206,37.651458494649205
2297.3648,55.268118533199186
2298.8082,51.47350150712418
2300.251,40.017647417033004
2301.693,53.050595748799196
2303.1343,51.32238558812287
2304.5748,54.03305549019797
2306.0147,40.932643496997116
2307.4538,54.02118711016169
2308.8922,50.89872342200738
2310.3299,49.965288984638846
2311.7669,46.97091984117469
2313.2031,43.61565153508127
2314.6387,51.24951914011763
2316.0735,53.32255729388612
2317.5076,48.48480012149503
2318.941,46.38628121482793
2320.3737,42.02703368091943
2321.8056,42.25709016294468
2323.2369,42.8764828838091
2324.6674,50.08524364384721
2326.0972,50.38340381463081
2327.5263,56.0709942668791
2328.9547,44.49804536747865
2330.3823,45.61458692260635
2331.8092,60.220648293458225
2333.2355,51.21625838508612
2334.661,43.35144550033556
2336.0858,38.82623742988949
2337.5098,37.740661530916896
2338.9332,42.59474477232675
2340.3558,50.08851374562278
2341.7778,43.62199461636146
2343.199,46.19521304921591
2344.6195,52.70819427263791
2346.0393,58.71096305312835
2347.4583,60.653543630106924
2348.8767,51.78595965588511
2350.2943,54.108234176239876
2351.7113,63.67038971908869
2353.1275,63.17244827126888
2354.543,57.41443118291522
2355.9578,74.99635917243927
2357.3718,52.168252384107745
2358.7852,46.58013021222314
2360.1978,64.83201152940637
2361.6098,55.2739147424777
2363.021,57.90585760993622
2364.4315,52.42785733754363
2365.8413,56.08993055200153
2367.2504,56.39209335573332
2368.6587,49.58436129026245
2370.0664,51.216749333192865
2371.4733,55.63927196628674
2372.8795,44.95194315913727
2374.285,61.30477632494558
2375.6899,57.44778442739448
2377.0939,45.38097981711962
2378.4973,46.454374270279914
2379.9,52.16797910922355
2381.3019,48.0218051917559
2382.7032,58.565862854004536
2384.1037,43.65016195187809
2385.5035,44.274711755624594
2386.9027,52.18952109899192
2388.3011,54.39459837298159
2389.6987,44.63995144670298
2391.0957,53.375587645319456
2392.492,43.551513847595515
2393.8876,41.46773639853859
2395.2824,46.27426120764153
2396.6765,49.97109376971957
2398.07,42.70823911684738
2399.4627,41.53570178139012
2400.8547,37.703485868627695
2402.246,36.76159506848444
2403.6366,46.060032693849735
2405.0265,40.24880168999766
2406.4156,43.97790454160395
2407.8041,45.047343330856165
2409.1918,44.707119700166004
2410.5789,36.107234841471154
2411.9652,42.04768949963932
2413.3508,44.27848405846976
2414.7358,38.99961848128578
2416.12,37.11109228862824
2417.5035,37.0129046110369
2418.8863,38.55505420794452
2420.2684,37.637539468654495
2421.6497,46.41035839692108
2423.0304,45.4235086201229
2424.4104,39.026987301536565
2425.7896,39.47079115020256
2427.1682,44.60491648489324
2428.546,35.22935922967031
2429.9232,36.594114862548395
2431.2996,37.649178509249396
2432.6753,32.394544929554286
2434.0503,45.980208506752206
2435.4246,41.55616330018847
2436.7982,39.172402909405946
2438.1711,52.62892051838662
2439.5433,36.17570891939022
2440.9148,46.212760378386065
2442.2856,29.64006679958834
2443.6557,38.70761962508345
2445.025,45.21541000055845
2446.3937,33.06342868462275
2447.7617,42.05166598373353
2449.1289,54.43011187371417
2450.4955,49.34875590987144
2451.8613,38.307587103212654
2453.2265,47.006593971257644
2454.5909,44.695764648452496
2455.9546,56.12508679917596
2457.3177,46.34454764085149
2458.68,52.854133829651346
2460.0416,52.20383155830268
2461.4025,52.193626490991846
2462.7627,42.32350376986756
2464.1222,40.843448015142485
2465.4811,47.55344342379408
2466.8392,48.55347378436704
2468.1966,48.543522409870775
2469.5533,59.72357212778115
2470.9093,60.443605280137945
2472.2645,54.55360361174644
2473.6191,60.403548262975846
2474.973,65.29341982866049
2476.3262,60.07319829959897
2477.6787,65.59286301365705
2479.0305,56.902392707967465
2480.3816,64.70176546373546
2481.7319,66.54095879314332
2483.0816,60.06994956135554
2484.4306,52.68871396812733
2485.7789,62.09722761251578
2487.1264,55.19546556669047
2488.4733,50.53340228184936
2489.8195,56.611011657236304
2491.165,48.628267086762094
2492.5097,44.58514139822762
2493.8538,51.53160693315135
2495.1972,41.217635587201016
2496.5398,41.59319874072867
2497.8818,65.0082673619113
2499.2231,46.41281200299409
2500.5637,47.90680256614041
2501.9035,45.79020848938592
2503.2427,57.66299873169828
2504.5812,47.42514179414388
2505.919,52.37660560116046
2507.256,53.31735760293475
2508.5924,56.69736472588761
2509.9281,58.71659336326729
2511.2631,58.675009341349096
2512.5974,53.822577899243015
2513.9309,52.459263689308955
2515.2638,50.48503082568152
2516.596,56.59984289790282
2517.9275,48.853662990664816
2519.2583,62.19645362266135
2520.5884,60.67817682405041
2521.9178,60.84879400302623
2523.2465,59.058265961000984
2524.5745,54.95655289089996
2525.9018,50.093614395065174
2527.2284,56.01940952627422
2528.5543,56.28389683636908
2529.8796,53.03703431699773
2531.2041,48.27877939696998
2532.5279,62.30908897472568
2533.851,66.22791946591781
2535.1735,70.33522666310819
2536.4952,64.13096569658012
2537.8163,60.36509099326497
2539.1366,70.13755633878509
2540.4562,60.29831491511209
2541.7752,67.14731920284225
2543.0935,68.73452107958917
2544.411,69.55987175149335
2545.7279,71.5233217373509
2547.0441,79.72482086035973
2548.3596,83.51431822848497
2549.6744,71.04176215244354
2550.9885,79.50710010781006
2552.3019,81.26027885974179
2553.6146,80.30124437832558
2554.9266,72.82994182104528
2556.2379,73.79631554237255
2557.5485,78.70030916847986
2558.8585,63.441865587576785
2560.1677,86.0209269008709
2561.4762,92.83743457515072
2562.7841,82.59132921699643
2564.0913,84.33255050461389
2565.3977,81.4110372902968
2566.7035,82.72672758301326
2568.0086,81.87955857762165
2569.313,82.11946664171342
2570.6167,93.04638732408455
2571.9197,80.76025535233612
2573.222,89.91100452360604
2574.5236,92.99856782742961
2575.8246,89.42287735423315
2577.1248,91.68386426445704
2578.4244,89.93145882431406
2579.7232,97.76559038317862
2581.0214,91.68618739111173
2582.3189,108.24317732051816
2583.6157,98.13648672694194
2584.9118,114.7160410834955
2586.2072,110.28176488192616
2587.5019,107.68358146682203
2588.7959,93.17141307995416
2590.0893,118.54518088625775
2591.3819,115.2548051189541
2592.6739,114.3002048258137
2593.9652,112.78129790205935
2595.2557,116.39800109991279
2596.5456,118.65023004378247
2597.8348,119.33789919409821
2599.1234,112.6609218247869
2600.4112,126.26921001639698
2601.6983,122.66267472286779
2602.9848,116.74122563544677
2604.2705,122.10477121875454
2605.5556,130.6032187700007
2606.84,126.386474365347
2608.1237,122.45444277492345
2609.4067,119.00702750499545
2610.689,121.54413083728457
2611.9707,122.26565386344203
2613.2516,114.17149645967834
2614.5319,118.21155727954772
2615.8115,118.83573383489033
2617.0903,113.04392245543045
2618.3685,112.28601828253602
2619.6461,117.91191532713549
2620.9229,113.27150647729786
2622.199,114.9146834419738
2623.4745,112.59133679739898
2624.7493,106.4513559706619
2626.0234,117.49462926293836
2627.2968,123.62104391089065
2628.5695,109.73048597623495
2629.8415,125.62284028447755
2631.1128,117.59799056381985
2632.3835,124.15581928623521
2633.6535,118.54620774771695
2634.9228,119.76903600270145
2636.1914,121.32418292016303
2637.4593,117.71152617138603
2638.7265,120.38094221441315
2639.9931,114.68230633017197
2641.259,123.01549259578076
2642.5242,120.6303739415356
2643.7887,132.27682206757743
2645.0525,114.80470746774449
2646.3156,114.31389931310696
2647.5781,113.1542656266879
2648.8398,115.0756732883724
2650.1009,103.97798804650256
2651.3613,110.56107449866431
2652.6211,110.6247962026639
2653.8801,117.3190156106973
2655.1385,109.0935940687134
2656.3961,111.44839174947106
2657.6531,116.53326773479387
2658.9094,120.34807999202155
2660.1651,116.99268532316114
2661.42,123.61693932673927
2662.6743,130.42069643135562
2663.9279,128.90380982944112
2665.1808,128.06613140921968
2666.433,132.00751176987785
2667.6846,128.52780022994114
2668.9354,128.2768447878599
2670.1856,136.30449215680733
2671.4351,133.16058776718785
2672.6839,145.39497568636125
2673.9321,143.65749865008218
2675.1795,143.94799794015523
2676.4263,150.0663134018115
2677.6724,154.76228344080164
2678.9179,147.43574496221424
2680.1626,156.18653332351482
2681.4067,150.11448240781237
2682.6501,157.26942453635013
2683.8928,142.70119052922735
2685.1348,138.6596096338494
2686.3761,136.2945096706103
2687.6168,142.95571707330782
2688.8568,127.99305691279562
2690.0961,124.60635283036993
2691.3348,124.34542718739658
2692.5727,129.46010109917825
2693.81,122.00019443756321
2695.0466,125.36552577979944
2696.2826,125.55591248313362
2697.5178,128.62117065115626
2698.7524,130.31111513189978
2699.9863,134.6255594871842
2701.2195,126.11431597571891
2702.452,139.3271955099575
2703.6839,140.01400774121134
2704.9151,149.17456092751945
2706.1456,143.25866192678166
2707.3755,151.11611610515217
2708.6046,165.09672739619907
2709.8331,165.1002982223298
2711.0609,167.3766293549843
2712.2881,176.47551991460023
2713.5145,187.74676734784896
2714.7403,192.54016733664753
2715.9654,203.3055136854448
2717.1899,216.1425982732884
2718.4136,220.20121094617105
2719.6367,234.53113938865965
2720.8591,240.33216908330974
2722.0809,258.50408316736537
2723.3019,261.1966623747494
2724.5223,271.70968485434366
2725.7421,274.6929261430637
2726.9611,284.44615906072863
2728.1795,279.36915368022835
2729.3972,276.5116772299916
2730.6142,253.4234941447561
2731.8306,237.95436609414264
2733.0462,220.10405221353756
2734.2612,209.57230925878378
2735.4756,205.50889178468424
2736.6892,182.613552250319
2737.9022,160.48604105967945
2739.1145,157.22610679062166
2740.3262,143.8834964161415
2741.5372,126.65795533697383
2742.7475,107.54922751501874
2743.9571,99.0570556455965
2745.1661,96.93118134853546
2746.3744,87.12134525309352
2747.582,76.77728701921717
2748.7889,71.84874543564001
2749.9952,64.23545852332279
2751.2008,47.937163584739324
2752.4057,55.553597280008944
2753.61,49.184495789879406
2754.8136,47.379594739562776
2756.0165,46.438629262426275
2757.2188,37.91133401804211
2758.4204,33.79744320159557
2759.6213,33.346690629159525
2760.8215,33.05880977883305
2762.0211,34.43353379524842
2763.22,26.170595492450047
2764.4182,15.769727340147597
2765.6158,31.880661546345095
2766.8127,21.753130161349873
2768.009,15.036864916663035
2769.2045,11.081597326254382
2770.3994,9.887058753725796
2771.5936,2.1029804518640276
2772.7872,-0.5209064254154328
2773.9801,-6.534870745225703
2775.1723,-9.389176170825635
2776.3639,-14.63402108211551
2777.5548,-9.869510061125766
2778.745,-17.19560149601614
2779.9346,-12.212155178541707
2781.1235,-18.368859116398085
2782.3117,-13.365279317851332
2783.4992,-14.900798286264944
2784.6861,-15.174665005861812
2785.8723,-8.635979601891222
2787.0579,-7.733690604698609
2788.2428,-4.216660271193746
2789.427,1.5163264012818445
2790.6106,-2.5834734601775153
2791.7935,10.385197256359902
2792.9757,11.123621471724618
2794.1573,27.533082002895526
2795.3382,31.26486155561463
2796.5184,42.17024256029288
2797.698,50.650507134694294
2798.8769,65.0069369748793
2800.0551,76.24081327040551
2801.2327,87.403416560761
2802.4096,105.69602662302589
2803.5859,112.9699223602455
2804.7615,133.97638161850523
2805.9364,157.11668111419203
2807.1106,168.99209622392925
2808.2842,186.25390075317375
2809.4572,220.2533668174625
2810.6294,244.99176466979338
2811.801,284.920362360631
2812.972,321.34042549052197
2814.1423,354.35321681081007
2815.3119,389.9599958594347
2816.4808,435.21201863080387
2817.6491,485.2605372197254
2818.8167,518.2067993688872
2819.9837,576.0520479683729
2821.15,622.4975207261972
2822.3157,677.0944495898559
2823.4807,732.4940602818696
2824.645,773.1975717538131
2825.8086,832.1561956323221
2826.9716,877.6211358120559
2828.134,915.3935878661121
2829.2957,963.9247385913777
2830.4567,986.1657656308042
2831.617,1008.9678369880955
2832.7767,1016.7321108052984
2833.9358,1006.7097351347818
2835.0941,1004.7518478615943
2836.2519,994.8595768036882
2837.4089,974.3340397314973
2838.5653,964.12634446686
2839.7211,966.0375890882742
2840.8761,967.918862032976
2842.0306,975.0712420778249
2843.1843,998.4457983204925
2844.3374,1034.7435901079386
2845.4899,1089.7656668026652
2846.6417,1144.5130674197387
2847.7928,1211.1368200765698
2848.9433,1272.337941445439
2850.0931,1324.0674360872579
2851.2422,1402.1762958395611
2852.3907,1459.0154992992077
2853.5385,1513.9860110412953
2854.6857,1568.0887810507656
2855.8323,1610.4247441727018
2856.9781,1660.8948195712992
2858.1233,1708.249910306504
2859.2679,1743.8909028293165
2860.4118,1794.3686665082369
2861.555,1850.1340532728573
2862.6976,1888.1878971090841
2863.8395,1900.6310135014835
2864.9808,1924.7141990527416
2866.1214,1954.238231359237
2867.2614,1966.4538687702054
2868.4007,1978.6118500925004
2869.5393,1997.012894468437
2870.6773,2003.4577012542131
2871.8146,2029.7469498358969
2872.9513,2028.5812995649806
2874.0874,2006.311389495486
2875.2227,2008.6378383956235
2876.3574,1977.861244970488
2877.4915,1964.8821878387994
2878.6249,1931.301225840663
2879.7577,1909.1188981673627
2880.8898,1885.635724697172
2882.0212,1890.5522062171754
2883.152,1864.0188246580985
2884.2821,1852.3860430451475
2885.4116,1846.654305763341
2886.5405,1836.6740386738363
2887.6686,1848.4456491712494
2888.7962,1844.2195262834557
2889.923,1851.596040553875
2891.0493,1869.7755440837313
2892.1748,1884.4083704582895
2893.2997,1884.8448345650584
2894.424,1900.685232447464
2895.5476,1926.8298413004832
2896.6706,1947.228919312242
2897.7929,1964.0327054025668
2898.9145,1990.6914190189962
2900.0355,2025.0052599687424
2901.1559,2053.8244081521034
2902.2756,2080.3490232193244
2903.3946,2121.9792442824087
2904.513,2147.4651896498667
2905.6308,2176.4569564104186
2906.7479,2194.554620178131
2907.8643,2219.558234802502
2908.9801,2224.567832187485
2910.0953,2245.1834220414503
2911.2098,2241.1549918270903
2912.3236,2228.332506555264
2913.4368,2225.515908825282
2914.5494,2225.7551189531296
2915.6613,2181.1500349996327
2916.7725,2170.4505327680677
2917.8831,2118.20646625021
2918.9931,2096.91766773333
2920.1024,2068.433948322634
2921.211,2047.4050981541511
2922.319,2038.8808866795712
2923.4264,2011.0610628765344
2924.5331,2007.9953553338728
2925.6391,2001.883472529807
2926.7445,2012.8751028626057
2927.8493,2004.8699147117022
2928.9534,2005.0675563277796
2930.0569,2014.2676559128217
2931.1597,2009.819821618139
2932.2619,2003.4736414523632
2933.3634,2011.92868332593
2934.4643,1997.084495114538
2935.5645,1992.1906045745986
2936.6641,1958.6465194916805
2937.763,1930.4517277294458
2938.8613,1875.5556975650911
2939.959,1847.9578779712986
2941.056,1782.7076991651911
2942.1523,1699.7045728843154
2943.248,1636.0478930391403
2944.3431,1539.5370365430897
2945.4375,1445.17136394911
2946.5313,1356.9502204147761
2947.6244,1246.2729366459505
2948.7169,1155.7888297789932
2949.8087,1072.9972044875358
2950.8999,972.1973538873215
2951.9904,912.0385603641221
2953.0803,845.4700965817362
2954.1696,780.2412260835772
2955.2582,725.7512039583575
2956.3462,697.2992774923767
2957.4335,652.5346867144235
2958.5202,618.3066646802936
2959.6062,593.2644379204368
2960.6916,575.7072267822355
2961.7764,565.1342456804288
2962.8605,540.8447032726837
2963.9439,540.187802565325
2965.0267,530.112741156231
2966.1089,526.4687112414013
2967.1905,521.1548997157095
2968.2714,519.0204882093416
2969.3516,534.6646531409351
2970.4312,521.5865657389229
2971.5102,533.9853918850911
2972.5885,538.6602922453606
2973.6662,544.5604221457982
2974.7432,552.4849315258683
2975.8196,542.382964879432
2976.8954,543.2536611755005
2977.9705,526.1461539592563
2979.045,521.8595713433452
2980.1188,505.9430361789515
2981.192,495.9456660986647
2982.2645,478.56657367564344
2983.3364,460.30486652359036
2984.4077,436.3596474705423
2985.4783,419.98001474148793
2986.5483,391.6650621978191
2987.6177,358.6638795011281
2988.6864,329.2255523963564
2989.7545,299.6991630418071
2990.8219,263.8337903035284
2991.8887,243.7785100505772
2992.9548,210.63239551367303
2994.0204,194.79451748575048
2995.0852,158.86394465342073
2996.1495,141.93974375535004
2997.2131,124.22097994156536
2998.276,102.10671694269627
2999.3383,85.44601724716335
3000.4,75.28794232232008
3001.4611,53.28155278106021
3002.5215,54.72590848339803
3003.5812,25.120068756533044
3004.6404,27.013092380405226
3005.6989,17.754037883754563
3006.7567,11.991963525190556
3007.8139,-2.1240726142174253
3008.8705,4.85498742668068
3009.9264,-9.521777171479926
3010.9818,3.244712723386158
3012.0364,-7.146368634081568
3013.0905,-15.295847021690122
3014.1439,-8.854476825024108
3015.1966,-9.222859624156342
3016.2487,-5.901508542936767
3017.3002,-6.190844568847581
3018.3511,-8.641229733301145
3019.4013,-11.402964221173079
3020.4509,-4.42626189145426
3021.4998,2.9387773124767023
3022.5481,2.2920976655971117
3023.5958,9.833643413496304
3024.6428,11.213358778843201
3025.6892,12.931187885970417
3026.735,16.087074747077224
3027.7802,24.63096324505159
3028.8247,22.412797101910826
3029.8685,29.03251979336312
3030.9118,32.690074570988656
3031.9544,39.28540439604245
3032.9963,46.268451902878894
3034.0376,54.53915933299879
3035.0783,58.9974684652185
3036.1184,64.59332053296305
3037.1578,70.97665617968312
3038.1966,78.69741540289652
3039.2348,78.80553749035471
3040.2723,83.25096094283532
3041.3092,90.9836234730609
3042.3455,90.80346196124452
3043.3811,91.61041237776328
3044.4161,96.55440978495966
3045.4505,99.5853883290722
3046.4842,99.50328119079512
3047.5173,98.40802055496908
3048.5498,88.19953761140209
3049.5816,90.42776256582232
3050.6128,82.99262474196252
3051.6434,92.44405255927785
3052.6734,85.43197360729738
3053.7027,82.75631455110982
3054.7314,83.31700120148452
3055.7594,85.61395854162777
3056.7868,82.94711072157583
3057.8136,82.56638103522573
3058.8398,85.1716919470037
3059.8653,84.86296509567222
3060.8902,78.040121268277
3061.9145,84.8030804032341
3062.9381,84.85176165855853
3063.9612,80.73608334423466
3064.9835,80.20596292172934
3066.0053,78.81131704514888
3067.0264,74.85206156653993
3068.0469,75.02811154983624
3069.0668,70.5393813104514
3070.086,68.3357844135175
3071.1046,62.91723371877333
3072.1226,59.43364140259985
3073.1399,57.884919012206126
3074.1567,53.6709775004648
3075.1727,51.041727241399656
3076.1882,44.74707807232454
3077.203,31.986939320136287
3078.2173,28.811219864260863
3079.2308,37.71982826425506
3080.2438,25.462672791563648
3081.2561,21.48966134043326
3082.2678,25.950701550483814
3083.2789,17.745700846439036
3084.2893,17.72456639351543
3085.2991,10.58720517947279
3086.3083,7.633524014825099
3087.3169,6.563429604214491
3088.3248,7.476828575947792
3089.3321,6.373627492697636
3090.3388,0.6537328423686688
3091.3449,1.5170510491293214
3092.3503,2.6634885306107208
3093.3551,-0.9070483107264238
3094.3593,-5.344653099056131
3095.3629,-1.699410397139843
3096.3658,-0.8713513746547221
3097.3681,-1.1604902241682282
3098.3698,-0.8668324334477973
3099.3708,-2.29037189696362
3100.3713,-4.28109384952981
3101.3711,-0.838960645145562
3102.3702,-1.2638918696825385
3103.3688,4.7442012722043785
3104.3667,-1.0145797978601934
3105.364,1.7098662943066643
3106.3607,-2.032348941460185
3107.3568,3.2588859875757237
3108.3522,-1.1162971226833065
3109.347,3.6922334910759673
3110.3412,3.4346207439751026
3111.3348,2.9610075142132644
3112.3277,0.37153664564343103
3113.32,3.666350952508566
3114.3117,5.695589537400423
3115.3028,3.8093914662472343
3116.2932,0.8078957480214228
3117.2831,6.6412413536016
3118.2723,10.85956724578756
3119.2608,5.663012320966715
3120.2488,9.301715366930921
3121.2361,6.375815114842055
3122.2229,10.835450202844868
3123.209,8.080759205326046
3124.1944,10.811880588317933
3125.1793,10.628952737045324
3126.1635,15.382113928614274
3127.1471,14.571502333841494
3128.1301,15.99725596972246
3129.1125,16.259512707537993
3130.0942,16.358410258596365
3131.0753,19.0440861716106
3132.0558,18.56667783171001
3133.0357,20.42632243358264
3134.015,21.973156986249904
3134.9936,19.35731829447002
3135.9716,21.72894294326973
3136.949,18.838167324102585
3137.9258,24.835127611132876
3138.902,27.16995979014314
3139.8775,30.192799598564832
3140.8524,28.503782502129837
3141.8267,28.05304366464209
3142.8004,32.39071796486776
3143.7735,31.96694000104266
3144.7459,29.63184404749545
3145.7178,29.535564058885456
3146.689,33.37823369355354
3147.6596,36.75998631448499
3148.6295,33.380954950882796
3149.5989,36.04127226435011
3150.5676,35.941070582680595
3151.5357,39.08048187325528
3152.5032,36.35963774404448
3153.4701,40.978669412213804
3154.4364,44.43770773133251
3155.402,41.136883145183205
3156.367,47.22632565317146
3157.3315,44.95616484333402
3158.2952,42.52652983144442
3159.2584,45.887549283714534
3160.221,45.83935144109104
3161.1829,47.732064085645106
3162.1442,50.31581454105445
3163.105,48.040729653676216
3164.065,52.106935766709434
3165.0245,56.16455874294587
3165.9834,54.613723924107966
3166.9416,52.05455609027261
3167.8993,55.03717947537954
3168.8563,55.21171779282294
3169.8127,56.77829420562521
3170.7684,57.387031324691684
3171.7236,54.9880511931447
3172.6782,57.63147528023635
3173.6321,63.017424505338205
3174.5854,61.046019211507115
3175.5381,60.41737911162572
3176.4902,61.931623308116485
3177.4417,61.688870299228114
3178.3926,68.1892379638931
3179.3428,66.93284356415532
3180.2924,66.5198036801662
3181.2415,69.20023422274875
3182.1899,69.97425043752799
3183.1377,70.7419668781266
3184.0848,68.15349739842475
3185.0314,67.75895514488296
3185.9773,71.85845258242682
3186.9227,78.30210149839235
3187.8674,78.89001296153108
3188.8115,75.42229725757356
3189.755,75.1990638833502
3190.6979,79.72042158146844
3191.6402,81.98647834254511
3192.5818,82.79734135999284
3193.5229,82.45311700735947
3194.4633,83.45391083021946
3195.4031,83.49982754961606
3196.3423,81.64097105205346
3197.2809,84.22744438903756
3198.2189,86.95934979566451
3199.1563,87.9867886647561
3200.0931,91.70986151954058
3201.0292,87.02866800337827
3201.9648,95.04330684253094
3202.8997,90.25387589297367
3203.834,93.46047206024842
3204.7677,91.76319134735844
3205.7008,91.31212882270226
3206.6333,92.80737863704647
3207.5652,95.99903402803633
3208.4964,99.58718730524338
3209.4271,98.32192981824873
3210.3571,97.05335192076168
3211.2865,103.13154298327217
3212.2154,100.40659140573669
3213.1436,102.52858455679622
3214.0712,104.09760880102583
3214.9982,103.11374947771473
3215.9246,102.27709088517605
3216.8503,107.48771629058533
3217.7755,111.09570793834726
3218.7001,110.65114699798931
3219.624,105.75411352808189
3220.5473,109.40468648068388
3221.4701,113.25294375031302
3222.3922,111.54896213744024
3223.3137,109.9928173100069
3224.2346,116.2845838204648
3225.1549,113.42433512133755
3226.0746,120.26214350230282
3226.9937,118.59808011879498
3227.9121,117.03221492362692
3228.83,118.41461668363074
3229.7473,119.39535299531636
3230.6639,123.27449027104754
3231.5799,124.20209372923443
3232.4954,123.62822735554234
3233.4102,124.70295389361557
3234.3244,124.82633485081618
3235.238,127.39843048747667
3236.151,126.11929981566607
3237.0634,130.48900057346924
3237.9752,131.00758923777792
3238.8864,126.2751209805939
3239.797,129.4916496638429
3240.7069,135.05722788669954
3241.6163,134.4219069534218
3242.5251,131.13573681769535
3243.4332,135.19876608898684
3244.3408,139.66104206540547
3245.2477,136.07261069307276
3246.154,135.13351652149987
3247.0598,136.0438027394717
3247.9649,138.203511184438
3248.8694,141.16268233341052
3249.7733,140.87135528136577
3250.6766,144.8795677116534
3251.5793,143.18735589890952
3252.4814,145.74475466897454
3253.3829,144.35179741581513
3254.2838,142.75851607595047
3255.1841,148.0149411423816
3256.0838,147.42110168052454
3256.9829,148.62702527564574
3257.8814,146.48273803880062
3258.7792,149.8882645947744
3259.6765,150.14362810352483
3260.5731,152.94885022612698
3261.4692,149.2539511222196
3262.3647,154.65894942195297
3263.2595,154.9638622629377
3264.1538,158.8687052361949
3265.0474,159.27349238310705
3265.9404,153.77823615636956
3266.8329,157.23294741594276
3267.7247,154.0876354840046
3268.616,159.5923081104036
3269.5066,153.0969715041117
3270.3966,154.45163027817773
3271.286,153.75628751468088
