RamanShift,CorrectedData
30.1047,1171.3552239666592
32.3739,1084.6267876543366
34.6426,1001.5983396284615
36.9109,920.0198573292141
39.1787,833.6913081807904
41.4461,751.812650407188
43.7131,665.533833895491
45.9796,586.2548010146567
48.2456,499.4254874783034
50.5112,419.94582313750107
52.7764,338.5657328490646
55.0411,256.3351372703505
57.3054,173.50395367305788
59.5692,93.32209676553427
61.8326,10.639479521087694
64.0955,-66.39398602019482
66.3579,-142.42838792462103
68.6199,-217.5631509825784
70.8815,-276.6962771248592
73.1426,-287.27359482637746
75.4032,-173.48816836623905
77.6634,229.2198078396624
79.9231,1326.0618725222346
82.1824,3768.2495621201883
84.4412,8190.944399811614
86.6995,14267.107871092108
88.9574,20123.901379547824
91.2148,24111.286186093836
93.4717,25810.22335040621
95.7282,26021.82369104814
97.9842,25650.6477684806
100.2398,24829.95588294632
102.4949,23929.25807818155
104.7495,22976.164149622997
107.0036,21976.483653414765
109.2573,21051.32591593934
111.5105,20239.450043814355
113.7632,19462.514933144197
116.0154,18773.829277638746
118.2672,18278.701576382737
120.5185,17783.490140722613
122.7693,17385.103099217802
125.0197,16992.848402592834
127.2696,16618.3838277212
129.519,16352.316981547929
131.7679,16034.455304834188
134.0163,15662.70607481799
136.2642,15261.576408392797
138.5117,14842.023265825008
140.7587,14434.05345476526
143.0052,14031.523634443965
145.2512,13637.340319750994
147.4967,13251.959885260989
149.7417,12966.88856917518
151.9863,12718.63247717521
154.2304,12524.097585273828
156.4739,12284.43974229747
158.717,12085.164671831599
160.9596,11846.877974617273
163.2017,11496.285130543907
165.4433,11137.991501032144
167.6844,10714.602332539773
169.925,10356.372760144668
172.1651,9915.207811778684
174.4047,9554.912411809946
176.6439,9263.841385454503
178.8825,8951.299462379287
181.1206,8712.991279612812
183.3582,8491.921384670608
185.5954,8334.144237938279
187.832,8174.664214882227
190.0681,8054.385607627408
192.3037,7965.262626552146
194.5388,7886.699401490907
196.7734,7836.149982625529
199.0075,7839.618341270865
201.2411,7881.608370380263
203.4742,7869.073884510891
205.7068,7946.968619403839
207.9389,8004.846232109463
210.1704,8104.460300208433
212.4015,8114.564321232959
214.632,8201.211711670645
216.862,8291.805806863464
219.0915,8338.599860141263
221.3205,8370.597041915846
223.549,8459.800439213008
225.777,8551.913055352587
228.0044,8653.487809056413
230.2314,8842.977533527186
232.4578,8927.634975432731
234.6837,9066.462793011102
236.909,9132.963555224003
239.1339,9041.03974036852
241.3582,8867.293735412102
243.582,8581.727836911807
245.8053,8398.394252751757
248.0281,8202.195104998795
250.2503,8079.68243173583
252.472,7990.058189023819
254.6932,8022.924252126903
256.9139,8015.982416408646
259.134,8082.634397003375
261.3536,8172.581828885591
263.5727,8391.526266203457
265.7912,8522.319181379315
268.0092,8675.711962920248
270.2267,8772.955914110154
272.4436,8768.40225147581
274.6601,8667.952103814438
276.8759,8512.706512239238
279.0913,8395.716431183897
281.3061,8220.782729955037
283.5204,8121.006193902127
285.7341,8068.137526166806
287.9473,8061.927348680657
290.16,8142.226202693889
292.3721,8249.63454883745
294.5837,8465.652766320021
296.7947,8669.631151853951
299.0052,8783.769917495054
301.2152,8643.819188602836
303.4246,8379.279002699117
305.6334,7948.4493108675115
307.8418,7453.429980398869
310.0495,6963.27079909954
312.2568,6578.721480241582
314.4635,6166.131667464348
316.6696,5884.750938619985
318.8752,5667.178809899322
321.0802,5580.1147386456905
323.2847,5580.25812553063
325.4887,5574.8583154245425
327.692,5495.3645973952425
329.8949,5378.226204761966
332.0972,5108.392315890307
334.2989,4860.362055363608
336.5001,4561.93449668129
338.7007,4319.70866473915
340.9008,4163.683538813644
343.1003,3940.508054984157
345.2992,3821.6311076932307
347.4976,3701.6015519783323
349.6955,3592.518204660626
351.8927,3573.0798455452605
354.0895,3491.2852185122047
356.2856,3454.8330317106447
358.4812,3357.821958376906
360.6763,3327.7006371989955
362.8707,3276.367673286708
365.0646,3271.321638472835
367.258,3250.161071826502
369.4508,3285.3844797036218
371.643,3374.740335958497
373.8346,3383.077081591584
376.0257,3416.443123855948
378.2162,3376.18683617388
380.4062,3298.9565578032343
382.5956,3132.1005942400134
384.7844,3022.217217990661
386.9726,2846.8546702406184
389.1603,2779.4611619531697
391.3474,2666.7848756230505
393.5339,2618.3739659503863
395.7199,2547.076560967458
397.9052,2551.5907625228065
400.09,2575.364646994216
402.2743,2707.0462652435635
404.4579,2782.533642379087
406.641,2965.8247764385596
408.8235,3112.717637634416
411.0054,3274.2101665208556
413.1868,3495.200272524904
415.3675,3598.4358323314846
417.5477,3640.1646876735267
419.7273,3579.3346442996044
421.9064,3474.443471556646
424.0848,3394.5889029982427
426.2627,3201.268637433548
428.4399,2954.2303397258365
430.6166,2606.8216427256975
432.7928,2223.3401497414343
434.9683,1904.8834380131357
437.1432,1670.999062547493
439.3176,1453.7345593023656
441.4914,1345.8874475256252
443.6645,1322.7552319278038
445.8371,1225.5354037605557
448.0091,1139.175441047988
450.1806,1120.822809558862
452.3514,1093.3249636701803
454.5216,1097.3793465507279
456.6913,1060.383390436038
458.8603,1084.9845165878523
461.0288,1111.880135664078
463.1967,1064.9676474727876
465.3639,1119.3444407032493
467.5306,1132.0078933950608
469.6967,1160.205372394379
471.8622,1205.6342332272889
474.0271,1261.94181981783
476.1914,1308.0754640337072
478.3551,1261.1824851232104
480.5182,1300.510189253875
482.6807,1335.1058699814294
484.8426,1514.0168078564966
487.0039,1781.4902700786479
489.1647,2164.0735087072935
491.3248,2475.7637579869497
493.4843,2633.4582305214008
495.6432,2565.654114156805
497.8015,2439.3985704047354
499.9592,2327.738735120236
502.1163,2159.1217197643655
504.2728,1889.744612520799
506.4287,1610.604479982001
508.5839,1255.2983698429962
510.7386,1010.7733136927673
512.8927,881.8763305673219
515.0461,821.104429394929
517.199,847.4046102851044
519.3512,1011.323865136319
521.5029,1170.8591773730022
523.6539,1383.0575203063454
525.8043,1460.015855538957
527.9541,1399.7311308428652
530.1033,1298.6002793899534
532.2519,1157.470220354795
534.3999,1117.4378599259744
536.5472,1249.8000927173762
538.694,1519.8038021685097
540.8401,1909.5458592208852
542.9856,2179.67311961799
545.1305,2246.782420007854
547.2748,2149.8705752417845
549.4185,1905.0843777032624
551.5615,1720.2205982770756
553.704,1668.8759887971682
555.8458,1709.1972838952843
557.987,1841.1812015144042
560.1276,2007.9244425055513
562.2675,2257.773689307938
564.4069,2644.725604281539
566.5456,2980.226827208595
568.6837,3079.7739714241015
570.8212,2708.963620460787
572.958,2148.9423270536463
575.0942,1590.4066168480495
577.2299,1259.402993999949
579.3648,1086.1279467612312
581.4992,1067.3279507897514
583.6329,1205.2494708821032
585.766,1378.588961161593
587.8985,1482.0428636990437
590.0304,1529.6576067793812
592.1616,1484.7796038671167
594.2922,1363.8552531301757
596.4222,1181.2809378887032
598.5515,988.1030278242833
600.6802,830.6678808057059
602.8083,670.5718448207354
604.9358,661.7112595504532
607.0626,652.9824579702345
609.1888,725.5817664383449
611.3144,801.8055047832368
613.4393,862.3999855775455
615.5636,936.1615133758678
617.6873,922.6863841088052
619.8103,857.8208843453504
621.9327,709.4112914276357
624.0544,562.0038741195913
626.1756,424.79489409103917
628.2961,314.6806073917687
630.4159,217.2072658236284
632.5351,206.1211180416649
634.6537,173.26841052885356
636.7716,162.54538770695763
638.8889,218.14829226507027
641.0056,210.47336526681283
643.1216,220.56684559434507
645.237,204.2249700250959
647.3518,164.193973130823
649.4659,115.32008744105224
651.5793,93.54954384338089
653.6922,74.27857207220768
655.8043,82.25340092644547
657.9159,62.92025846222168
660.0268,48.52537191313604
662.137,4.264967883587815
664.2466,3.1852724927375675
666.3556,28.582469252713054
668.4639,1.1527098547667265
670.5716,12.142145704336144
672.6786,-3.103083308727946
674.785,-3.186837415985792
676.8907,12.187054150799668
678.9958,49.514793996359
681.1002,16.89258460356541
683.204,-19.98337203985102
685.3072,-28.8168741150821
687.4097,-56.21152016943961
689.5115,-67.0706208696738
691.6127,-39.44692532944282
693.7132,-68.9925126269136
695.8131,-68.6090677654829
697.9123,-35.497586513345595
700.0109,-18.658379234109816
702.1089,-10.54140167051628
704.2061,45.70357683190741
706.3028,83.47689223622547
708.3987,144.0288800484832
710.4941,183.05987493995053
712.5887,265.47021014161146
714.6827,417.36021705386156
716.7761,610.7802244223749
718.8688,852.7805568192307
720.9608,998.5615327087016
723.0522,1104.6734620272546
725.1429,1107.616644725742
727.233,1099.8413697082779
729.3224,1094.6479148028193
731.4112,974.2865468388918
733.4993,836.8575216995541
735.5867,644.711085525003
737.6735,467.14747608686775
739.7596,346.6169247096732
741.845,245.4196580464759
743.9298,184.75589928415866
746.014,152.1258691554267
748.0974,136.02978654542494
750.1802,138.56786881805237
752.2624,171.84033197690405
754.3439,253.39739063991146
756.4247,335.48925770660935
758.5048,493.1661435425576
760.5843,783.7282551584431
762.6631,1160.2757946332877
764.7413,1707.4589562088386
766.8188,2356.7779225240847
768.8956,2907.7828591434354
770.9718,3277.4739080635154
773.0473,3174.5011822031374
775.1221,2908.514761706376
777.1962,2661.4146949722926
779.2697,2537.1510013148127
781.3426,2596.0236734337122
783.4147,2732.5826786572743
785.4862,2879.327958353535
787.557,2737.3094265647233
789.6271,2370.9769685397787
791.6966,1761.8304421545636
793.7654,1208.8196815751744
795.8335,863.9945033494005
797.901,589.2547119368555
799.9678,468.8501031572014
802.0339,386.68046693756696
804.0993,374.69558851658076
806.1641,333.84524926607446
808.2282,276.67922681092386
810.2916,208.7472954375553
812.3544,141.64922666560778
814.4164,79.98478992724813
816.4778,146.20375323814915
818.5385,172.205883814142
820.5986,311.840947409024
822.658,515.9087080545469
824.7166,795.1589266640476
826.7747,1223.4413589917822
828.832,1675.5557528404188
830.8886,1974.951843778219
832.9446,2192.6293506178863
834.9999,2079.4379724226146
837.0545,1888.7773863293114
839.1085,1649.5972486805022
841.1618,1426.6971969309488
843.2143,1230.7768520394402
845.2662,1072.0858206978046
847.3175,988.5236972901021
849.368,892.6900654795536
851.4179,778.9844990441361
853.467,685.9565628349355
855.5155,629.6558139131994
857.5633,579.9318024806125
859.6105,479.03407244230766
861.6569,385.26216190410014
863.7027,350.61560418147747
865.7478,323.3939287372996
867.7922,297.44666152827995
869.8359,318.3233252771952
871.8789,371.27343973236384
873.9212,462.7465214588756
875.9629,606.692083309079
878.0039,749.5096335078651
880.0441,836.3986742132183
882.0837,887.2587000880249
884.1226,915.3891974311991
886.1609,906.2396436690724
888.1984,976.7095070740852
890.2352,1082.5482468562823
892.2714,1123.70531245862
894.3069,1052.9801424985835
896.3416,906.7221643566081
898.3757,863.9807948833386
900.4091,789.305441862196
902.4418,774.3955044367995
904.4739,832.5003738577143
906.5052,898.1694336315486
908.5358,836.852058939925
910.5658,721.8476159827696
912.595,518.2554625914963
914.6236,328.5749493790463
916.6515,243.0554217758181
918.6786,176.14622192645584
920.7051,210.9966895450616
922.7309,285.9561625842689
924.756,324.6739768867574
926.7804,425.2994654356444
928.8041,415.8819579673127
930.8272,468.02077996516164
932.8495,466.4652527537746
934.8711,461.91469297753247
936.892,378.8684126161588
938.9123,352.67571903024145
940.9318,321.2859157916737
942.9506,322.39830294561216
944.9688,270.9621773243616
946.9862,209.02683253624127
949.003,83.19155947996478
951.019,44.5556469639796
953.0344,14.568382964818738
955.0491,13.479055013471225
957.063,57.88695049524904
959.0763,177.54135666067123
961.0888,211.09156018139583
963.1007,293.0368459536694
965.1119,301.1764967628369
967.1223,322.05979246386596
969.1321,345.4860098999634
971.1412,338.1544226937476
973.1495,339.064301012977
975.1572,361.814911643869
977.1641,426.6555179820043
979.1704,408.78537980481633
981.1759,390.8537526231976
983.1808,403.30988786018315
985.1849,423.7530330302816
987.1884,565.4324316149014
989.1911,656.347322857926
991.1932,772.4469403489275
993.1945,797.780511114006
995.1951,774.797254454792
997.1951,748.1963816951247
999.1943,715.7270964108666
1001.1928,689.088594695917
1003.1906,760.9800654869141
1005.1877,880.5006908296145
1007.1841,933.49964515998
1009.1798,930.4260941089688
1011.1748,831.9791939725492
1013.1691,689.4080917424344
1015.1627,505.361926090558
1017.1556,304.53982879477553
1019.1477,198.74092657933397
1021.1392,152.21434312308156
1023.1299,120.05920011746821
1025.12,136.0246177318004
1027.1093,222.0097149348003
1029.0979,340.06360933494943
1031.0859,409.7854163206339
1033.0731,435.5242478796117
1035.0596,394.62921190179077
1037.0454,292.69941192182523
1039.0304,205.5339475280889
1041.0148,89.5319153819546
1042.9985,-3.95758991052935
1044.9814,-20.285474638636515
1046.9636,-63.85260555532295
1048.9452,-67.65964676165277
1050.926,-38.806624471169926
1052.9061,11.607111022456593
1054.8855,37.13259710373677
1056.8642,78.87087104112106
1058.8421,118.27296973172997
1060.8194,177.03992928398475
1062.7959,234.072784623575
1064.7717,299.022568905797
1066.7469,363.74031294521046
1068.7213,420.5770445661601
1070.695,475.18378795560056
1072.6679,505.3115630947159
1074.6402,510.76138521286157
1076.6117,468.6842644862809
1078.5826,432.78120598360147
1080.5527,327.2532100866265
1082.5221,268.9512728493428
1084.4908,331.5763870532119
1086.4587,387.6295427901932
1088.426,486.9117268364789
1090.3925,515.0239220919775
1092.3584,528.6171065874842
1094.3235,513.3922532035613
1096.2879,548.8503295346054
1098.2515,626.9922980410938
1100.2145,800.0691156949961
1102.1767,961.8817331983646
1104.1382,1153.9810932525597
1106.099,1419.3181289401182
1108.0591,1627.0937618037733
1110.0185,1793.358899193081
1111.9771,1853.1644321866697
1113.9351,1757.4112339295843
1115.8923,1604.1001590352353
1117.8488,1457.1320445429246
1119.8045,1233.0577114509597
1121.7596,1121.2779661863315
1123.7139,1007.0436028454624
1125.6675,995.7554043119962
1127.6204,1048.5141433991448
1129.5726,1009.6205829625706
1131.524,943.3754753728026
1133.4748,831.4295629041608
1135.4248,699.283578397215
1137.3741,606.0382463782462
1139.3226,516.5942843807006
1141.2705,490.6024038776395
1143.2176,384.6633111761912
1145.164,362.6777076774615
1147.1097,322.04629093592666
1149.0546,252.81975487929049
1150.9989,195.098790214799
1152.9424,121.38408512150272
1154.8852,15.376325827472101
1156.8272,-53.02380265305328
1158.7686,-42.96561545959594
1160.7092,-35.24789802389023
1162.6491,2.8309934488206636
1164.5883,94.0230548797972
1166.5267,219.13028216198109
1168.4644,399.9046702480937
1170.4014,585.0482118995569
1172.3377,820.8628958787485
1174.2732,1148.0507050975775
1176.2081,1531.313614259314
1178.1421,1946.3035865867278
1180.0755,2414.5225699894563
1182.0082,2696.1224929141026
1183.9401,2863.805259662049
1185.8713,2744.072747573462
1187.8017,2496.576805350447
1189.7315,2133.4192542543933
1191.6605,1788.1518905809153
1193.5888,1513.726489291439
1195.5163,1415.2948074658834
1197.4432,1312.0085870469047
1199.3693,1272.8695558242143
1201.2947,1215.9794284674463
1203.2193,1216.839906917543
1205.1432,1251.302680955665
1207.0664,1262.0694281945725
1208.9889,1230.8918137340115
1210.9106,1239.6714900530387
1212.8316,1234.6100973217963
1214.7519,1294.95926331372
1216.6715,1327.470603456146
1218.5903,1393.8957202268248
1220.5084,1457.5362028288018
1222.4257,1519.343626526168
1224.3424,1578.9695520076566
1226.2583,1684.1155247685747
1228.1735,1834.5330745145402
1230.0879,1950.9237141100166
1232.0016,2129.838938074139
1233.9146,2224.180221416813
1235.8269,2215.599017849554
1237.7384,2181.14675884208
1239.6492,2053.2248537081214
1241.5592,2033.334689949943
1243.4686,2026.7276345375685
1245.3772,2160.405034107669
1247.285,2305.9182150296547
1249.1922,2459.768482068883
1251.0986,2582.457116931537
1253.0042,2636.335376726118
1254.9092,2750.3044927365645
1256.8134,2831.0656698834628
1258.7169,3016.1200855843617
1260.6196,3178.268888946155
1262.5216,3395.863198914536
1264.4229,3582.8541026525163
1266.3234,3774.4426533644764
1268.2232,3925.9298684262576
1270.1223,3992.4167274692772
1272.0207,4006.3541708656567
1273.9183,4011.5430990633477
1275.8151,3980.2843724467675
1277.7113,3971.0288112848993
1279.6067,4015.977196043892
1281.5014,4160.680267479611
1283.3953,4413.838726188149
1285.2885,4831.1532311588035
1287.181,5225.724397242491
1289.0727,5612.102790978595
1290.9637,5885.588926649256
1292.854,6069.033262415602
1294.7435,6085.4861975828735
1296.6323,6098.248070765984
1298.5204,6023.719159724979
1300.4077,5946.099681237436
1302.2943,5827.789791843727
1304.1802,5635.8395886232465
1306.0653,5312.44911037749
1307.9497,4927.518339549553
1309.8333,4574.197205458051
1311.7162,4324.385588146418
1313.5984,4192.0833219161195
1315.4798,4114.790197824766
1317.3605,4075.855965009144
1319.2405,3998.3803314581346
1321.1197,3821.76296440207
1322.9982,3570.903491087478
1324.876,3377.901500543261
1326.753,3138.706546089301
1328.6293,2999.3181472664637
1330.5048,2897.135792228555
1332.3796,2782.3089391362037
1334.2537,2702.3870171786884
1336.127,2661.4694277221924
1337.9996,2680.2055451090455
1339.8714,2664.3447170668787
1341.7426,2668.3362645212783
1343.6129,2725.8794817543876
1345.4826,2707.4236363649907
1347.3515,2737.617968693079
1349.2196,2703.8116920044185
1351.087,2752.9539921885953
1352.9537,2847.0940280970863
1354.8197,2980.2309310518285
1356.6849,3134.263803903823
1358.5493,3263.891719701767
1360.4131,3435.7637201517236
1362.276,3554.1288143208403
1364.1383,3564.1859769186376
1365.9998,3375.384147113342
1367.8606,3070.672228431331
1369.7206,2726.7990906451396
1371.5799,2443.163572820584
1373.4384,2203.0144867554973
1375.2962,2002.1006198160867
1377.1533,1733.070737338412
1379.0096,1415.1235846375384
1380.8652,1096.8578896978252
1382.7201,844.072366352394
1384.5742,628.7157174657996
1386.4275,457.08663746187267
1388.2802,338.2838144772941
1390.132,225.80593207788752
1391.9832,192.5516704466454
1393.8336,112.01970750850433
1395.6832,91.15871926288492
1397.5322,67.46738058901155
1399.3803,74.394365454531
1401.2278,35.038347152414644
1403.0745,75.49799823169724
1404.9204,62.12199089102705
1406.7656,86.7589965740799
1408.6101,115.35768610331343
1410.4538,168.71672943360227
1412.2968,232.03479536624582
1414.139,298.71055101537786
1415.9805,390.74266117478874
1417.8213,482.3797876511653
1419.6613,611.7705883437693
1421.5006,772.313716328069
1423.3391,992.057818561826
1425.1769,1290.5515342796743
1427.0139,1743.293492795674
1428.8502,2295.982310518377
1430.6858,2844.1165864234017
1432.5206,3234.69489652654
1434.3547,3501.2157884024273
1436.188,3520.777777278746
1438.0206,3462.4793433710347
1439.8524,3321.618931687047
1441.6835,3256.54495260976
1443.5139,3187.6557833059614
1445.3435,3084.5997683769992
1447.1724,3095.7252205476625
1449.0005,3059.380421696749
1450.8279,3012.913622745801
1452.6545,3015.973044022565
1454.4804,3082.0068757256504
1456.3056,3079.013277893935
1458.13,3045.7403797462293
1459.9536,2880.286279711215
1461.7766,2621.999045760168
1463.5987,2297.376717061513
1465.4202,1986.2673065636773
1467.2409,1662.3688042413278
1469.0608,1422.479180206462
1470.88,1171.1963879473897
1472.6984,991.6183667276364
1474.5161,804.543044098772
1476.3331,684.2183376961848
1478.1493,569.3921571098381
1479.9648,500.46240508751544
1481.7795,438.0769786830788
1483.5935,383.6337699457672
1485.4067,352.23066654405284
1487.2192,330.76555231007933
1489.031,308.3363075536827
1490.842,295.1908092770527
1492.6522,269.12693139901785
1494.4618,279.0425448865044
1496.2705,265.63551801517497
1498.0785,253.7037162702636
1499.8858,225.94500248065742
1501.6924,195.7572369382042
1503.4981,176.08827767530602
1505.3032,158.335980766793
1507.1075,142.34820052661962
1508.911,123.77278968538121
1510.7138,120.75759955019294
1512.5159,67.75048019044789
1514.3172,57.249280467968674
1516.1178,26.65184856707765
1517.9176,20.85603209959845
1519.7166,-10.340321589157611
1521.515,-6.989365362435819
1523.3126,-6.343148783669676
1525.1094,-30.353651592533424
1526.9055,-29.12279016064622
1528.7008,-30.35217762665252
1530.4954,-47.893136192517886
1532.2893,-28.14668484196318
1534.0824,-51.66336410628264
1535.8747,-12.09343333139077
1537.6663,-34.0366357461935
1539.4572,-30.09259376620139
1541.2473,25.239410219061938
1543.0367,31.510394445081147
1544.8253,52.47137689495321
1546.6132,86.22337523667647
1548.4003,135.06740661353706
1550.1867,204.65448730658773
1551.9723,285.185632246209
1553.7572,374.5118543162407
1555.5414,466.18416354867077
1557.3247,625.4535662303779
1559.1074,793.021063986399
1560.8893,962.7376521872393
1562.6705,1081.454318273194
1564.4509,1218.1220400571874
1566.2305,1301.6417845376027
1568.0094,1395.3645065316095
1569.7876,1395.841147839962
1571.565,1380.1726363097687
1573.3417,1399.0098858297342
1575.1176,1407.753796486838
1576.8928,1417.255254377962
1578.6672,1421.9151315224535
1580.4409,1420.7342857671101
1582.2138,1409.6135607395781
1583.986,1431.4037858601678
1585.7575,1500.4057764530535
1587.5282,1586.8203335283788
1589.2981,1666.8982430922279
1591.0673,1721.5902752824868
1592.8358,1849.6471835680559
1594.6035,1921.9197042019387
1596.3704,2012.108554940669
1598.1366,2129.3144343215836
1599.9021,2250.088020760939
1601.6668,2342.579971381844
1603.4308,2511.4909208065365
1605.194,2678.521480231452
1606.9564,2888.5722357381246
1608.7182,3118.893746622869
1610.4791,3378.4865432962806
1612.2394,3666.6511249800224
1613.9988,3963.637957110889
1615.7576,4235.747468459171
1617.5156,4440.530048158781
1619.2728,4557.086042986161
1621.0293,4543.915755312455
1622.785,4401.269441937948
1624.54,4158.197314223767
1626.2942,3870.399539518353
1628.0477,3541.8762435881754
1629.8005,3233.477513495707
1631.5525,2967.4534008846676
1633.3037,2714.553925064003
1635.0542,2570.0790756681226
1636.804,2426.828815185897
1638.553,2306.8530804054126
1640.3013,2314.601783846466
1642.0488,2290.124814960328
1643.7955,2310.622040052256
1645.5416,2407.3933025262604
1647.2868,2532.888422680132
1649.0313,2650.857196737732
1650.7751,2802.0493955940447
1652.5181,2974.4647636354803
1654.2604,3149.2030172279583
1656.0019,3374.513842992753
1657.7427,3671.9968960591123
1659.4828,3948.651797811146
1661.222,4130.578132912996
1662.9606,4087.4754465422902
1664.6984,3867.843242570878
1666.4354,3503.5809839958556
1668.1717,2984.0880951358886
1669.9072,2425.963965273837
1671.642,1980.9579538516828
1673.3761,1615.0693960517692
1675.1094,1333.0476072468628
1676.8419,1115.1918866590377
1678.5737,924.9515201798922
1680.3048,782.82578254911
1682.0351,682.4139392568568
1683.7646,574.3652479650445
1685.4934,515.8789595114513
1687.2215,438.30431899019914
1688.9488,392.69056633662694
1690.6754,335.1369371030305
1692.4012,307.44266291480017
1694.1263,292.9569720459549
1695.8506,274.029089696096
1697.5742,236.7582381352513
1699.297,225.59363689316342
1701.0191,185.93450313198764
1702.7404,155.18005175794724
1704.461,132.37949581791872
1706.1808,111.68204680697909
1707.8999,124.88691489641633
1709.6182,121.69330914069587
1711.3358,92.9504373454165
1713.0527,108.30750609924416
1714.7688,93.16372106134486
1716.4841,57.46828680781027
1718.1987,71.67040698309847
1719.9126,49.31928465698229
1721.6257,42.064122182531264
1723.338,65.45412141962515
1725.0496,34.48848380750542
1726.7605,62.51641013087283
1728.4706,60.7371008295454
1730.18,47.24975571818004
1731.8886,48.553574004062284
1733.5964,64.14775442198516
1735.3036,37.281495221206114
1737.0099,37.103994009506096
1738.7156,28.414448021853786
1740.4204,24.01205412217905
1742.1246,10.846008890273879
1743.8279,5.215508665807647
1745.5306,-10.180250320003324
1747.2325,-21.992071888097144
1748.9336,-9.820658158712376
1750.634,-11.966491551290801
1752.3336,-17.479956376901555
1754.0325,-0.8113174013633397
1755.7307,-7.860664765733418
1757.4281,-15.628080506007336
1759.1247,-8.363568130140266
1760.8206,-4.066975021567941
1762.5158,4.461934988320991
1764.2102,10.673438697217989
1765.9039,-0.7321871418057526
1767.5968,15.595334117590482
1769.289,-4.54371356370666
1770.9804,-2.9490463807583183
1772.6711,15.529664863067865
1774.361,4.692778825377445
1776.0502,7.290654008478668
1777.7386,9.523648867756037
1779.4263,23.642121785689596
1781.1132,19.74643104952156
1782.7994,25.986934710078003
1784.4849,23.513990620718232
1786.1696,25.07795637493473
1787.8535,33.27918933107958
1789.5367,35.46804659672898
1791.2192,45.99488494666775
1792.9009,35.3600608010056
1794.5818,62.01393011990194
1796.2621,43.05684850992111
1797.9415,51.33917095748848
1799.6202,54.86125201846107
1801.2982,52.323445735306905
1802.9755,41.626105601882955
1804.6519,53.31958458880945
1806.3277,39.75423525044653
1808.0027,57.080409607959155
1809.6769,59.64845928497243
1811.3504,47.60873533430822
1813.0231,64.96158821230983
1814.6951,59.257367899236215
1816.3664,90.89642372573189
1818.0369,78.37910442986731
1819.7067,90.70575784075163
1821.3757,78.62673100370421
1823.044,93.34237005698469
1824.7115,96.85302035259065
1826.3783,78.15902630909295
1828.0443,84.36073137653784
1829.7096,94.0084782233821
1831.3741,101.55260867447714
1833.0379,99.29346361459193
1834.701,123.3813829129731
1836.3633,111.21670544593417
1838.0248,103.09976885597689
1839.6856,118.93090967343869
1841.3457,122.56046339765908
1843.005,135.18876433867126
1844.6636,128.4161455809067
1846.3214,120.34293885691022
1847.9785,141.16947461506788
1849.6349,129.49608210034057
1851.2904,152.52308914599098
1852.9453,129.25082229032478
1854.5994,142.4296065464182
1856.2528,151.65976563483855
1857.9054,164.29162185185987
1859.5572,181.37549597715952
1861.2083,173.01170714750015
1862.8587,175.70057268589017
1864.5084,169.29240818522157
1866.1572,178.1875274813815
1867.8054,154.53624271733497
1869.4528,157.3888642541724
1871.0994,167.14570090762345
1872.7453,172.70705991953082
1874.3905,166.52324686027987
1876.0349,176.94456557318927
1877.6786,161.07131823634563
1879.3215,179.85380525839355
1880.9637,187.4923254372634
1882.6051,167.88717577235093
1884.2458,181.08865138813007
1885.8858,182.64704573020208
1887.525,174.81265043328312
1889.1634,177.73575530561993
1890.8011,174.3666484073342
1892.4381,167.30561602119042
1894.0743,194.25294268628977
1895.7098,207.55891126867846
1897.3446,188.5238026918737
1898.9786,212.29789580380475
1900.6118,196.38146756716378
1902.2443,189.52479282166632
1903.8761,189.62814444321384
1905.5071,177.19179341246308
1907.1374,176.71600881379027
1908.7669,198.70105795965446
1910.3957,183.8972063953579
1912.0237,182.50471767919134
1913.651,180.8738535304774
1915.2776,172.40487384349353
1916.9034,173.5980367037787
1918.5285,164.75359847282334
1920.1528,170.2218137761406
1921.7764,181.4029355917064
1923.3992,180.04721519528084
1925.0213,166.10490204859389
1926.6427,161.62624381290698
1928.2633,149.46148648843382
1929.8832,190.3608744591279
1931.5023,157.77465061432895
1933.1207,160.80305593976755
1934.7383,174.6963298434316
1936.3552,179.70471012527787
1937.9714,163.97843283830161
1939.5868,170.71773223845094
1941.2015,156.02284094189235
1942.8154,153.34398985761345
1944.4286,137.431408334377
1946.041,132.58532418750656
1947.6528,147.9559638580131
1949.2637,141.49355246105506
1950.8739,128.59831363223202
1952.4834,141.62046959220925
1954.0921,150.5602412756698
1955.7001,149.3678482010946
1957.3074,160.34350838136106
1958.9139,145.08743833566996
1960.5197,131.2498529797881
1962.1247,120.9309657786107
1963.729,121.98098888453387
1965.3325,120.85013324064766
1966.9353,119.28860857023164
1968.5374,126.89662338806693
1970.1387,114.47438501604984
1971.7393,116.27209950710994
1973.3392,124.68997176943412
1974.9383,119.97820554848886
1976.5366,102.03700334284304
1978.1342,109.56656645128305
1979.7311,128.46709515222574
1981.3273,108.83878862842585
1982.9227,125.73184477796713
1984.5173,112.74646041054575
1986.1112,90.7328310785415
1987.7044,108.89115120686984
1989.2968,110.97161431312043
1990.8885,113.32441282597256
1992.4795,119.19973806439248
1994.0697,108.39778021410257
1995.6592,98.01872826883118
1997.2479,101.51277013832987
1998.8359,119.430092752164
2000.4232,110.57088202477144
2002.0097,97.33532267629016
2003.5955,93.12359832114953
2005.1805,121.08589160042584
2006.7648,123.97238422396049
2008.3484,98.4332566907351
2009.9312,113.31868826000982
2011.5133,96.67885720671256
2013.0946,111.11394067258652
2014.6752,109.4741148325852
2016.2551,106.80955475052451
2017.8342,108.17043439547933
2019.4126,106.35692666842851
2020.9902,114.56920338864757
2022.5672,104.70743531184507
2024.1433,105.77179204803815
2025.7188,105.11244216017167
2027.2935,104.07955315347363
2028.8674,109.7232914820479
2030.4406,95.19382255920254
2032.0131,93.39131070101485
2033.5849,95.86591927162226
2035.1559,106.91781070125126
2036.7261,101.34714646146949
2038.2957,111.30408695466713
2039.8645,104.38879156976509
2041.4325,101.30141858264415
2042.9998,98.94212522529824
2044.5664,104.06106771670966
2046.1323,116.70840128643977
2047.6974,115.28428012344148
2049.2617,95.48885724958404
2050.8254,104.12228453389525
2052.3883,101.68471289051445
2053.9504,110.37629219235987
2055.5118,96.09717129550177
2057.0725,100.4474979522488
2058.6325,102.77741895393774
2060.1917,102.08708008743156
2061.7502,109.52662611182018
2063.3079,109.49620076532437
2064.8649,106.59594669089984
2066.4212,111.07600543653984
2067.9767,103.6865174842801
2069.5315,92.6276222053973
2071.0856,104.39945793430275
2072.6389,95.25216207913263
2074.1915,86.53587100402751
2075.7433,74.75072012060673
2077.2945,85.4468439751322
2078.8448,92.37437636635832
2080.3945,95.03345023857219
2081.9434,71.52419761231727
2083.4916,86.94674955780397
2085.039,83.35123643000202
2086.5857,81.88778771441434
2088.1317,80.60653206303323
2089.677,93.55759730897307
2091.2215,74.49111047928318
2092.7652,84.05719766543871
2094.3083,76.1059842140046
2095.8506,84.43759463097422
2097.3921,95.00215266128066
2098.933,92.39978120548153
2100.4731,96.18060221411451
2102.0124,87.19473671372157
2103.5511,105.39230476903913
2105.089,94.87342557285615
2106.6261,89.1882172640403
2108.1626,89.18679703272687
2109.6983,99.06928117716893
2111.2332,90.93578510375346
2112.7675,101.68642322817527
2114.301,96.47130905677318
2115.8337,108.3905550790223
2117.3657,89.69427281968638
2118.897,89.03257271962389
2120.4276,88.65556432275162
2121.9575,97.81335628266174
2123.4866,107.35605636639184
2125.0149,92.68377136284698
2126.5426,85.6966069873722
2128.0695,80.49466802847519
2129.5956,85.52805841769987
2131.1211,87.59688128164476
2132.6458,82.6012388916281
2134.1698,85.64123264300133
2135.693,85.71696310510356
2137.2155,88.57852999086413
2138.7373,92.07603215604126
2140.2584,85.30956757060949
2141.7787,89.17923328378265
2143.2983,88.53512549168181
2144.8171,76.277339498635
2146.3353,85.70596972361932
2147.8527,83.87110982283934
2149.3693,91.52285259544101
2150.8853,84.36129000185997
2152.4005,81.43651308730455
2153.9149,98.0486120533701
2155.4287,87.64767628728941
2156.9417,94.5337941958096
2158.454,74.35705330920155
2159.9655,70.06754021239976
2161.4764,83.76534074676852
2162.9865,79.05054005299917
2164.4958,79.22322243413032
2166.0045,72.68347140269498
2167.5124,75.78136967899582
2169.0195,86.4169992565005
2170.526,84.69044137086439
2172.0317,89.15177639357239
2173.5367,89.85108384920522
2175.0409,82.33844237082803
2176.5445,84.663929692995
2178.0473,85.82762272687683
2179.5494,86.67959753700575
2181.0507,91.51992932963844
2182.5513,81.84869244423635
2184.0512,75.96596030506294
2185.5504,81.72180551789484
2187.0488,81.01629992885069
2188.5465,75.44951456683225
2190.0435,81.12151965057933
2191.5397,69.68238464433739
2193.0353,75.28217820113719
2194.5301,71.52096827718651
2196.0241,71.6488220758738
2197.5175,79.81580608537729
2199.0101,69.57198607738746
2200.502,65.31742702543625
2201.9931,66.40219320733809
2203.4835,76.47634824773445
2204.9733,60.489955107244896
2206.4622,66.04307598172636
2207.9505,67.08577246213713
2209.438,62.26810547900436
2210.9248,60.39013529199883
2212.4109,72.9019215381104
2213.8962,55.903523250427725
2215.3809,75.24499873302102
2216.8648,60.176405730925126
2218.3479,52.99780123672758
2219.8304,58.4092416412509
2221.3121,66.7607828053417
2222.7931,59.25248000575539
2224.2733,48.63438785164067
2225.7529,57.20656035962088
2227.2317,55.119051059976755
2228.7098,57.2719129109239
2230.1872,49.765198319488036
2231.6638,50.59895911997637
2233.1397,44.22324664904454
2234.6149,54.03811173735926
2236.0894,51.89360477335572
2237.5632,52.33977560508811
2239.0362,59.72667356167449
2240.5085,46.75434744883546
2241.9801,40.22284547502545
2243.4509,44.08221538115504
2244.921,53.5825045059064
2246.3904,41.47375974714009
2247.8591,45.45602746689201
2249.3271,35.12935361246036
2250.7943,31.84378367658428
2252.2608,38.9993628007112
2253.7266,38.64613580785044
2255.1917,42.1841471310197
2256.656,34.713440816776256
2258.1197,35.7340604898352
2259.5826,38.94604942777869
2261.0447,50.34945055084927
2262.5062,40.29430638982831
2263.9669,27.480658972004676
2265.4269,40.5585499217259
2266.8862,48.02802058853126
2268.3448,33.23911191637535
2269.8026,45.94186436893392
2271.2598,33.23631807749348
2272.7162,29.77251271392197
2274.1719,43.40048761772459
2275.6268,52.170281830681915
2277.0811,41.38193396056977
2278.5346,47.58548209346236
2279.9874,50.58096390161609
2281.4395,55.61841658143362
2282.8908,47.047876823509114
2284.3414,43.96938076225183
2285.7914,43.382964061594976
2287.2406,34.738661945778404
2288.689,46.08650920521154
2290.1368,40.226540282918904
2291.5838,45.558789161060986
2293.0302,51.88328941953341
2294.4758,46.25007418264477
2295.9206,46.00917605587165
2297.3648,48.210627182189455
2298.8082,48.95445924448313
2300.251,43.39070344353149
2301.693,40.96939049057028
2303.1343,49.99055066292863
2304.5748,32.00421382824243
2306.0147,33.76040935424339
2307.4538,47.75916628862228
2308.8922,43.300513341467195
2310.3299,46.78447874527524
2311.7669,48.61109029953991
2313.2031,43.03037533590964
2314.6387,43.442360699922574
2316.0735,45.34707280681391
2317.5076,46.94453763739534
2318.941,48.43478071900927
2320.3737,47.8678271095539
2321.8056,47.393701382580275
2323.2369,47.81242763296109
2324.6674,46.17402948163226
2326.0972,38.028530071405385
2327.5263,34.57595208335215
2328.9547,45.46631781825954
2330.3823,38.99964923115613
2331.8092,49.52596782240744
2333.2355,50.345294702382716
2334.661,46.75765048619314
2336.0858,49.01305528549756
2337.5098,43.161528744378074
2338.9332,53.50309001678738
2340.3558,47.98775782506277
2341.7778,40.26555035651154
2343.199,41.73648531856361
2344.6195,46.000580015993364
2346.0393,51.60785133621198
2347.4583,51.15831570662567
2348.8767,61.5019890385629
2350.2943,54.58888673176921
2351.7113,63.969023570969966
2353.1275,52.242413795003586
2354.543,56.00907100301879
2355.9578,59.46900827174068
2357.3718,54.472238117806
2358.7852,63.818772463162304
2360.1978,50.75862268503511
2361.6098,50.541799522463634
2363.021,58.51831320690144
2364.4315,52.93817346438345
2365.8413,50.50138943576144
2367.2504,50.85796973250626
2368.6587,51.407922461076396
2370.0664,49.05125521934906
2371.4733,47.68797509112301
2372.8795,56.21808866968513
2374.285,47.64160207144391
2375.6899,41.15852085062784
2377.0939,41.6188500850501
2378.4973,44.472594440938565
2379.9,42.76975816833533
2381.3019,52.21034507255581
2382.7032,49.39435853121904
2384.1037,54.17180139983975
2385.5035,47.89267603998928
2386.9027,41.65698427152233
2388.3011,46.364727435366376
2389.6987,52.66590645588008
2391.0957,43.96052179377671
2392.492,46.048573383111716
2393.8876,38.88006071833638
2395.2824,39.50498283341699
2396.6765,40.57333837352144
2398.07,37.58512558876828
2399.4627,46.39034232354311
2400.8547,50.13898604638143
2402.246,39.63105376191652
2403.6366,37.11654197339362
2405.0265,41.69544678774605
2406.4156,38.11776394074309
2407.8041,41.13348875120005
2409.1918,38.292616156756594
2410.5789,30.495140683717636
2411.9652,43.691056475464165
2413.3508,40.430357370426236
2414.7358,33.76303677012402
2416.12,37.98908767177545
2417.5035,52.55850273496958
2418.8863,39.87127423940751
2420.2684,43.727393939206195
2421.6497,38.576853189769395
2423.0304,35.11964290922924
2424.4104,45.955753629949186
2425.7896,41.985175533097504
2427.1682,37.80789834028519
2428.546,44.12391135327471
2429.9232,41.83320349575149
2431.2996,43.43576325016352
2432.6753,45.5815786806246
2434.0503,46.52063741689199
2435.4246,35.70292663290752
2436.7982,38.7784330374069
2438.1711,33.7471429820971
2439.5433,40.85904243090101
2440.9148,43.914117010270274
2442.2856,38.76235193806713
2443.6557,35.25373199301271
2445.025,49.8382415662054
2446.3937,42.06586469620663
2447.7617,36.336584923196256
2449.1289,29.60038536669606
2450.4955,33.50724878286235
2451.8613,39.20715763184785
2453.2265,41.650094038733755
2454.5909,47.08603973652998
2455.9546,43.3649760417469
2457.3177,44.33688380003457
2458.68,39.85174342339417
2460.0416,39.25953488045786
2461.4025,37.46023774134096
2462.7627,54.2538311835641
2464.1222,49.790294010045045
2465.4811,48.81960448116456
2466.8392,45.041740359400364
2468.1966,51.40667891903388
2469.5533,55.164396983929464
2470.9093,53.564870863885176
2472.2645,58.158076317055816
2473.6191,52.743988565947575
2474.973,51.67258225148646
2476.3262,60.543831487158286
2477.6787,62.45770986972411
2479.0305,46.714190390506815
2480.3816,57.513245416252516
2481.7319,55.95484684656617
2483.0816,55.73896600592059
2484.4306,49.165573659240636
2485.7789,52.48464001406194
2487.1264,52.29613478626493
2488.4733,51.35002716688382
2489.8195,51.89628582399234
2491.165,50.08487891216441
2492.5097,55.66577406701106
2493.8538,41.388938423294576
2495.1972,53.20433855912006
2496.5398,50.061940638702936
2497.8818,51.56171029421603
2499.2231,54.253612657213125
2500.5637,45.637612343631076
2501.9035,52.51367342687115
2503.2427,48.33175952395902
2504.5812,53.49183372678385
2505.919,55.74385864391729
2507.256,50.587796349013274
2508.5924,48.17360835828754
2509.9281,47.501255682077385
2511.2631,46.92069884898547
2512.5974,53.23189791260222
2513.9309,50.73481245731148
2515.2638,54.779401535178295
2516.596,55.36562369092019
2517.9275,51.743436921460784
2519.2583,55.562798670067764
2520.5884,63.17366586257515
2521.9178,58.02599486918939
2523.2465,56.9197414283808
2524.5745,57.7548606983604
2525.9018,52.531307268141745
2527.2284,53.89903514919047
2528.5543,58.55799782765894
2529.8796,62.4081482507105
2531.2041,66.09943877992771
2532.5279,56.081821152812836
2533.851,55.80524644587365
2535.1735,62.369665174800616
2536.4952,63.675027297231736
2537.8163,69.2712821471091
2539.1366,61.25837842162434
2540.4562,62.88626412525741
2541.7752,61.0548866499048
2543.0935,70.56419275860014
2544.411,73.11412860382859
2545.7279,68.40463963243326
2547.0441,69.78567056011639
2548.3596,76.30716541853474
2549.6744,66.119067541488
2550.9885,62.621319499704896
2552.3019,61.763863202723314
2553.6146,65.94663993386837
2554.9266,71.31959035882676
2556.2379,73.33265448381974
2557.5485,88.53577160187285
2558.8585,75.3288802726862
2560.1677,83.4619181706023
2561.4762,74.63482221667527
2562.7841,73.99752849734034
2564.0913,79.7499723526845
2565.3977,75.49208838282027
2566.7035,83.92381039036047
2568.0086,79.19507142299778
2569.313,83.8558036891867
2570.6167,89.35593860543145
2571.9197,83.79540674967859
2573.222,89.47413780631553
2574.5236,89.24206062177586
2575.8246,84.54910314775202
2577.1248,83.54519244351593
2578.4244,88.88025472284937
2579.7232,97.15421536408178
2581.0214,95.46699885674025
2582.3189,101.41852871881099
2583.6157,102.0587275136096
2584.9118,91.9375167902673
2586.2072,98.00481707732797
2587.5019,100.21054798396142
2588.7959,94.20462813928896
2590.0893,108.43697517032729
2591.3819,101.20750576204716
2592.6739,110.56613551504927
2593.9652,106.16277901786009
2595.2557,107.8973497533442
2596.5456,113.16976014273939
2597.8348,112.32992152831002
2599.1234,108.62774412062265
2600.4112,120.11313700694575
2601.6983,116.1860081882702
2602.9848,125.24626446445575
2604.2705,116.44381147350236
2605.5556,123.52855360094816
2606.84,120.5003940678937
2608.1237,113.85923486015406
2609.4067,108.95497675854051
2610.689,115.03751940527218
2611.9707,111.20676135301801
2613.2516,116.31260000407224
2614.5319,109.20493164866161
2615.8115,104.73365141388683
2617.0903,108.84865333479968
2618.3685,110.94983039911529
2619.6461,114.53707450606305
2620.9229,113.21027644537367
2622.199,111.81932586140817
2623.4745,112.4141112664247
2624.7493,112.7445200544887
2626.0234,111.21043849552495
2627.2968,120.81175173201325
2628.5695,111.5983437943296
2629.8415,106.32009750473287
2631.1128,108.27689456949884
2632.3835,110.16861563170255
2633.6535,113.14514025165033
2634.9228,109.95634688796224
2636.1914,107.95211286780773
2637.4593,106.98231441879204
2638.7265,113.39682668900059
2639.9931,120.09552375669546
2641.259,114.9782785661705
2642.5242,114.7449628607643
2643.7887,114.74544723403278
2645.0525,112.97960113208228
2646.3156,107.8472928535648
2647.5781,105.89838956733695
2648.8398,103.0827573637821
2650.1009,105.75026127430021
2651.3613,98.70076529946425
2652.6211,101.98413238234502
2653.8801,102.00022447900528
2655.1385,101.19890252566734
2656.3961,104.5800264385507
2657.6531,106.89345512188709
2658.9094,115.83904643410733
2660.1651,106.46665716470898
2661.42,113.6761429447995
2662.6743,113.91735834081976
2663.9279,120.49015678244984
2665.1808,127.94439056019678
2666.433,118.47991075966604
2667.6846,130.29656718701972
2668.9354,127.39420846362134
2670.1856,129.72268190786883
2671.4351,127.28183356421869
2672.6839,138.7715081799006
2673.9321,138.94154922932614
2675.1795,135.94179879919182
2676.4263,138.1720975867786
2677.6724,143.5322849299505
2678.9179,149.57219878485046
2680.1626,145.14167567229913
2681.4067,146.74055061739546
2682.6501,133.5186571938209
2683.8928,139.77582750785257
2685.1348,140.66189233058094
2686.3761,131.12668103533883
2687.6168,125.1700215888402
2688.8568,123.19174064653225
2690.0961,124.19166361216298
2691.3348,116.81961465756274
2692.5727,120.17541671264564
2693.81,121.25889153913056
2695.0466,126.56985969698155
2696.2826,130.7581405335743
2697.5178,125.37355213058618
2698.7524,116.91591126211335
2699.9863,126.0350334485172
2701.2195,125.03073304100019
2702.452,130.2528231304144
2703.6839,131.0011155573045
2704.9151,138.2254208596869
2706.1456,142.37554826556766
2707.3755,145.8513056206981
2708.6046,152.60249934707497
2709.8331,156.52893440818252
2711.0609,168.23041424148005
2712.2881,176.9067407191386
2713.5145,178.30771403102483
2714.7403,184.38313259793892
2715.9654,204.18279305760348
2717.1899,200.35649020391043
2718.4136,220.10401678892356
2719.6367,226.02516356114216
2720.8591,232.86971906802546
2722.0809,242.28746959678153
2723.3019,255.72819910592148
2724.5223,263.3916891310819
2725.7421,276.0277186506177
2726.9611,263.9860640089676
2728.1795,277.7164987902928
2729.3972,255.6687939388944
2730.6142,245.8427176219082
2731.8306,230.93803544978294
2733.0462,222.7545105745396
2734.2612,209.74190383881955
2735.4756,185.44997385771904
2736.6892,164.47847714891589
2737.9022,163.32716837558797
2739.1145,142.14580055612936
2740.3262,136.3341250756623
2741.5372,121.04189189785211
2742.7475,112.01884962302279
2743.9571,105.01474564107946
2745.1661,89.7293262217388
2746.3744,88.56233658457063
2747.582,74.96352105185133
2748.7889,69.1326230602341
2749.9952,61.06938529673778
2751.2008,57.77354975705521
2752.4057,52.84485782618572
2753.61,42.433050311393345
2754.8136,43.68786749149342
2756.0165,42.259049220971406
2757.2188,37.646334917434615
2758.4204,43.19946357589993
2759.6213,37.36817381492176
2760.8215,37.45220382105981
2762.0211,27.15129140719239
2763.22,28.86517401167646
2764.4182,30.293588801355668
2765.6158,20.486272654422237
2766.8127,17.99296214613264
2768.009,11.263393646880786
2769.2045,10.597303347131515
2770.3994,11.044427324715457
2771.5936,-0.7954984485093064
2772.7872,-3.4227381111290924
2773.9801,-7.987547854701006
2775.1723,-12.140149677628074
2776.3639,-5.280685782711089
2777.5548,-18.60917709265493
2778.745,-7.375591776114447
2779.9346,-17.629712096065305
2781.1235,-11.82124663332172
2782.3117,-4.999727847874283
2783.4992,-15.464570105460325
2784.6861,-20.665137824535805
2785.8723,-3.700640932502097
2787.0579,-13.870082912033354
2788.2428,0.47756972359877636
2789.427,-4.756510976749041
2790.6106,4.528847031003579
2791.7935,8.884863308482068
2792.9757,7.562757372023839
2794.1573,19.813748649117088
2795.3382,22.539056491624024
2796.5184,32.58990005326905
2797.698,40.06749826238638
2798.8769,40.473069721411775
2800.0551,59.30783263210583
2801.2327,71.22300479149919
2802.4096,75.46980340354389
2803.5859,91.09944495996331
2804.7615,106.6131451977817
2805.9364,121.46211894303008
2807.1106,146.44757995560815
2808.2842,168.17074078079463
2809.4572,185.03281249939266
2810.6294,216.98500451049847
2811.801,251.6285243628804
2812.972,287.41457743545675
2814.1423,314.54436659086105
2815.3119,357.2690918175815
2816.4808,396.9899499586626
2817.6491,443.1581342844586
2818.8167,488.0748340954244
2819.9837,545.1912342604338
2821.15,591.3085147676126
2822.3157,639.2778501531742
2823.4807,699.2004090402476
2824.645,739.6773536591825
2825.8086,789.9098392483252
2826.9716,850.8990136492483
2828.134,891.4960168044266
2829.2957,933.0019801473445
2830.4567,960.3180261965277
2831.617,978.0952681404814
2832.7767,990.8348095645316
2833.9358,994.4877442730519
2835.0941,978.0051561620688
2836.2519,962.088119182731
2837.4089,950.8376975061358
2838.5653,937.1049456825001
2839.7211,923.6909087536641
2840.8761,928.8466223904182
2842.0306,920.323113026645
2843.1843,948.62139780776
2844.3374,984.6424846759487
2845.4899,1025.4873720871822
2846.6417,1085.4570486510079
2847.7928,1137.1524927220992
2848.9433,1207.124671800559
2850.0931,1259.4745420149666
2851.2422,1315.0030474226533
2852.3907,1379.1611194862062
2853.5385,1421.5496765181824
2854.6857,1471.0196230395277
2855.8323,1522.221849355693
2856.9781,1572.3072310619314
2858.1233,1627.0766285312793
2859.2679,1663.6308864137004
2860.4118,1710.7208330883925
2861.555,1750.997280298244
2862.6976,1792.8110226789363
2863.8395,1831.3628373561778
2864.9808,1842.3034835275678
2866.1214,1859.733702077076
2867.2614,1894.35421546564
2868.4007,1899.965727556858
2869.5393,1897.618923270787
2870.6773,1918.7144685278272
2871.8146,1933.1530102721902
2872.9513,1926.3351762609423
2874.0874,1918.5115749196202
2875.2227,1919.982795410409
2876.3574,1884.2494077103788
2877.4915,1870.3119625967715
2878.6249,1850.1709920043356
2879.7577,1816.5770091647005
2880.8898,1800.0805088077864
2882.0212,1786.5319674977432
2883.152,1760.0318437979154
2884.2821,1772.2305784063296
2885.4116,1747.8285944206934
2886.5405,1753.37629721641
2887.6686,1757.1740746905953
2888.7962,1760.9722972066045
2889.923,1773.1213175560497
2891.0493,1784.371470920823
2892.1748,1808.8230747516013
2893.2997,1798.4764286553489
2894.424,1823.1318141507986
2895.5476,1832.5894947719203
2896.6706,1838.1997158213653
2897.7929,1873.1127042758917
2898.9145,1894.1786687302588
2900.0355,1929.7977990481008
2901.1559,1950.0702661512646
2902.2756,1976.39622166362
2903.3946,2016.3257977083344
2904.513,2024.409106644615
2905.6308,2050.6962406684097
2906.7479,2080.9872717315757
2907.8643,2119.9322512790077
2908.9801,2131.83120994573
2910.0953,2140.2841571674426
2911.2098,2133.0410810615344
2912.3236,2135.4019483425527
2913.4368,2117.516704394635
2914.5494,2107.0352732478987
2915.6613,2090.107557757294
2916.7725,2054.0834397074204
2917.8831,2017.3127799817998
2918.9931,2003.8454189231215
2920.1024,1959.0811767009457
2921.211,1942.3698534463806
2922.319,1940.6612296997218
2923.4264,1922.3050665775672
2924.5331,1904.101105789902
2925.6391,1900.749069823663
2926.7445,1910.5486621247737
2927.8493,1912.2495671316697
2928.9534,1913.7514501772987
2930.0569,1923.4539574721134
2931.1597,1921.906716089052
2932.2619,1920.059333866514
2933.3634,1921.2113994238332
2934.4643,1913.4624821797483
2935.5645,1916.462132340887
2936.6641,1891.0598809792496
2937.763,1861.8052400022189
2938.8613,1834.7977024065772
2939.959,1783.6867425710543
2941.056,1724.421816526405
2942.1523,1662.702362466515
2943.248,1595.9778013410535
2944.3431,1505.897537472666
2945.4375,1399.8609592242206
2946.5313,1322.0674398996093
2947.6244,1214.0163388041162
2948.7169,1130.3070020223502
2949.8087,1045.588763498758
2950.8999,957.0109458747161
2951.9904,897.0728613357139
2953.0803,823.8738124971317
2954.1696,758.8630930036212
2955.2582,717.4399882610971
2956.3462,680.5537760868426
2957.4335,637.2037271237416
2958.5202,616.5891052091403
2959.6062,583.4091678083481
2960.6916,575.6631662207835
2961.7764,556.9503459117733
2962.8605,531.5199465900137
2963.9439,522.2212023946968
2965.0267,520.2533421498158
2966.1089,511.21558945715265
2967.1905,513.0071627159552
2968.2714,516.627275213316
2969.3516,514.2251351062562
2970.4312,504.54994538552455
2971.5102,522.5009038996193
2972.5885,525.5772034515396
2973.6662,522.728031619276
2974.7432,528.552570725047
2975.8196,530.9499978637913
2976.8954,533.3194848449217
2977.9705,518.9601981683519
2979.045,518.2712990008008
2980.1188,512.0019433193855
2981.192,509.30128191851054
2982.2645,476.81846047256147
2983.3364,466.1526195629111
2984.4077,432.2028950027485
2985.4783,409.8684179437364
2986.5483,395.398315215509
2987.6177,364.7417095490172
2988.6864,330.5977197212286
2989.7545,302.5654608616943
2990.8219,283.89404479398803
2991.8887,247.782580316029
2992.9548,221.83017338679616
2994.0204,195.98592748744306
2995.0852,169.59894388082137
2996.1495,144.86832186992393
2997.2131,123.44315906175416
2998.276,116.0725516146324
2999.3383,97.0555944524483
3000.4,79.14138133836565
3001.4611,62.37900506499284
3002.5215,46.46755763352451
3003.5812,44.356130421365776
3004.6404,23.44381434124631
3005.6989,22.729699862334712
3006.7567,14.76287721936177
3007.8139,7.542436419761486
3008.8705,8.767467323339133
3009.9264,1.7870597144755038
3010.9818,-2.8496967101228847
3012.0364,-7.143712271619904
3013.0905,-10.245868822709326
3014.1439,-19.356976850399747
3015.1966,-6.52774448547035
3016.2487,-11.20868648250206
3017.3002,-7.55025238390823
3018.3511,-3.0527797573247994
3019.4013,-8.516530743366445
3020.4509,-3.691736985378327
3021.4998,-1.178545046563329
3022.5481,-6.727064609672084
3023.5958,-0.13739358379024225
3024.6428,0.5904373253716813
3025.6892,7.406398784664987
3026.735,2.8604614550366136
3027.7802,6.202595923369984
3028.8247,19.782772747944023
3029.8685,15.300962425012017
3030.9118,22.05713525299967
3031.9544,27.101261377322828
3032.9963,34.23331072282633
3034.0376,43.103252943342795
3035.0783,38.81105735037136
3036.1184,50.45669282437933
3037.1578,49.59012785772359
3038.1966,63.91133043819417
3039.2348,62.220268057680414
3040.2723,68.46690756895833
3041.3092,73.7012152026017
3042.3455,71.3231565045154
3043.3811,77.58269628359221
3044.4161,80.02979863549365
3045.4505,78.61442688005405
3046.4842,81.18654353680989
3047.5173,79.84611033915343
3048.5498,73.24308820861182
3049.5816,82.02743726825133
3050.6128,73.99911690870749
3051.6434,79.25808570034172
3052.6734,73.85430147352429
3053.7027,71.78772126604468
3054.7314,68.70830137714967
3055.7594,70.81599738820853
3056.7868,74.56076419350796
3057.8136,80.54255597917467
3058.8398,73.11132618572782
3059.8653,72.81702744826111
3060.8902,72.50961167075525
3061.9145,74.28903002902103
3062.9381,75.9552329737732
3063.9612,73.30817021283627
3064.9835,78.8477906944824
3066.0053,77.52404263390235
3067.0264,67.23687345780894
3068.0469,72.58622981767462
3069.0668,78.82205769260321
3070.086,66.14430233583624
3071.1046,59.75290821239497
3072.1226,57.44781912585756
3073.1399,59.328978282273454
3074.1567,51.29632831321385
3075.1727,43.19981125696029
3076.1882,44.58936863883122
3077.203,44.81494155214688
3078.2173,34.876470644334034
3079.2308,29.323896114670077
3080.2438,32.00715781366779
3081.2561,23.276195298601323
3082.2678,19.480947806673157
3083.2789,18.62135434232397
3084.2893,14.79735371518504
3085.2991,14.208884548674035
3086.3083,12.455885318235119
3087.3169,14.388294357223856
3088.3248,2.456049874437099
3089.3321,1.1590899347889092
3090.3388,7.047352578632939
3091.3449,5.670775834732012
3092.3503,3.2792976613755798
3093.3551,2.522855960145449
3094.3593,1.8513885998305
3095.3629,-0.4851665760087087
3096.3658,0.9131282576744582
3097.3681,2.546215772740709
3098.3698,4.5640386319196296
3099.3708,-4.483460527521174
3100.3713,1.0036608860453953
3101.3711,-2.374609745982724
3102.3702,-4.868285052244232
3103.3688,-4.377353939026534
3104.3667,1.4982433215504898
3105.364,3.9586101871326207
3106.3607,-1.046149899616637
3107.3568,1.9840664643800778
3108.3522,6.349373133237577
3109.347,-0.45011605876990757
3110.3412,5.1857126591382325
3111.3348,1.956977554401874
3112.3277,-0.8362031573961133
3113.32,3.406288719757441
3114.3117,4.184579735545157
3115.3028,7.548796405586813
3116.2932,7.999065203656357
3117.2831,4.035512528040016
3118.2723,7.258264697033383
3119.2608,8.91744798857701
3120.2488,8.613188608028821
3121.2361,8.395612671572422
3122.2229,9.61484620925961
3123.209,10.621015167186215
3124.1944,11.164245395299474
3125.1793,16.744662637336546
3126.1635,14.212392525392232
3127.1471,10.417560524114663
3128.1301,13.110291956028178
3129.1125,16.34071203948139
3130.0942,10.508945861720179
3131.0753,13.615118346583358
3132.0558,13.85935431282033
3133.0357,16.89177844302945
3134.015,20.31251528121564
3134.9936,17.321689202466032
3135.9716,17.76942437874284
3136.949,25.255844808791323
3137.9258,22.731074313662532
3138.902,21.99523646184906
3139.8775,24.248454594532873
3140.8524,27.0908518329436
3141.8267,24.57255105582638
3142.8004,27.54367487101787
3143.7735,25.654345640629032
3144.7459,27.704685451334157
3145.7178,33.34481613326389
3146.689,25.22485923950208
3147.6596,31.24493598968448
3148.6295,29.20516735119827
3149.5989,31.45567397898121
3150.5676,30.996576235919477
3151.5357,29.327994170342535
3152.5032,35.60004752061411
3153.4701,37.812855731818004
3154.4364,37.916537893037614
3155.402,39.011212715227785
3156.367,36.896998530177996
3157.3315,39.07401327956558
3158.2952,40.14237453609796
3159.2584,44.40219948174246
3160.221,40.00360489704262
3161.1829,41.196707118520116
3162.1442,44.231622082660515
3163.105,43.358465313982435
3164.065,41.67735189468827
3165.0245,49.0883964733958
3165.9834,48.49171328194928
3166.9416,44.837416061309064
3167.8993,51.075618067518405
3168.8563,45.00643210824642
3169.8127,53.6799704804061
3170.7684,49.54634503084606
3171.7236,51.155667069615305
3172.6782,54.75804741129937
3173.6321,50.45359635892721
3174.5854,55.84242366794725
3175.5381,53.074638589272034
3176.4902,53.650349815389845
3177.4417,61.21966550804262
3178.3926,58.882693292468765
3179.3428,60.739540181710126
3180.2924,62.640312599981556
3181.2415,60.635116364102586
3182.1899,65.97405666448961
3183.1377,65.20723808520782
3184.0848,66.43476455058192
3185.0314,66.10673933286422
3185.9773,66.57326503995941
3186.9227,66.4344436187048
3187.8674,70.29037635020504
3188.8115,67.4911638512203
3189.755,73.58690603560711
3190.6979,67.97770214231029
3191.6402,70.6136506744056
3192.5818,71.8948494551918
3193.5229,70.02139560183116
3194.4633,77.79338551253741
3195.4031,74.36091488531041
3196.3423,76.67407864021611
3197.2809,75.7829709537113
3198.2189,78.28768523551206
3199.1563,80.33831413750467
3200.0931,81.33494952869866
3201.0292,82.27768247472032
3201.9648,81.16660322784652
3202.8997,81.65180121757729
3203.834,84.83336506174659
3204.7677,83.4613825616704
3205.7008,85.88594067033101
3206.6333,89.65712550609689
3207.5652,82.72502232847714
3208.4964,91.53971550040953
3209.4271,86.85128855758163
3210.3571,92.50982412028385
3211.2865,90.16540394029369
3212.2154,91.26810884429042
3213.1436,97.51801875729927
3214.0712,93.21521269166433
3214.9982,98.60976868454955
3215.9246,93.05176384096669
3216.8503,95.49127427982984
3217.7755,100.22837518953543
3218.7001,100.56314080356711
3219.624,100.39564435312478
3220.5473,103.67595806377695
3221.4701,99.65415315713561
3222.3922,99.68029981805323
3223.3137,100.85446723484068
3224.2346,104.12672359900584
3225.1549,106.84713609351189
3226.0746,106.46577086005476
3226.9937,105.082692971859
3227.9121,110.04796643749145
3228.83,109.86165421469201
3229.7473,110.97381816072084
3230.6639,109.68451903422155
3231.5799,112.14381648409963
3232.4954,111.60176906241529
3233.4102,112.80843419979055
3234.3244,114.86386821082982
3235.238,112.76812628205312
3236.151,113.72126245134163
3237.0634,118.32332962889532
3237.9752,114.07437958770149
3238.8864,122.42446291751408
3239.797,121.97362906734318
3240.7069,118.82192626195425
3241.6163,128.16940150637643
3242.5251,124.66610061741954
3243.4332,126.56206813019935
3244.3408,123.8573473331706
3245.2477,124.20198024916729
3246.154,128.09600766244995
3247.0598,128.48946911525928
3247.9649,130.33240286887585
3248.8694,126.52484589968554
3249.7733,128.76683388075026
3250.6766,128.40840121988322
3251.5793,130.64958103722947
3252.4814,133.14040516884984
3253.3829,134.28090414430932
3254.2838,135.92110716176896
3255.1841,131.4110420765806
3256.0838,139.90073538488505
3256.9829,135.04021226871262
3257.8814,133.52949651108628
3258.7792,137.06861054462672
3259.6765,135.5075754666597
3260.5731,136.69641100382475
3261.4692,140.53513552768567
3262.3647,136.12376604284205
3263.2595,140.21231814854212
3264.1538,143.00080608279637
3265.0474,141.53924268149217
3265.9404,142.82763935050866
3266.8329,142.4160060803325
3267.7247,143.4043514331739
3268.616,143.99268254708304
3269.5066,141.63100512606644
3270.3966,142.46932343420383
3271.286,142.3076403192648
