RamanShift,CorrectedData
30.1047,162.83062814734387
32.3739,148.5444831611556
34.6426,137.358336546661
36.9109,125.52218519010898
39.1787,114.03602460416506
41.4461,101.79984904627284
43.7131,90.46365163351564
45.9796,80.37742446497823
48.2456,64.94115873510883
50.5112,54.30484483458131
52.7764,41.96847250465797
55.0411,30.482030943552616
57.3054,18.095508929794327
59.5692,12.75889493709186
61.8326,-3.1778227418011333
64.0955,-12.764655941719933
66.3579,-25.751584751050675
68.6199,-34.53846173926662
70.8815,-41.97488221750942
73.1426,-36.660096457687935
75.4032,-18.192935402637787
77.6634,52.52813623916903
79.9231,218.8548355066851
82.1824,592.8888789135817
84.4412,1209.0319807849821
86.6995,1989.7358495171202
88.9574,2767.402181415911
91.2148,3272.0826528899092
93.4717,3485.5789126736513
95.7282,3515.9425767808434
97.9842,3478.4752263694054
100.2398,3416.92840743783
102.4949,3345.1036311998587
104.7495,3297.202374699948
107.0036,3218.026081531519
109.2573,3145.6761623159687
111.5105,3047.1039954944345
113.7632,2929.7609280512897
116.0154,2820.7982764998706
118.2672,2687.8673280559033
120.5185,2549.3193417271304
122.7693,2431.3555496426225
125.0197,2328.077158438257
127.2696,2216.0353504363547
129.519,2160.1812846784674
131.7679,2118.6660980457914
134.0163,2077.140905817712
136.2642,2052.6568020869527
138.5117,2041.2648601748288
140.7587,1977.7161328760872
143.0052,1940.061652572827
145.2512,1852.6524318699853
147.4967,1794.3394639718833
149.7417,1727.9237235563185
151.9863,1689.2561673576922
154.2304,1654.0877348311712
156.4739,1629.9693485393586
158.717,1629.4519145039817
160.9596,1639.1363224470747
163.2017,1664.8234457961526
165.4433,1670.6141415873685
167.6844,1660.259250208639
169.925,1619.6595953417432
172.1651,1527.3659840658643
174.4047,1478.8792072635927
176.6439,1410.0500405438574
178.8825,1375.4292447267962
181.1206,1344.0175665320476
183.3582,1305.2157389249567
185.5954,1276.7744814306945
187.832,1280.0445005222748
190.0681,1268.5764899049673
192.3037,1253.9211304835962
194.5388,1242.0790904772232
196.7734,1252.5510255656973
199.0075,1249.787579008078
201.2411,1268.1393815379147
203.4742,1284.7070513908811
205.7068,1296.5911941212576
207.9389,1302.6424024362545
210.1704,1326.811256077171
212.4015,1307.6483217588825
214.632,1310.5541529281518
216.862,1312.2292899552604
219.0915,1313.9742601049481
221.3205,1311.189577519662
223.549,1321.8257432021073
225.777,1300.0832450430953
228.0044,1289.2125577151785
230.2314,1271.414142890079
232.4578,1232.5884493473927
234.6837,1218.635913152575
236.909,1189.7569580451961
239.1339,1149.5019955784696
241.3582,1157.5214254080367
243.582,1114.6156356945216
245.8053,1138.285003023333
248.0281,1124.9798928337252
250.2503,1124.350659182102
252.472,1122.6976448750675
254.6932,1129.0711814757208
256.9139,1111.9715893201853
259.134,1125.4491774538724
261.3536,1141.4042438024776
263.5727,1175.6870750372066
265.7912,1201.4979464152216
268.0092,1271.9371214368157
270.2267,1313.5048515873034
272.4436,1370.2513756326277
274.6601,1398.226919203685
276.8759,1417.0316942288575
279.0913,1436.3158986542594
281.3061,1440.7297162556883
283.5204,1457.173316445783
285.7341,1464.6468542298853
287.9473,1508.3504700416056
290.16,1476.184289668084
292.3721,1430.0484238129593
294.5837,1374.092968418027
296.7947,1336.5180051246
299.0052,1305.1236018330605
301.2152,1284.5098130786125
303.4246,1266.3766803452231
305.6334,1243.2742322717634
307.8418,1217.7524848333364
310.0495,1180.1614415723043
312.2568,1132.8510938535042
314.4635,1076.0214212401602
316.6696,1012.5223919669861
318.8752,945.8039635084806
321.0802,921.4660832139211
323.2847,906.5586889745466
325.4887,892.2317094669334
327.692,927.4850643020736
329.8949,952.268664168641
332.0972,981.0824104804603
334.2989,1030.1261951286679
336.5001,1014.599900193577
338.7007,986.6033974542393
340.9008,931.3365485437091
343.1003,852.1992052290061
345.2992,783.891209963786
347.4976,730.9623966797124
349.6955,684.4625914695382
351.8927,659.0416131163922
354.0895,631.5492735587789
356.2856,619.9853781447864
358.4812,591.0997259070111
360.6763,592.1921096781962
362.8707,574.1123163800862
365.0646,572.6101270125073
367.258,565.2853168341621
369.4508,581.8376553776525
371.643,609.1169065227284
373.8346,626.0228283307631
376.0257,676.4551727719609
378.2162,704.2136855562985
380.4062,719.0481056292015
382.5956,674.0581648939597
384.7844,634.5435880633813
386.9726,571.4040931096929
389.1603,546.7893916596865
391.3474,512.5991896261141
393.5339,515.8831874538353
395.7199,509.6910804617178
397.9052,542.7225588097988
400.09,583.6273075612046
402.2743,624.1050063518367
404.4579,664.8053289813247
406.641,715.7779430082485
408.8235,759.6725093431346
411.0054,805.888681738732
413.1868,862.4761063510637
415.3675,899.5844212772683
417.5477,908.0132559897238
419.7273,835.112230964964
421.9064,756.0809575993921
424.0848,678.9190389382886
426.2627,600.126070466124
428.4399,527.2516408781801
430.6166,456.645332868477
432.7928,411.9067238585192
434.9683,363.6853867033583
437.1432,324.4808901389788
439.3176,300.342799264512
441.4914,288.2206759342812
443.6645,273.66407899918204
445.8371,278.6725644279038
448.0091,267.04568545249526
450.1806,263.982992518281
452.3514,241.53403340012892
454.5216,252.59835323307857
456.6913,258.9254947368304
458.8603,258.11499810510145
461.0288,268.56640094235627
463.1967,253.27923827190898
465.3639,252.90304243141168
467.5306,245.63734322572327
469.6967,228.7316679306739
471.8622,211.68554136571993
474.0271,212.39848606300302
476.1914,209.32002243781017
478.3551,203.69966878144396
480.5182,198.0869412920083
482.6807,201.58135413060995
484.8426,230.9324194774881
487.0039,270.1396474970686
489.1647,325.5525460444537
491.3248,379.37062027334923
493.4843,398.5433720819369
495.6432,384.4202995746937
497.8015,345.6508968706619
499.9592,299.68465424468127
502.1163,232.67105851508222
504.2728,185.9595935033501
506.4287,160.74974070425924
508.5839,146.4909797529897
510.7386,133.98278867722388
512.8927,125.82464403973472
515.0461,134.1660210634675
517.199,163.55639371312122
519.3512,205.89523461173644
521.5029,281.8820147467909
523.6539,350.3662030468113
525.8043,362.64726562150395
527.9541,302.3746650769149
530.1033,219.84786039261735
532.2519,165.66630752443916
534.3999,144.82946022972965
536.5472,131.88677060917553
538.694,122.18768931516911
540.8401,138.0816656812358
542.9856,171.4181478190244
545.1305,176.24658245936757
547.2748,197.416414618918
549.4185,204.1270875518626
551.5615,201.1780425382242
553.704,226.8687188167562
555.8458,251.64855361443142
557.987,276.816981889536
560.1276,304.1734360838707
562.2675,368.8673458710671
564.4069,438.0981378830222
566.5456,502.0652350629607
568.6837,491.31805597312655
570.8212,387.65601415511196
572.958,284.8285182373286
575.0942,214.13497297162985
577.2299,182.074780261584
579.3648,158.6973398694106
581.4992,142.202049736582
583.6329,133.13830621759803
585.766,171.9555042449374
587.8985,223.6030374196962
590.0304,291.4302976234171
592.1616,321.7866745016129
594.2922,325.5215547854932
596.4222,297.4843219884028
598.5515,225.5243563684703
600.6802,144.9910352089828
602.8083,106.33373353798356
604.9358,88.55182493360599
607.0626,92.79468191064666
609.1888,99.31167609838485
611.3144,127.80217819815357
613.4393,168.21555791817013
615.5636,213.90118368863136
617.6873,284.70842225757906
619.8103,333.3366382340455
621.9327,343.53519337997886
624.0544,296.0534461239606
626.1756,227.14075145922152
628.2961,160.246461418458
630.4159,131.36992576296097
632.5351,136.36049265155611
634.6537,117.56750892937157
636.7716,109.3403200779303
638.8889,109.37827040308139
641.0056,124.78070311727015
643.1216,134.24696033916007
645.237,134.02638293960672
647.3518,113.41831044699757
649.4659,90.77208104945657
651.5793,81.58703180092493
653.6922,47.562498847624056
655.8043,40.99781751990486
657.9159,25.292322672494947
660.0268,14.095348750142875
662.137,18.256229944675624
664.2466,17.124300306966006
666.3556,23.14889370532569
668.4639,8.429343836824273
670.5716,1.2149841670425303
672.6786,1.7551480772697232
674.785,-4.950843188899626
676.8907,-12.453685921798979
678.9958,-12.504026952839013
681.1002,-13.802388701109066
683.204,-5.049168670468134
685.3072,-4.044626478913187
687.4097,-7.188971303247854
689.5115,-0.28237191445646204
691.6127,0.17507473429918718
693.7132,-6.866725489248438
695.8131,-9.55786846636397
697.9123,4.101618520275224
700.0109,-2.4881963289030864
702.1089,15.97275514551302
704.2061,34.83456596001588
706.3028,65.74732897137119
708.3987,91.7111366879999
710.4941,117.12608096084978
712.5887,117.54225272375811
714.6827,109.5597417393019
716.7761,99.82863659463737
718.8688,110.4990247813248
720.9608,96.27099279263894
723.0522,110.744626016864
725.1429,128.4700088795753
727.233,176.09722469890244
729.3224,256.2763555082756
731.4112,317.3074815801531
733.4993,356.9906806242309
735.5867,305.7760271771306
737.6735,214.71359220556747
739.7596,145.80344361849666
741.845,107.49564717773887
743.9298,90.09026718708014
746.014,96.73736687535188
748.0974,108.4370085704827
750.1802,123.1892536330297
752.2624,111.7441623391801
754.3439,95.80179373322903
756.4247,92.4622057420313
758.5048,103.5754553344243
760.5843,121.0915985546244
762.6631,154.66069041109358
764.7413,221.7827847013782
766.8188,336.407933676418
768.8956,421.7861873693266
770.9718,495.3175924491379
773.0473,482.55219136702453
775.1221,446.54002162098436
777.1962,423.93111588349393
779.2697,491.0255023616294
781.3426,608.7232050231573
783.4147,707.5242429255893
785.4862,695.9286290392049
787.557,599.8863692590423
789.6271,458.09746252085415
791.6966,297.71190176152936
793.7654,186.07967533698366
795.8335,124.40076862601336
797.901,83.82516514661916
799.9678,64.35284717279342
802.0339,82.28379614027835
804.0993,92.81799284128806
806.1641,80.65541724519949
808.2282,56.64604839320964
810.2916,32.88986451996334
812.3544,24.08684329364405
814.4164,20.83696205353931
816.4778,30.69019789806771
818.5385,49.99652771727892
820.5986,82.755928094321
822.658,149.11837511237718
824.7166,215.93384402707193
826.7747,317.7523086028473
828.832,421.42374044480675
830.8886,489.5981079805315
832.9446,515.475375423367
834.9999,478.5055020906775
837.0545,407.28844214507467
839.1085,311.07414496411525
841.1618,225.9625558524724
843.2143,156.6036170040784
845.2662,124.39726835323995
847.3175,105.79344826822853
849.368,101.54209387334276
851.4179,99.74314123494787
853.467,88.14652540398765
855.5155,99.75218043397581
857.5633,118.61003949696124
859.6105,112.17003476747186
861.6569,93.23209723393416
863.7027,70.24615676307667
865.7478,51.312142289306394
867.7922,50.92998204456967
869.8359,46.59960374769116
871.8789,48.2209346081961
873.9212,35.643901369614696
875.9629,50.36843029326792
878.0039,70.64444728403782
880.0441,79.57187774312297
882.0837,107.550646365278
884.1226,128.38067704953914
886.1609,178.91189261943737
888.1984,246.0442146146961
890.2352,304.27756278592165
892.2714,304.261854423278
894.3069,290.79700377415475
896.3416,227.58292204332292
898.3757,175.6195175275834
900.4091,139.45669624790912
902.4418,155.6443624690785
904.4739,185.03241906130324
906.5052,203.72076733835274
908.5358,200.6093067636723
910.5658,185.0479347634996
912.595,150.58654675798084
914.6236,98.8750363167826
916.6515,74.3632955037076
918.6786,58.80121539380821
920.7051,37.28868631850446
922.7309,38.87559802120404
924.756,40.01183987242757
926.7804,67.74730085394003
928.8041,68.73186954738821
930.8272,86.66543385694627
932.8495,93.49788099947
934.8711,109.77909732516196
936.892,129.1089682492468
938.9123,147.48737808915848
940.9318,171.11420987124188
942.9506,199.2393451469693
944.9688,195.01266375667183
946.9862,168.234043548287
949.003,134.35336041962614
951.019,107.9204885861609
953.0344,93.23530091983048
955.0491,78.647669213369
957.063,74.9074643271581
959.0763,67.16455633510418
961.0888,62.518814562039324
963.1007,66.7201076611509
965.1119,53.51830366043805
967.1223,52.71326992070044
969.1321,49.00487326755456
971.1412,50.49297999948408
973.1495,38.1274559249257
975.1572,28.20816634738594
977.1641,49.08497618909746
979.1704,45.50775009021072
981.1759,36.076352200027486
983.1808,50.140646212772026
985.1849,37.25049546190621
987.1884,32.90576277948594
989.1911,45.15631062506168
991.1932,55.35200112912662
993.1945,53.142695970611385
995.1951,52.22825627492739
997.1951,48.25854263605993
999.1943,55.18341512571146
1001.1928,50.702733333000424
1003.1906,61.916356295211244
1005.1877,98.27414254260111
1007.1841,131.22594998626448
1009.1798,146.12163555455436
1011.1748,142.31105486356398
1013.1691,119.79406206817134
1015.1627,85.17050990014411
1017.1556,42.14024989330926
1019.1477,27.153132729790286
1021.1392,-0.7909913296915647
1023.1299,2.857727704054014
1025.12,5.749147722220641
1027.1093,15.983098067301285
1029.0979,36.409408024298614
1031.0859,60.677906718384065
1033.0731,84.7884229106362
1035.0596,85.19078475535457
1037.0454,79.03481955895461
1039.0304,61.62035377594452
1041.0148,40.84721307048494
1042.9985,27.465222490532256
1044.9814,6.774206675572714
1046.9636,-9.576010009560378
1048.9452,4.064396732225646
1050.926,26.645346862362658
1052.9061,36.766719738958955
1054.8855,66.97839445366981
1056.8642,64.98024973048427
1058.8421,56.17216362360864
1060.8194,55.004013537447236
1062.7959,61.92567631468364
1064.7717,64.08702824796069
1066.7469,62.037945010666135
1068.7213,63.02830163531644
1070.695,81.20797253405067
1072.6679,103.0268314887237
1074.6402,137.8847514691131
1076.6117,149.3316044147275
1078.5826,132.86726088622993
1080.5527,87.34158995096618
1082.5221,56.90445934761033
1084.4908,18.65573594142154
1086.4587,4.095286028613714
1088.426,-5.627024281156309
1090.3925,-5.961369790139543
1092.3584,-0.3578690866150964
1094.3235,12.283418795221792
1096.2879,35.66243839628817
1098.2515,73.87913413466765
1100.2145,89.28345007182031
1102.1767,129.7753295304159
1104.1382,182.05471494028882
1106.099,252.32154743352203
1108.0591,301.5257663216503
1110.0185,348.2173083929936
1111.9771,399.14610742061507
1113.9351,454.66209369540513
1115.8923,532.4151935167939
1117.8488,580.1553286375907
1119.8045,534.8824154864532
1121.7596,426.19636469048623
1123.7139,297.69708152797136
1125.6675,213.78446701522557
1127.6204,216.40841919159698
1129.5726,244.31883395858858
1131.524,253.06560505361995
1133.4748,208.148623770923
1135.4248,137.96777887407347
1137.3741,88.27295704516064
1139.3226,53.614043586596495
1141.2705,45.79092291806364
1143.2176,61.25347892310549
1145.164,80.60159502735587
1147.1097,83.23515404391514
1149.0546,62.35403797986737
1150.9989,30.358128009945972
1152.9424,4.647304685344238
1154.8852,-10.278551746325661
1156.8272,-25.11956108392428
1158.7686,-10.825740443579775
1160.7092,-9.6468559970059
1162.6491,-4.732565766769653
1164.5883,5.21756859665345
1166.5267,24.154032721118483
1168.4644,54.17731218230642
1170.4014,86.43789231435801
1172.3377,135.13625790964136
1174.2732,187.6228928961457
1176.2081,285.54827985049883
1178.1421,414.462899473099
1180.0755,572.8672296088627
1182.0082,662.4617439580771
1183.9401,655.4969104923581
1185.8713,539.6731905587043
1187.8017,402.24103894914595
1189.7315,260.05090505898215
1191.6605,174.60323426110142
1193.5888,112.69846932788414
1195.5163,88.9870512856794
1197.4432,49.669420033850884
1199.3693,36.29601458189268
1201.2947,20.667273442604255
1203.2193,21.43363476582624
1205.1432,13.545536494726662
1207.0664,7.5534163581372695
1208.9889,13.407711949434315
1210.9106,-1.3411392135392362
1212.8316,19.707300252982805
1214.7519,22.20348113074681
1216.6715,45.297854004425744
1218.5903,55.34086923665893
1220.5084,80.18297673710765
1222.4257,74.07462586202507
1224.3424,107.16626516583483
1226.2583,123.20834246221466
1228.1735,163.90130449318053
1230.0879,202.64559676866475
1232.0016,262.9416631595873
1233.9146,292.53994551041126
1235.8269,312.5408830361853
1237.7384,317.9449120265575
1239.6492,320.20246564576917
1241.5592,321.71397387861134
1243.4686,370.77986350785125
1245.3772,452.8005580991164
1247.285,562.2264775102362
1249.1922,653.9580370710344
1251.0986,745.645646489071
1253.0042,822.239708932326
1254.9092,919.6906201123237
1256.8134,1030.098767518191
1258.7169,1121.6645294421492
1260.6196,1212.488273875432
1262.5216,1221.2703575926282
1264.4229,1218.061125243445
1266.3234,1182.5609092648863
1268.2232,1123.5700299133453
1270.1223,1054.088795619606
1272.0207,1012.1675035787522
1273.9183,992.0064404449811
1275.8151,982.6558827508148
1277.7113,1029.0160971087116
1279.6067,1140.2373403045708
1281.5014,1285.669858834132
1283.3953,1505.3638877907604
1285.2885,1724.9696494111233
1287.181,1911.0873508782508
1289.0727,1986.367182125475
1290.9637,1933.2093139752567
1292.854,1802.8638973863845
1294.7435,1664.5310639855552
1296.6323,1516.5109273708263
1298.5204,1398.9035844949456
1300.4077,1298.3091171455521
1302.2943,1243.12759312125
1304.1802,1199.859067237552
1306.0653,1145.003581878696
1307.9497,1121.6111674303297
1309.8333,1074.7818428280639
1311.7162,1054.7156157913987
1313.5984,1019.3624832920168
1315.4798,994.5224317544439
1317.3605,994.095437409582
1319.2405,1007.6814665431084
1321.1197,999.4304754997479
1322.9982,944.0924105474103
1324.876,886.8672079597015
1326.753,783.7547945693038
1328.6293,667.6550883402275
1330.5048,566.0679993989359
1332.3796,476.6434311953416
1334.2537,397.5812815186782
1336.127,351.831443391745
1337.9996,320.5438058615289
1339.8714,293.0682544567028
1341.7426,266.1546715005019
1343.6129,257.6529363854793
1345.4826,226.66292584264113
1347.3515,232.73451402646515
1349.2196,214.16757282479944
1351.087,209.81197179814762
1352.9537,205.5175783653384
1354.8197,204.03425784708054
1356.6849,214.71187350890796
1358.5493,228.00028657601274
1360.4131,258.7993561264676
1362.276,308.7589389583437
1364.1383,357.2788892817176
1365.9998,383.4090582190779
1367.8606,367.0492933201248
1369.7206,347.999438300468
1371.5799,352.709333205225
1373.4384,352.8788145995195
1375.2962,327.35771552138294
1377.1533,276.3458654800588
1379.0096,208.74309071121445
1380.8652,181.99921468705793
1382.7201,144.6640587923673
1384.5742,115.53744259192877
1386.4275,100.76918420388813
1388.2802,73.65910059101748
1390.132,61.40700770839749
1391.9832,51.31272077451774
1393.8336,44.476054393798336
1395.6832,38.49682265753256
1397.5322,35.67483921225323
1399.3803,22.359917319525152
1401.2278,21.951869884165035
1403.0745,4.7005095873904565
1404.9204,-3.7943511090990114
1406.7656,0.06710020939124206
1408.6101,-1.6152861368771028
1410.4538,-6.891659828312868
1412.2968,-5.412154408617766
1414.139,-8.226834573811516
1415.9805,17.0142890475081
1417.8213,20.11128801282075
1419.6613,45.61423370946375
1421.5006,77.97319732366157
1423.3391,131.33824958549712
1425.1769,176.60946044532193
1427.0139,274.58689854010527
1428.8502,383.0706307407228
1430.6858,459.11072117218134
1432.5206,486.10723012878145
1434.3547,483.31021331371676
1436.188,470.61972156910883
1438.0206,440.83580090397766
1439.8524,427.3584926211456
1441.6835,433.13783361507717
1443.5139,430.0738565066523
1445.3435,441.7665895853727
1447.1724,450.3160568400024
1449.0005,451.67227784163936
1450.8279,440.38526765822235
1452.6545,436.9050368409669
1454.4804,431.88159153723666
1456.3056,423.5649335253448
1458.13,406.55506026478974
1459.9536,383.00196497941965
1461.7766,345.0056368275333
1463.5987,293.51606113741013
1465.4202,249.08321978727406
1467.2409,212.75709172018867
1469.0608,182.33765338838566
1470.88,146.87487911652624
1472.6984,116.16874140589505
1474.5161,102.06921128902854
1476.3331,82.72625863677547
1478.1493,70.68985229929342
1479.9648,78.20996029947742
1481.7795,75.48654995332436
1483.5935,69.06958779473234
1485.4067,76.00903960273365
1487.2192,78.45487046566552
1489.031,80.65704471177457
1490.842,86.51552588475954
1492.6522,82.08027672174853
1494.4618,79.10125909471458
1496.2705,84.1784340548279
1498.0785,74.76176186224689
1499.8858,75.1012019353459
1501.6924,68.79671294488219
1503.4981,66.24825281060112
1505.3032,58.255778764281445
1507.1075,57.01924737521961
1508.911,47.03861463015528
1510.7138,48.4138359456357
1512.5159,40.844866267822454
1514.3172,33.281660058739135
1516.1178,27.774171371960847
1517.9176,20.972353928245866
1519.7166,20.976161170610567
1521.515,20.735546332348463
1523.3126,19.900462436990892
1525.1094,15.72086230071443
1526.9055,6.39669854069075
1528.7008,14.2279236168838
1530.4954,9.064489925290445
1532.2893,11.256349719628702
1534.0824,7.803455162971886
1535.8747,3.905758305830318
1537.6663,7.563211120679853
1539.4572,7.2257655409388235
1541.2473,10.393373424394099
1543.0367,6.865986556574853
1544.8253,11.193556619077526
1546.6132,30.976035224838938
1548.4003,23.51337387486012
1550.1867,40.40552376038249
1551.9723,57.00243583751376
1553.7572,74.70406065830673
1555.5414,91.16034820479013
1557.3247,125.32124771195208
1559.1074,173.0367075031777
1560.8893,209.65667464863952
1562.6705,260.6310944881436
1564.4509,295.35991026492934
1566.2305,308.49306261592574
1568.0094,325.0804892244621
1569.7876,317.92212468893774
1571.565,319.26790035694694
1573.3417,320.7177443968634
1575.1176,329.1215817843813
1576.8928,346.1293342880183
1578.6672,372.0409203850767
1580.4409,396.6562550915651
1582.2138,451.7252497030836
1583.986,496.1478115486699
1585.7575,551.7238434401095
1587.5282,580.9032432277104
1589.2981,619.2859032445422
1591.0673,638.8717100146418
1592.8358,656.4105438691877
1594.6035,660.8522787506414
1596.3704,643.0967820373592
1598.1366,621.2439144991747
1599.9021,594.543530474954
1601.6668,566.2454780911241
1603.4308,549.8495995286776
1605.194,552.7057313061516
1606.9564,583.6137044435884
1608.7182,652.1733444339736
1610.4791,739.8344709341552
1612.2394,858.0468970792482
1613.9988,977.8604286060231
1615.7576,1079.724862670782
1617.5156,1129.1899866512217
1619.2728,1107.9055771277913
1621.0293,1006.0213993890407
1622.785,886.2372076444633
1624.54,736.3527460433397
1626.2942,615.167749872578
1628.0477,489.4319470555598
1629.8005,394.54505936398846
1631.5525,326.65680367524885
1633.3037,268.2168929212753
1635.0542,221.12503676743438
1636.804,181.43094219692387
1638.553,153.23431398169163
1640.3013,138.434855079376
1642.0488,121.6822669152728
1643.7955,111.57624953032928
1645.5416,101.5665017486707
1647.2868,89.10272127865937
1649.0313,85.63460481299336
1650.7751,83.31184815334336
1652.5181,74.23414624503425
1654.2604,78.15119320027242
1656.0019,84.61268238892285
1657.7427,100.91830639933863
1659.4828,119.91775697374612
1661.222,155.21072484518868
1662.9606,200.39689954753248
1664.6984,235.4259690625364
1666.4354,254.89761936799079
1668.1717,244.7115340874263
1669.9072,190.36739429539745
1671.642,151.86487861934393
1673.3761,102.45366378303169
1675.1094,80.68342499157751
1676.8419,49.05383642556217
1678.5737,44.514571458732235
1680.3048,28.0653029742964
1682.0351,19.955703410317824
1683.7646,10.73544492420666
1685.4934,9.054199473816368
1687.2215,5.6616389096458875
1688.9488,6.9574349916524625
1690.6754,8.041259423176996
1692.4012,12.91278383798641
1694.1263,2.2216797894348588
1695.8506,1.1676187017487791
1697.5742,0.05027197693806329
1699.297,4.919311005336851
1701.0191,0.3244071767767309
1702.7404,-1.4847681681037557
1704.461,-1.658543691910097
1706.1808,-5.997233224413776
1707.8999,-4.901134026534976
1709.6182,-2.4704834468341232
1711.3358,-0.7554698715426298
1713.0527,-3.4562570067625416
1714.7688,1.3769989885479959
1716.4841,-1.2058235165619067
1718.1987,1.5451538331874985
1719.9126,-2.1201785607474903
1721.6257,-3.15193031236214
1723.338,-0.5001898550675037
1725.0496,-0.5650141344911503
1726.7605,-6.946455099364243
1728.4706,-1.34455905392673
1730.18,-5.609302907332278
1731.8886,-1.1406501365896133
1733.5964,1.811491818228376
1735.3036,1.1972269121437193
1737.0099,7.466659082063359
1738.7156,0.6698922529221818
1740.4204,6.007030274988267
1742.1246,4.62817699183114
1743.8279,10.083436186949939
1745.5306,6.822911597562381
1747.2325,13.0467068600517
1748.9336,4.304925542572505
1750.634,5.547671082812258
1752.3336,13.925046875409123
1754.0325,7.487156259525079
1755.7307,9.184102435071907
1757.4281,16.165988527089837
1759.1247,15.182917568778066
1760.8206,18.184992431675767
1762.5158,24.07231583549293
1764.2102,18.094990318089344
1765.9039,16.553118176602027
1767.5968,14.746801527218224
1769.289,20.626142320594226
1770.9804,24.841242359918226
1772.6711,28.192203242117273
1774.361,20.77912631570598
1776.0502,22.65211264727742
1777.7386,24.061263095633194
1779.4263,26.306678293054233
1781.1132,23.738458631208687
1782.7994,26.25670423869809
1784.4849,27.311515006739796
1786.1696,27.852990563984008
1787.8535,27.531230265966315
1789.5367,25.146333189692314
1791.2192,28.798398136855553
1792.9009,25.837523657686404
1794.5818,26.013808014431334
1796.2621,23.67734921096158
1797.9415,27.97824499101074
1799.6202,29.716592861538885
1801.2982,31.892490049723904
1802.9755,27.156033485577893
1804.6519,35.807319780188095
1806.3277,34.14644527308164
1808.0027,28.72350594571222
1809.6769,40.43859743806951
1811.3504,30.041815102908146
1813.0231,34.783253888596704
1814.6951,33.963008443085755
1816.3664,33.63117306649346
1818.0369,27.33784171930796
1819.7067,30.983108025705945
1821.3757,27.61706533648561
1823.044,32.73980669261428
1824.7115,35.20142485888863
1826.3783,35.70201227270738
1828.0443,35.04166101945523
1829.7096,41.270462827496914
1831.3741,37.03850907478042
1833.0379,32.99589072654939
1834.701,40.74269837766258
1836.3633,33.52902229301969
1838.0248,34.90495233009355
1839.6856,36.17057801106688
1841.3457,39.175988509072795
1843.005,39.02127263553882
1844.6636,35.50651881013266
1846.3214,38.98181506230932
1847.9785,40.89724906645867
1849.6349,39.65290810715254
1851.2904,45.54887905999027
1852.9453,40.33524840404232
1854.5994,38.46210216289023
1856.2528,43.129525956763246
1857.9054,41.53760502126971
1859.5572,46.036424160722675
1861.2083,47.126067764059314
1862.8587,50.656619759852646
1864.5084,41.52816360541533
1866.1572,35.140782251493846
1867.8054,32.39455823355328
1869.4528,41.639573735650714
1871.0994,41.97591061789777
1872.7453,40.353650324010545
1874.3905,43.822873877946165
1876.0349,42.18366190012529
1877.6786,45.536094572739955
1879.3215,45.380251656145646
1880.9637,49.71621245533703
1882.6051,45.44405582150645
1884.2458,47.7638601086841
1885.8858,49.27570321645982
1887.525,48.129662566784845
1889.1634,43.57581508885349
1890.8011,39.51423723056362
1892.4381,47.39500500405501
1894.0743,42.71819402632519
1895.7098,47.53387944042174
1897.3446,48.1921359622101
1898.9786,40.89303783221712
1900.6118,41.0866588090484
1902.2443,41.32307224237928
1903.8761,49.50235107101838
1905.5071,49.17456782054373
1907.1374,40.439794521510095
1908.7669,46.298102712726546
1910.3957,48.54956352860441
1912.0237,43.094247640574025
1913.651,44.432225234570154
1915.2776,42.763566065585195
1916.9034,39.1883394442894
1918.5285,43.85661425371737
1920.1528,41.21845898502036
1921.7764,42.82394169078364
1923.3992,43.773130011407744
1925.0213,40.46609115905403
1926.6427,43.65289190815233
1928.2633,43.28359862847168
1929.8832,42.758277253252345
1931.5023,43.5769932828986
1933.1207,44.88981179023196
1934.7383,49.04679741230413
1936.3552,44.24801433726881
1937.9714,34.843526262811764
1939.5868,38.93339644413874
1941.2015,44.6676877880204
1942.8154,40.14646281189354
1944.4286,38.41978358651815
1946.041,41.487711781189745
1947.6528,37.05030868100596
1949.2637,42.70763515618765
1950.8739,37.25975170645242
1952.4834,34.506718404441756
1954.0921,39.148594950199765
1955.7001,40.885440698703434
1957.3074,40.067314613443955
1958.9139,40.694275249058165
1960.5197,43.26638075950993
1962.1247,40.93368889182034
1963.729,40.34625696034692
1965.3325,40.65414187011038
1966.9353,37.85740012266902
1968.5374,39.20608781303977
1970.1387,36.75026065766568
1971.7393,39.93997398092887
1973.3392,37.525282739709155
1974.9383,39.706241491486566
1976.5366,38.18290441848845
1978.1342,36.30532530587996
1979.7311,36.02355755699716
1981.3273,35.03765421212299
1982.9227,39.347667951304686
1984.5173,31.853651104213327
1986.1112,38.755655607043224
1987.7044,39.90373307745236
1989.2968,35.24793474554221
1990.8885,38.93831144237703
1992.4795,32.92491364654174
1994.0697,28.707791447238264
1995.6592,41.28699460441939
1997.2479,30.412572590960053
1998.8359,36.78457446686531
2000.4232,33.803048988014524
2002.0097,34.96804454244133
2003.5955,35.52960918014915
2005.1805,33.93779060146093
2006.7648,37.192636151403775
2008.3484,36.74419283562699
2009.9312,32.99250728785361
2011.5133,32.037625774364926
2013.0946,33.92959423151714
2014.6752,35.518458275290385
2016.2551,29.054263182369
2017.8342,37.0870538742528
2019.4126,32.91687498189913
2020.9902,35.59377076539471
2022.5672,29.267785155657833
2024.1433,31.838961727669016
2025.7188,39.257343763731114
2027.2935,34.22297422775739
2028.8674,35.785895691087745
2030.4406,29.396150382832275
2032.0131,31.05378017424232
2033.5849,34.45882664260776
2035.1559,32.76133105468065
2036.7261,27.561334332625023
2038.2957,31.608877070991696
2039.8645,36.053999588718256
2041.4325,34.0467418886536
2042.9998,32.837143613106605
2044.5664,34.92524406391888
2046.1323,34.71108221456069
2047.6974,33.44469668924998
2049.2617,29.92612576509393
2050.8254,33.15540738475286
2052.3883,33.73257919162583
2053.9504,35.557678497558044
2055.5118,35.780742277068924
2057.0725,33.701807149101086
2058.6325,34.47090937478981
2060.1917,30.738084878252266
2061.7502,33.853369238896676
2063.3079,35.166797728750424
2064.8649,28.97840528130726
2066.4212,31.38822647839305
2067.9767,30.446295612049568
2069.5315,31.50264666043637
2071.0856,32.35731329725019
2072.6389,30.260328881161257
2074.1915,31.06172644726695
2075.7433,25.86153872806119
2077.2945,36.00979814542069
2078.8448,30.506536862606936
2080.3945,30.65178668278338
2081.9434,30.145579104048267
2083.4916,25.13794531798206
2085.039,30.178916214709545
2086.5857,31.818522432976096
2088.1317,28.656794309737933
2089.677,27.743761863766167
2091.2215,27.729454827263964
2092.7652,28.863902654997077
2094.3083,28.597134524436655
2095.8506,27.779179324415026
2097.3921,29.960065657793166
2098.933,29.28982184964039
2100.4731,29.71847592542545
2102.0124,30.696055617719082
2103.5511,29.322588361907208
2105.089,35.39810128641531
2106.6261,27.872621226442988
2108.1626,25.596174663208842
2109.6983,26.21878779920553
2111.2332,30.44048658096392
2112.7675,29.061296692827312
2114.301,31.081243514734098
2115.8337,33.45035213600997
2117.3657,26.068647335168095
2118.897,25.786153556218096
2120.4276,27.802894982483224
2121.9575,29.068895539425142
2123.4866,31.63417887447673
2125.0149,31.148768344382006
2126.5426,27.01268698954331
2128.0695,25.72595753887532
2129.5956,31.83860245116591
2131.1211,28.150643927943378
2132.6458,31.16210385235007
2134.1698,29.12300382602203
2135.693,22.933365138974295
2137.2155,28.443208789991758
2138.7373,30.20255554852588
2140.2584,29.86142589959607
2141.7787,28.419840026196198
2143.2983,31.327817812705803
2144.8171,26.435378859306127
2146.3353,27.792542452900307
2147.8527,26.549327616037885
2149.3693,27.705753093342935
2150.8853,29.56183736394641
2152.4005,30.167598629921883
2153.9149,29.27305479772457
2155.4287,27.77822347213373
2156.9417,29.683121965198268
2158.454,26.887767311184888
2159.9655,27.09217624752924
2161.4764,25.746365242789295
2162.9865,25.050350494601304
2164.4958,23.25414794313801
2166.0045,27.707773278068686
2167.5124,25.211241956521178
2169.0195,25.76456915854564
2170.526,27.317769812079888
2172.0317,24.07085858741607
2173.5367,23.9238498816687
2175.0409,31.576757851243826
2176.5445,26.12959641330903
2178.0473,26.082379169264414
2179.5494,23.485119459214133
2181.0507,27.737830362438643
2182.5513,25.290524723367383
2184.0512,24.993215109051505
2185.5504,22.245913833637047
2187.0488,26.348632961338097
2188.5465,21.551384333909596
2190.0435,22.154179529620308
2191.5397,20.707029911225106
2193.0353,21.35994661993726
2194.5301,23.71294058989983
2196.0241,25.516022541656298
2197.5175,20.419202958620843
2199.0101,24.422492069047365
2200.502,22.825899896997925
2201.9931,22.879436222309607
2203.4835,19.583110596560573
2204.9733,20.936932342534647
2206.4622,24.64091058718472
2207.9505,23.195054248094493
2209.438,17.799371996438737
2210.9248,20.65387227144177
2212.4109,18.908563334334133
2213.8962,21.21345323980779
2215.3809,19.218549853469113
2216.8648,17.323860828789947
2218.3479,19.02939362705669
2219.8304,15.785155536317234
2221.3121,21.891153654325535
2222.7931,16.847394920984044
2224.2733,18.003886057283566
2225.7529,16.110633615740838
2227.2317,16.567643968833963
2228.7098,19.67492332793472
2230.1872,17.182477738738598
2231.6638,13.640313050191821
2233.1397,14.648434939415893
2234.6149,16.206848947129345
2236.0894,13.36556046756641
2237.5632,14.874574732892981
2239.0362,18.63389684161929
2240.5085,14.143531743510039
2241.9801,17.453484201990904
2243.4509,15.7637588390524
2244.921,12.574360102150152
2246.3904,13.535292281102386
2247.8591,15.346559539983758
2249.3271,14.508165907515917
2250.7943,17.370115258955124
2252.2608,10.082411324475856
2253.7266,15.095057660551532
2255.1917,13.958057722831569
2256.656,14.221414816014857
2258.1197,10.63513210521981
2259.5826,12.399212613350855
2261.0447,15.663659256961125
2262.5062,12.728474828611681
2263.9669,13.093661964226953
2265.4269,13.259223172446752
2266.8862,9.925160830974377
2268.3448,16.04147718492105
2269.8026,12.608174380146366
2271.2598,11.325254402095368
2272.7162,16.792719110131472
2274.1719,13.010570250365717
2275.6268,13.878809400981922
2277.0811,16.34743801005844
2278.5346,13.31645738688539
2279.9874,9.785868677278543
2281.4395,12.905672893889118
2282.8908,9.525870951509788
2284.3414,14.996463635876466
2285.7914,14.1674516374664
2287.2406,8.938835496792137
2288.689,11.910615612691771
2290.1368,19.432792294615012
2291.5838,13.505365732905418
2293.0302,12.278335923578666
2294.4758,14.351702727596859
2295.9206,10.725465883138995
2297.3648,11.999624984867083
2298.8082,13.974179520188557
2300.251,6.699128856514761
2301.693,8.324472221515379
2303.1343,15.250208775868813
2304.5748,12.976337597008921
2306.0147,9.152857609867496
2307.4538,10.279767609612989
2308.8922,13.457066299885213
2310.3299,12.634752281526545
2311.7669,13.412824020808529
2313.2031,9.691279857655346
2314.6387,10.720117997863085
2316.0735,14.39933655031517
2317.5076,10.12893351669382
2318.941,8.108906754687979
2320.3737,11.039254020697044
2321.8056,15.619972990031329
2323.2369,8.401061227608523
2324.6674,12.632516142146699
2326.0972,14.814335058353194
2327.5263,21.546515174610136
2328.9547,25.129053541156253
2330.3823,20.76194699276519
2331.8092,17.34519211291999
2333.2355,14.478785277484477
2334.661,10.712722688870812
2336.0858,7.947000404702962
2337.5098,11.081614375477798
2338.9332,8.866560472222318
2340.3558,14.201834455147463
2341.7778,10.937431995798846
2343.199,10.223348623703572
2344.6195,8.90957975901452
2346.0393,5.846120719651353
2347.4583,10.58296673443796
2348.8767,9.320112973737139
2350.2943,5.7075545020821465
2351.7113,9.395286290805132
2353.1275,9.033303254162732
2354.543,13.421600212458785
2355.9578,8.410171895664007
2357.3718,4.999012899533227
2358.7852,7.838117735719678
2360.1978,9.277480865886417
2361.6098,8.717096673315439
2363.021,9.2069594485139
2364.4315,12.597063394818022
2365.8413,11.18740262349452
2367.2504,6.777971119839549
2368.6587,9.418762757275275
2370.0664,10.109771341444272
2371.4733,10.200990583801428
2372.8795,9.542414094704043
2374.285,7.134035382499491
2375.6899,11.675847860111105
2377.0939,10.517844869121873
2378.4973,11.960019634356328
2379.9,9.152365275460596
2381.3019,5.694874792480832
2382.7032,11.98754109393947
2384.1037,9.280357031410347
2385.5035,9.573315336591833
2386.9027,8.41640864837882
2388.3011,6.709629509933066
2389.6987,3.8529703802522874
2391.0957,5.696423651237993
2392.492,2.5399816762619025
2393.8876,10.133636751731657
2395.2824,10.477381148655027
2396.6765,8.471207036703461
2398.07,6.565106480774631
2399.4627,8.90907146105414
2400.8547,7.703093892076581
2402.246,-0.5028344007140504
2403.6366,7.44127833109529
2405.0265,7.385428859233301
2406.4156,8.229613881015908
2407.8041,2.323830019904804
2409.1918,7.068073817065539
2410.5789,6.1123417904254325
2411.9652,5.90663038723109
2413.3508,1.6009359936057166
2414.7358,1.4452549366062186
2416.12,3.5895835272802685
2417.5035,7.983918062223012
2418.8863,5.87825480213381
2420.2684,5.122589927872909
2421.6497,6.916919561517986
2423.0304,6.511239773920877
2424.4104,2.5055465667642665
2425.7896,5.549835876618488
2427.1682,9.29410361499852
2428.546,3.1883456379210315
2429.9232,4.182557708461701
2431.2996,8.426735557812734
2432.6753,7.570874875340834
2434.0503,2.8149712661453634
2435.4246,3.9090202596169945
2436.7982,4.603017356996773
2438.1711,3.7969580204355253
2439.5433,1.8908376660539261
2440.9148,5.334651672003105
2442.2856,4.578395397525867
2443.6557,9.172064148518558
2445.025,6.115653185093635
2446.3937,5.559157675642993
2447.7617,5.252572727401926
2449.1289,3.995893392014267
2450.4955,4.889114668598154
2451.8613,0.7822315163128621
2453.2265,8.175238845426549
2454.5909,4.218131558385082
2455.9546,3.8109044758820545
2457.3177,0.5035523764297807
2458.68,2.846070000431567
2460.0416,5.98845208325524
2461.4025,4.830693331807993
2462.7627,3.272788393112492
2464.1222,5.81473186588461
2465.4811,5.056518316112275
2466.8392,1.198142251636213
2468.1966,5.139598129731951
2469.5533,9.730880395693632
2470.9093,4.0719834434194695
2472.2645,6.162901569498857
2473.6191,4.753629029801502
2474.973,5.394160018568087
2476.3262,8.184488682503115
2477.6787,7.274609114369483
2479.0305,-0.43548467491484644
2480.3816,5.40420125282202
2481.7319,6.843665186243882
2483.0816,7.282905359972531
2484.4306,9.621919940193138
2485.7789,9.760707020261847
2487.1264,3.249264597315644
2488.4733,3.2375905708844783
2489.8195,5.525682808005797
2491.165,4.413539143341168
2492.5097,10.851157356295403
2493.8538,3.9385351821378976
2495.1972,6.22567024762661
2496.5398,6.912560140134161
2497.8818,6.6992023847765125
2499.2231,6.635594437544071
2500.5637,7.821733687435255
2501.9035,7.757617457092579
2503.2427,6.843242990941192
2504.5812,7.628607455830135
2505.919,6.963707950176044
2507.256,8.34854149610949
2508.5924,7.333105046124018
2509.9281,6.117395469227787
2511.2631,6.251409561098015
2512.5974,7.585144056237922
2513.9309,7.6685956266367015
2515.2638,7.601760868432109
2516.596,5.734636301075938
2517.9275,6.267218368002418
2519.2583,3.9995034552994326
2520.5884,3.231487886382723
2521.9178,0.6131679446730516
2523.2465,9.094539881276319
2524.5745,6.3255999411668
2525.9018,9.406344278373382
2527.2284,9.136768983669
2528.5543,5.916870053763148
2529.8796,8.696643393997704
2531.2041,7.976084850545831
2532.5279,4.405190182614305
2533.851,5.933955069649045
2535.1735,2.6623751470441306
2536.4952,5.690445990854087
2537.8163,2.7181631505097243
2539.1366,7.845522118537502
2540.4562,7.272518360282177
2541.7752,7.5491472626333405
2543.0935,9.22540413975544
2544.411,2.9512842303215194
2545.7279,3.1267826807505372
2547.0441,2.2018946079488018
2548.3596,6.726615097554713
2549.6744,6.950939213187837
2550.9885,8.724861951201504
2552.3019,9.648378238439747
2553.6146,4.021482914497938
2554.9266,3.544170722487749
2556.2379,10.466436365306066
2557.5485,9.088274510408084
2558.8585,7.959679720584731
2560.1677,10.730646467744194
2561.4762,7.8011691441979565
2562.7841,6.421242034950993
2564.0913,5.740859346996729
2565.3977,9.660015223116133
2566.7035,7.22870374868161
2568.0086,9.846918912465412
2569.313,10.914654630952882
2570.6167,8.481904722160095
2571.9197,9.04866289495672
2573.222,3.2649227733933373
2574.5236,5.130677891033969
2575.8246,7.345921748793458
2577.1248,11.360647796279906
2578.4244,8.0248494096423
2579.7232,5.288519851423132
2581.0214,6.80165230391647
2582.3189,10.36423989653116
2583.6157,9.07627569065967
2584.9118,7.937752644052026
2586.2072,8.798663623695575
2587.5019,12.009001417200153
2588.7959,6.668758724188962
2590.0893,4.927928124195205
2591.3819,5.286502130064562
2592.6739,10.494473205363434
2593.9652,9.051833760793272
2595.2557,14.008576102110794
2596.5456,8.564692444554424
2597.8348,11.820174863276819
2599.1234,14.125015347783759
2600.4112,17.17920576937935
2601.6983,12.93273785811752
2602.9848,13.485603172260241
2604.2705,10.537793140742153
2605.5556,16.389299057641892
2606.84,12.290112111660257
2608.1237,12.74022332760498
2609.4067,11.739623607382747
2610.689,9.588303725497994
2611.9707,9.886254339058937
2613.2516,10.383466009290785
2614.5319,12.279929198556268
2615.8115,12.72563426538342
2617.0903,8.42057144550104
2618.3685,12.414730847381612
2619.6461,11.108102495291966
2620.9229,9.100676289351654
2622.199,10.142442018599219
2623.4745,11.933389381066483
2624.7493,10.673507973360856
2626.0234,11.112787272755845
2627.2968,13.451216649789963
2628.5695,8.888785363873907
2629.8415,13.275482539906221
2631.1128,9.46129721389763
2632.3835,12.89621828910407
2633.6535,11.830234574168479
2634.9228,10.513334748771655
2636.1914,8.645507374292059
2637.4593,12.526740906974837
2638.7265,8.907023716610041
2639.9931,6.836344047720424
2641.259,11.814690055758525
2642.5242,8.942049827813456
2643.7887,11.968411332827522
2645.0525,10.143762450322512
2646.3156,9.318090940136159
2647.5781,9.841384460668543
2648.8398,7.163630577138939
2650.1009,9.484816756352714
2651.3613,6.154930393478992
2652.6211,8.12395878883872
2653.8801,6.291889181203572
2655.1385,4.5587087281056995
2656.3961,7.6744045241583905
2657.6531,4.888963618387869
2658.9094,8.402372983076319
2660.1651,9.514619541616327
2661.42,5.575690133376739
2662.6743,10.835571502580223
2663.9279,10.844250337692621
2665.1808,11.301713218824077
2666.433,12.30794661764228
2667.6846,9.012936892797804
2668.9354,13.666670279861762
2670.1856,11.06913292427592
2671.4351,7.470310834815351
2672.6839,14.020189909563797
2673.9321,14.918755971901952
2675.1795,10.365994705008589
2676.4263,11.061891642874976
2677.6724,11.4564322158324
2678.9179,13.449601743593242
2680.1626,14.441385431305548
2681.4067,15.23176834962139
2682.6501,15.57073542477898
2683.8928,14.558271430698845
2685.1348,10.644360985594219
2686.3761,11.02898856209562
2687.6168,12.46213852639
2688.8568,12.593795134374467
2690.0961,15.723942517324723
2691.3348,11.55256468057852
2692.5727,10.02964547223418
2693.81,7.905168624864416
2695.0466,6.579117770745505
2696.2826,7.151476463102078
2697.5178,12.722228189367613
2698.7524,7.341356365460868
2699.9863,12.658844280078327
2701.2195,10.774675148502958
2702.452,11.688832059429252
2703.6839,11.101297993804998
2704.9151,14.312055815689675
2706.1456,10.171088278129787
2707.3755,14.27837799105135
2708.6046,11.133907462669477
2709.8331,16.687659058415576
2711.0609,15.439615032382022
2712.2881,15.789757471784604
2713.5145,13.088068309443024
2714.7403,14.284529320279383
2715.9654,17.379122148335142
2717.1899,17.42182829480646
2718.4136,23.06262908709831
2719.6367,19.001505678397415
2720.8591,20.288438991264208
2722.0809,21.87340975824415
2723.3019,20.956398508998298
2724.5223,25.48738555445363
2725.7421,22.36635099597318
2726.9611,20.24327468004614
2728.1795,21.518136229498182
2729.3972,19.440915064722333
2730.6142,20.611590390930203
2731.8306,21.43014121892434
2733.0462,14.146546353391386
2734.2612,18.060784384716563
2735.4756,14.422833761819696
2736.6892,12.382672753012784
2737.9022,13.340279482379515
2739.1145,13.34563195017688
2740.3262,12.298708023259096
2741.5372,13.699485435024087
2742.7475,11.047941795882721
2743.9571,9.344054579251043
2745.1661,8.537801148065675
2746.3744,7.879158771822759
2747.582,9.96810463464044
2748.7889,4.304615841845326
2749.9952,5.488669399082973
2751.2008,7.7202422689528305
2752.4057,7.199311359167652
2753.61,4.975853500237768
2754.8136,6.399845450680431
2756.0165,5.171263919254393
2757.2188,2.9400855507199495
2758.4204,7.7562869381247594
2759.6213,5.21984464511565
2760.8215,4.780735157776618
2762.0211,2.0889349099931778
2763.22,6.994420287843518
2764.4182,5.397167656516494
2765.6158,3.5471533112568068
2766.8127,6.044353493337454
2768.009,2.83874440855994
2769.2045,2.980302202282239
2770.3994,3.4190029914749047
2771.5936,1.054822863305482
2772.7872,1.3377378707515462
2773.9801,-0.5822759437575016
2775.1723,2.744757448830363
2776.3639,-1.731180105496179
2777.5548,2.6898932118040406
2778.745,2.607976513761379
2779.9346,0.8730688865072764
2781.1235,-0.06483060990657208
2782.3117,-0.8057229241591202
2783.4992,3.7003916427284906
2784.6861,-1.5464791610928899
2785.8723,0.15367237552371193
2787.0579,1.250869413052051
2788.2428,0.3951351104292229
2789.427,-1.6635073859163612
2790.6106,0.8749650664924076
2791.7935,-0.8894077714285871
2792.9757,-1.0065861475130973
2794.1573,-2.4265214244112485
2795.3382,3.4008450910224397
2796.5184,1.9255963328824635
2797.698,-1.2021847987451153
2798.8769,-0.4824154230301545
2800.0551,3.4849993506835233
2801.2327,5.300159232382192
2802.4096,4.313163897202095
2803.5859,1.9241129672779138
2804.7615,-0.06689397838727729
2805.9364,5.140242619968475
2807.1106,5.245622990378017
2808.2842,1.9493473094717118
2809.4572,8.101515701423743
2810.6294,11.302228270914846
2811.801,10.0515850416107
2812.972,10.499685924154711
2814.1423,8.446630728674478
2815.3119,15.59251916030071
2816.4808,16.637450839697742
2817.6491,24.131525231604677
2818.8167,24.924841634386127
2819.9837,27.91749910509145
2821.15,36.109596451521654
2822.3157,40.30123220230278
2823.4807,46.89250452496491
2824.645,56.48351118402584
2825.8086,67.67434947507836
2826.9716,76.8651161288802
2828.134,83.40590719944566
2829.2957,86.34681797213787
2830.4567,100.08794289826092
2831.617,106.2293755656508
2832.7767,106.92120856126408
2833.9358,108.01353340976365
2835.0941,106.25644056660035
2836.2519,104.25001940708971
2837.4089,91.29435824398291
2838.5653,89.08954434753093
2839.7211,86.43566407504125
2840.8761,81.38280289292591
2842.0306,85.58104540324027
2843.1843,86.58047539421179
2844.3374,82.0811757982573
2845.4899,92.68322868198909
2846.6417,92.68671529120769
2847.7928,89.29171594488136
2848.9433,91.99831003511125
2850.0931,94.40657606108138
2851.2422,96.66659160199272
2852.3907,96.17843329298042
2853.5385,98.69217680251381
2854.6857,95.70789683727791
2855.8323,100.52566711703602
2856.9781,101.44556040447242
2858.1233,103.46764845701477
2859.2679,109.69200201763519
2860.4118,118.56869079462925
2861.555,116.04778339937258
2862.6976,121.87934725755383
2863.8395,126.46344863438388
2864.9808,126.15015257628018
2866.1214,124.93952286502571
2867.2614,124.8316220209019
2868.4007,131.07651131479514
2869.5393,131.32425076927544
2870.6773,134.7248990961479
2871.8146,137.27851369397496
2872.9513,143.28515061407018
2874.0874,137.49486453496198
2875.2227,147.1077087023274
2876.3574,143.07373498689472
2877.4915,145.19299378831533
2878.6249,150.86553407550318
2879.7577,154.8914033654424
2880.8898,153.9206476664617
2882.0212,156.10331143797572
2883.152,159.88943760019285
2884.2821,162.77906751228818
2885.4116,165.92224093454263
2886.5405,168.26899599944633
2887.6686,167.76936918026715
2888.7962,173.8733952675829
2889.923,170.08110737427785
2891.0493,169.29253687450228
2892.1748,168.85771344159545
2893.2997,168.22666505597124
2894.424,167.3494180094665
2895.5476,170.97599691165132
2896.6706,168.65642469860177
2897.7929,171.14072259663402
2898.9145,164.97891014549992
2900.0355,169.0710051735443
2901.1559,171.5170238593227
2902.2756,167.26698069068078
2903.3946,173.620888440294
2904.513,159.82875820816795
2905.6308,164.34059935809938
2906.7479,166.00641965559754
2907.8643,165.32622522276571
2908.9801,162.800020521643
2910.0953,165.8778083610063
2911.2098,164.15958992163226
2912.3236,161.8453647255196
2913.4368,158.33513065307105
2914.5494,160.82888396623582
2915.6613,158.2266193436118
2916.7725,158.97832985550795
2917.8831,151.48400698996718
2918.9931,156.44364064524922
2920.1024,149.8072192047736
2921.211,145.4247294875235
2922.319,142.4461568144099
2923.4264,142.82148505209665
2924.5331,141.10069664278586
2925.6391,143.18377260046486
2926.7445,139.8206925281141
2927.8493,137.3614345968763
2928.9534,143.95597557968733
2930.0569,143.30429087586873
2931.1597,146.15635444518227
2932.2619,149.61213881434688
2933.3634,148.57161504851797
2934.4643,150.4347527167295
2935.5645,150.8015199022994
2936.6641,152.371883184198
2937.763,150.24580763338062
2938.8613,152.8232567970836
2939.959,150.45419272008527
2941.056,152.68857591893152
2942.1523,139.1763654056262
2943.248,134.16751866528756
2944.3431,124.61199179127006
2945.4375,115.45973953525314
2946.5313,109.61071540279627
2947.6244,103.21487174486165
2948.7169,91.77215981630427
2949.8087,82.98252983983046
2950.8999,79.69593112042499
2951.9904,71.06231213324735
2953.0803,68.13162055649774
2954.1696,63.60380335775332
2955.2582,57.228806823275065
2956.3462,56.206576603285946
2957.4335,54.387057775720905
2958.5202,56.470194856449154
2959.6062,51.50593181746929
2960.6916,53.49421206607803
2961.7764,53.48497849451275
2962.8605,55.42817346006877
2963.9439,55.22373878519158
2965.0267,55.67161573804499
2966.1089,51.121745034555424
2967.1905,57.274066833933134
2968.2714,53.77852078417102
2969.3516,52.43504596052131
2970.4312,51.69358090045097
2971.5102,51.7040636170766
2972.5885,50.86643160657898
2973.6662,54.98062184809831
2974.7432,52.796570812110446
2975.8196,50.56421441928508
2976.8954,51.98348806232622
2977.9705,58.10432662829569
2979.045,53.82666448442049
2980.1188,52.250435416884336
2981.192,55.62557267360437
2982.2645,51.80200897999333
2983.3364,49.47967650520833
2984.4077,50.40850690038638
2985.4783,44.68843132186777
2986.5483,45.36938042190776
2987.6177,40.90128440587737
2988.6864,39.334073025453755
2989.7545,37.96767562330128
2990.8219,35.50202114874364
2991.8887,29.737038171427734
2992.9548,29.02265490598029
2994.0204,23.008799269657686
2995.0852,26.345398889489744
2996.1495,19.78238116241834
2997.2131,18.369673221931386
2998.276,15.857202003692962
2999.3383,14.494894259670467
3000.4,11.032676583259288
3001.4611,9.72047542290592
3002.5215,8.108217116730117
3003.5812,7.24582790564687
3004.6404,5.083233949489028
3005.6989,4.920361335631178
3006.7567,3.457136100615571
3007.8139,5.893484231780874
3008.8705,4.379331681894406
3009.9264,5.36460434478866
3010.9818,1.899228070502808
3012.0364,0.033128655430047615
3013.0905,-2.4337681230287345
3014.1439,1.4984635121961176
3015.1966,0.22977365151780305
3016.2487,-0.08988762963512187
3017.3002,-0.5605702581317829
3018.3511,-0.932323262863914
3019.4013,0.6948099273736332
3020.4509,1.2207951976953737
3021.4998,0.7455984262677475
3022.5481,2.1191854790492712
3023.5958,1.941522214542477
3024.6428,-1.2874255299419453
3025.6892,0.23230806349149802
3026.735,-0.14929832588066816
3027.7802,-0.18226602110500068
3028.8247,0.7833851462622086
3029.8685,-0.452362834497805
3030.9118,2.9604720180623403
3031.9544,-2.228123795505269
3032.9963,2.6318361957467715
3034.0376,3.0903607217225577
3035.0783,1.5474584860078444
3036.1184,4.9531381612848016
3037.1578,4.557408404761034
3038.1966,5.010277824112773
3039.2348,2.5117549814421594
3040.2723,4.4618483887485745
3041.3092,4.660566532913855
3042.3455,4.507917856201377
3043.3811,5.703910754268897
3044.4161,2.9485535776950123
3045.4505,6.741854620019204
3046.4842,6.733822145295434
3047.5173,8.274464350159125
3048.5498,5.363789363907497
3049.5816,9.401805233093114
3050.6128,6.038519950630672
3051.6434,7.173941415416795
3052.6734,8.558077465962924
3053.7027,7.5409358690410855
3054.7314,9.622524305842528
3055.7594,6.252850382149134
3056.7868,10.581921607517568
3057.8136,7.05974542897599
3058.8398,10.836329187733366
3059.8653,10.661680154401203
3060.8902,12.685805491227725
3061.9145,10.858712253844374
3062.9381,13.08040737102452
3063.9612,13.950897662954443
3064.9835,16.470189819016348
3066.0053,12.938290389083456
3067.0264,12.505205758327111
3068.0469,12.320942182535774
3069.0668,12.035505792445846
3070.086,15.148902595584325
3071.1046,16.161138479123156
3072.1226,10.972219178745252
3073.1399,17.882150268522164
3074.1567,12.790937212803264
3075.1727,15.79858529711641
3076.1882,10.60509967908012
3077.203,11.310485358327057
3078.2173,9.114747228438908
3079.2308,12.9178900698925
3080.2438,9.96991857201721
3081.2561,10.97083729496351
3082.2678,10.720650699182677
3083.2789,10.219363135417641
3084.2893,5.816978847204819
3085.2991,7.013501975886989
3086.3083,6.608936604637162
3087.3169,9.003286746493341
3088.3248,8.596556348404164
3089.3321,7.5387492672854
3090.3388,5.829869274087269
3091.3449,7.4199200643725085
3092.3503,4.908905275405157
3093.3551,9.596828470250085
3094.3593,6.583693162883105
3095.3629,4.769502771311762
3096.3658,5.954260647706683
3097.3681,4.83797009654347
3098.3698,9.970634362755147
3099.3708,7.1022566428950284
3100.3713,7.282840033810093
3101.3711,5.462387561324775
3102.3702,8.040902178435095
3103.3688,8.01838678351322
3104.3667,9.294844194522295
3105.364,5.520277149241609
3106.3607,3.444688292502038
3107.3568,4.418080213931674
3108.3522,6.340455468711738
3109.347,6.961816567842657
3110.3412,5.432165958920315
3111.3348,3.3515060199224322
3112.3277,6.619839074505071
3113.32,5.1871674128092415
3114.3117,4.453493258777566
3115.3028,7.118818784480997
3116.2932,5.6331461174555475
3117.2831,5.546477314049069
3118.2723,6.208814374277942
3119.2608,5.170159242693792
3120.2488,5.7305138017601
3121.2361,4.789879882238756
3122.2229,8.348259257586523
3123.209,6.755653653361369
3124.1944,8.312064711638671
3125.1793,5.067494006937272
3126.1635,8.471943030655382
3127.1471,6.1254132235162775
3128.1301,4.927905941523807
3129.1125,7.479422479427697
3130.0942,3.8799640826986277
3131.0753,3.2295319220130594
3132.0558,6.578127129247809
3133.0357,5.075750803984388
3134.015,8.622403980023039
3134.9936,7.968087640406493
3135.9716,5.762802681953453
3136.949,7.156549921801755
3137.9258,3.3993301194612187
3138.902,6.041143962876163
3139.8775,4.931992105997612
3140.8524,3.5718751423651502
3141.8267,6.060793616198439
3142.8004,-1.201251964001603
3143.7735,8.435738849658007
3144.7459,5.121778505577369
3145.7178,7.406879367799201
3146.689,6.991053749148442
3147.6596,1.2743138883812382
3148.6295,5.856671954343202
3149.5989,7.838140103136816
3150.5676,5.418730432297842
3151.5357,6.148454960980639
3152.5032,6.677325654152271
3153.4701,9.555354415295248
3154.4364,5.832553081118835
3155.402,8.358933392778757
3156.367,5.984507033105208
3157.3315,4.159285601339056
3158.2952,6.333280636876098
3159.2584,6.10650363751928
3160.221,2.678966037738742
3161.1829,9.000679210939587
3162.1442,6.721654503737268
3163.105,6.791903172740445
3164.065,7.411436407341231
3165.0245,5.680265329012712
3165.9834,8.598400985113612
3166.9416,7.265854366200004
3167.8993,6.232636376843949
3168.8563,5.548757848958969
3169.8127,7.014229552132225
3170.7684,4.179062200463296
3171.7236,6.843266437909476
3172.6782,7.956852866637432
3173.6321,8.36983202038118
3174.5854,6.632214353306205
3175.5381,11.14401023587967
3176.4902,10.155229972246593
3177.4417,6.665883755111892
3178.3926,8.62598167562819
3179.3428,7.78553375828926
3180.2924,8.844549941329078
3181.2415,5.753040085126272
3182.1899,8.561013961613982
3183.1377,11.318481285194942
3184.0848,7.0754516846617515
3185.0314,7.081934675622197
3185.9773,5.987939702929548
3186.9227,8.74347614061773
3187.8674,6.248553302841278
3188.8115,5.253180416319951
3189.755,9.607366645287986
3190.6979,9.311121101447814
3191.6402,6.814452800428196
3192.5818,8.467370664746685
3193.5229,5.4198835487763075
3194.4633,10.372000222216379
3195.4031,7.273729400567384
3196.3423,10.375079695609799
3197.2809,8.02605964638681
3198.2189,10.026677688190809
3199.1563,6.676942176053581
3200.0931,11.67686136474015
3201.0292,7.376443442246109
3201.9648,7.675696479798441
3202.8997,8.424628474859698
3203.834,6.623247348135466
3204.7677,11.521560936085052
3205.7008,11.019577008935284
3206.6333,8.817303221697388
3207.5652,7.51474711918681
3208.4964,9.061916158045964
3209.4271,7.558817719769798
3210.3571,4.055459095234091
3211.2865,9.401847499726449
3212.2154,9.697990107979887
3213.1436,10.59389400070895
3214.0712,13.08956616164827
3214.9982,11.085013468593543
3215.9246,11.380242668444795
3216.8503,8.525260397251923
3217.7755,8.070073177262387
3218.7001,11.11468744547104
3219.624,8.909109558172013
3220.5473,11.003345760512552
3221.4701,11.097402208548809
3222.3922,9.091284948303468
3223.3137,12.184999914825193
3224.2346,6.7785529522497905
3225.1549,8.47194978286307
3226.0746,11.465196061165305
3226.9937,8.208297356937273
3227.9121,9.601259125307786
3228.83,7.594086739322687
3229.7473,12.236785476015207
3230.6639,8.429360536477716
3231.5799,11.421816999434727
3232.4954,8.31415985931715
3233.4102,11.056393996337738
3234.3244,10.498524207567632
3235.238,11.340555179514048
3236.151,7.832491493698951
3237.0634,11.874337618238753
3237.9752,11.166097942924964
3238.8864,11.957776738805704
3239.797,10.599378165268114
3240.7069,9.490906262121554
3241.6163,11.182364963181616
3242.5251,11.673758107354825
3243.4332,8.715089421724052
3244.3408,11.356362516634585
3245.2477,9.047580915280811
3246.154,11.738748027293486
3247.0598,8.679867171827562
3247.9649,9.87094155065051
3248.8694,13.06197427873113
3249.7733,9.202968372328806
3250.6766,11.693926717083187
3251.5793,9.534852106604223
3252.4814,12.375747217562612
3253.3829,10.016614631280532
3254.2838,10.507456805322686
3255.1841,13.54827609708762
3256.0838,10.539074758899297
3256.9829,12.129854907598922
3257.8814,9.320618554636955
3258.7792,10.461367590165295
3259.6765,11.252103811129661
3260.5731,10.442828909862083
3261.4692,10.333544466173564
3262.3647,12.924251955446802
3263.2595,12.914952749729057
3264.1538,14.905648091825064
3265.0474,10.596339095390025
3265.9404,10.83702672502266
3266.8329,14.827711839358301
3267.7247,13.518395188662007
3268.616,10.409077374921715
3269.5066,13.999758864941402
3270.3966,11.190440021434272
3271.286,11.08112106711593
