RamanShift,CorrectedData
30.1047,460.088485652156
32.3739,423.9401811611029
34.6426,389.24187206916474
36.9109,354.74354953605507
39.1787,319.7452008290683
41.4461,284.8468096680635
43.7131,251.49835657544747
45.9796,218.14981922515878
48.2456,186.0511727761523
50.5112,148.1023902058845
52.7764,115.05344263130007
55.0411,82.10429968831984
57.3054,44.80492986233007
59.5692,14.305300817674045
61.8326,-19.694620229354257
64.0955,-52.84486620551388
66.3579,-84.49527328830789
68.6199,-115.0451497350259
70.8815,-129.2929596951775
73.1426,-120.1360180172266
75.4032,-40.27034791296984
77.6634,224.05922756461587
79.9231,881.9582876633292
82.1824,2312.182409390377
84.4412,4816.487160933383
86.6995,8177.778087358148
88.9574,11356.960685565598
91.2148,13442.690370678885
93.4717,14299.122444251547
95.7282,14268.262073410222
97.9842,13956.664282290325
100.2398,13437.483952344646
102.4949,12875.775825459341
104.7495,12216.74450914572
107.0036,11623.094482157332
109.2573,11071.780101080289
111.5105,10581.955606269756
113.7632,10128.925127363094
116.0154,9741.392688178114
118.2672,9463.11221124337
120.5185,9163.487521673493
122.7693,8961.322349951992
125.0197,8747.270334927502
127.2696,8538.535025835434
129.519,8367.519884438498
131.7679,8163.828287114053
134.0163,7941.413526564259
136.2642,7700.378813852999
138.5117,7411.927280630014
140.7587,7146.711981541262
143.0052,6886.185897113427
145.2512,6619.101936406076
147.4967,6378.462939616915
149.7417,6177.371680752629
151.9863,6023.730870035279
154.2304,5915.593155913208
156.4739,5769.5611265974485
158.717,5671.8373111431065
160.9596,5542.274180909675
163.2017,5359.974150538277
165.4433,5188.689579247294
167.6844,4942.172772655365
169.925,4732.525984494239
172.1651,4486.801419073932
174.4047,4298.201233379206
176.6439,4121.477539526807
178.8825,3944.93240665147
181.1206,3839.417862673155
183.3582,3732.185896062502
185.5954,3648.9884568959696
187.832,3575.027457928162
190.0681,3535.0047754238017
192.3037,3486.0722498973337
194.5388,3430.7316865131615
196.7734,3418.3848555749632
199.0075,3436.9834930791044
201.2411,3458.9293008381014
203.4742,3500.8739462946364
205.7068,3534.069062302102
207.9389,3558.6662467051483
210.1704,3626.617062007742
212.4015,3650.7730351271834
214.632,3711.0856567146075
216.862,3736.2063809134197
219.0915,3751.1366247561705
221.3205,3798.177767913345
223.549,3810.68115254407
225.777,3807.248082825692
228.0044,3781.029824828749
230.2314,3794.4776065512997
232.4578,3785.342618181104
234.6837,3777.92601196115
236.909,3755.328902280998
239.1339,3710.0023657509482
241.3582,3683.597441428015
243.582,3591.965131269189
245.8053,3558.656400395488
248.0281,3543.0221780082793
250.2503,3526.663357722368
252.472,3561.630797722336
254.6932,3599.325320926136
256.9139,3650.1977146354106
259.134,3780.3987301585544
261.3536,3904.979082301982
263.5727,4090.589448068127
265.7912,4248.930465409628
268.0092,4433.502731373235
270.2267,4575.656800516395
272.4436,4644.943183061532
274.6601,4657.362343474499
276.8759,4612.26469977172
279.0913,4517.550623396002
281.3061,4435.170439667501
283.5204,4382.47442873087
285.7341,4333.912826379059
287.9473,4291.635824580273
290.16,4271.5935719635945
292.3721,4292.836174241746
294.5837,4332.713694411523
296.7947,4413.476152541354
299.0052,4487.923525372537
301.2152,4469.955745511609
303.4246,4382.47270068587
305.6334,4181.724233923067
307.8418,3937.8101444262215
310.0495,3687.3801895811116
312.2568,3412.1840873954156
314.4635,3153.121519003013
316.6696,2934.742131415945
318.8752,2756.895540115039
321.0802,2668.1313312337
323.2847,2653.049063336386
325.4887,2651.7482683062403
327.692,2635.028451495915
329.8949,2593.3890917405847
332.0972,2508.2796415251355
334.2989,2378.8995274005642
336.5001,2226.498150835071
338.7007,2102.2248895078637
340.9008,1964.3290988331696
343.1003,1844.2601132029704
345.2992,1737.6672473659569
347.4976,1641.7497976282225
349.6955,1570.2570429191887
351.8927,1540.18824575078
354.0895,1482.0926529323547
356.2856,1420.76949587139
358.4812,1376.3679911544382
360.6763,1347.7373411603553
362.8707,1321.3267345043196
365.0646,1346.5853463241378
367.258,1360.0123385443512
369.4508,1382.4568596236504
371.643,1444.3680444206047
373.8346,1501.2450139692128
376.0257,1566.486874859795
378.2162,1587.7927186702254
380.4062,1579.3116213135067
382.5956,1506.2926428247197
384.7844,1427.1348274458287
386.9726,1336.4872043558698
389.1603,1283.5987884625365
391.3474,1219.9685813086508
393.5339,1212.4955716010513
395.7199,1186.778735846894
397.9052,1207.0670384283799
400.09,1269.7594318599226
402.2743,1381.0048565852699
404.4579,1468.9522403505744
406.641,1579.5004970919472
408.8235,1662.2485260559724
411.0054,1747.2452106942355
413.1868,1822.8894178358355
415.3675,1816.8299968374245
417.5477,1777.465778826761
419.7273,1709.4955767633082
421.9064,1624.6681858318707
424.0848,1583.2823841223017
426.2627,1483.58693347777
428.4399,1338.4305799086233
430.6166,1152.862054589339
432.7928,962.1300753100913
434.9683,791.1833483324326
437.1432,657.7205702966176
439.3176,567.69042993107
441.4914,487.241609387007
443.6645,450.3227851387446
445.8371,414.9826287881833
448.0091,431.46980743399945
450.1806,393.3329840250417
452.3514,387.5208171954682
454.5216,410.0819616461049
456.6913,409.41506820257564
458.8603,425.118783589689
461.0288,446.44175043810446
463.1967,440.23260712729643
465.3639,434.189987572322
467.5306,422.4625212859173
469.6967,411.6488334389169
471.8622,384.7975449775349
474.0271,399.20727273149714
476.1914,407.7266296825619
478.3551,407.1542248204114
480.5182,448.5886630574669
482.6807,499.47854523460865
484.8426,607.3724677068349
487.0039,807.2690218343541
489.1647,1036.9167929036594
491.3248,1187.5143581285492
493.4843,1240.5102843536597
495.6432,1217.3531265484853
497.8015,1122.841427277418
499.9592,1024.4237169313183
502.1163,889.6985146726311
504.2728,716.9143294195674
506.4287,541.7196611933559
508.5839,404.3130028460819
510.7386,293.34284181263683
512.8927,247.0576614847805
515.0461,261.85594232084713
517.199,328.13616230859407
519.3512,452.69679681722573
521.5029,628.3863179345844
523.6539,811.0031932215516
525.8043,887.8958839551442
527.9541,839.2128433023499
530.1033,700.0025155512012
532.2519,566.0633365976046
534.3999,481.49373533743983
536.5472,508.99213500595306
538.694,578.056954023461
540.8401,698.7366057203553
542.9856,765.4294976464598
545.1305,787.8840303642346
547.2748,759.7985967818477
549.4185,695.1715819286301
551.5615,639.6013632359245
553.704,663.9863111833611
555.8458,738.0247898545595
557.987,864.5151566932745
560.1276,1018.9557617630171
562.2675,1300.5949464821442
564.4069,1662.581042079457
566.5456,1991.8623667778102
568.6837,2104.0872221742493
570.8212,1873.2538899471983
572.958,1430.5606307342114
575.0942,1018.2556864403041
577.2299,728.8872846648901
579.3648,587.7536428248286
581.4992,531.3529710481071
583.6329,582.0334735851775
585.766,687.7933493729633
587.8985,768.8307915280539
590.0304,822.2939862891071
592.1616,838.5811122064779
594.2922,756.7403396075788
596.4222,641.0698304340167
598.5515,504.21773905999544
600.6802,435.13221344902286
602.8083,342.41139652242873
604.9358,332.75342685022497
607.0626,363.5564395783076
609.1888,466.96856652504357
611.3144,568.8879358732383
613.4393,698.9626711360115
615.5636,777.8908901376062
617.6873,822.370703712646
619.8103,803.5502149168469
621.9327,666.777518582222
624.0544,532.9007015052784
626.1756,378.56784381475427
628.2961,299.82702031038025
630.4159,246.57630200621225
632.5351,252.11375691803642
634.6537,252.33745059588182
636.7716,248.44544606863565
638.8889,263.1858038418195
641.0056,292.40658193649324
643.1216,282.7058357418646
645.237,256.83161772307176
647.3518,203.5319775181997
649.4659,147.90496219701708
651.5793,121.79861679397709
653.6922,94.76098486448018
655.8043,100.79010874594587
657.9159,103.83402982818552
660.0268,92.44078849310881
662.137,114.45842408428734
664.2466,109.23497502088549
666.3556,118.21847857748753
668.4639,85.35697093632598
670.5716,65.94848709745565
672.6786,42.49106120736042
674.785,-18.467273246958484
676.8907,-15.128483203405722
678.9958,1.0556488881707082
681.1002,-30.11650828853317
683.204,-29.94658606037774
685.3072,-26.13591489030705
687.4097,-30.935526074872996
689.5115,-36.6961898128402
691.6127,-24.618367257068257
693.7132,-21.102152965482674
695.8131,-4.297395558520748
697.9123,29.296267153889403
700.0109,80.37924029279475
702.1089,111.55192868628546
704.2061,150.71473635865868
706.3028,192.31806621869555
708.3987,227.51231966803016
710.4941,253.89789618511531
712.5887,271.5251929732849
714.6827,288.4946046968912
716.7761,326.6565233050419
718.8688,402.86133786189794
720.9608,476.2094341650636
723.0522,584.3511939835303
725.1429,641.7869943241963
727.233,728.0672063504499
729.3224,817.1921948078098
731.4112,821.6123171611243
733.4993,754.5279227033234
735.5867,617.8393525112092
737.6735,471.24694011631027
739.7596,345.20101287175885
741.845,277.6018934182189
743.9298,231.44990094434525
746.014,211.99535186277717
748.0974,206.83856027165666
750.1802,208.3798381491738
752.2624,211.16949540513588
754.3439,252.65783986555607
756.4247,325.89517724475036
758.5048,423.5318107304611
760.5843,617.5680402514781
762.6631,843.9541615012772
764.7413,1177.9404639976528
766.8188,1604.177228818865
768.8956,1996.7647252637657
770.9718,2235.1532065894385
773.0473,2230.292906085322
775.1221,2110.4340346893246
777.1962,1954.8267810364268
779.2697,1967.0713126572714
781.3426,2022.5177775342372
783.4147,2099.666303978992
785.4862,2100.667000078026
787.557,1952.4699529211703
789.6271,1658.075228591587
791.6966,1276.1328736477403
793.7654,915.042918067345
795.8335,661.4053790667858
797.901,466.5702647120206
799.9678,374.0875764549537
802.0339,335.1073110817888
804.0993,292.6294616378518
806.1641,271.9540178174034
808.2282,239.38096638840807
810.2916,200.41029139929515
812.3544,154.041974504682
814.4164,110.52599535508762
816.4778,132.91233206061133
818.5385,185.35096162609352
820.5986,269.29185972725236
822.658,441.83500018629684
824.7166,679.6303541325219
826.7747,1014.7278882768692
828.832,1388.3775625339813
830.8886,1659.9793266712218
832.9446,1779.9831165721835
834.9999,1690.4888515206653
837.0545,1485.5464330006398
839.1085,1215.3057455911885
841.1618,992.2666590159324
843.2143,829.9290308454351
845.2662,711.7427087275933
847.3175,622.4075320110169
849.368,554.5233329268885
851.4179,501.1399374823159
853.467,484.4571661391774
855.5155,462.27483434795613
857.5633,417.3927527145652
859.6105,380.2107272221724
861.6569,336.2785596800227
863.7027,278.74604809525454
865.7478,266.41298711222043
867.7922,228.1291685878141
869.8359,219.3443817148027
871.8789,229.9084134046616
873.9212,247.4210483754232
875.9629,300.03206904603803
878.0039,367.7412553612494
880.0441,416.09838426548095
882.0837,456.35322902574626
884.1226,501.30555874807624
886.1609,572.5051379749693
888.1984,659.551726235873
890.2352,779.6950773351814
892.2714,794.8349384817757
894.3069,772.3710490875865
896.3416,657.1031406161983
898.3757,559.5809368074852
900.4091,487.15415483029255
902.4418,499.4225062576561
904.4739,534.185697791072
906.5052,563.5934311378164
908.5358,564.0454026633079
910.5658,494.59130309703414
912.595,353.8308175280322
914.6236,240.21362609942435
916.6515,147.1894054160307
918.6786,99.10782968053581
920.7051,77.16857162373162
922.7309,97.42130298533493
924.756,119.01569473337759
926.7804,157.5514168616819
928.8041,196.8781381739159
930.8272,224.19552589823252
932.8495,218.75324529400723
934.8711,233.55095937866372
936.892,234.38832898209466
938.9123,249.36501259868783
940.9318,297.7306663789482
942.9506,322.88494397973227
944.9688,307.72749608058984
946.9862,232.85797013221963
949.003,149.2760105080497
951.019,85.33125925292643
953.0344,42.823356918940135
955.0491,15.601943204869258
957.063,38.816657381258665
959.0763,91.86713856263668
961.0888,116.25302547536467
963.1007,150.02395592713947
965.1119,177.779566563127
967.1223,160.61949252825843
969.1321,148.39336718966888
971.1412,132.2008223082994
973.1495,120.39148816116312
975.1572,122.06499370326219
977.1641,145.57096668568647
979.1704,135.80903363887637
981.1759,127.12881963756672
983.1808,120.77994839840358
985.1849,128.0620423667474
987.1884,158.72472278016085
989.1911,215.0176095955885
991.1932,245.29032118273017
993.1945,261.89247376111143
995.1951,244.2736810973547
997.1951,231.0335543391584
999.1943,235.62170219148493
1001.1928,244.73773104896236
1003.1906,292.93124495000166
1005.1877,374.95184548563975
1007.1841,440.29913131760213
1009.1798,475.17269735809487
1011.1748,443.3721341163364
1013.1691,373.54702734981765
1015.1627,264.09695838230846
1017.1556,152.52150480210867
1019.1477,91.92024155655054
1021.1392,24.442742067752988
1023.1299,13.188578838633475
1025.12,10.007324127682296
1027.1093,65.79855006150683
1029.0979,150.41182866664303
1031.0859,215.49673131164263
1033.0731,245.05282786094176
1035.0596,236.77968602401324
1037.0454,180.32687105980494
1039.0304,116.49394585946902
1041.0148,70.33047151089113
1042.9985,11.536007937017075
1044.9814,-9.889885642508034
1046.9636,-36.59765012339949
1048.9452,-33.68762760141544
1050.926,-3.059794561790568
1052.9061,30.836209049634817
1054.8855,60.1007738543708
1056.8642,77.83429016556556
1058.8421,96.68714769535973
1060.8194,119.20973537755299
1062.7959,153.70244117907532
1064.7717,191.61565187476026
1066.7469,237.89975270241666
1068.7213,319.40512698369866
1070.695,375.5321556612621
1072.6679,431.0312164837128
1074.6402,443.1526834443375
1076.6117,426.8469262261128
1078.5826,360.0143100804921
1080.5527,259.8551959904603
1082.5221,169.26994133886
1084.4908,131.50890090998473
1086.4587,112.92242779542858
1088.426,122.66087377169606
1090.3925,137.67458948607145
1092.3584,170.863924359232
1094.3235,219.57922643511074
1096.2879,278.27084204900257
1098.2515,352.2891153404121
1100.2145,477.934387666136
1102.1767,610.106996860085
1104.1382,761.9072759768269
1106.099,919.3355519698621
1108.0591,1065.442144173619
1110.0185,1159.2773627291726
1111.9771,1185.9415071231824
1113.9351,1187.6348652495335
1115.8923,1144.4077131426989
1117.8488,1072.7603149608062
1119.8045,1002.0429234179046
1121.7596,911.05578050044
1123.7139,811.8991181744336
1125.6675,771.1231592953482
1127.6204,800.2281185996594
1129.5726,761.0642031126104
1131.524,722.8816118571654
1133.4748,617.3805362456487
1135.4248,483.86116046157167
1137.3741,384.77366251464036
1139.3226,289.56821557595094
1141.2705,277.84498896886544
1143.2176,247.15414912106644
1145.164,229.49585968178872
1147.1097,169.4202818287281
1149.0546,109.32757444462095
1150.9989,35.517894718003845
1152.9424,0.09139874413949656
1154.8852,-38.851757736887976
1156.8272,-51.36141989806811
1158.7686,-44.787044783333386
1160.7092,-13.37757633603269
1162.6491,26.368488923060795
1164.5883,80.35278811516082
1166.5267,172.02695809779834
1168.4644,249.59263492497757
1170.4014,380.35145293043615
1172.3377,530.8550439519881
1174.2732,721.155036023933
1176.2081,992.6530518720201
1178.1421,1324.3507070104515
1180.0755,1686.9496070269001
1182.0082,1968.7513442655313
1183.9401,2050.75749420102
1185.8713,1951.319612620527
1187.8017,1721.1392348036388
1189.7315,1456.8678765167529
1191.6605,1200.657036314873
1193.5888,1023.4581981843276
1195.5163,915.6728341048752
1197.4432,857.7024058216944
1199.3693,826.9983659232375
1201.2947,784.4621584209344
1203.2193,766.495219056233
1205.1432,760.9489757259626
1207.0664,752.1748486620027
1208.9889,737.1242504867432
1210.9106,728.3985863008293
1212.8316,734.549253833663
1214.7519,756.6276435306659
1216.6715,770.085138491766
1218.5903,846.6231142506149
1220.5084,910.4929386400154
1222.4257,996.79597102654
1224.3424,1047.4335616718336
1226.2583,1120.2570508695858
1228.1735,1230.0677684391485
1230.0879,1337.1170329973097
1232.0016,1483.6561508601785
1233.9146,1590.2364149726955
1235.8269,1629.8591034432416
1237.7384,1649.875478477833
1239.6492,1593.1867859838944
1241.5592,1602.3442553700997
1243.4686,1662.399100113254
1245.3772,1802.9025176667237
1247.285,2000.655688859883
1249.1922,2172.309776493081
1251.0986,2322.3159233601136
1253.0042,2430.3252505316777
1254.9092,2513.8888558553135
1256.8134,2586.6578128753126
1258.7169,2679.8331699970777
1260.6196,2749.165949759438
1262.5216,2881.05714790289
1264.4229,2981.907732676273
1266.3234,3115.2686435178566
1268.2232,3200.6407900468353
1270.1223,3263.725050729715
1272.0207,3284.872272026597
1273.9183,3243.633267760334
1275.8151,3239.3588189050593
1277.7113,3259.1496739985737
1279.6067,3370.8565491850914
1281.5014,3569.5801280173314
1283.3953,3907.321060339451
1285.2885,4327.879960299807
1287.181,4739.007402973548
1289.0727,5125.053920157023
1290.9637,5387.469996256514
1292.854,5549.006064427762
1294.7435,5518.3125039518145
1296.6323,5389.389638619654
1298.5204,5224.237737039143
1300.4077,5014.357013924253
1302.2943,4771.59763174657
1304.1802,4516.65970283412
1306.0653,4189.343291798949
1307.9497,3860.048418086506
1309.8333,3555.8250592488075
1311.7162,3346.073154237389
1313.5984,3192.6926064455392
1315.4798,3091.983285805813
1317.3605,3010.1450303238416
1319.2405,2917.627647085422
1321.1197,2740.180913074905
1322.9982,2524.004576100364
1324.876,2318.5483565680643
1326.753,2100.161949644229
1328.6293,1937.2450273096001
1330.5048,1793.9472405433007
1332.3796,1679.0182209520085
1334.2537,1589.9575822029283
1336.127,1536.4149211730837
1337.9996,1502.6898188399236
1339.8714,1495.9818408167512
1341.7426,1496.640537689973
1343.6129,1535.1154450861795
1345.4826,1547.5060836655548
1347.3515,1524.6119587371359
1349.2196,1513.1825601348937
1351.087,1552.467362446685
1352.9537,1585.7158251285437
1354.8197,1637.8273921118284
1356.6849,1743.5014914707426
1358.5493,1848.3375349012172
1360.4131,1990.4349166641691
1362.276,2124.0430125371404
1364.1383,2171.961178393325
1365.9998,2099.1887488654884
1367.8606,1931.4750368667856
1369.7206,1749.8693343184823
1371.5799,1573.5709138270959
1373.4384,1399.4290305004515
1375.2962,1261.5929237106675
1377.1533,1073.4618188355726
1379.0096,871.0349286370683
1380.8652,689.0614551424414
1382.7201,534.1405916686299
1384.5742,395.2715246419598
1386.4275,294.2534351473523
1388.2802,228.98550031701234
1390.132,156.21689434061227
1391.9832,132.89678911797
1393.8336,106.22435498673667
1395.6832,75.29876095559757
1397.5322,67.51917497099657
1399.3803,66.73476422639033
1401.2278,44.494695240045985
1403.0745,48.29813386288333
1404.9204,47.34424550087488
1406.7656,51.48219507701242
1408.6101,58.91114704084612
1410.4538,83.98026532710492
1412.2968,117.93871328140585
1414.139,149.9356534095641
1415.9805,205.02024703801226
1417.8213,254.591653993828
1419.6613,310.54903205388655
1421.5006,403.44153644915286
1423.3391,522.9183193051003
1425.1769,694.1785287127905
1427.0139,946.5713075341037
1428.8502,1260.3957916891345
1430.6858,1565.8511076322657
1432.5206,1803.3863692139248
1434.3547,1934.0506746260298
1436.188,1945.5431040266353
1438.0206,1905.4627182332897
1439.8524,1830.0085586081104
1441.6835,1777.9796474585878
1443.5139,1728.524988792129
1445.3435,1723.2435688363475
1447.1724,1703.8343565336036
1449.0005,1673.946303593826
1450.8279,1673.0283446886
1452.6545,1678.479397750049
1454.4804,1700.0483639800123
1456.3056,1704.034127795539
1458.13,1678.6855566131935
1459.9536,1592.6015008092
1461.7766,1487.3807939729281
1463.5987,1313.2722537677369
1465.4202,1142.9746829831765
1467.2409,961.5368712760746
1469.0608,818.2575968735173
1470.88,689.5356283872197
1472.6984,573.9197262463244
1474.5161,459.6586439846178
1476.3331,391.20112939668843
1478.1493,331.5459256805402
1479.9648,291.14177212216737
1481.7795,269.637404692106
1483.5935,253.8315564494742
1485.4067,240.57295775701732
1487.2192,222.06033643916726
1489.031,223.14241791462655
1490.842,209.36792538149484
1492.6522,201.68557980645073
1494.4618,193.5941000624939
1496.2705,192.2922030057689
1498.0785,173.12860355648127
1499.8858,153.45201471191558
1501.6924,136.41114773807112
1503.4981,123.70471236642788
1505.3032,108.93141696435623
1507.1075,89.38996866218076
1508.911,81.47907350091145
1510.7138,61.24743662766059
1512.5159,41.59376237475135
1514.3172,26.216754462033805
1516.1178,7.415116193421454
1517.9176,4.6875506106607645
1519.7166,-8.517239318652173
1521.515,-18.300550673795442
1523.3126,-8.513595446828276
1525.1094,-25.30740280730879
1526.9055,-19.33291687397832
1528.7008,-26.040828944623172
1530.4954,-31.881637181192673
1532.2893,-20.15557959775333
1534.0824,-20.91257571081951
1535.8747,-19.552343682665196
1537.6663,-4.2243927589356645
1539.4572,4.921963142639015
1541.2473,10.287452306009982
1543.0367,44.572802965910796
1544.8253,53.82874325420153
1546.6132,70.90600085701362
1548.4003,98.10530292219482
1550.1867,146.22737588853033
1551.9723,216.17294521375516
1553.7572,301.79273489333013
1555.5414,357.03746676098694
1557.3247,476.4578596325314
1559.1074,587.9046287533961
1560.8893,725.0284846044356
1562.6705,839.0801317874591
1564.4509,924.1602676539919
1566.2305,980.3195811647593
1568.0094,1026.0587520388847
1569.7876,1028.4784501922973
1571.565,1016.4793352803399
1573.3417,1022.7620566735709
1575.1176,1030.3272535777573
1576.8928,1064.5255549710446
1578.6672,1097.557579528308
1580.4409,1142.1739352791665
1582.2138,1197.7252192776637
1583.986,1274.0620171561031
1585.7575,1348.1849025695383
1587.5282,1448.3944364324034
1589.2981,1542.0911661772825
1591.0673,1622.925624752818
1592.8358,1717.7983296867433
1594.6035,1799.6597822775345
1596.3704,1875.0604666456852
1598.1366,1948.450848915092
1599.9021,2010.231376459047
1601.6668,2073.4524771663323
1603.4308,2158.2645588234172
1605.194,2275.518008482247
1606.9564,2398.8631916121203
1608.7182,2588.2004509271565
1610.4791,2796.4301051528455
1612.2394,3002.852447132672
1613.9988,3238.6677417458204
1615.7576,3433.276223842953
1617.5156,3573.6780958880536
1619.2728,3590.7735260123445
1621.0293,3526.862646610271
1622.785,3333.2955541685433
1624.54,3071.0723099052434
1626.2942,2801.742941705501
1628.0477,2510.5074467437207
1629.8005,2263.715794176882
1631.5525,2039.3679280568872
1633.3037,1827.2137697984829
1635.0542,1682.1032204227363
1636.804,1573.3861626785788
1638.553,1463.9624624939088
1640.3013,1433.0819700627646
1642.0488,1386.1445209395608
1643.7955,1407.5999363478916
1645.5416,1423.498023649907
1647.2868,1494.1385761317588
1649.0313,1547.6713728446189
1650.7751,1630.046177898275
1652.5181,1720.4627399258
1654.2604,1831.7707912598084
1656.0019,1943.220047028286
1657.7427,2092.6102040415126
1659.4828,2247.7409396775665
1661.222,2345.3119103884264
1662.9606,2338.07275014866
1664.6984,2227.2730694797183
1666.4354,1999.4124555223236
1668.1717,1715.99047314447
1669.9072,1405.406667220026
1671.642,1146.8105654629578
1673.3761,947.9016815331647
1675.1094,781.5795176224412
1676.8419,635.7435664435657
1678.5737,543.943312893522
1680.3048,453.8282355118595
1682.0351,389.3978073986941
1683.7646,324.7014971158603
1685.4934,301.48876933121574
1687.2215,274.7090854656042
1688.9488,232.21190392498283
1690.6754,204.84668036821813
1692.4012,188.8628681320597
1694.1263,161.55991850479018
1695.8506,150.28728088606567
1697.5742,138.49440305994312
1699.297,108.43073130760786
1701.0191,107.04571052530173
1702.7404,94.73878452495978
1704.461,74.00939604806149
1706.1808,58.30698688869802
1707.8999,57.78099810086837
1709.6182,49.730870155501634
1711.3358,49.40604294571767
1713.0527,47.10595586732779
1714.7688,37.330047822083316
1716.4841,26.477757240677192
1718.1987,21.698522180501413
1719.9126,21.791780434171415
1721.6257,17.956969577317977
1723.338,30.293526967654543
1725.0496,20.90088978332551
1726.7605,25.528494899540874
1728.4706,27.825778982502015
1730.18,17.542178443125067
1731.8886,20.827129414069077
1733.5964,26.380067852571756
1735.3036,21.00042950759962
1737.0099,23.437649864319383
1738.7156,17.29116419789443
1740.4204,10.810407549111915
1742.1246,10.99481478584812
1743.8279,6.093820667875889
1745.5306,3.4568598450207446
1747.2325,-14.966633093829387
1748.9336,-7.9772235943542
1750.634,-13.375327585569948
1752.3336,0.1887186959702376
1754.0325,-9.985287366765533
1755.7307,-14.19754839269467
1757.4281,-5.948167247715901
1759.1247,-1.637104964218679
1760.8206,-1.9142631524030094
1762.5158,9.420472932208895
1764.2102,-4.632762842416014
1765.9039,-1.6738367025145635
1767.5968,8.847431406976284
1769.289,-2.5187617372516797
1770.9804,2.677780553018465
1772.6711,10.537280128434986
1774.361,6.059958812867535
1776.0502,8.396038324814754
1777.7386,17.095740322176425
1779.4263,15.259286378892284
1781.1132,19.88689789794512
1782.7994,11.528796129724924
1784.4849,15.385202125753494
1786.1696,20.356336822263756
1787.8535,33.64242100163733
1789.5367,28.34367524269419
1791.2192,25.210319787829803
1792.9009,18.392574596004806
1794.5818,18.790659374076768
1796.2621,29.30479364497819
1797.9415,35.835196743734286
1799.6202,28.482087712324073
1801.2982,27.695685234374196
1802.9755,33.226207708690936
1804.6519,44.92387325712252
1806.3277,39.388899669254215
1808.0027,25.721504285432957
1809.6769,41.67190405211818
1811.3504,38.04031565855507
1813.0231,40.276955377269815
1814.6951,40.382039100387374
1816.3664,36.60578231726322
1818.0369,60.49840011343258
1819.7067,51.61010720837362
1821.3757,42.241117716580675
1823.044,57.69164523644713
1824.7115,54.561902943956056
1826.3783,56.40210343817489
1828.0443,55.71245877255183
1829.7096,62.84318043651524
1831.3741,54.24447936236959
1833.0379,57.716565853986936
1834.701,74.00964967279697
1836.3633,60.2239400030636
1838.0248,66.2596452889544
1839.6856,66.76697337239784
1841.3457,83.64613143272618
1843.005,71.49732598160222
1844.6636,75.32076269422828
1846.3214,74.91664653083376
1847.9785,82.28518169844119
1849.6349,68.97657165490727
1851.2904,79.49101903523683
1852.9453,77.4287257846695
1854.5994,73.73989305353552
1856.2528,84.72472121787757
1857.9054,83.88340991634084
1859.5572,82.06615794032336
1861.2083,87.77316324239007
1862.8587,84.90462295444456
1864.5084,91.56073333065945
1866.1572,100.04168977616212
1867.8054,88.24768678047315
1869.4528,86.07891783269656
1871.0994,93.08557553946002
1872.7453,94.91785164660189
1874.3905,101.7759369691048
1876.0349,89.4100213727736
1877.6786,100.22029370565463
1879.3215,94.70694192169412
1880.9637,101.42015297263606
1882.6051,103.91011286315529
1884.2458,97.27700658372589
1885.8858,102.57101808572145
1887.525,98.99233034774568
1889.1634,102.64112532269257
1890.8011,105.71758397353324
1892.4381,94.32188623682828
1894.0743,108.75421099196296
1895.7098,100.96473617510378
1897.3446,100.15363863487516
1898.9786,92.22109421025539
1900.6118,114.06727773868624
1902.2443,102.8923631353988
1903.8761,104.54652317495209
1905.5071,101.72992960298154
1907.1374,96.14275311965775
1908.7669,100.68516340785254
1910.3957,102.70732918901115
1912.0237,101.95941817772734
1913.651,100.24159706152182
1915.2776,99.40403150832196
1916.9034,95.24688618363882
1918.5285,104.17032475894382
1920.1528,101.02450995323989
1921.7764,109.00960344382702
1923.3992,100.67576589776081
1925.0213,87.12315689200011
1926.6427,91.50193499674708
1928.2633,81.71225791097277
1929.8832,103.85428241862905
1931.5023,100.72816448654578
1933.1207,99.83405904301014
1934.7383,105.7221200090288
1936.3552,99.99250030726739
1937.9714,99.64535180317125
1939.5868,95.28082536226066
1941.2015,106.34907085360362
1942.8154,94.60023719345998
1944.4286,92.2844722345991
1946.041,90.20192288378882
1947.6528,88.25273512495221
1949.2637,88.23705403999327
1950.8739,87.65502382828925
1952.4834,96.2067878068475
1954.0921,95.74248841612541
1955.7001,88.11226713451322
1957.3074,91.36626448297659
1958.9139,98.40462010135889
1960.5197,84.07747271584117
1962.1247,88.43496006855798
1963.729,90.9272190608699
1965.3325,82.30438570978845
1966.9353,80.76659512305366
1968.5374,87.61398158536088
1970.1387,87.59667857374097
1971.7393,84.56481868908463
1973.3392,87.36853365631703
1974.9383,82.70795435471496
1976.5366,80.13321078987065
1978.1342,78.79443214029698
1979.7311,86.74174678317524
1981.3273,83.67528230774315
1982.9227,76.44516543582131
1984.5173,72.9515220524778
1986.1112,84.79447727832905
1987.7044,80.77415550447643
1989.2968,85.0906802740775
1990.8885,86.04417432254832
1992.4795,80.83475953439881
1994.0697,74.71255693369733
1995.6592,78.92768673616536
1997.2479,81.33026841039862
1998.8359,74.17042063571648
2000.4232,79.24826127813651
2002.0097,77.3639074619714
2003.5955,72.96747551905185
2005.1805,81.10908100757013
2006.7648,76.68883875604342
2008.3484,74.85686278189905
2009.9312,81.66326633567564
2011.5133,80.90816191934425
2013.0946,80.14166121824303
2014.6752,80.26387510862844
2016.2551,84.92491366534159
2017.8342,79.87488616058545
2019.4126,80.16390101731372
2020.9902,81.74206585973172
2022.5672,74.7094875104068
2024.1433,70.96627197448561
2025.7188,77.81252451002047
2027.2935,70.89834966540127
2028.8674,73.17385121089308
2030.4406,77.0391322077769
2032.0131,74.79429498559625
2033.5849,64.58944110350353
2035.1559,71.72467137270917
2036.7261,69.15008595852953
2038.2957,77.21578430903503
2039.8645,70.02186518079566
2041.4325,72.26842655822418
2042.9998,73.85556572551491
2044.5664,76.33337924417833
2046.1323,67.1519629371694
2047.6974,65.66141186411005
2049.2617,73.81182041310171
2050.8254,74.65328231563285
2052.3883,77.53589056507326
2053.9504,82.95973740826071
2055.5118,80.4249143166744
2057.0725,69.38151193219642
2058.6325,75.42962009246048
2060.1917,70.41932794128513
2061.7502,71.35072386819297
2063.3079,71.17389555851344
2064.8649,63.48892998406882
2066.4212,61.545913404943235
2067.9767,69.04493144633147
2069.5315,71.03606911797021
2071.0856,68.41941073914654
2072.6389,70.69503991878776
2074.1915,66.663039581627
2075.7433,63.92349194544738
2077.2945,63.87647856140234
2078.8448,68.37208034141031
2080.3945,66.31037755862576
2081.9434,68.14144980248227
2083.4916,56.06537599931039
2085.039,58.382234394025886
2086.5857,62.19210267089147
2088.1317,66.6450579303471
2089.677,55.24117665091262
2091.2215,59.1805346446572
2092.7652,57.26320717123849
2094.3083,61.38926889850927
2095.8506,63.85879392169056
2097.3921,63.62185572211081
2098.933,65.67852714251092
2100.4731,66.62888038941242
2102.0124,59.82298701255252
2103.5511,64.16091789537995
2105.089,59.9427433231142
2106.6261,62.66853293936538
2108.1626,63.4383557883167
2109.6983,65.95228028746601
2111.2332,56.76037421992805
2112.7675,55.562704709295076
2114.301,60.6093383115558
2115.8337,65.10034102707175
2117.3657,57.13577825011157
2118.897,57.66571472394048
2120.4276,59.34021462046633
2121.9575,59.25934153493972
2123.4866,68.07315846920903
2125.0149,63.83172783252951
2126.5426,59.28511135342512
2128.0695,55.98337012210311
2129.5956,54.52656463591984
2131.1211,63.71475483239851
2132.6458,55.69800010379731
2134.1698,60.52635920522641
2135.693,56.399890334816746
2137.2155,52.41865108543607
2138.7373,57.18269848595298
2140.2584,49.19208904105051
2141.7787,54.496878683584555
2143.2983,56.69712285449043
2144.8171,48.84287644973472
2146.3353,52.98419379831273
2147.8527,53.27112874079114
2149.3693,52.85373458789525
2150.8853,50.93206411763936
2152.4005,60.1061695795014
2153.9149,53.22610271363851
2155.4287,59.34191465914705
2156.9417,51.253656022862515
2158.454,51.31137681820212
2159.9655,49.6151265460461
2161.4764,55.66495419416219
2162.9865,57.06090825416641
2164.4958,50.90303666102591
2166.0045,43.64138677909875
2167.5124,51.42600546371318
2169.0195,52.25693913378416
2170.526,54.08423369396678
2172.0317,45.50793452634673
2173.5367,47.62808647216798
2175.0409,45.594733917595136
2176.5445,54.10792077251199
2178.0473,49.86769049085535
2179.5494,51.324085985483066
2181.0507,52.327149670576205
2182.5513,47.27692344707509
2184.0512,51.823448692648526
2185.5504,50.81676631219682
2187.0488,48.85691669238531
2188.5465,48.74393971171196
2190.0435,48.52787476010644
2191.5397,42.20876074005855
2193.0353,39.886636068780376
2194.5301,45.961538741396566
2196.0241,46.68350635416573
2197.5175,52.452576043730915
2199.0101,49.66878447990052
2200.502,47.18216780795683
2201.9931,44.19276167649491
2203.4835,37.25060126228868
2204.9733,31.405721300183814
2206.4622,41.50815615252088
2207.9505,39.60793986758324
2209.438,47.055106078572976
2210.9248,39.399688022613304
2212.4109,43.09171846627652
2213.8962,37.681229782138416
2215.3809,40.61825391185789
2216.8648,38.95282242028236
2218.3479,35.184966466076844
2219.8304,41.014716818378474
2221.3121,41.54210389447542
2222.7931,42.917157701508586
2224.2733,36.48990783119791
2225.7529,33.11038344609182
2227.2317,29.778613343840163
2228.7098,39.644625990989255
2230.1872,30.25844955629958
2231.6638,29.220111812085804
2233.1397,33.52964022807805
2234.6149,37.3870619818054
2236.0894,35.79240391550064
2237.5632,28.895692497526113
2239.0362,30.94695383832004
2240.5085,25.346213759363877
2241.9801,31.193497772670128
2243.4509,27.33883113678951
2244.921,26.782238798338028
2246.3904,23.27374543054367
2247.8591,26.413375438812352
2249.3271,24.8011529958128
2250.7943,29.287102010080105
2252.2608,21.62124614213809
2253.7266,28.753608759639576
2255.1917,20.08421301402501
2256.656,19.163081769199152
2258.1197,15.390237688224602
2259.5826,24.16570324253371
2261.0447,24.339500749656167
2262.5062,19.16165228546504
2263.9669,20.782179682438255
2265.4269,21.001104581437403
2266.8862,28.468448415502564
2268.3448,23.334232407662967
2269.8026,19.5984774962634
2271.2598,25.36120438630644
2272.7162,25.37243358681002
2274.1719,19.882185353180603
2275.6268,17.49047968710039
2277.0811,20.397336391429747
2278.5346,23.8027750941244
2279.9874,24.056815219166992
2281.4395,15.259475952512219
2282.8908,18.7107762395471
2284.3414,18.210734873064325
2285.7914,15.159370458748754
2287.2406,21.55670142017817
2288.689,19.752746029336663
2290.1368,21.19752234264189
2291.5838,27.391048218984395
2293.0302,23.983341305279623
2294.4758,27.424418974533012
2295.9206,23.71429835991688
2297.3648,18.502996320359443
2298.8082,28.640529477646567
2300.251,19.026914268533744
2301.693,20.162166843371324
2303.1343,25.746303162240906
2304.5748,20.329338983602668
2306.0147,23.56128980845415
2307.4538,26.492170934499143
2308.8922,21.371997423828702
2310.3299,16.950784073612112
2311.7669,20.128545467299432
2313.2031,15.80529601883245
2314.6387,22.831049940868127
2316.0735,17.80582128801052
2317.5076,20.879623886553418
2318.941,20.102471384732667
2320.3737,20.824377221987845
2321.8056,22.995354636733737
2323.2369,19.215416659141624
2324.6674,21.034576089429834
2326.0972,23.602845535662425
2327.5263,18.07023739555808
2328.9547,17.986763830807604
2330.3823,25.00243682239943
2331.8092,17.967268171454577
2333.2355,20.93126942906929
2334.661,20.094451966667577
2336.0858,25.10682694636074
2337.5098,25.268405329315556
2338.9332,21.329197825630672
2340.3558,16.389214892721213
2341.7778,13.89846677471047
2343.199,16.35696355182978
2344.6195,21.164715165326356
2346.0393,19.121731392878132
2347.4583,21.67802180051632
2348.8767,20.433595763054655
2350.2943,22.088462438526847
2351.7113,14.592630780630486
2353.1275,10.646109522179245
2354.543,24.248907250060313
2355.9578,21.201032444700047
2357.3718,17.402493344035918
2358.7852,23.103297973995268
2360.1978,18.4534541864806
2361.6098,18.102969602361213
2363.021,18.051851657972065
2364.4315,25.00010760861869
2365.8413,14.497744529088322
2367.2504,17.544769244167583
2368.6587,21.091188433665536
2370.0664,21.837008601943467
2371.4733,15.482236042450893
2372.8795,20.72687683026743
2374.285,28.12093688565045
2375.6899,17.6644219215886
2377.0939,11.857337369860602
2378.4973,15.049688485601223
2379.9,14.991480405371192
2381.3019,12.28271811523473
2382.7032,13.373406451340713
2384.1037,14.963550127011388
2385.5035,19.75315372183502
2386.9027,25.092221665764555
2388.3011,14.930758191221514
2389.6987,20.518767279705514
2391.0957,12.506252763409066
2392.492,14.343218269337058
2393.8876,10.979667299432151
2395.2824,9.715603212204996
2396.6765,10.051029256369247
2398.07,13.98594858348298
2399.4627,7.370364244594043
2400.8547,14.804279150890807
2402.246,7.1376961398585195
2403.6366,11.320617900940363
2405.0265,6.353047052202385
2406.4156,13.534986098504987
2407.8041,7.666437481177354
2409.1918,10.44740350619901
2410.5789,11.627886402885338
2411.9652,9.95788829607784
2413.3508,15.187411194338779
2414.7358,8.766457006651706
2416.12,6.095027490126256
2417.5035,13.473124314208064
2418.8863,7.200749087392921
2420.2684,11.32790328344629
2421.6497,8.404588304126321
2423.0304,10.830805437913
2424.4104,11.40655588923994
2425.7896,12.131840754232655
2427.1682,15.956661014952147
2428.546,14.331017532139981
2429.9232,13.654911006972384
2431.2996,15.728341997316136
2432.6753,15.701310924488723
2434.0503,18.97381805252445
2435.4246,14.59586348844482
2436.7982,8.767447149533155
2438.1711,15.438568807114109
2439.5433,11.709228144838505
2440.9148,8.07942469197127
2442.2856,9.599157860685466
2443.6557,11.468426982359802
2445.025,12.287231292381819
2446.3937,18.15556991145479
2447.7617,13.673441837410223
2449.1289,18.140845886524005
2450.4955,9.35778073833768
2451.8613,2.4742448909846075
2453.2265,14.940236749020471
2454.5909,11.305729999294499
2455.9546,16.320698179253554
2457.3177,15.135114713287294
2458.68,11.048952862578915
2460.0416,16.01218573696042
2461.4025,16.424786335774513
2462.7627,12.786727498241873
2464.1222,17.59798189933582
2465.4811,20.60852208616228
2466.8392,16.268320429847847
2468.1966,19.177349095433783
2469.5533,20.43558008527856
2470.9093,23.842985209967196
2472.2645,21.4495360757291
2473.6191,18.105204050364193
2474.973,21.059960287177205
2476.3262,10.963775758421093
2477.6787,16.616621225748986
2479.0305,21.7684673411768
2480.3816,23.46928459055414
2481.7319,19.869043242046132
2483.0816,19.417713329125263
2484.4306,21.0652646865737
2485.7789,19.41166695499652
2487.1264,18.706889564346397
2488.4733,22.500901750459377
2489.8195,22.14367256210261
2491.165,18.685170823034298
2492.5097,23.225365135576283
2493.8538,23.914223915198875
2495.1972,17.751715345118726
2496.5398,21.087807369410484
2497.8818,15.6224677546316
2499.2231,21.055664056461694
2500.5637,16.237363674355777
2501.9035,14.967533797212297
2503.2427,20.146141451556275
2504.5812,18.82315351423756
2505.919,16.498536660644504
2507.256,22.472257377934284
2508.5924,18.044281988278954
2509.9281,23.514576589128012
2511.2631,23.433107097488403
2512.5974,24.29983919522141
2513.9309,22.214738329857482
2515.2638,21.777769705928847
2516.596,21.53889830582034
2517.9275,26.7480888941393
2519.2583,21.055306020104126
2520.5884,17.61051396545207
2521.9178,25.213676801367626
2523.2465,24.514758422930186
2524.5745,18.713722473082385
2525.9018,27.660532349619416
2527.2284,24.35515126319916
2528.5543,27.14754214787439
2529.8796,21.13766769414667
2531.2041,25.67549032104222
2532.5279,27.31097223621049
2533.851,20.844075390546152
2535.1735,31.674761461833953
2536.4952,30.102991919418002
2537.8163,29.428727915894797
2539.1366,25.351930302831192
2540.4562,25.222559637506777
2541.7752,28.390576223682103
2543.0935,32.105940112892256
2544.411,28.118611072766782
2545.7279,36.1285485498758
2547.0441,28.085711709603572
2548.3596,33.29005935604886
2549.6744,38.241550012453615
2550.9885,37.79014186915913
2552.3019,30.0857927340914
2553.6146,38.02846003727524
2554.9266,24.918100907877374
2556.2379,34.604672094780256
2557.5485,31.83813009768545
2558.8585,35.66843107024795
2560.1677,35.79553084774159
2561.4762,34.8693849087561
2562.7841,35.13994837392579
2564.0913,34.30717601519126
2565.3977,36.271022253093975
2566.7035,38.13144116510341
2568.0086,35.73838646597909
2569.313,38.14181148916623
2570.6167,38.64166921072646
2571.9197,37.3379122253034
2573.222,46.93049274112417
2574.5236,39.919362593036794
2575.8246,41.60447314658467
2577.1248,39.43577536811759
2578.4244,43.613219807940794
2579.7232,40.08675662200193
2581.0214,45.50633553011673
2582.3189,42.02190585123344
2583.6157,43.73341644923707
2584.9118,42.590815767793686
2586.2072,43.44405181323546
2587.5019,44.19307216598645
2588.7959,45.337823972030435
2590.0893,49.478253935420554
2591.3819,46.21430830683158
2592.6739,54.29593284215602
2593.9652,54.973072835143455
2595.2557,51.495673036584066
2596.5456,57.71367764753785
2597.8348,54.02703035410809
2599.1234,55.43567426526147
2600.4112,61.48955194969457
2601.6983,56.78860542174732
2602.9848,59.182776080864414
2604.2705,53.02200475860437
2605.5556,63.0562316946984
2606.84,62.435396598657576
2608.1237,53.7094385494309
2609.4067,50.47829600161347
2610.689,59.94190687270597
2611.9707,57.05020857542624
2613.2516,51.70313792307323
2614.5319,48.40063115844376
2615.8115,44.99262400730339
2617.0903,54.07905171141141
2618.3685,47.25984906260115
2619.6461,54.8849503119155
2620.9229,49.35428923779921
2622.199,56.26779906984751
2623.4745,54.22541254411317
2624.7493,52.02706183397106
2626.0234,54.12267857054212
2627.2968,56.362193864676584
2628.5695,49.04553828599788
2629.8415,53.22264184050795
2631.1128,49.14343404375322
2632.3835,53.40784387905404
2633.6535,50.96579983829628
2634.9228,57.717229879287515
2636.1914,51.81206145017745
2637.4593,56.05022142194332
2638.7265,50.53163614744207
2639.9931,55.6062314190286
2641.259,50.1239325237415
2642.5242,51.43466419255722
2643.7887,54.53835065521292
2645.0525,54.43491562709926
2646.3156,55.4242822782233
2647.5781,47.30637323424318
2648.8398,50.98111056657433
2650.1009,46.198415873568564
2651.3613,50.40821024376669
2652.6211,51.01041430372541
2653.8801,46.80494817591949
2655.1385,47.04173147271996
2656.3961,48.670683338448384
2657.6531,49.59172244700909
2658.9094,48.70476698559969
2660.1651,52.859734645500765
2661.42,54.5565426309453
2662.6743,56.145107617569096
2663.9279,56.62534573544261
2665.1808,58.497172553185095
2666.433,59.1605030731626
2667.6846,55.36525171276949
2668.9354,59.4113322977953
2670.1856,60.99865810037684
2671.4351,69.72714179853796
2672.6839,69.49669546031603
2673.9321,65.95723045647708
2675.1795,73.70865746282018
2676.4263,71.30088649557251
2677.6724,68.58382683387458
2678.9179,71.20738704385798
2680.1626,76.6714750058162
2681.4067,75.82599788796895
2682.6501,69.62086209182132
2683.8928,67.05597326061852
2685.1348,62.381236341397226
2686.3761,64.94655561063465
2687.6168,65.85183472099558
2688.8568,59.14697667567947
2690.0961,58.1818838193673
2691.3348,60.05645790527069
2692.5727,60.72060010478219
2693.81,59.82421098872999
2695.0466,54.56719052073635
2696.2826,55.59943806618148
2697.5178,57.170852444773544
2698.7524,58.63133192022664
2699.9863,59.6307741845462
2701.2195,58.51907634342456
2702.452,68.54613490624615
2703.6839,72.61184579720495
2704.9151,73.01610425503347
2706.1456,74.20880479234586
2707.3755,74.3398411915955
2708.6046,77.9091064931475
2709.8331,84.66649299396897
2711.0609,88.91189221193582
2712.2881,88.74519481825939
2713.5145,87.7662905950319
2714.7403,99.22506843689399
2715.9654,106.07141636082332
2717.1899,110.05522139154718
2718.4136,115.3763694930787
2719.6367,120.28474552887906
2720.8591,122.73023320864576
2722.0809,135.36271503922904
2723.3019,143.93207230017708
2724.5223,148.0381849174108
2725.7421,139.83093137753065
2726.9611,147.96018868675517
2728.1795,143.37583245299408
2729.3972,140.62773680455496
2730.6142,133.8657744359873
2731.8306,129.78981663556326
2733.0462,112.64973335289704
2734.2612,111.04539323970499
2735.4756,98.27666382120586
2736.6892,98.54341151216471
2737.9022,88.59550174458005
2739.1145,79.2827989650163
2740.3262,72.80516673408277
2741.5372,64.16246781956087
2742.7475,56.804564261180445
2743.9571,55.331317457046566
2745.1661,52.04258823721915
2746.3744,45.23823687844461
2747.582,48.318123137043585
2748.7889,39.88210631695435
2749.9952,33.480045238934224
2751.2008,28.061798324919437
2752.4057,28.52722366204594
2753.61,29.726179056831825
2754.8136,20.80852203052308
2756.0165,26.124109807104077
2757.2188,21.62279940247393
2758.4204,22.75444757129111
2759.6213,22.568910851986004
2760.8215,19.466045555444822
2762.0211,14.695707766864729
2763.22,17.707753376782478
2764.4182,11.35203812877802
2765.6158,14.92841758935387
2766.8127,12.58674721149228
2768.009,12.576882298891519
2769.2045,6.848678029382484
2770.3994,5.90198945502749
2771.5936,3.7366715594022253
2772.7872,7.052579267062555
2773.9801,0.04956746519744115
2775.1723,-2.022509029529573
2776.3639,-5.1137954009506075
2777.5548,-10.27441662803264
2778.745,-8.054446602926703
2779.9346,-7.103856576361778
2781.1235,-8.072537335145455
2782.3117,-8.91030869855831
2783.4992,-7.9169098412332914
2784.6861,-8.641990923819492
2785.8723,-5.835123017036892
2787.0579,-3.845790858116203
2788.2428,-0.9234208914093642
2789.427,-0.4674011418177315
2790.6106,-0.12711040926802752
2791.7935,5.148077175650201
2792.9757,-0.9912112478197912
2794.1573,3.555651408084657
2795.3382,8.189302133326322
2796.5184,7.460377882311519
2797.698,18.769515527553637
2798.8769,13.217351866962531
2800.0551,23.90452351075274
2801.2327,24.43166693696554
2802.4096,31.149418384596856
2803.5859,36.10841384832625
2804.7615,49.05928901133922
2805.9364,58.35267919573704
2807.1106,56.48921923302834
2808.2842,74.8195433711951
2809.4572,83.39428529332696
2810.6294,98.8640779343184
2811.801,114.27955339512135
2812.972,131.19134278804688
2814.1423,150.05007608261087
2815.3119,163.85638193641574
2816.4808,195.31088750656357
2817.6491,215.91421831159232
2818.8167,244.36699791693144
2819.9837,270.56984772886835
2821.15,301.7733867100205
2822.3157,338.67823111730735
2823.4807,365.884994189914
2824.645,394.1942857802437
2825.8086,428.2067120818495
2826.9716,468.5728753463417
2828.134,498.19337354326353
2829.2957,520.4187999564294
2830.4567,538.39974288772
2831.617,543.9367854348277
2832.7767,552.8805053114479
2833.9358,543.5814747919078
2835.0941,540.74026062173
2836.2519,530.7074241106225
2837.4089,522.4835211608905
2838.5653,508.2691023677656
2839.7211,497.56471310164363
2840.8761,490.6208936502296
2842.0306,499.13817932558175
2843.1843,509.06710053354936
2844.3374,519.0081826885996
2845.4899,534.5119461145293
2846.6417,567.6789059450534
2847.7928,592.6095719687675
2848.9433,621.8544482974783
2850.0931,646.8640331168974
2851.2422,673.0888183941913
2852.3907,701.1292896278869
2853.5385,726.5359255856231
2854.6857,752.9591980237459
2855.8323,780.199571433242
2856.9781,803.5075027755065
2858.1233,823.4834412099386
2859.2679,858.0778278608631
2860.4118,882.2910956177698
2861.555,914.0236687893704
2862.6976,932.6259628614662
2863.8395,947.3983841796214
2864.9808,968.741329763141
2866.1214,979.5551871573462
2867.2614,983.4903342201455
2868.4007,992.5471390138954
2869.5393,1002.5759597660492
2870.6773,997.1271447785889
2871.8146,1012.301032327737
2872.9513,1008.7979507184444
2874.0874,1001.6182181326529
2875.2227,1007.4621426643241
2876.3574,992.480022391238
2877.4915,977.7721453165534
2878.6249,954.3387895186287
2879.7577,952.1302232981016
2880.8898,943.4467054122215
2882.0212,942.4884850969365
2883.152,926.6558021537269
2884.2821,921.5488869591886
2885.4116,922.0179606233594
2886.5405,926.8632350407886
2887.6686,933.2849128858459
2888.7962,936.0831875642687
2889.923,930.5082431489452
2891.0493,934.8602543519331
2892.1748,944.6393865802067
2893.2997,960.5957958921382
2894.424,959.4296288997065
2895.5476,960.291022608932
2896.6706,975.7301044315396
2897.7929,988.1969921763434
2898.9145,990.1417938948573
2900.0355,1001.8146077566248
2901.1559,1031.765522029772
2902.2756,1038.844614964279
2903.3946,1059.6519544924702
2904.513,1065.4375981582248
2905.6308,1082.9515929089025
2906.7479,1094.0939750374869
2907.8643,1102.2147700074456
2908.9801,1107.513992341306
2910.0953,1110.7916455394493
2911.2098,1109.6977220271165
2912.3236,1106.9322031216318
2913.4368,1116.4950590433427
2914.5494,1088.9362489432751
2915.6613,1072.0057208075048
2916.7725,1047.1534117327442
2917.8831,1034.2792480956496
2918.9931,1035.9831458013427
2920.1024,1015.965010412153
2921.211,1005.6747371305783
2922.319,1000.0122109994666
2923.4264,993.9273070049189
2924.5331,990.069890132914
2925.6391,986.5898154301583
2926.7445,993.8869280426588
2927.8493,979.511063250525
2928.9534,993.9120463949974
2930.0569,1001.2896930222059
2931.1597,1008.3938087391598
2932.2619,1007.7741891399721
2933.3634,1005.9306197348176
2934.4643,1021.8628759561292
2935.5645,1004.670723177034
2936.6641,1005.7539165520302
2937.763,1004.7622011889089
2938.8613,978.6453121379224
2939.959,957.252974401701
2941.056,930.7349031964217
2942.1523,891.3408041657319
2943.248,849.2703736459307
2944.3431,804.7732990599084
2945.4375,763.7492593378515
2946.5313,720.5479253622148
2947.6244,649.6689603779594
2948.7169,608.2120204245678
2949.8087,568.276755044833
2950.8999,530.462807699428
2951.9904,483.6698161662583
2953.0803,460.4474129186015
2954.1696,415.1452255930371
2955.2582,396.41287722167095
2956.3462,368.54998668515674
2957.4335,356.2561689000195
2958.5202,336.28103509728453
2959.6062,324.37419294541553
2960.6916,311.33524675006583
2961.7764,299.8137975731471
2962.8605,297.0094433632185
2963.9439,297.27177907070177
2965.0267,289.100396675924
2966.1089,288.2948851864949
2967.1905,284.0548307190202
2968.2714,290.3298165071568
2969.3516,293.9694229440133
2970.4312,292.87322751940036
2971.5102,298.8908047834346
2972.5885,300.0217263575004
2973.6662,299.3655608740743
2974.7432,307.07187396541576
2975.8196,304.54022827012864
2976.8954,301.37018335609844
2977.9705,304.16129574580816
2979.045,298.46311894803955
2980.1188,299.5752034299611
2981.192,282.99709667411037
2982.2645,274.5783431672732
2983.3364,267.46848456626424
2984.4077,257.81705978211505
2985.4783,252.17360505117227
2986.5483,229.4376540316122
2987.6177,218.6087378598751
2988.6864,200.93638537802488
2989.7545,190.52012324203815
2990.8219,166.70947609852766
2991.8887,159.9539666889052
2992.9548,141.70311608748798
2994.0204,127.5064437690537
2995.0852,112.86346779134877
2996.1495,102.67370493705545
2997.2131,85.28667086022134
2998.276,78.65188018815718
2999.3383,66.11884669530707
3000.4,61.53708336959642
3001.4611,51.05610253776237
3002.5215,40.32541591117129
3003.5812,34.044534690628694
3004.6404,26.362969673686024
3005.6989,26.58023131744946
3006.7567,20.24582981539541
3007.8139,12.809275095198018
3008.8705,10.370076882073164
3009.9264,6.127744773144144
3010.9818,0.8817882618334352
3012.0364,1.2817167802863594
3013.0905,-0.4229602481696588
3014.1439,-2.082733413023959
3015.1966,1.601910921606958
3016.2487,-2.119492801886821
3017.3002,-2.5974101571341066
3018.3511,-5.882285544030793
3019.4013,-7.024537414345417
3020.4509,-8.074525455813983
3021.4998,-4.732539181043791
3022.5481,-5.348787438132945
3023.5958,-3.3234317971131873
3024.6428,-4.106580393629969
3025.6892,-1.7483081622450811
3026.735,-3.198649012782255
3027.7802,-1.5576193894666233
3028.8247,-0.8752037820198098
3029.8685,1.1986288804540663
3030.9118,9.46391841213665
3031.9544,9.920704615223372
3032.9963,6.819027197270515
3034.0376,16.4589257666276
3035.0783,17.890439863453878
3036.1184,20.913608863319524
3037.1578,21.32847196289046
3038.1966,25.58506814969661
3039.2348,29.183436197983525
3040.2723,24.52361462614607
3041.3092,30.35564166074505
3042.3455,33.179555283104975
3043.3811,34.99539317099419
3044.4161,29.353192670385425
3045.4505,29.50299077729764
3046.4842,32.1948241942178
3047.5173,33.92872932860314
3048.5498,35.15474226596274
3049.5816,38.17289875251839
3050.6128,40.083234182944665
3051.6434,38.13578357018727
3052.6734,34.23058152635963
3053.7027,32.66766228221752
3054.7314,36.94705972621094
3055.7594,34.41880742011341
3056.7868,37.68293855622787
3057.8136,36.38948598266924
3058.8398,40.838482170723125
3059.8653,44.079959227780364
3060.8902,39.363948852847045
3061.9145,46.29048230412971
3062.9381,39.05959044619544
3063.9612,41.1713036807067
3064.9835,44.62565201872994
3066.0053,44.572665059618785
3067.0264,40.6123719564704
3068.0469,40.94480141665534
3069.0668,37.46998174142048
3070.086,43.23794082256477
3071.1046,42.84870617718734
3072.1226,43.852304890008014
3073.1399,35.04876361725967
3074.1567,35.38810857665224
3075.1727,35.920365635408004
3076.1882,30.945560306868316
3077.203,29.06371774517079
3078.2173,26.52486279499759
3079.2308,29.02902001039368
3080.2438,22.876213680155587
3081.2561,22.66646780278961
3082.2678,19.449806148039983
3083.2789,12.976252258986264
3084.2893,18.045829484210046
3085.2991,15.808561042530428
3086.3083,14.664469972308382
3087.3169,13.563579153819262
3088.3248,7.855911320693735
3089.3321,14.94148907092665
3090.3388,8.320334923953823
3091.3449,8.692471249796185
3092.3503,5.807920335271376
3093.3551,3.9167043802723356
3094.3593,5.718845526612824
3095.3629,3.764365876939621
3096.3658,4.3532874767110314
3097.3681,5.185632333741793
3098.3698,2.1614224123138115
3099.3708,3.5306796248527093
3100.3713,5.79342586216994
3101.3711,2.5496829797701253
3102.3702,4.749472775223694
3103.3688,3.9928170206042353
3104.3667,0.3297374404907032
3105.364,3.060255719533913
3106.3607,-1.265606460912693
3107.3568,5.352172549901894
3108.3522,5.71362704613712
3109.347,-1.9312087315691855
3110.3412,5.817699400284624
3111.3348,1.8104049179753758
3112.3277,2.396961239602973
3113.32,0.877421765163291
3114.3117,3.601839870682568
3115.3028,6.020268923412843
3116.2932,1.4327622545877858
3117.2831,3.8893731352383725
3118.2723,3.0401548220680183
3119.2608,0.035160532886493456
3120.2488,2.6244434551019964
3121.2361,1.1080564248690337
3122.2229,5.236052252097636
3123.209,5.258483735617297
3124.1944,4.675403621897004
3125.1793,3.686864604821018
3126.1635,1.8929193315196002
3127.1471,1.343620412254353
3128.1301,7.039020438357738
3129.1125,1.9291719877260505
3130.0942,4.214127567865425
3131.0753,5.393939666990299
3132.0558,6.46866073117387
3133.0357,4.788343152549999
3134.015,6.553039258565889
3134.9936,7.1128013287853875
3135.9716,3.1176815772419815
3136.949,4.967732146841186
3137.9258,5.413005149311722
3138.902,8.903552646704973
3139.8775,9.489426646942306
3140.8524,6.520679068909615
3141.8267,10.847361736598529
3142.8004,10.669526408793956
3143.7735,8.937224735807177
3144.7459,12.050508261254244
3145.7178,8.659428439378964
3146.689,11.264036603920061
3147.6596,11.864384002022035
3148.6295,11.360521768188995
3149.5989,9.802500918281282
3150.5676,13.24037235455399
3151.5357,12.02418688123727
3152.5032,15.503995170157566
3153.4701,12.829847772899505
3154.4364,15.451795086007785
3155.402,16.569887377728662
3156.367,15.134174761790476
3157.3315,16.394707186222696
3158.2952,13.251534447713112
3159.2584,14.804706179002451
3160.221,14.10427188031613
3161.1829,15.150280903832506
3162.1442,16.44278246068723
3163.105,16.831825610513174
3164.065,19.91745924851539
3165.0245,21.5497321015807
3165.9834,16.928692697421347
3166.9416,23.50438934825221
3167.8993,20.276870197001344
3168.8563,19.39618315155287
3169.8127,17.26237591702226
3170.7684,19.275496004563152
3171.7236,23.985590752705427
3172.6782,22.29270730722405
3173.6321,19.446892574038102
3174.5854,22.148193236139605
3175.5381,25.34665578205167
3176.4902,23.79232647881547
3177.4417,21.63525134000563
3178.3926,21.325476141273533
3179.3428,22.163046441917984
3180.2924,26.648007587983024
3181.2415,26.380404703882228
3182.1899,30.31028264754911
3183.1377,25.337686013113053
3184.0848,29.412659091600645
3185.0314,25.135245920661625
3185.9773,27.955490243819217
3186.9227,30.723435553244133
3187.8674,24.989125061552258
3188.8115,27.55260167412511
3189.755,31.16390804645294
3190.6979,28.823086558500016
3191.6402,28.78017927859152
3192.5818,29.485227986821748
3193.5229,31.138274175483254
3194.4633,33.98935904201628
3195.4031,31.738523472478338
3196.3423,32.685808013033366
3197.2809,33.73125289246005
3198.2189,31.92489801267901
3199.1563,30.216782938298348
3200.0931,33.20694691467716
3201.0292,30.295428885006764
3201.9648,35.28226746040896
3202.8997,34.717500949051285
3203.834,34.1511673062786
3204.7677,34.683304140260766
3205.7008,35.863948717655944
3206.6333,32.44313795828929
3207.5652,33.52090842334645
3208.4964,38.447296349581684
3209.4271,39.37233763854017
3210.3571,41.046067807294165
3211.2865,38.46852197919247
3212.2154,34.789734867123265
3213.1436,39.05974079928949
3214.0712,38.82857375599674
3214.9982,40.59626732695318
3215.9246,40.062854713581245
3216.8503,41.8283687113407
3217.7755,41.49284171506275
3218.7001,43.3563057012949
3219.624,41.66879223165624
3220.5473,39.73033243420281
3221.4701,43.84095702030272
3222.3922,43.50069630402073
3223.3137,44.55958016101204
3224.2346,46.167638031924895
3225.1549,44.67489891181168
3226.0746,44.08139133404845
3226.9937,49.9871433852622
3227.9121,46.39218271126606
3228.83,46.09653645800168
3229.7473,47.25023130748892
3230.6639,49.903293480782224
3231.5799,49.90574872643377
3232.4954,48.00762229396273
3233.4102,47.80893893383083
3234.3244,49.75972291642353
3235.238,49.00999803403688
3236.151,47.05978758136976
3237.0634,52.35911436302099
3237.9752,51.508000712991546
3238.8864,49.45646844169126
3239.797,49.05453884444992
3240.7069,51.95223272203266
3241.6163,53.34957038465922
3242.5251,51.74657162302698
3243.4332,57.24325569433762
3244.3408,55.73964133832707
3245.2477,52.88574672229873
3246.154,55.081589456159556
3247.0598,53.02718662095901
3247.9649,56.12255474693066
3248.8694,55.41770983403618
3249.7733,55.46266732101171
3250.6766,52.70744209241622
3251.5793,54.702048478182064
3252.4814,56.79650028116713
3253.3829,59.84081075720881
3254.2838,56.0349925941795
3255.1841,55.529057881543494
3256.0838,58.72301814841511
3256.9829,59.466884368618096
3257.8814,61.66066692874598
3258.7792,60.00437562072345
3259.6765,62.548019619868484
3260.5731,59.84160750145531
3261.4692,58.43514721527793
3262.3647,59.928646112714254
3263.2595,59.272110960790705
3264.1538,64.16554792724722
3265.0474,60.10896258710259
3265.9404,62.85235987372012
3266.8329,58.49574411937348
3267.7247,63.58911902781272
3268.616,62.93248771783043
3269.5066,60.725852672327974
3270.3966,61.06921574488183
3271.286,63.5625781818099
