RamanShift,CorrectedData
30.1047,121.12818687758332
32.3739,112.02709041578989
34.6426,104.12599274271453
36.9109,93.97489152680456
39.1787,86.12378339524722
41.4461,76.62266403548081
43.7131,68.57152827370587
45.9796,58.470370169896164
48.2456,49.16918309831017
50.5112,39.667959848502605
52.7764,29.86669271833634
55.0411,20.865373608994638
57.3054,9.963994122993832
59.5692,2.7625456541965008
61.8326,-5.88898050317472
64.0955,-14.140593082522647
66.3579,-21.1922419863349
68.6199,-29.843735852574195
70.8815,-33.394671608705835
73.1426,-27.494348043274
75.4032,-6.141730332053498
77.6634,50.76449101771772
79.9231,204.37568685468773
82.1824,536.0932275198597
84.4412,1070.4684813104802
86.6995,1753.0528111628632
88.9574,2403.597569308638
91.2148,2844.254090448906
93.4717,3005.023685248793
95.7282,3030.6076359308836
97.9842,2998.457194667526
100.2398,2916.873583324992
102.4949,2843.4079937849815
104.7495,2809.9615887604587
107.0036,2745.585502530308
109.2573,2651.6308412737976
111.5105,2550.7486837143415
113.7632,2436.990082059044
116.0154,2330.206063007525
118.2672,2212.1476288895005
120.5185,2100.3157587326295
122.7693,2002.4114094430915
125.0197,1899.1855169239116
127.2696,1820.5889970539984
129.519,1770.8227467204072
131.7679,1736.437644604303
134.0163,1703.4345516786238
136.2642,1672.6643115519314
138.5117,1648.8777507984414
140.7587,1604.8256792657269
143.0052,1552.158890312584
145.2512,1500.1781612495513
147.4967,1437.3842538655797
149.7417,1383.4779149478375
151.9863,1351.2098769096513
154.2304,1340.7308583295683
156.4739,1305.2915642740375
158.717,1300.6426864021992
160.9596,1312.4349033202789
163.2017,1327.8688806280747
165.4433,1334.8452708010373
167.6844,1298.064713035927
169.925,1258.8778331810536
172.1651,1197.0352441040786
174.4047,1134.537546083886
176.6439,1090.335327429007
178.8825,1044.7791651025982
181.1206,1031.569625164463
183.3582,1012.6072632266133
185.5954,988.5426245853655
187.832,978.1262444109634
190.0681,970.3586479882252
192.3037,956.9903508207068
194.5388,949.4218587083783
196.7734,961.7036678813063
199.0075,958.8362650753394
201.2411,971.2201274092901
203.4742,986.0057224136075
205.7068,984.6435079065407
207.9389,1009.2839318462816
210.1704,1018.0774323445872
212.4015,1007.7244374203758
214.632,1013.8253649117919
216.862,1010.0806225797357
219.0915,1001.1906080468547
221.3205,1024.15570883499
223.549,1009.226302454078
225.777,1005.4527561724974
228.0044,996.785427166365
230.2314,970.5246625572706
232.4578,934.7707994989494
234.6837,922.2741654398901
236.909,895.4350784808745
239.1339,878.603847499942
241.3582,865.8807724207825
243.582,858.5661443810467
245.8053,865.3102458595786
248.0281,861.5633507495605
250.2503,866.775724291073
252.472,853.3476231085631
254.6932,858.879295158721
256.9139,852.870979864761
259.134,865.6729080611047
261.3536,881.1353020534646
263.5727,925.8583754908237
265.7912,966.3423332108134
268.0092,1009.1373707924813
270.2267,1065.1936741514523
272.4436,1098.7114191119783
274.6601,1117.590770846375
276.8759,1138.9818835398441
279.0913,1135.2849002016806
281.3061,1143.7499524513596
283.5204,1163.2271605555093
285.7341,1178.116633343258
287.9473,1185.3184680114616
290.16,1167.732749975812
292.3721,1152.1095527988166
294.5837,1111.848938365655
296.7947,1081.9509570404132
299.0052,1062.9156480686877
301.2152,1055.2430398765646
303.4246,1016.1331502609754
305.6334,997.6359864664212
307.8418,963.3015455760715
310.0495,931.1298146967364
312.2568,907.8707713022111
314.4635,843.7243835549931
316.6696,786.1906105388724
318.8752,736.5694029003962
321.0802,710.7107034242057
323.2847,688.9644475292492
325.4887,706.1805635273679
327.692,711.1589728407595
329.8949,756.8495898298157
332.0972,783.1023217433387
334.2989,792.4170682616349
336.5001,771.3937212339869
338.7007,738.5821645855078
340.9008,687.482274527374
343.1003,632.8439198849408
345.2992,583.516962608741
347.4976,540.8012583208689
349.6955,504.24665680824967
351.8927,475.1530024497956
354.0895,458.8701345819543
356.2856,445.89788778964305
358.4812,427.636092069078
360.6763,429.73457295749733
362.8707,424.44315171577784
365.0646,420.9116453074514
367.258,427.3398664516184
369.4508,429.5276236582645
371.643,452.37472116397566
373.8346,465.630958910063
376.0257,510.9961323140899
378.2162,513.8200321373108
380.4062,525.3024440310194
382.5956,486.8931485083092
384.7844,467.3919208292498
386.9726,413.34853138497897
389.1603,401.31274589271607
391.3474,371.484325936196
393.5339,380.0630290860274
395.7199,383.9486091979761
397.9052,413.74081632717775
400.09,439.63939668928265
402.2743,484.34409236253305
404.4579,521.7046410287778
406.641,544.0207755264266
408.8235,585.3422234768411
411.0054,633.2687070611776
413.1868,691.0999426071689
415.3675,745.1356401098631
417.5477,724.4755026533085
419.7273,655.2692258701975
421.9064,564.8664981484692
424.0848,528.2170013233692
426.2627,458.97041158147954
428.4399,402.1763998272122
430.6166,349.4346323752741
432.7928,285.2447715186097
434.9683,252.05647605581635
437.1432,237.46940193304522
439.3176,202.73320257588261
441.4914,193.2475290352204
443.6645,181.2120303346203
445.8371,183.8263535651679
448.0091,187.7901440058297
450.1806,171.35304509730872
452.3514,170.11469840240784
454.5216,170.37474377039985
456.6913,167.9328193494116
458.8603,173.68856158382323
461.0288,178.79160523868723
463.1967,172.34158334217204
465.3639,173.8381271345295
467.5306,164.93086613259652
469.6967,155.3194281148294
471.8622,151.55343921037593
474.0271,143.4325239951902
476.1914,137.7063055296942
478.3551,142.77440543998318
480.5182,137.93644397509092
482.6807,144.44203995630824
484.8426,166.74081082556108
487.0039,198.33237258035615
489.1647,234.56633955079178
491.3248,289.69232408364405
493.4843,300.6599361800254
495.6432,296.6687829441262
497.8015,271.4684684735371
499.9592,217.45859389916131
502.1163,166.38875763721694
504.2728,129.45855592933708
506.4287,95.56758335326776
508.5839,87.51543319216921
510.7386,80.25169777352698
512.8927,89.42596854967223
515.0461,90.6878361704189
517.199,104.03689039132178
519.3512,144.1727200610585
521.5029,206.54491298793891
523.6539,263.5030555385458
525.8043,275.64673201401365
527.9541,218.97552408044726
530.1033,157.13901064748393
532.2519,107.93676843500725
534.3999,80.51837259151011
536.5472,71.13339718611837
538.694,77.1314154827744
540.8401,98.26200003408667
542.9856,120.52472262135007
545.1305,131.66915404324072
547.2748,143.64486389318722
549.4185,147.1514204479272
551.5615,156.4383905477505
553.704,178.80533956143267
555.8458,206.55183129336592
557.987,217.47742775988922
560.1276,235.98168891182377
562.2675,286.3641725252164
564.4069,346.7744340162976
566.5456,389.4620259376561
568.6837,362.07649737413703
570.8212,299.5673935159664
572.958,240.0342559326043
575.0942,184.1766231978395
577.2299,158.7440314851167
579.3648,124.48601512611708
581.4992,113.90210686508044
583.6329,113.34183820138696
585.766,159.00473949539673
587.8985,193.34033997405072
590.0304,229.29816727424395
592.1616,260.72774709946793
594.2922,246.078602860234
596.4222,213.70025535977493
598.5515,169.0922229405396
600.6802,116.95402180797396
602.8083,76.0851664766019
604.9358,65.93517029140799
607.0626,70.95354583652465
609.1888,73.9898050367342
611.3144,105.69345910728339
613.4393,143.41401852352215
615.5636,193.0509927038661
617.6873,237.70388963259234
619.8103,266.7722153634679
621.9327,259.75547357322284
624.0544,222.20316527086425
626.1756,178.46478886784507
628.2961,136.43984055358692
630.4159,117.87781473286464
632.5351,115.42820444605582
634.6537,103.49050155475902
636.7716,90.26419676629166
638.8889,85.04877975306727
641.0056,87.44373928485652
643.1216,102.04856328094274
645.237,106.6127387861718
647.3518,81.78575182490499
649.4659,66.41708735537622
651.5793,46.656229517962174
653.6922,32.20266178886982
655.8043,25.905867177742948
657.9159,19.5153283722002
660.0268,17.930527800801883
662.137,12.500947696954881
664.2466,11.776070114760842
666.3556,18.9553769833135
668.4639,10.388350113945307
670.5716,5.874471128436653
672.6786,0.5132215446840291
674.785,-5.395917178160062
676.8907,-5.003468708025821
678.9958,1.2400971923684665
681.1002,-1.5156392550436522
683.204,-12.771110216900752
685.3072,-1.426732718606445
687.4097,-4.13279620217304
689.5115,-0.7395758565546657
691.6127,-5.747305584072137
693.7132,-20.456211898684728
695.8131,-7.116463898769098
697.9123,15.521973674854735
700.0109,11.759207174840867
702.1089,25.195342798623642
704.2061,39.68048662604588
706.3028,66.51474448499778
708.3987,79.14822180656472
710.4941,83.53102335668586
712.5887,99.71325310981729
714.6827,97.54501420510485
716.7761,92.0264087845635
718.8688,90.607538014758
720.9608,88.78850214198974
723.0522,110.06940050648473
725.1429,130.50033156058475
727.233,179.73139265593693
729.3224,242.76267983918638
731.4112,291.39428735966544
733.4993,288.7263070390792
735.5867,235.80882778519197
737.6735,171.69193561850386
739.7596,122.67571420142838
741.845,106.7102454794591
743.9298,96.19561017133265
746.014,99.83188792868441
748.0974,118.31915744119408
750.1802,106.10749640022232
752.2624,100.24698131393916
754.3439,97.53768762944003
756.4247,94.27968979135187
758.5048,100.07306126892502
760.5843,116.86787458861272
762.6631,148.76420127613778
764.7413,203.2121116885453
766.8188,291.2616746952382
768.8956,370.11295713349887
770.9718,434.5160229279935
773.0473,419.4709323022606
775.1221,401.62774113467776
777.1962,396.23650110891333
779.2697,446.0472598923591
781.3426,531.2600611900418
783.4147,583.7249442465162
785.4862,574.5419429937366
787.557,469.36108552640894
789.6271,359.08239419382005
791.6966,255.50588665164673
793.7654,164.58157696474234
795.8335,126.90947664290297
797.901,94.03959555010897
799.9678,88.021942281247
802.0339,96.60652449080806
804.0993,81.34334895306495
806.1641,60.53242147622507
808.2282,63.52374705506281
810.2916,52.11733007902944
812.3544,42.26317430233928
814.4164,28.06128295803387
816.4778,41.56165885652342
818.5385,51.71430452760603
820.5986,86.01922208546364
822.658,136.37641312713595
824.7166,205.38587838946944
826.7747,286.6976172455486
828.832,362.6616270145987
830.8886,413.2779021488693
832.9446,439.0464334739944
834.9999,408.3672076828291
837.0545,340.94020707776406
839.1085,255.5654098775192
841.1618,197.84279089141216
843.2143,145.52232237310716
845.2662,108.70397459784215
847.3175,100.68771638563055
849.368,96.37351546944717
851.4179,84.76133857539003
853.467,96.70115146582282
855.5155,100.99291905549558
857.5633,103.18660529214787
859.6105,102.63217311358994
861.6569,85.629584425767
863.7027,76.8788001083035
865.7478,68.77978018452882
867.7922,56.48248390898436
869.8359,52.886869848414335
871.8789,43.54289600473817
873.9212,51.15051985100774
875.9629,59.35969842484576
878.0039,79.52038825237014
880.0441,90.48254526610219
882.0837,110.79612460336091
884.1226,134.11108049663892
886.1609,170.72736607046863
888.1984,214.79493310827206
890.2352,260.66373168619725
892.2714,270.53370973244364
894.3069,247.45481256857374
896.3416,193.3269828108132
898.3757,159.30016060083938
900.4091,155.97428414706087
902.4418,150.99929006488514
904.4739,155.92511340997635
906.5052,171.0516877280063
908.5358,170.1789450053957
910.5658,151.306815518049
912.595,112.83522784008187
914.6236,90.164109032542
916.6515,64.44338502812536
918.6786,39.82298085788784
920.7051,28.952820908451486
922.7309,35.18282916820897
924.756,39.86292933602533
926.7804,47.99304475893757
928.8041,59.57309838535343
930.8272,83.35301268375099
932.8495,85.3827095268781
934.8711,100.71210995395165
936.892,115.69113415036259
938.9123,139.76970129438087
940.9318,147.49772940736602
942.9506,164.37513511298084
944.9688,160.55183355991164
946.9862,131.97773825309355
949.003,104.65276109194338
951.019,85.47681265610072
953.0344,69.3498024786785
955.0491,53.4216392380215
957.063,58.84223091897718
959.0763,48.611484972177436
961.0888,45.32930825983249
963.1007,58.79560715803768
965.1119,47.060287589595646
967.1223,52.673254889352734
969.1321,45.38441392155289
971.1412,37.593669023708
973.1495,38.35092407948673
975.1572,38.60608259662149
977.1641,49.759047699335724
979.1704,42.85972212579179
981.1759,49.70800811656272
983.1808,38.653807483624405
985.1849,36.5970215418738
987.1884,31.087551219669876
989.1911,48.82529707940239
991.1932,38.21015937258528
993.1945,45.94203786248022
995.1951,46.870831930247505
997.1951,51.346440497627555
999.1943,49.66876201765251
1001.1928,49.587694429890234
1003.1906,67.40313517722166
1005.1877,85.41498120665119
1007.1841,109.17312879115264
1009.1798,122.92747334955027
1011.1748,101.62790920893758
1013.1691,89.4243294671337
1015.1627,69.11662620567893
1017.1556,38.90469061187093
1019.1477,24.038413181841292
1021.1392,13.767684022675098
1023.1299,6.192393001073128
1025.12,11.462429846059763
1027.1093,15.377684224735958
1029.0979,34.588045689579076
1031.0859,50.193403639289954
1033.0731,59.14364712668976
1035.0596,67.6886647026655
1037.0454,58.12834432666841
1039.0304,50.26257328126292
1041.0148,22.04123826773025
1042.9985,11.014225484726126
1044.9814,5.4814209104943075
1046.9636,12.442710413136638
1048.9452,16.497979805940872
1050.926,36.74711477776907
1052.9061,49.79000085250266
1054.8855,48.07652318655255
1056.8642,45.25656643843013
1058.8421,51.280014785881576
1060.8194,45.846751954087495
1062.7959,49.35666115542949
1064.7717,57.70962514382177
1066.7469,46.05552617961257
1068.7213,58.94424594605425
1070.695,73.8256656658441
1072.6679,91.3996659722377
1074.6402,122.86612676023435
1076.6117,117.92492701083722
1078.5826,106.02594447638853
1080.5527,65.61905572998126
1082.5221,40.504136284449714
1084.4908,17.781060996437418
1086.4587,-2.8502956824519288
1088.426,2.4599405215745946
1090.3925,-6.288327643236016
1092.3584,13.304802546764677
1094.3235,21.389296635617598
1096.2879,34.61512003431642
1098.2515,66.88223793996201
1100.2145,88.29061520350467
1102.1767,125.69021600707208
1104.1382,167.28100364988654
1106.099,210.01294017426835
1108.0591,261.2359859497284
1110.0185,294.55009924564854
1111.9771,340.20523571905176
1113.9351,383.8013480814607
1115.8923,431.288385642345
1117.8488,449.4662938731624
1119.8045,394.3850139324861
1121.7596,311.5944824842272
1123.7139,229.2446322484467
1125.6675,179.3853928292608
1127.6204,188.1166915383402
1129.5726,187.93845389350156
1131.524,195.7006035313948
1133.4748,158.85306220928555
1135.4248,101.94574972743385
1137.3741,66.87858429756898
1139.3226,44.55148311196331
1141.2705,49.364362694103306
1143.2176,60.66713912196133
1145.164,56.50972797986651
1147.1097,56.04204424547652
1149.0546,39.01400233135166
1150.9989,16.225516089632492
1152.9424,15.476498982319754
1154.8852,-6.883135690840277
1156.8272,-19.253474784866285
1158.7686,-15.134536392251334
1160.7092,-5.376146263275359
1162.6491,-1.0779789542007165
1164.5883,7.960344686411418
1166.5267,19.239214579009058
1168.4644,43.75902056443749
1170.4014,84.32015229115018
1172.3377,118.02299897001092
1174.2732,175.21794896868266
1176.2081,267.20538947459795
1178.1421,380.38570592301016
1180.0755,477.55928107711895
1182.0082,529.426493896267
1183.9401,485.9377185642046
1185.8713,394.44332397041717
1187.8017,285.49367414501364
1189.7315,184.58912917366945
1191.6605,124.38004628712406
1193.5888,101.56678087022544
1195.5163,62.44968706402199
1197.4432,50.02911799389415
1199.3693,36.75542616072596
1201.2947,25.828963565110598
1203.2193,17.100081840087
1205.1432,15.86913236040516
1207.0664,13.936466329814607
1208.9889,11.702434793373982
1210.9106,21.917388656777348
1212.8316,26.431678708694676
1214.7519,36.345655518621925
1216.6715,41.55966939173925
1218.5903,71.47407026977032
1220.5084,80.5392076788429
1222.4257,92.05543043034379
1224.3424,99.47308653026823
1226.2583,124.04252306405692
1228.1735,155.06408612241967
1230.0879,183.38812055564142
1232.0016,229.5649696633668
1233.9146,264.2949749113591
1235.8269,285.17847546973235
1237.7384,289.56580786565087
1239.6492,295.9073057744946
1241.5592,317.0032999759861
1243.4686,355.5541182907756
1245.3772,421.16008536948016
1247.285,500.2215223071761
1249.1922,575.0387459873393
1251.0986,652.7620682912302
1253.0042,719.9417953497218
1254.9092,788.5782267660675
1256.8134,859.4216549441023
1258.7169,925.7723644018795
1260.6196,923.5806310632371
1262.5216,936.7467215942884
1264.4229,912.4708934253414
1266.3234,886.6533946192374
1268.2232,850.7444641141088
1270.1223,817.4443319815547
1272.0207,782.3032197857294
1273.9183,764.8713409163447
1275.8151,774.2989009400801
1277.7113,813.3360977749021
1279.6067,903.3331215957885
1281.5014,1037.1401544443565
1283.3953,1192.7573693288923
1285.2885,1334.584928886282
1287.181,1436.6729838258361
1289.0727,1465.9216715110192
1290.9637,1438.4811149385641
1292.854,1372.901422445987
1294.7435,1276.182687985995
1296.6323,1199.524991782279
1298.5204,1128.028401296704
1300.4077,1059.392971995887
1302.2943,1017.9687480661601
1304.1802,987.8057630999268
1306.0653,956.4540405099034
1307.9497,924.1635938307484
1309.8333,878.2844270325809
1311.7162,846.9165348438836
1313.5984,805.7599032102953
1315.4798,799.7145096082902
1317.3605,780.5803234567434
1319.2405,783.607306177385
1321.1197,752.1954113861428
1322.9982,683.4945848628713
1324.876,625.4047648654713
1326.753,540.9258828168985
1328.6293,470.85786388606084
1330.5048,391.85062783260764
1332.3796,333.50408970760975
1334.2537,293.6681606436324
1336.127,269.0427484382004
1337.9996,246.8277579521564
1339.8714,226.6730913559162
1341.7426,219.17864835161834
1343.6129,202.5943263746707
1345.4826,194.17002066869486
1347.3515,183.8056244513699
1349.2196,174.90102899867452
1351.087,176.35612374853156
1352.9537,170.07079638985397
1354.8197,177.894932847993
1356.6849,185.97841734759265
1358.5493,207.72113233434754
1360.4131,228.12295839416845
1362.276,261.43377403575585
1364.1383,300.8534554865802
1365.9998,306.0818763597747
1367.8606,297.2689072599385
1369.7206,285.7144157308528
1371.5799,280.36826634360955
1373.4384,274.1803208121571
1375.2962,252.00043804676193
1377.1533,201.42847421588715
1379.0096,152.6142829679917
1380.8652,127.1077159372503
1382.7201,104.85862323169442
1384.5742,87.81685368827902
1386.4275,84.93225509537297
1388.2802,57.85467436317697
1390.132,46.58395755256879
1391.9832,45.76995014587999
1393.8336,34.96249715960289
1395.6832,30.21144315253082
1397.5322,26.666632333832467
1399.3803,14.077908610562417
1401.2278,5.895115623109177
1403.0745,-1.4319031289180657
1404.9204,-0.603304204860251
1406.7656,-6.969229859346797
1408.6101,4.52018368000131
1410.4538,-2.2351301918300805
1412.2968,-7.135238125057072
1414.139,3.3698155590547003
1415.9805,9.88005782026812
1417.8213,19.495515584648047
1419.6613,40.36621567945883
1421.5006,69.44218473701005
1423.3391,106.17344898594945
1425.1769,145.4600339605032
1427.0139,215.151964133163
1428.8502,285.3492625218207
1430.6858,346.35194999284863
1432.5206,377.710044559127
1434.3547,380.9235607700166
1436.188,356.7425093977779
1438.0206,343.4668974054365
1439.8524,330.9967281885929
1441.6835,332.7820017081783
1443.5139,337.1727146151575
1445.3435,338.9188602326751
1447.1724,342.4204285121491
1449.0005,344.9274060158085
1450.8279,342.7397758816787
1452.6545,338.05751779851084
1454.4804,344.5306080276587
1456.3056,327.25901944990096
1458.13,314.7927215007107
1459.9536,291.53168034297073
1461.7766,268.27585899163694
1463.5987,231.6252175463485
1465.4202,199.5797134239864
1467.2409,172.63930172517905
1469.0608,141.05393555475854
1470.88,111.97356629116325
1472.6984,91.99814390229221
1474.5161,79.92761723630923
1476.3331,66.36193422139655
1478.1493,61.85104198646064
1479.9648,72.39488699678873
1481.7795,62.69341509915762
1483.5935,64.04657141639598
1485.4067,73.95430044439831
1487.2192,68.4665460385936
1489.031,66.33325131486839
1490.842,74.95435870444362
1492.6522,68.07980997520798
1494.4618,70.35954614550673
1496.2705,64.39350755288723
1498.0785,57.03163383130169
1499.8858,59.12386397076716
1501.6924,53.42013639098468
1503.4981,47.77038892041702
1505.3032,51.22455885332573
1507.1075,46.28258300626851
1508.911,39.09439768355759
1510.7138,34.05993872667966
1512.5159,24.929141586177707
1514.3172,29.901941371995576
1516.1178,28.028272944785783
1517.9176,27.708070866181686
1519.7166,22.591269417533795
1521.515,14.577802603112332
1523.3126,15.667604201275253
1525.1094,13.760607844602248
1526.9055,14.306747008997604
1528.7008,6.105955032759425
1530.4954,-1.3918348888810783
1532.2893,5.063310378247763
1534.0824,9.321337872748245
1535.8747,8.782194582589455
1537.6663,7.995827402527709
1539.4572,8.212183139497313
1541.2473,8.481208520474695
1543.0367,13.552850190314473
1544.8253,16.827054709059496
1546.6132,25.053768501224113
1548.4003,28.83293782305219
1550.1867,41.81450868025007
1551.9723,43.54842679019475
1553.7572,67.68463745211818
1555.5414,84.97308552976858
1557.3247,108.91371521004805
1559.1074,135.95646983012796
1560.8893,176.85129163804277
1562.6705,212.6981215222624
1564.4509,232.2968986027439
1566.2305,239.2475598724634
1568.0094,246.30004000142827
1569.7876,243.4542712671702
1571.565,234.36018348422107
1573.3417,245.2177040325701
1575.1176,241.92675794860497
1576.8928,263.63726781653634
1578.6672,283.0991538013079
1580.4409,305.41233343149054
1582.2138,334.526721404664
1583.986,361.44222936428474
1585.7575,402.15876560854275
1587.5282,431.17623482120564
1589.2981,450.0945376644535
1591.0673,471.6635704887045
1592.8358,477.88322514343173
1594.6035,477.8033887614723
1596.3704,477.1739436968317
1598.1366,464.6947675254816
1599.9021,452.11573305165444
1601.6668,442.1867084326353
1603.4308,429.3575573045518
1605.194,437.5781388816647
1606.9564,467.6983080846597
1608.7182,521.1679154584409
1610.4791,591.3868068709297
1612.2394,681.8048229783685
1613.9988,748.4217985231312
1615.7576,810.1875614295441
1617.5156,815.7019321377154
1619.2728,783.214722985878
1621.0293,707.5257381552451
1622.785,615.6347739948837
1624.54,507.8416197786025
1626.2942,431.24605862386335
1628.0477,342.597868569712
1629.8005,283.04682334273355
1631.5525,232.59269324353437
1633.3037,192.58524574225316
1635.0542,165.9242459831015
1636.804,140.65945718443868
1638.553,125.39064090538187
1640.3013,109.01755729845348
1642.0488,93.43996526227
1643.7955,81.40762260527202
1645.5416,71.42028620150074
1647.2868,68.87771211092115
1649.0313,63.729655679295604
1650.7751,64.77587156360926
1652.5181,66.31611378355097
1654.2604,66.05013571105098
1656.0019,71.92769005487872
1657.7427,92.44852886330233
1659.4828,108.86240346531304
1661.222,136.51906426541711
1662.9606,154.2182605794968
1664.6984,181.90974035824388
1666.4354,188.14325001016755
1668.1717,157.21853412467988
1669.9072,123.43533540976063
1671.642,96.24339500120414
1673.3761,67.59245280045155
1675.1094,47.532247746510166
1676.8419,37.412518102462855
1678.5737,26.28300165607007
1680.3048,16.843435820967414
1682.0351,14.893557747960415
1683.7646,13.68310441942046
1685.4934,9.061812668783631
1687.2215,3.629419192655007
1688.9488,7.985660597021706
1690.6754,0.33027345157677246
1692.4012,0.4129942461566145
1694.1263,4.23355946729518
1695.8506,-2.3082944026035648
1697.5742,-2.3128309234710116
1699.297,-1.3302905953775905
1701.0191,1.2391091867869761
1702.7404,0.04516431773589602
1704.461,-1.5623293202084483
1706.1808,-3.583575845175176
1707.8999,-3.7187637676236704
1709.6182,2.0819542019092125
1711.3358,-8.331537496663373
1713.0527,0.5906455557523316
1714.7688,-3.1015289896903937
1716.4841,-0.75809348774456
1718.1987,-1.4790493088887047
1719.9126,5.085609749752365
1721.6257,0.03590466675663606
1723.338,-2.8281436301539884
1725.0496,0.34348578638349636
1726.7605,-2.199157903113303
1728.4706,2.8939744784386505
1730.18,-1.9270459222903753
1731.8886,4.237852012430437
1733.5964,1.488758651520385
1735.3036,4.9257643215204325
1737.0099,3.198959334083952
1738.7156,3.258433951606804
1740.4204,6.254278404495295
1742.1246,4.786582890571452
1743.8279,7.605437545114967
1745.5306,7.010932455539717
1747.2325,7.103157633205427
1748.9336,8.882203019362521
1750.634,6.648158484229953
1752.3336,4.9511138092046565
1754.0325,9.541158709202136
1755.7307,16.968382849626778
1757.4281,14.032875800471487
1759.1247,18.28472696204554
1760.8206,19.72402559432956
1762.5158,14.200860774457112
1764.2102,18.215321382321576
1765.9039,18.067496155807646
1767.5968,14.957473650647017
1769.289,16.385342241896524
1770.9804,19.60119015503821
1772.6711,20.005105451700757
1774.361,23.547175997501085
1776.0502,24.27748945800505
1777.7386,22.596133263306797
1779.4263,18.103194600725544
1781.1132,18.848760431619297
1782.7994,20.582917536314312
1784.4849,20.70575250664919
1786.1696,18.06735172863361
1787.8535,22.767801381219698
1789.5367,24.50718746268609
1791.2192,26.435595743633513
1792.9009,24.503111749590886
1794.5818,28.109820741731312
1796.2621,23.455807736196846
1797.9415,24.79115746803143
1799.6202,28.01595443772115
1801.2982,28.330282897840533
1802.9755,27.834226820804588
1804.6519,28.77786989572573
1806.3277,24.911295533374044
1808.0027,27.384586856741038
1809.6769,27.64782673970538
1811.3504,27.851097782299917
1813.0231,30.29448230807924
1814.6951,27.978062362087087
1816.3664,29.051919686422423
1818.0369,24.416135743403657
1819.7067,30.570791704830157
1821.3757,33.16596849833999
1823.044,30.85174674586341
1824.7115,30.828206737671167
1826.3783,29.69542845551652
1828.0443,27.703491572870774
1829.7096,28.902475466250905
1831.3741,33.24245923513908
1833.0379,30.623521689992913
1834.701,28.74574130884534
1836.3633,30.65919626349435
1838.0248,31.063964438280465
1839.6856,35.81012341095234
1841.3457,34.74775044861906
1843.005,32.07692246028853
1844.6636,37.99771600749119
1846.3214,31.51020733098838
1847.9785,33.46447229156428
1849.6349,34.36058643490105
1851.2904,35.04862497203615
1852.9453,33.728662770401286
1854.5994,36.15077434694197
1856.2528,34.265033881317265
1857.9054,32.92151519167851
1859.5572,31.97029175352671
1861.2083,34.81143671314791
1862.8587,38.195022897125256
1864.5084,40.171122783927586
1866.1572,37.78980847007361
1867.8054,41.75115165037096
1869.4528,39.455223641729134
1871.0994,33.002095343546216
1872.7453,33.941837260668024
1874.3905,35.47451956791956
1876.0349,39.00021210070739
1877.6786,32.26898433969296
1879.3215,40.08090537553565
1880.9637,38.08604397620505
1882.6051,35.33446850886173
1884.2458,40.62624695980587
1885.8858,37.661446961992965
1887.525,35.940135742116226
1889.1634,39.162380150254336
1890.8011,36.27824667708471
1892.4381,34.83780142166097
1894.0743,36.44111012025439
1895.7098,34.73823816075834
1897.3446,39.17925056665524
1898.9786,40.764212014045114
1900.6118,39.043186787235484
1902.2443,39.71623876289178
1903.8761,36.13343142724756
1905.5071,33.344827869374114
1907.1374,37.75049081700854
1908.7669,37.20048266443963
1910.3957,36.24486542845139
1912.0237,39.133700753822936
1913.651,32.06704992288485
1915.2776,34.394973826630704
1916.9034,37.36753303538376
1918.5285,40.18478777551758
1920.1528,37.99679789973041
1921.7764,40.20362285887279
1923.3992,37.45532172382728
1925.0213,40.751953163440305
1926.6427,36.24357547200506
1928.2633,30.580246536295277
1929.8832,31.312023880648923
1931.5023,34.48896472360151
1933.1207,34.86112597056848
1934.7383,43.27856418207557
1936.3552,36.44133557003741
1937.9714,33.84949591358304
1939.5868,33.15310062742816
1941.2015,35.50220478779367
1942.8154,41.8968631393694
1944.4286,33.53713007182334
1946.041,35.4730595558548
1947.6528,32.05470522679187
1949.2637,35.83212036523207
1950.8739,33.15535793122589
1952.4834,36.22447052650281
1954.0921,38.13951042123864
1955.7001,32.95052952336462
1957.3074,30.807579359417076
1958.9139,33.96071112642689
1960.5197,35.95997571334938
1962.1247,30.05542366953273
1963.729,32.19710518472536
1965.3325,28.43507014812164
1966.9353,33.61936812694488
1968.5374,33.35004840406782
1970.1387,32.42715992616962
1971.7393,29.500751306429038
1973.3392,28.4208708337532
1974.9383,27.38756650204178
1976.5366,31.90088602098578
1978.1342,32.41087682640071
1979.7311,32.51758603509312
1981.3273,31.871060439760925
1982.9227,32.37134650792629
1984.5173,33.71849038840074
1986.1112,32.762537906282375
1987.7044,27.10353454948452
1989.2968,31.041525478295043
1990.8885,32.17655558196654
1992.4795,28.85866943933641
1994.0697,30.887911307476372
1995.6592,29.864325154871636
1997.2479,31.28795464112828
1998.8359,30.80884312720923
2000.4232,30.77703366119792
2002.0097,27.042568983089353
2003.5955,25.25549152510831
2005.1805,26.265843449053918
2006.7648,30.473666664170423
2008.3484,32.62900281704381
2009.9312,32.38189324952339
2011.5133,31.83237897716839
2013.0946,28.380500691719305
2014.6752,28.42629876659271
2016.2551,26.81981329140028
2017.8342,30.311084071490782
2019.4126,28.550150644014906
2020.9902,23.787052243012525
2022.5672,25.371827817022023
2024.1433,26.204516076711315
2025.7188,28.38515547903009
2027.2935,24.86378421888287
2028.8674,29.59044020732273
2030.4406,29.865161106764987
2032.0131,27.98798428372055
2033.5849,27.108946806048863
2035.1559,24.02808546172959
2036.7261,30.995436767653047
2038.2957,31.411037000428678
2039.8645,29.324922126711698
2041.4325,28.38712779904688
2042.9998,28.297689376729835
2044.5664,25.156641935185036
2046.1323,26.314020266860055
2047.6974,26.16985891263613
2049.2617,24.724192150254368
2050.8254,27.227053995757316
2052.3883,25.72847821794575
2053.9504,26.228498313349945
2055.5118,29.02714752121537
2057.0725,27.57445881850262
2058.6325,32.970464891900804
2060.1917,34.765198152354486
2061.7502,34.35869068110367
2063.3079,31.55097421173633
2064.8649,37.84208013425355
2066.4212,35.38203952314669
2067.9767,36.92088307448641
2069.5315,42.50864113052296
2071.0856,35.49534366429782
2072.6389,34.9310202237662
2074.1915,34.965700001929804
2075.7433,33.19941184248029
2077.2945,29.53218423945225
2078.8448,33.06404535488633
2080.3945,26.79502305550139
2081.9434,27.82514487737579
2083.4916,27.60443808863775
2085.039,24.882929679164008
2086.5857,26.710646362787045
2088.1317,27.83761460451001
2089.677,27.813860602229624
2091.2215,24.989410275466582
2092.7652,31.66428926560289
2094.3083,27.988522964126517
2095.8506,25.41213644588254
2097.3921,35.38515450583094
2098.933,28.107601684810305
2100.4731,26.079502169807753
2102.0124,28.050879866734462
2103.5511,27.521758420706618
2105.089,24.84216119633166
2106.6261,24.61211128299945
2108.1626,25.83163152167836
2109.6983,25.7507445072156
2111.2332,29.419472576142226
2112.7675,21.437837807481856
2114.301,25.905861986063485
2115.8337,24.823566682337656
2117.3657,28.290973207696453
2118.897,26.908102625296223
2120.4276,28.374975715383627
2121.9575,30.391612989124354
2123.4866,26.60803467393437
2125.0149,25.324260693313633
2126.5426,26.340310704681727
2128.0695,25.206204112215673
2129.5956,24.321960056689477
2131.1211,19.237597426815185
2132.6458,23.503134868085198
2134.1698,21.918590833615923
2135.693,27.5839835414924
2137.2155,28.199330990613873
2138.7373,26.314650904039766
2140.2584,23.87996072283626
2141.7787,22.34527762492303
2143.2983,20.660618549420107
2144.8171,19.7760002119948
2146.3353,23.99143912170821
2147.8527,23.10695158986141
2149.3693,26.322553687841136
2150.8853,26.888261255964565
2152.4005,25.054089871323384
2153.9149,25.42005484212676
2155.4287,24.836171226042993
2156.9417,25.35245382653983
2158.454,25.018917198723443
2159.9655,25.635575644175333
2161.4764,25.552443214287948
2162.9865,21.31953370409802
2164.4958,22.0368606531179
2166.0045,26.304437387664578
2167.5124,25.122277013686485
2169.0195,20.390392374087767
2170.526,22.858796060549835
2172.0317,25.777500460850177
2173.5367,24.196517734178414
2175.0409,27.615859781949098
2176.5445,20.785538263611755
2178.0473,19.705564562457354
2179.5494,19.92594985392158
2181.0507,20.34670511638447
2182.5513,24.86784112896666
2184.0512,22.489368467321768
2185.5504,21.261297458425105
2187.0488,22.58363820435828
2188.5465,25.956400594589937
2190.0435,19.179594292752313
2191.5397,17.603228702913626
2193.0353,19.927313037346195
2194.5301,24.70185633229009
2196.0241,18.376867424712202
2197.5175,19.90235490456091
2199.0101,21.928327178015962
2200.502,18.354792452233553
2201.9931,19.78175871508664
2203.4835,15.30923377090025
2204.9733,16.987225226182048
2206.4622,20.91574053434728
2207.9505,17.29478697893896
2209.438,22.374371634342822
2210.9248,17.554501401996745
2212.4109,19.1351829595949
2213.8962,23.166422809286573
2215.3809,17.048227261869172
2216.8648,21.68060239647589
2218.3479,17.213554121757667
2219.8304,16.797088129559498
2221.3121,17.631209939590846
2222.7931,18.76592490359036
2224.2733,19.151238196984607
2225.7529,14.787154807541029
2227.2317,14.273679531514716
2228.7098,18.61081701728925
2230.1872,18.098571770511498
2231.6638,15.53694811072009
2233.1397,15.625950176468052
2234.6149,16.815581950939034
2236.0894,15.605847261057164
2237.5632,16.29674976559079
2239.0362,12.48829296724972
2240.5085,14.580480205776368
2241.9801,12.323314696030195
2243.4509,15.516799507065826
2244.921,13.560937584704817
2246.3904,15.405731719600709
2247.8591,15.551184566797744
2249.3271,14.847298627282996
2250.7943,15.244076246531677
2252.2608,10.591519621546055
2253.7266,13.089630796887604
2255.1917,12.388411711202636
2256.656,15.287864172241242
2258.1197,12.737989863869387
2259.5826,10.83879031707454
2261.0447,11.890266935464368
2262.5062,8.692421014258656
2263.9669,14.345253729774555
2265.4269,11.948766171405097
2266.8862,12.952959285090856
2268.3448,11.257833897284925
2269.8026,10.413390704910725
2271.2598,9.169630292313386
2272.7162,11.726553139704151
2274.1719,12.234159635598118
2275.6268,15.392450051244921
2277.0811,13.301424535552599
2278.5346,10.611083083504695
2279.9874,14.371425557070594
2281.4395,10.682451712108815
2282.8908,10.244161160763653
2284.3414,14.756553408354876
2285.7914,9.619627857760662
2287.2406,14.383383764293697
2288.689,14.247820287070283
2290.1368,12.562936441373026
2291.5838,9.428731100006345
2293.0302,11.0452030101454
2294.4758,9.362350824678131
2295.9206,8.630173086040585
2297.3648,8.998668243045273
2298.8082,12.167834658203034
2300.251,12.587670604038067
2301.693,11.358174231396191
2303.1343,9.229343565246609
2304.5748,12.401176516976747
2306.0147,8.773670905680689
2307.4538,8.946824426440685
2308.8922,10.020634686602236
2310.3299,10.545099204042828
2311.7669,9.970215396433744
2313.2031,11.695980575995321
2314.6387,14.422391955245757
2316.0735,9.449446629743647
2317.5076,7.677141550823549
2318.941,9.155473575325729
2320.3737,10.684439483318997
2321.8056,13.014035963317482
2323.2369,10.594259596990923
2324.6674,12.025106835868755
2326.0972,18.506574025537745
2327.5263,16.988657391333604
2328.9547,21.77135297352619
2330.3823,20.054656642498898
2331.8092,15.28856405092155
2333.2355,14.423070650917651
2334.661,13.75817174172498
2336.0858,9.89386247835077
2337.5098,7.2801378782205575
2338.9332,6.166992859821306
2340.3558,7.104422268838576
2341.7778,10.342420889288093
2343.199,11.430983434141282
2344.6195,7.870104512945545
2346.0393,9.50977862093842
2347.4583,7.550000174656461
2348.8767,8.840763495538496
2350.2943,11.682062829523417
2351.7113,7.323892334142485
2353.1275,9.366246050106312
2354.543,5.359117944886648
2355.9578,10.202501892292815
2357.3718,7.19639171254309
2358.7852,7.440781123830689
2360.1978,9.385663772385016
2361.6098,9.681033230027651
2363.021,6.526882974723577
2364.4315,5.223206387627414
2365.8413,6.119996784625073
2367.2504,8.467247429370431
2368.6587,4.264951524317411
2370.0664,9.513102187247569
2371.4733,4.2616924932929265
2372.8795,6.06071542245455
2374.285,12.410163912116602
2375.6899,9.2600308390561
2377.0939,7.860308955948511
2378.4973,11.460990922868916
2379.9,3.9120693212893656
2381.3019,9.463536618072013
2382.7032,5.965385240958312
2384.1037,4.817607523054463
2385.5035,3.6201957378128498
2386.9027,5.223142110509798
2388.3011,2.1264388302197545
2389.6987,8.480078033785787
2391.0957,5.934051836786523
2392.492,7.08835226999993
2393.8876,5.192971304863406
2395.2824,3.9979008419308713
2396.6765,7.553132729826501
2398.07,8.558658777195546
2399.4627,6.1144707171519315
2400.8547,8.120560197223057
2402.246,7.676918803791622
2403.6366,3.6335380420347434
2405.0265,1.890409340360364
2406.4156,3.847524090841077
2407.8041,6.154873666645429
2409.1918,5.0624494024667115
2410.5789,7.0702425714495405
2411.9652,5.228244396114022
2413.3508,5.136446028277902
2414.7358,6.0948385674764864
2416.12,1.6534130618806557
2417.5035,2.4621604987129615
2418.8863,9.22107184866185
2420.2684,7.8301380577942865
2421.6497,5.389349979966511
2423.0304,5.548698390733449
2424.4104,2.908174011756529
2425.7896,2.0177675092102447
2427.1682,6.627469520187418
2428.546,-0.9627293383967981
2429.9232,2.697161484098089
2431.2996,2.807142155978653
2432.6753,6.217212818579867
2434.0503,4.72737358516531
2435.4246,7.587624506826529
2436.7982,7.547965587381327
2438.1711,3.0083967547713115
2439.5433,5.218917861458465
2440.9148,2.3295287298208223
2442.2856,2.890229130047274
2443.6557,2.651018809031399
2445.025,4.611897484764597
2446.3937,5.172864848728068
2447.7617,1.3339205462840766
2449.1289,2.195064171066278
2450.4955,3.756295303369157
2451.8613,1.3176135015366413
2453.2265,2.479018286349671
2454.5909,5.440509165413133
2455.9546,0.4020856215417581
2457.3177,1.6137470831452276
2458.68,4.775492974612334
2460.0416,1.1373227041944887
2461.4025,5.849235632388243
2462.7627,3.711231108316838
2464.1222,5.3733084226112595
2465.4811,7.085466828790231
2466.8392,4.897705526639356
2468.1966,0.11002364508966878
2469.5533,4.9224202640951376
2470.9093,5.03489336447349
2472.2645,9.297440877818303
2473.6191,1.2100606853742875
2474.973,4.022750575411763
2476.3262,8.935508324100496
2477.6787,8.798331667382811
2479.0305,2.1112182518459406
2480.3816,5.2741656360938975
2481.7319,5.937171357618531
2483.0816,0.6502329011700638
2484.4306,5.013347692127034
2485.7789,5.0765131493656455
2487.1264,5.58972664162868
2488.4733,0.2029854868938301
2489.8195,2.266286947241568
2491.165,2.5796282827224886
2492.5097,0.8930067307244087
2493.8538,3.1564195028388156
2495.1972,2.0698638017272373
2496.5398,7.333336798486982
2497.8818,4.946835643516678
2499.2231,5.060357413881711
2500.5637,4.873899137179137
2501.9035,5.387457790402443
2503.2427,6.85103030180619
2504.5812,6.414613545770344
2505.919,3.8282043281646025
2507.256,5.341799390712552
2508.5924,6.855395436855808
2509.9281,4.018989116617995
2511.2631,5.8825770114688325
2512.5974,6.146155662688159
2513.9309,4.159721552730062
2515.2638,2.773271102587124
2516.596,8.486800691654743
2517.9275,2.2003066715956408
2519.2583,4.013785309204515
2520.5884,4.427232849273068
2521.9178,4.490645496455201
2523.2465,6.30401941113243
2524.5745,3.967350708779975
2525.9018,1.7306354418328311
2527.2284,4.243869623052575
2528.5543,2.4570492478944885
2529.8796,2.320170269375204
2531.2041,5.333228615940996
2532.5279,3.6962201928363783
2533.851,6.059140851973702
2535.1735,6.121986408303151
2536.4952,4.434752616183367
2537.8163,4.947435168753223
2539.1366,5.910029714804004
2540.4562,2.172531853652714
2541.7752,2.4849371255160477
2543.0935,6.297241048885404
2544.411,7.3594391174028075
2545.7279,4.421526761737923
2547.0441,6.4834993389659985
2548.3596,8.945352161947085
2549.6744,7.357080478706237
2550.9885,8.068679447815043
2552.3019,3.6801441542742666
2553.6146,4.241469602397942
2554.9266,8.602650759698626
2556.2379,4.813682551274191
2557.5485,2.574559816196029
2558.8585,5.385277345398727
2560.1677,4.945829904071296
2561.4762,8.856212203550001
2562.7841,2.3164189057128723
2564.0913,5.6764445838758775
2565.3977,3.7362837881908035
2566.7035,6.945931012045008
2568.0086,4.055380711463108
2569.313,9.01462727301039
2570.6167,2.0736650426984014
2571.9197,9.332488276392418
2573.222,7.091091209221069
2574.5236,7.299467982988112
2575.8246,5.8576126685864125
2577.1248,2.165519263914156
2578.4244,2.17318170829342
2579.7232,6.830593919391092
2581.0214,5.437749793142288
2582.3189,10.344643157176222
2583.6157,8.351267784744593
2584.9118,9.407617345652689
2586.2072,7.913685426193105
2587.5019,4.419465518582285
2588.7959,8.174951035899866
2590.0893,6.430135347030813
2591.3819,8.185011739110656
2592.6739,6.189573434973539
2593.9652,7.693813575603556
2595.2557,7.847725240089034
2596.5456,10.001301430580199
2597.8348,5.354535070750025
2599.1234,9.057418984258511
2600.4112,8.209945941220298
2601.6983,11.562108621175867
2602.9848,11.063899621566328
2604.2705,6.565311424211679
2605.5556,13.616336400292951
2606.84,7.466966855338114
2608.1237,10.567194958711738
2609.4067,10.817012805108725
2610.689,9.966412383552054
2611.9707,7.465385574894604
2613.2516,5.863924160325155
2614.5319,12.112019846378644
2615.8115,7.659664280950793
2617.0903,12.006848990817154
2618.3685,10.353565426156635
2619.6461,9.249804917079679
2620.9229,7.345558690161106
2622.199,6.740817879477689
2623.4745,9.93557354565062
2624.7493,5.72981668189297
2626.0234,5.7735381820621114
2627.2968,3.566728882717271
2628.5695,8.009379562682334
2629.8415,12.251480965113934
2631.1128,9.643023753074907
2632.3835,7.033998467113328
2633.6535,6.3243955513470596
2634.9228,6.614205379554015
2636.1914,9.853418262268157
2637.4593,6.342024443881428
2638.7265,4.88001407025159
2639.9931,11.967377223816236
2641.259,5.104103938212823
2642.5242,4.690184127405047
2643.7887,4.87560765431563
2645.0525,6.660364334965415
2646.3156,7.5944439366192285
2647.5781,7.177836159938252
2648.8398,1.610530629639257
2650.1009,7.692516898660699
2651.3613,5.173784503835705
2652.6211,7.104322905072273
2653.8801,9.034121510540587
2655.1385,6.16316965736759
2656.3961,5.7914565923390455
2657.6531,5.9689715006090225
2658.9094,4.645703509417082
2660.1651,3.5216416863130675
2661.42,5.996775052389822
2662.6743,8.521092593523768
2663.9279,8.29458323562362
2665.1808,6.767235819387167
2666.433,4.839039102566424
2667.6846,7.659981775241029
2668.9354,6.63005247910025
2670.1856,7.949239779233594
2671.4351,8.317532174430013
2672.6839,12.23491808398613
2673.9321,10.101385844023234
2675.1795,9.566923668313478
2676.4263,9.481519669615167
2677.6724,10.595161865017431
2678.9179,11.957838176794176
2680.1626,9.869536421267746
2681.4067,9.630244295182123
2682.6501,11.039949396585925
2683.8928,6.548639227225337
2685.1348,7.35630117844709
2686.3761,8.362922576111536
2687.6168,9.818490672515992
2688.8568,7.922992636328601
2690.0961,8.026415538032616
2691.3348,4.828746368881383
2692.5727,4.979972039864101
2693.81,6.48007941368256
2695.0466,5.679055303238798
2696.2826,5.176886456634094
2697.5178,8.323559565179153
2698.7524,8.969061268415878
2699.9863,9.113378122650573
2701.2195,9.106496594498935
2702.452,7.048403059442919
2703.6839,10.539083801899501
2704.9151,8.978525035801646
2706.1456,6.416712869691509
2707.3755,10.95363332232597
2708.6046,11.939272348294864
2709.8331,12.573615792651673
2711.0609,14.756649381057173
2712.2881,10.28835871343599
2713.5145,11.918729242146327
2714.7403,14.847746316662771
2715.9654,10.375395167272657
2717.1899,14.951660875785848
2718.4136,15.776528420258273
2719.6367,14.399982629229264
2720.8591,17.822008173472888
2722.0809,15.192589579763407
2723.3019,18.81171119665501
2724.5223,17.879357220776036
2725.7421,17.945511660637678
2726.9611,19.260158345957585
2728.1795,11.4732809269983
2729.3972,15.134862861420807
2730.6142,16.144887492153273
2731.8306,12.853338010775254
2733.0462,11.110197447417463
2734.2612,14.415448703677235
2735.4756,12.069074570049956
2736.6892,9.121057692876533
2737.9022,6.771380597807173
2739.1145,8.1200257192815
2740.3262,9.61697542402537
2741.5372,10.412211997564384
2742.7475,7.355717629254428
2743.9571,9.397474404329273
2745.1661,9.58746433446553
2746.3744,6.7756693373650805
2747.582,5.612071234855186
2748.7889,5.246651781006413
2749.9952,5.029392673768612
2751.2008,2.3102755586251433
2752.4057,4.439282030765455
2753.61,3.1163936622762307
2754.8136,2.491591980851368
2756.0165,4.464858483020812
2757.2188,1.9861746403986373
2758.4204,2.8055218799503336
2759.6213,2.4228816087796616
2760.8215,5.388235205935196
2762.0211,3.6015640262367015
2763.22,1.6628493706216005
2764.4182,1.8220725040117074
2765.6158,5.02921467470037
2766.8127,3.9842571127602042
2768.009,2.887180997971754
2769.2045,5.887967470272976
2770.3994,5.0865976407300835
2771.5936,1.1330525615295954
2772.7872,1.3773132339920693
2773.9801,1.3693606481075875
2775.1723,-0.39082421990689653
2776.3639,0.3967395924719881
2777.5548,-1.617963047898435
2778.745,3.06505272187178
2779.9346,1.4457879281234156
2781.1235,1.6742435665467497
2782.3117,0.10042061837418714
2783.4992,2.7243200480957412
2784.6861,0.09594281919719805
2785.8723,3.1652898679211674
2787.0579,-3.267637870449157
2788.2428,0.2971605077165691
2789.427,1.2097185497509528
2790.6106,-0.22993019998499165
2791.7935,0.0282477907725891
2792.9757,-1.4657116487097852
2794.1573,-0.31177268944804126
2795.3382,-0.859884859998786
2796.5184,1.7900054256905378
2797.698,0.9879603439222251
2798.8769,2.4340420530985227
2800.0551,0.9283127017421009
2801.2327,-1.1791655859647463
2802.4096,1.3116693048771353
2803.5859,1.0508912690310837
2804.7615,3.638574188143771
2805.9364,1.7747919333529794
2807.1106,2.7096183394107882
2808.2842,7.193127223321376
2809.4572,4.675392374992725
2810.6294,6.306487512401603
2811.801,7.88648630677087
2812.972,5.965462366258507
2814.1423,9.693489220157652
2815.3119,10.520640338106787
2816.4808,13.746989092809542
2817.6491,15.822608751763184
2818.8167,16.497572444995058
2819.9837,20.921953144306414
2821.15,26.295823656522778
2822.3157,32.619256579250205
2823.4807,38.89232424713651
2824.645,42.81509866863697
2825.8086,44.98765146328364
2826.9716,58.16005382245759
2828.134,58.38237648766341
2829.2957,65.55468961880516
2830.4567,71.82706279196316
2831.617,76.0495649276709
2832.7767,75.4222642281912
2833.9358,75.74522813529126
2835.0941,77.01852333651567
2836.2519,70.4422157619568
2837.4089,64.86637057152174
2838.5653,65.64105222069551
2839.7211,66.96632451629941
2840.8761,58.692250608744196
2842.0306,63.818892978777455
2843.1843,60.19631352022423
2844.3374,57.77457348872065
2845.4899,59.10373353793977
2846.6417,66.93385374380891
2847.7928,66.01499359121806
2848.9433,65.49721189571875
2850.0931,65.78056681271256
2851.2422,69.16511584262895
2852.3907,71.15091582809174
2853.5385,71.08802292007357
2854.6857,72.72649255803802
2855.8323,67.16637947056839
2856.9781,71.20773765898304
2858.1233,74.10062045293662
2859.2679,81.8950804700064
2860.4118,81.39116958676341
2861.555,88.93893886082796
2862.6976,91.38843853590866
2863.8395,87.88971796632472
2864.9808,87.94282559251099
2866.1214,89.99780897600516
2867.2614,92.55471479891675
2868.4007,96.21358884337705
2869.5393,98.82447596597038
2870.6773,94.43742006114508
2871.8146,94.65246403510477
2872.9513,101.71964984967889
2874.0874,102.18901852017225
2875.2227,105.16061004469319
2876.3574,108.63446339945983
2877.4915,109.56061650908427
2878.6249,106.189106211834
2879.7577,110.31996825037032
2880.8898,110.60323730546345
2882.0212,110.38894695468403
2883.152,114.72712966957025
2884.2821,113.76781681777089
2885.4116,115.06103861966346
2886.5405,115.50682415794736
2887.6686,116.50520136471154
2888.7962,123.05619701697677
2889.923,114.75983672671185
2891.0493,119.51614487532355
2892.1748,116.97514469662033
2893.2997,118.58685822924923
2894.424,116.7013063421059
2895.5476,117.46850871821731
2896.6706,116.48848387359747
2897.7929,115.21124914957528
2898.9145,121.93682072259479
2900.0355,121.26521361698761
2901.1559,116.6964416377171
2902.2756,116.98051737709454
2903.3946,117.6674522604668
2904.513,120.10725654337563
2905.6308,111.74993930468835
2906.7479,116.8955084221996
2907.8643,114.34397065620475
2908.9801,115.34533159804407
2910.0953,117.14959569561819
2911.2098,120.45676624337439
2912.3236,117.81684536426405
2913.4368,120.67983397667082
2914.5494,114.29573182081
2915.6613,115.8645374300985
2916.7725,119.33624819499596
2917.8831,106.41086034731669
2918.9931,108.88836892551245
2920.1024,105.96876790392658
2921.211,105.15205016801858
2922.319,105.6382075435603
2923.4264,103.07723080480322
2924.5331,103.31910966961661
2925.6391,100.26383282509758
2926.7445,100.91138792515203
2927.8493,102.41176162104765
2928.9534,103.71493955493823
2930.0569,106.22090634485998
2931.1597,106.77964557169972
2932.2619,106.09113975413516
2933.3634,105.70537034304763
2934.4643,111.27231772840706
2935.5645,110.0919612431297
2936.6641,115.26427910740857
2937.763,111.93924844051719
2938.8613,108.26684520908623
2939.959,108.89704426035388
2941.056,108.67981935888999
2942.1523,100.66514318029388
2943.248,94.20298731336676
2944.3431,88.64332234025841
2945.4375,80.73611790108873
2946.5313,77.58134274954452
2947.6244,67.22896483195127
2948.7169,65.47895131882117
2949.8087,63.33126870837666
2950.8999,59.18588284405078
2951.9904,49.292758935963846
2953.0803,47.25186160237736
2954.1696,47.413154968625264
2955.2582,40.776602687522875
2956.3462,38.79216793775397
2957.4335,41.209813490236336
2958.5202,36.52950172796607
2959.6062,36.15119462184114
2960.6916,38.274853777464536
2961.7764,34.85044043892729
2962.8605,40.87791546757199
2963.9439,33.85723937623673
2965.0267,34.28837226898053
2966.1089,37.82127391129004
2967.1905,39.955903725768195
2968.2714,38.44222075680517
2969.3516,36.83018364923215
2970.4312,36.319750663458066
2971.5102,37.81087969159008
2972.5885,36.053528262537824
2973.6662,37.647653527102136
2974.7432,39.49321227554864
2975.8196,36.890160921666386
2976.8954,40.03845548431231
2977.9705,35.3880516134418
2979.045,37.68890455862568
2980.1188,38.34096921555431
2981.192,37.84420010302897
2982.2645,38.39855135644129
2983.3364,35.20397673274087
2984.4077,34.960429604891814
2985.4783,36.11786299381853
2986.5483,34.87622957084106
2987.6177,27.985481646100904
2988.6864,25.24557118097723
2989.7545,25.50644985699441
2990.8219,22.868069103221096
2991.8887,23.480380093661466
2992.9548,14.99333377363903
2994.0204,18.10688085367348
2995.0852,14.420971894351204
2996.1495,15.085557275189775
2997.2131,10.700587231497078
2998.276,12.266011847725437
2999.3383,6.581781101321329
3000.4,9.797844847071111
3001.4611,8.614152873943347
3002.5215,2.6306548729281474
3003.5812,3.197300448874156
3004.6404,3.21403918032345
3005.6989,6.28082061384513
3006.7567,1.89759426386793
3007.8139,6.6643095820124
3008.8705,1.480916000923152
3009.9264,0.1973628866017414
3010.9818,2.6635995902405547
3012.0364,3.42957546105837
3013.0905,0.44523982163796205
3014.1439,0.8105419602663595
3015.1966,2.5754311607782086
3016.2487,3.0398566989027422
3017.3002,2.6037678246149056
3018.3511,1.61711375749109
3019.4013,0.4798436910700232
3020.4509,0.6419068027192942
3021.4998,2.503252265008072
3022.5481,2.263829244086473
3023.5958,-0.27641311892789844
3024.6428,1.9824742944442804
3025.6892,0.9904433640493764
3026.735,0.9974459499090038
3027.7802,3.4034339021403497
3028.8247,-1.0416409391138615
3029.8685,-3.137826767745228
3030.9118,-1.08516137165239
3031.9544,2.9663488081554377
3032.9963,1.2167081714311223
3034.0376,2.7659210882640544
3035.0783,4.713991916576546
3036.1184,3.660924986631688
3037.1578,4.256724581552664
3038.1966,1.2513949478533988
3039.2348,2.344940289480597
3040.2723,1.0873647978670107
3041.3092,4.478672640996006
3042.3455,3.6188679759773166
3043.3811,2.3579549151339663
3044.4161,3.245937534600298
3045.4505,2.782819886931115
3046.4842,5.76860599222185
3047.5173,7.853299842739762
3048.5498,5.48690537306603
3049.5816,4.319426439248865
3050.6128,6.050866842467425
3051.6434,2.631230340706608
3052.6734,6.5605206314426425
3053.7027,4.888741385839467
3054.7314,9.015896209455807
3055.7594,6.34198865896299
3056.7868,5.817022200873382
3057.8136,10.141000238279474
3058.8398,9.96392611610355
3059.8653,6.135803077857904
3060.8902,7.406634267415548
3061.9145,3.776422767291452
3062.9381,9.445171585934261
3063.9612,12.71288369402839
3064.9835,12.229561967806532
3066.0053,8.045209156372565
3067.0264,9.909827886534746
3068.0469,10.97342070464926
3069.0668,8.285990057974024
3070.086,10.547538284032747
3071.1046,8.158067637489259
3072.1226,11.567580267532007
3073.1399,8.426078241768781
3074.1567,8.433563512131567
3075.1727,10.890037946291583
3076.1882,10.795503327584424
3077.203,7.049961330445308
3078.2173,9.353413521354431
3079.2308,7.155861396292387
3080.2438,7.4573063577056296
3081.2561,5.957749736482002
3082.2678,4.757192788936294
3083.2789,6.855636711805786
3084.2893,6.153082654255847
3085.2991,7.39953169689548
3086.3083,3.6449848588028573
3087.3169,6.989443085060856
3088.3248,3.182907284302509
3089.3321,6.175378295266432
3090.3388,8.066856924862174
3091.3449,6.60734391824551
3092.3503,4.496839939903634
3093.3551,4.235345588250322
3094.3593,6.672861416730948
3095.3629,4.659387936437431
3096.3658,5.844925591733087
3097.3681,6.779474780387353
3098.3698,2.7130358417204175
3099.3708,3.445609047257726
3100.3713,5.827194641394378
3101.3711,6.357792834069382
3102.3702,7.6374037769498155
3103.3688,9.866027558124832
3104.3667,4.5936641893095445
3105.364,2.1203135835588007
3106.3607,3.5959756079908054
3107.3568,5.6706501085206344
3108.3522,5.844336895103609
3109.347,5.917035720988556
3110.3412,3.68874628098094
3111.3348,4.559468210715874
3112.3277,5.8792011089410146
3113.32,-1.1020554711906607
3114.3117,3.315697964681817
3115.3028,2.032471920453574
3116.2932,6.1482768668627585
3117.2831,3.6131232543228027
3118.2723,6.32702147176437
3119.2608,5.689981871986902
3120.2488,3.0020147445196255
3121.2361,2.213130321991957
3122.2229,2.1733388070131703
3123.209,8.432650380061233
3124.1944,4.891075199880741
3125.1793,5.998623340889781
3126.1635,4.355304828595697
3127.1471,4.011129628519603
3128.1301,3.916107662629569
3129.1125,4.170248812782374
3130.0942,3.8235629216737177
3131.0753,3.8260597902968234
3132.0558,7.027749181409276
3133.0357,3.6786408195080726
3134.015,2.1287443588127157
3134.9936,4.678069416756306
3135.9716,2.1766255894845035
3136.949,7.574422426362277
3137.9258,3.3214694549883417
3138.902,5.0677761272171935
3139.8775,5.363351861688643
3140.8524,4.108206026364734
3141.8267,7.152347935573998
3142.8004,4.395786862562911
3143.7735,5.438532009054476
3144.7459,6.880592532813828
3145.7178,5.6219775372207845
3146.689,5.562696056849241
3147.6596,1.402757070053326
3148.6295,5.042169499560207
3149.5989,3.4809422540694825
3150.5676,2.5690841918590586
3151.5357,5.806604136397418
3152.5032,6.593510885462206
3153.4701,6.479813178765031
3154.4364,5.315519690082392
3155.402,3.6506390283926597
3156.367,4.185179749519008
3157.3315,5.569150372778228
3158.2952,5.552559375635309
3159.2584,3.43541517986374
3160.221,6.367726151711418
3161.1829,6.599500623072087
3162.1442,4.630746862162237
3163.105,3.911473071203343
3164.065,6.341687406109421
3165.0245,5.671397983679755
3165.9834,7.1006128572967615
3166.9416,4.8793400236288695
3167.8993,3.8075874083383923
3168.8563,8.18536288829424
3169.8127,3.9626743022894404
3170.7684,5.739529407263408
3171.7236,5.215935920528803
3172.6782,6.341901502003006
3173.6321,6.66743375944403
3174.5854,6.79254023719088
3175.5381,5.867228412908219
3176.4902,4.291505696335312
3177.4417,4.615379438539144
3178.3926,7.23885694767164
3179.3428,6.81194548573094
3180.2924,6.08465224232661
3181.2415,5.706984338948763
3182.1899,3.428948836240994
3183.1377,4.450552737777056
3184.0848,7.621803012841214
3185.0314,3.1927065862122035
3185.9773,7.363270306450734
3186.9227,4.63350099019045
3187.8674,8.753405380432293
3188.8115,4.272990173842196
3189.755,7.84226197955204
3190.6979,7.0112273639638065
3191.6402,5.429892815056848
3192.5818,7.298264750698252
3193.5229,7.316349534456178
3194.4633,8.534153456916135
3195.4031,5.5016827355001405
3196.3423,6.418943502288676
3197.2809,7.885941834345396
3198.2189,7.302683744544524
3199.1563,2.2191751669008593
3200.0931,8.23542196240237
3201.0292,5.401429969845273
3201.9648,6.767204945671559
3202.8997,7.332752592308929
3203.834,6.948078544513029
3204.7677,8.713188363711978
3205.7008,6.678087541853114
3206.6333,6.242781483751885
3207.5652,7.107275527442866
3208.4964,4.77157494853282
3209.4271,7.0856849515557485
3210.3571,5.3496106933299075
3211.2865,3.8133572598167014
3212.2154,5.726929683481429
3213.1436,9.240332958655816
3214.0712,6.103572022402299
3214.9982,6.266651719379976
3215.9246,7.779576833212229
3216.8503,6.2423520848559235
3217.7755,7.104982117472154
3218.7001,5.117471511798495
3219.624,9.179824777522699
3220.5473,8.942046373157808
3221.4701,7.604140665418608
3222.3922,6.516111931599427
3223.3137,1.6779643729531866
3224.2346,10.189702125571682
3225.1549,8.401329308767071
3226.0746,6.01284993995449
3226.9937,6.874267952535776
3227.9121,5.335587219784269
3228.83,7.99681154623063
3229.7473,8.457944683049641
3230.6639,5.918990301447976
3231.5799,10.629951988052856
3232.4954,5.390833270301601
3233.4102,4.951637569332012
3234.3244,4.662368252373557
3235.238,6.823028637139325
3236.151,9.08362199471873
3237.0634,7.144151527970896
3237.9752,8.054620348918725
3238.8864,9.265031498143607
3239.797,5.8753879356807195
3240.7069,8.235692528914928
3241.6163,5.395948086477214
3242.5251,5.606157334641635
3243.4332,8.816322945722767
3244.3408,8.426447535973614
3245.2477,7.886533633483942
3246.154,7.296583682079044
3247.0598,6.8066000467188825
3247.9649,8.06658501939758
3248.8694,9.976540824043258
3249.7733,8.63646960391819
3250.6766,6.646373402519235
3251.5793,9.056254176978562
3252.4814,6.216113817964601
3253.3829,7.025954125583236
3254.2838,6.335776837779211
3255.1841,10.495583622237728
3256.0838,5.8553760832862185
3256.9829,10.51515572029627
3257.8814,8.67492397408572
3258.7792,6.034682180320835
3259.6765,5.894431587918658
3260.5731,12.204173385449401
3261.4692,8.463908702538959
3262.3647,9.073638546771491
3263.2595,7.883363841092064
3264.1538,10.543085417709364
3265.0474,10.252804029998444
3265.9404,7.212520325903483
3266.8329,7.422234850840634
3267.7247,6.031948078100836
3268.616,7.491660406752683
3269.5066,7.501372175545284
3270.3966,8.16108364831115
3271.286,10.720795013869067
