RamanShift,CorrectedData
30.1047,1840.8779815584671
32.3739,1713.9569167074453
34.6426,1587.6358334476436
36.9109,1463.964696230713
39.1787,1339.7934536319456
41.4461,1213.4220395869866
43.7131,1089.850374633546
45.9796,966.2283671751127
48.2456,841.7559147166716
50.5112,716.8329051009221
52.7764,593.5592177530051
55.0411,470.6347249297318
57.3054,345.4092929523211
59.5692,219.88278343564423
61.8326,103.10505454047956
64.0955,-19.774037771222424
66.3579,-139.60463856856174
68.6199,-248.28669537800107
70.8815,-344.6687610756641
73.1426,-395.44690815358797
75.4032,-309.86376586288645
77.6634,80.49198705993854
79.9231,1192.3347674174056
82.1824,3782.078991207114
84.4412,8574.739062503315
86.6995,15238.92934755947
88.9574,21732.564126881654
91.2148,26190.357528586646
93.4717,28238.073463465586
95.7282,28552.12558040604
97.9842,28376.277245914833
100.2398,27722.89154097755
102.4949,26994.981262817
104.7495,26133.408931427068
107.0036,25179.78679685183
109.2573,24292.426847801285
111.5105,23483.140821187553
113.7632,22640.140210998492
116.0154,21915.836276390553
118.2672,21385.590050118786
120.5185,20805.262345779884
122.7693,20333.66376311463
125.0197,19920.6046938112
127.2696,19538.54532622112
129.519,19270.645649489885
131.7679,18917.16545737753
134.0163,18625.264350937636
136.2642,18322.851742052128
138.5117,18017.486856350304
140.7587,17641.178736232938
143.0052,17318.38624392594
145.2512,16956.86806524343
147.4967,16588.082712815674
149.7417,16301.388529704254
151.9863,16051.643693089922
154.2304,15884.106217139555
156.4739,15620.2339555036
158.717,15460.434602991434
160.9596,15190.615698210102
163.2017,14834.234625162308
165.4433,14433.098615944598
167.6844,13991.16475431117
169.925,13587.439979685245
172.1651,13102.1810915784
174.4047,12734.744753627801
176.6439,12314.437498448811
178.8825,11997.065731309356
181.1206,11744.435734332985
183.3582,11465.753669672595
185.5954,11264.97558203672
187.832,11098.707401476364
190.0681,10940.154945392771
192.3037,10831.82392020013
194.5388,10702.169922911073
196.7734,10662.698442219997
199.0075,10667.464859799606
201.2411,10690.074450695614
203.4742,10655.5823832791
205.7068,10723.393719020396
207.9389,10716.913412834017
210.1704,10808.34631240055
212.4015,10802.197158231442
214.632,10858.770582754683
216.862,10973.071110376295
219.0915,11039.903156914601
221.3205,11127.921028457215
223.549,11312.478920692714
225.777,11472.280918030483
228.0044,11713.680991755116
230.2314,12057.932998428394
232.4578,12351.390677475296
234.6837,12646.757647741466
236.909,12729.637404558664
239.1339,12610.133316791062
241.3582,12351.348626006473
243.582,11926.08644767139
245.8053,11544.349773738797
248.0281,11158.391476900846
250.2503,10855.164314406178
252.472,10623.570931919527
254.6932,10531.663866554001
256.9139,10393.695549187001
259.134,10339.168305379288
261.3536,10236.784356754682
263.5727,10263.345821545323
265.7912,10117.204715615499
268.0092,10145.512952196053
270.2267,10063.572343345773
272.4436,9957.934599668342
274.6601,9839.701331131704
276.8759,9650.424048124474
279.0913,9556.25416263825
281.3061,9416.142990160404
283.5204,9350.091750615773
285.7341,9361.501569767766
287.9473,9428.423479878877
290.16,9569.158419596597
292.3721,9749.107233284189
294.5837,10097.020669613332
296.7947,10333.949379764646
299.0052,10481.093913948549
301.2152,10276.854719035957
303.4246,9896.232137086854
305.6334,9284.826407392691
307.8418,8706.037670282602
310.0495,8258.965973237475
312.2568,7855.411276677809
314.4635,7555.5234584344635
316.6696,7336.002317784189
318.8752,7195.547578448504
321.0802,7175.158890788922
323.2847,7205.385833211476
325.4887,7162.077912370618
327.692,7071.034562866942
329.8949,6915.1051476802695
332.0972,6576.288959080077
334.2989,6264.585220184805
336.5001,5914.89308835
338.7007,5653.361658285374
340.9008,5527.039965551692
343.1003,5322.976989176132
345.2992,5204.321652915465
347.4976,5110.472827296702
349.6955,4996.829330803645
351.8927,5034.639930815361
354.0895,4948.703344742657
356.2856,4956.2682396499185
358.4812,4870.833233114525
360.6763,4846.046893151171
362.8707,4760.8077390662365
365.0646,4744.114241705631
367.258,4706.964824307213
369.4508,4647.207862667698
371.643,4713.541685514148
373.8346,4639.614575101565
376.0257,4607.674766549533
378.2162,4452.62044858148
380.4062,4335.4997638441055
382.5956,4136.760810457903
384.7844,4023.1016431883963
386.9726,3863.6702754334965
389.1603,3726.264680360129
391.3474,3624.7327924985
393.5339,3563.872509116187
395.7199,3484.1316912334332
397.9052,3452.808164231774
400.09,3456.4997186514192
402.2743,3473.104110504508
404.4579,3513.269061238203
406.641,3649.892257568601
408.8235,3778.6213510791313
411.0054,4047.053956854299
413.1868,4444.837652192411
415.3675,4685.969973921223
417.5477,4792.498414420139
419.7273,4788.320419208863
421.9064,4660.733385882124
424.0848,4530.08466415144
426.2627,4234.121557121016
428.4399,3895.0913225942113
430.6166,3520.7411760331743
432.7928,3113.268293949166
434.9683,2824.0698176460483
437.1432,2573.6428572949935
439.3176,2328.584494826484
441.4914,2155.491786434577
443.6645,2127.5117650275024
445.8371,2021.0414419585559
448.0091,1900.427807305934
450.1806,1818.4678309374176
452.3514,1741.8584637165204
454.5216,1717.8966383220795
456.6913,1587.679270014356
458.8603,1620.003256874632
461.0288,1664.0154811074135
463.1967,1640.5128087171797
465.3639,1742.892089068253
467.5306,1767.100155119835
469.6967,1865.1838224022104
471.8622,1972.2898887746887
474.0271,2085.2651334447364
476.1914,2102.15631589694
478.3551,2083.160174763234
480.5182,2065.023427654007
482.6807,2050.9927713480465
484.8426,2163.964881973927
487.0039,2433.5864151502974
489.1647,2815.7540048561605
491.3248,3186.1642607346803
493.4843,3343.6637642714777
495.6432,3320.2490650905493
497.8015,3184.816679379255
499.9592,3188.3630901224788
502.1163,3058.23474845694
504.2728,2858.3780736357403
506.4287,2543.5394543296316
508.5839,2089.8152506255974
510.7386,1800.2517971752422
512.8927,1591.6954077320152
515.0461,1475.7423780468562
517.199,1384.6389879537564
519.3512,1414.4315025292854
521.5029,1513.3661730036256
523.6539,1593.3892364626627
525.8043,1608.2969148586017
527.9541,1573.6354142097807
530.1033,1554.3009244515742
532.2519,1545.8896197830036
534.3999,1606.6976588601028
536.5472,1882.6211848800194
538.694,2295.8563249729414
540.8401,2819.0491874428226
542.9856,3236.345857635093
545.1305,3412.742392704684
547.2748,3284.384817443093
549.4185,2921.919122514384
551.5615,2611.641265738792
553.704,2471.24717571737
555.8458,2453.5827549347523
557.987,2464.643881163116
560.1276,2445.7764076388085
562.2675,2521.5261629517627
564.4069,2608.9389512341513
566.5456,2622.3605514028895
568.6837,2578.0867162855247
570.8212,2243.4131724859944
572.958,1892.6356208273864
575.0942,1569.6997396986735
577.2299,1341.6011885624685
579.3648,1307.9856111843983
581.4992,1313.9986379140864
583.6329,1510.4858860213062
585.766,1689.0929596358583
587.8985,1812.7654477826727
590.0304,1777.1989225957623
592.1616,1741.0389380814959
594.2922,1633.1810304742467
596.4222,1400.8207185980136
598.5515,1292.653504944985
600.6802,1112.7748779991489
602.8083,907.1303133179717
604.9358,906.5152753311813
607.0626,781.9252193972097
609.1888,773.405591809329
611.3144,799.0018310415944
613.4393,693.809367834001
615.5636,562.9736249365524
617.6873,520.9400181611745
619.8103,465.00395769005263
621.9327,348.41084849599065
624.0544,288.60609090175785
626.1756,258.1350817460225
628.2961,165.69321498140198
630.4159,120.02588197917794
632.5351,137.17847245370285
634.6537,85.99637491907924
636.7716,69.32497651763333
638.8889,77.40966353171461
641.0056,106.44582155043827
643.1216,95.4288353888187
645.237,122.404088797437
647.3518,122.76696457259095
649.4659,118.51284428654617
651.5793,100.43710828392432
653.6922,124.28513572423253
655.8043,118.25230476261277
657.9159,145.53399231136063
660.0268,8.175574100248923
662.137,-9.827575596274983
664.2466,-27.13016417773906
666.3556,-15.886800866217527
668.4639,-82.75182385343578
670.5716,-5.529412621981464
672.6786,73.77708003626685
674.785,96.46435656824542
676.8907,172.67911868313604
678.9958,218.46806712551552
681.1002,184.07790091315837
683.204,178.3553168791841
685.3072,145.84701001592111
687.4097,106.89967353217435
689.5115,75.50999917826266
691.6127,33.6746776355285
693.7132,-23.609601169784582
695.8131,-21.84614764818616
697.9123,-46.13803635026852
700.0109,-94.53812358361756
702.1089,-103.69880473684316
704.2061,-58.92153076270915
706.3028,-24.55671666291164
708.3987,49.34581118691494
710.4941,124.88647173273785
712.5887,315.5156834270747
714.6827,500.88386347357664
716.7761,871.0414259207537
718.8688,1244.5387798082738
720.9608,1419.47632546541
723.0522,1525.404450776041
725.1429,1339.6735294293067
727.233,1116.8839198603164
729.3224,936.235967107441
731.4112,685.7800050402147
733.4993,502.51635816581256
735.5867,346.0453441336176
737.6735,244.96727556786573
739.7596,159.68246163235017
741.845,106.89120904119409
743.9298,83.74382291169968
746.014,66.69060729226476
748.0974,55.03186539386297
750.1802,86.51789976055443
752.2624,91.99901238609527
754.3439,122.72550439908082
756.4247,198.3976760081132
758.5048,325.8158261945573
760.5843,539.1302519557903
762.6631,860.9912470310446
764.7413,1319.3990997682595
766.8188,1917.9040899054744
768.8956,2387.1564839867497
770.9718,2707.806529377107
773.0473,2581.8044495700233
775.1221,2290.900440980906
777.1962,1951.1446742071275
779.2697,1772.537296937062
781.3426,1825.8284373476454
783.4147,2024.2682058904538
785.4862,2316.2566947587948
787.557,2334.0939759032844
789.6271,1993.4800981119952
791.6966,1423.9150868320758
793.7654,915.5989475758688
795.8335,581.7816716165762
797.901,424.3132410714352
799.9678,335.1936322398651
802.0339,343.0728171781411
804.0993,368.5007645906371
806.1641,368.7274397509973
808.2282,306.0028042478734
810.2916,202.92681598264244
812.3544,133.29942979667248
814.4164,96.12059850207515
816.4778,139.34027357797822
818.5385,133.05840554230963
820.5986,218.57494351960122
822.658,369.889835303813
824.7166,487.9530265031535
826.7747,799.9144590269498
828.832,999.474069904998
830.8886,1132.6317881679533
832.9446,1305.837532851754
834.9999,1345.7912116660227
837.0545,1299.242719262009
839.1085,1258.4419368330528
841.1618,1222.2387325800737
843.2143,1172.4329621195866
845.2662,1061.824468845738
847.3175,1035.5630844283514
849.368,936.9486299189957
851.4179,823.0309160136276
853.467,667.109744038713
855.5155,574.2349070904165
857.5633,516.1061915938408
859.6105,382.3733782317031
861.6569,381.6362425256957
863.7027,333.4445561737739
865.7478,346.5480870575266
867.7922,353.94659972410955
869.8359,358.3898552551982
871.8789,525.0276111930289
873.9212,682.4096214959245
875.9629,820.8856348719528
878.0039,1024.6553932051029
880.0441,1127.5186301705035
882.0837,1202.725069196742
884.1226,1127.5244224372254
886.1609,1043.4163900181193
888.1984,1017.400660790343
890.2352,1061.1769131706678
892.2714,1002.7448154018493
894.3069,1009.3040251148923
896.3416,952.2541899133575
898.3757,927.9949473077831
900.4091,905.9759252861841
902.4418,962.9967425566247
904.4739,940.4070087673972
906.5052,975.0563239368603
908.5358,899.0442786792992
910.5658,761.5204538584476
912.595,619.4844213476099
914.6236,432.8357454048746
916.6515,402.57398409349844
918.6786,383.4986911483902
920.7051,483.0594162787238
922.7309,596.0557053587036
924.756,666.5370994319419
926.7804,753.8531335815169
928.8041,690.5533362251408
930.8272,752.4872282419965
932.8495,689.0043236057572
934.8711,687.0541287652195
936.892,546.536143279136
938.9123,428.0498598357408
940.9318,322.1947656578923
942.9506,213.32034368796667
944.9688,150.77607364639334
946.9862,112.36143312038257
949.003,6.72589818940105
951.019,22.66894380931626
953.0344,55.79004486875783
955.0491,64.5386760296642
957.063,193.3143113960905
959.0763,339.7164244267151
961.0888,368.9444866470767
963.1007,521.447966185573
965.1119,569.1763274811638
967.1223,585.1290297583437
969.1321,624.8555265498399
971.1412,671.355265537095
973.1495,640.5776881529964
975.1572,691.3722291168888
977.1641,750.6883167423584
979.1704,737.1753724292794
981.1759,724.6828100706516
983.1808,829.0600361877368
985.1849,931.9064500549757
987.1884,1024.4714426562132
989.1911,1213.1043956562316
991.1932,1336.3546804751131
993.1945,1387.4216564018898
995.1951,1304.504669362068
997.1951,1336.9530514069556
999.1943,1259.7661215428197
1001.1928,1221.443185406406
1003.1906,1206.0835360368
1005.1877,1326.68645425867
1007.1841,1301.701208835857
1009.1798,1267.627055265344
1011.1748,1046.4132360270996
1013.1691,876.0589809248304
1015.1627,686.0135092981109
1017.1556,471.9260317259286
1019.1477,415.4457519271491
1021.1392,290.3218689014029
1023.1299,297.05357749386167
1025.12,318.79006964649307
1027.1093,353.98053433073073
1029.0979,459.47415733012167
1031.0859,523.4201208884078
1033.0731,529.1176026545909
1035.0596,452.9657750434817
1037.0454,346.5138051787144
1039.0304,251.91085565425965
1041.0148,120.95608559898028
1042.9985,21.348651622611214
1044.9814,18.987709125351103
1046.9636,-58.62758670608673
1048.9452,-73.64808087485653
1050.926,-15.87403269452625
1052.9061,-43.05496573433629
1054.8855,-5.4902449819601316
1056.8642,64.47119469403333
1058.8421,128.03047327262175
1060.8194,170.7887100880689
1062.7959,193.5970231943429
1064.7717,259.8565289375365
1066.7469,283.81834172779054
1068.7213,296.4835733766995
1070.695,345.7533328576719
1072.6679,268.1787261792888
1074.6402,250.36085589259892
1076.6117,256.0008218668845
1078.5826,241.29972146781802
1080.5527,266.9086495010779
1082.5221,322.678698359352
1084.4908,508.2109577662486
1086.4587,643.7065142186075
1088.426,780.3164491311691
1090.3925,751.4418374816414
1092.3584,767.8337464445613
1094.3235,643.3432356800695
1096.2879,600.4713571699649
1098.2515,639.419156462638
1100.2145,764.7876731017532
1102.1767,844.4779402368004
1104.1382,1007.6909833694044
1106.099,1251.8278195564235
1108.0591,1436.539455777809
1110.0185,1618.5768864952406
1111.9771,1698.291091805011
1113.9351,1487.2830356176564
1115.8923,1182.053664860814
1117.8488,973.0539115893189
1119.8045,671.0346960374591
1121.7596,606.8969287090003
1123.7139,533.3415133973685
1125.6675,554.269347827023
1127.6204,656.5813243890188
1129.5726,595.9283299317394
1131.524,635.1612447377629
1133.4748,601.0809431303933
1135.4248,539.338293081335
1137.3741,528.3841565514813
1139.3226,481.5193901083585
1141.2705,509.74484503565327
1143.2176,380.8113678018708
1145.164,372.76979977807423
1147.1097,403.4709785272171
1149.0546,402.16573788455935
1150.9989,341.1549076506635
1152.9424,235.5393136044404
1154.8852,105.76977811327379
1156.8272,24.8471211891665
1158.7686,42.872161786413926
1160.7092,9.695718610855693
1162.6491,-2.831390060367994
1164.5883,75.19165395291566
1166.5267,152.56569711646443
1168.4644,353.34158514412775
1170.4014,510.4701622241082
1172.3377,835.452269011199
1174.2732,1029.288741055505
1176.2081,1353.6304055526125
1178.1421,1607.7780794052414
1180.0755,1896.8825659797985
1182.0082,2021.544652564924
1183.9401,2096.165107480454
1185.8713,1983.9946788307789
1187.8017,1745.3840937586428
1189.7315,1495.3340595668597
1191.6605,1200.3952661043986
1193.5888,994.2683882669044
1195.5163,876.3040889460644
1197.4432,825.1530210908859
1199.3693,770.2658288873372
1201.2947,737.8431482698652
1203.2193,726.0856074702606
1205.1432,806.3438273419051
1207.0664,831.7184214773406
1208.9889,832.2599954056641
1210.9106,870.2191463388081
1212.8316,901.3464631661209
1214.7519,981.1925260747703
1216.6715,968.2079062384619
1218.5903,985.3431650190068
1220.5084,999.348854096128
1222.4257,1053.7255152961152
1224.3424,1015.6236804517739
1226.2583,1080.6438708586666
1228.1735,1182.3365976561108
1230.0879,1269.7023611770164
1232.0016,1427.7416499309074
1233.9146,1454.504939730301
1235.8269,1382.8926921103211
1237.7384,1316.3553540610374
1239.6492,1134.1933587436215
1241.5592,1090.3071261556888
1243.4686,1021.2470649529259
1245.3772,1041.413572887952
1247.285,1065.2070375009262
1249.1922,1031.5778359178803
1251.0986,1130.0763346127915
1253.0042,1094.6028897438464
1254.9092,1132.8078461684781
1256.8134,1265.2415377981088
1258.7169,1433.8042872160768
1260.6196,1579.8964043533233
1262.5216,1834.868184802739
1264.4229,1981.8199083582713
1266.3234,2132.2518364651896
1268.2232,2257.9142107505704
1270.1223,2296.2072515189775
1272.0207,2340.9811564958527
1273.9183,2299.1361004445425
1275.8151,2261.9222347186023
1277.7113,2217.4896876802395
1279.6067,2112.188565072436
1281.5014,2113.318950463279
1283.3953,2122.980906298979
1285.2885,2200.1744738925718
1287.181,2304.19967332729
1289.0727,2497.306502684629
1290.9637,2584.4449370040875
1292.854,2748.7149263520987
1294.7435,2885.666394950673
1296.6323,3008.7492395346635
1298.5204,3242.1633279822763
1300.4077,3425.208498084221
1302.2943,3531.2345552095903
1304.1802,3558.4412704753922
1306.0653,3385.5783796863016
1307.9497,3216.095583062597
1309.8333,3040.2425469687823
1311.7162,2950.46890560841
1313.5984,2952.774262782623
1315.4798,3008.6081927878713
1317.3605,3045.3702403928655
1319.2405,3159.1599202802518
1321.1197,3066.526716678978
1322.9982,2944.570082226397
1324.876,2898.3394388945926
1326.753,2795.534179209968
1328.6293,2776.3036667155357
1330.5048,2794.2972369989693
1332.3796,2732.5141978849097
1334.2537,2724.203829255037
1336.127,2712.2153836658963
1337.9996,2695.948086432005
1339.8714,2677.701135745727
1341.7426,2648.6737028399402
1343.6129,2676.8649321705307
1345.4826,2635.8239417066507
1347.3515,2667.499822648808
1349.2196,2658.5416398392754
1351.087,2716.5984314453417
1352.9537,2777.1192090488785
1354.8197,2906.152957065773
1356.6849,3097.148632140739
1358.5493,3192.755161856967
1360.4131,3301.1214428261555
1362.276,3243.096339732463
1364.1383,3152.3786842488444
1365.9998,2970.5172756172924
1367.8606,2660.5108815560216
1369.7206,2367.4582400780873
1371.5799,2130.908062591445
1373.4384,1981.8590368294754
1375.2962,1836.8098292164905
1377.1533,1588.4590863582107
1379.0096,1271.2054364922697
1380.8652,1004.5974919717173
1382.7201,767.2838524375657
1384.5742,546.0131074848505
1386.4275,390.4838390357854
1388.2802,270.14462355245814
1390.132,182.59403359212774
1391.9832,160.63063901061105
1393.8336,72.05300783779421
1395.6832,53.559706497262596
1397.5322,12.59930069208167
1399.3803,3.4703555897249316
1401.2278,-16.078563768325694
1403.0745,-13.898892375289506
1404.9204,-8.541904599536792
1406.7656,5.141264040477836
1408.6101,34.54956335992392
1410.4538,79.33194312255182
1412.2968,145.7373527466334
1414.139,188.06474085711488
1415.9805,270.11305462157907
1417.8213,374.0812393269716
1419.6613,504.6182375591161
1421.5006,707.4229881630345
1423.3391,933.4944249375822
1425.1769,1280.5814746073884
1427.0139,1801.033054562151
1428.8502,2381.848069385758
1430.6858,2932.125405651779
1432.5206,3317.2139261153116
1434.3547,3597.0624642102084
1436.188,3666.0698201981922
1438.0206,3614.0847583703653
1439.8524,3471.406006357134
1441.6835,3420.3322556480634
1443.5139,3330.862163018679
1445.3435,3276.294351041184
1447.1724,3276.327408979165
1449.0005,3233.8098933332694
1450.8279,3134.5403278408776
1452.6545,3144.5172039012796
1454.4804,3217.1889815683553
1456.3056,3202.804089450825
1458.13,3132.310923985522
1459.9536,2977.007849581247
1461.7766,2672.8431993236954
1463.5987,2305.4652765284864
1465.4202,1974.522357782811
1467.2409,1616.962696619219
1469.0608,1392.0345268250458
1470.88,1146.886066018009
1472.6984,947.6655178954934
1474.5161,740.7210746860346
1476.3331,619.2009191415236
1478.1493,507.15322660664606
1479.9648,456.3761662340694
1481.7795,364.01790210494255
1483.5935,349.7765937366603
1485.4067,302.8003970064383
1487.2192,268.33746429372513
1489.031,252.63594494997233
1490.842,215.3439856432633
1492.6522,201.2097305153311
1494.4618,215.1313215544651
1496.2705,195.60689873686897
1498.0785,209.83459988743562
1499.8858,213.11256087499714
1501.6924,150.33891547004168
1503.4981,151.91179531193484
1505.3032,142.62933053665438
1507.1075,164.83964976106472
1508.911,131.34088017574504
1510.7138,141.53114732288486
1512.5159,111.4585754312775
1514.3172,71.3712873143977
1516.1178,38.96740467115342
1517.9176,68.29504848673423
1519.7166,30.15233935665674
1521.515,13.43739719349469
1523.3126,29.99834160829414
1525.1094,23.183292077734222
1526.9055,19.24036777850779
1528.7008,-34.7823123445105
1530.4954,-36.63662953884523
1532.2893,-27.824117576727076
1534.0824,-41.89594423046765
1535.8747,-11.252999309439474
1537.6663,-8.745754082552594
1539.4572,-13.1245674012589
1541.2473,2.860289253072551
1543.0367,-19.391324486505255
1544.8253,-3.5795490155323932
1546.6132,23.095668989766637
1548.4003,25.384418612866284
1550.1867,92.836788706285
1551.9723,124.35286786869801
1553.7572,205.23274377041707
1555.5414,294.4765028382335
1557.3247,379.1842294466096
1559.1074,481.2060050252603
1560.8893,565.4919072120465
1562.6705,640.5420088327846
1564.4509,724.5063770583747
1566.2305,831.5850726542958
1568.0094,918.028149140966
1569.7876,974.6856517229589
1571.565,1020.6076164245769
1573.3417,1057.74406952326
1575.1176,1044.045027090382
1576.8928,1033.3604946198866
1578.6672,978.3904671652654
1580.4409,884.2849294464104
1582.2138,841.2438563993219
1583.986,782.1672141171421
1585.7575,756.9549602805855
1587.5282,715.8070447487135
1589.2981,744.2234098110221
1591.0673,735.4539905989568
1592.8358,782.7987148017255
1594.6035,829.4575027540068
1596.3704,882.2802669625016
1598.1366,903.1169116393321
1599.9021,975.6673321738272
1601.6668,1056.731414924152
1603.4308,1162.5590364918044
1605.194,1269.200062910968
1606.9564,1446.1043485902464
1608.7182,1618.521735246246
1610.4791,1808.2020501345323
1612.2394,1991.2451043254605
1613.9988,2175.950690807369
1615.7576,2444.4185826561497
1617.5156,2671.8485311881996
1619.2728,2871.190263275743
1621.0293,3009.8434790725078
1622.785,3026.807850020339
1624.54,2906.3830174626364
1626.2942,2769.2685924747366
1628.0477,2519.8641570681375
1629.8005,2333.0192655616665
1631.5525,2145.4834470755122
1633.3037,1963.7562073996687
1635.0542,1846.587030869303
1636.804,1738.6253821820137
1638.553,1694.9707075695478
1640.3013,1693.6224358773998
1642.0488,1690.4299790013629
1643.7955,1739.9427319010192
1645.5416,1819.7100726316603
1647.2868,1937.7813618491455
1649.0313,2023.1059420122401
1650.7751,2196.8831362018973
1652.5181,2374.1122472680145
1654.2604,2601.742556091669
1656.0019,2864.123319812814
1657.7427,3182.053769553988
1659.4828,3492.1831077964925
1661.222,3658.7105052011084
1662.9606,3691.935097506779
1664.6984,3497.755983865354
1666.4354,3133.2722265093344
1668.1717,2633.5328526936682
1669.9072,2145.38685834058
1671.642,1765.2832130369807
1673.3761,1413.970864915913
1675.1094,1130.598744457593
1676.8419,927.6157680025353
1678.5737,766.9708405852653
1680.3048,661.2128579641576
1682.0351,544.7407082278824
1683.7646,459.1032728529808
1685.4934,400.799427868591
1687.2215,346.87804471283016
1688.9488,319.5879908158149
1690.6754,236.32813013889609
1692.4012,235.99732344754557
1694.1263,224.89442914396204
1695.8506,215.16830327037314
1697.5742,229.2177996200735
1699.297,179.34176983467114
1701.0191,138.33906326360193
1702.7404,125.30852746288838
1704.461,98.89900860516718
1706.1808,96.30935160999798
1707.8999,77.73840040794676
1709.6182,66.98499796649594
1711.3358,75.84798647574644
1713.0527,60.526207455954136
1714.7688,31.11850166889326
1716.4841,25.273709271081316
1718.1987,43.79067010785275
1719.9126,36.66822377180961
1721.6257,27.70520941765244
1723.338,36.10046583340227
1725.0496,0.30283153003165353
1726.7605,35.86114465750779
1728.4706,22.274243362771813
1730.18,10.890965434159625
1731.8886,-8.389851562729746
1733.5964,-7.569370171207083
1735.3036,10.001330880027126
1737.0099,7.121248480278155
1738.7156,3.8393794188414176
1740.4204,-30.445279586192555
1742.1246,-17.633731855125916
1743.8279,3.2233234400719084
1745.5306,12.775363288416884
1747.2325,-7.278135353310063
1748.9336,-25.03769565607581
1750.634,-31.35376808228557
1752.3336,-19.576552967764655
1754.0325,-7.50593742419187
1755.7307,-12.24161299349089
1757.4281,13.216803766728844
1759.1247,1.4198185925697544
1760.8206,28.917937087968312
1762.5158,32.96166484266632
1764.2102,2.3015071572363013
1765.9039,22.387969002630598
1767.5968,24.57155532680008
1769.289,28.552770853816583
1770.9804,23.632120062039576
1772.6711,37.86010714431541
1774.361,12.587236057167502
1776.0502,31.01401037852611
1777.7386,51.19093356045414
1779.4263,58.618508744875726
1781.1132,60.34723856180972
1782.7994,53.527625055095086
1784.4849,46.31016966510197
1786.1696,69.39537329692757
1787.8535,72.13373639256497
1789.5367,82.42575870005749
1791.2192,78.0219392461131
1792.9009,91.27277623318696
1794.5818,101.27876708351687
1796.2621,108.49040830661306
1797.9415,105.50819539920212
1799.6202,75.23262277310187
1801.2982,84.46418378506132
1802.9755,84.45337103949987
1804.6519,101.60067629620153
1806.3277,95.85659047041736
1808.0027,97.97160346139844
1809.6769,126.84620420982446
1811.3504,101.88088067666285
1813.0231,123.9261195544259
1814.6951,122.83240651681808
1816.3664,149.30022599829044
1818.0369,127.63006120496539
1819.7067,151.57239384996774
1821.3757,161.62770437012477
1823.044,160.746471686537
1824.7115,155.57917310403718
1826.3783,144.02628431999437
1828.0443,137.3882794759893
1829.7096,173.81563127334357
1831.3741,161.70881103949978
1833.0379,149.81828836374552
1834.701,152.444531218287
1836.3633,177.5380060771431
1838.0248,185.59917788989787
1839.6856,176.0785098307515
1841.3457,212.12646321791817
1843.005,206.09349760882924
1844.6636,215.98007043965026
1846.3214,213.33663708561744
1847.9785,223.2636507621628
1849.6349,216.11156255135393
1851.2904,255.43082130262428
1852.9453,243.07187370429438
1854.5994,205.73516389038014
1856.2528,247.17113356418213
1857.9054,251.48022237164787
1859.5572,255.1128674870215
1861.2083,249.91950356974394
1862.8587,283.70056272813326
1864.5084,275.35647457131836
1866.1572,272.6376658714198
1867.8054,251.09456064700043
1869.4528,287.8775801902475
1871.0994,260.8871432824071
1872.7453,286.07366582595114
1874.3905,289.4875611144862
1876.0349,258.97923958087904
1877.6786,274.44910876312497
1879.3215,300.59757360942695
1880.9637,303.075036323502
1882.6051,294.681896103094
1884.2458,292.3185491152062
1885.8858,302.4853885800203
1887.525,297.8828047945399
1889.1634,284.91118503091457
1890.8011,289.32091358247
1892.4381,298.1123718934241
1894.0743,318.9359385147909
1895.7098,310.1419890164616
1897.3446,301.9808957789728
1898.9786,302.70302808144424
1900.6118,292.3087521831894
1902.2443,302.39843131649195
1903.8761,303.4224257905562
1905.5071,302.08109289059576
1907.1374,305.82478686760896
1908.7669,316.1038589517866
1910.3957,315.8186573150715
1912.0237,288.8195269683729
1913.651,288.10680976441927
1915.2776,306.180844667746
1916.9034,281.44196776182434
1918.5285,284.44051206831955
1920.1528,247.57680779447765
1921.7764,268.7011823031453
1923.3992,269.0139604814012
1925.0213,241.7654645293169
1926.6427,232.4060139568246
1928.2633,233.78592585620754
1929.8832,267.9055149956894
1931.5023,249.11509380563984
1933.1207,235.76497203737654
1934.7383,249.20545695106557
1936.3552,236.93685344922505
1937.9714,244.75946394232233
1939.5868,223.52358847146206
1941.2015,218.57952463015135
1942.8154,219.52756777666946
1944.4286,219.2680110834981
1946.041,200.05114552784744
1947.6528,184.87725989425144
1949.2637,200.8966409667364
1950.8739,204.3095736805608
1952.4834,188.96634096201888
1954.0921,220.11722369431118
1955.7001,194.46250087097815
1957.3074,203.45244928439024
1958.9139,190.6873437822942
1960.5197,187.3174571779091
1962.1247,164.94306037759088
1963.729,170.76442241451332
1965.3325,142.33181067242458
1966.9353,155.79549082743415
1968.5374,171.65572713233178
1970.1387,147.46278228195752
1971.7393,160.31691725459405
1973.3392,146.06839155390298
1974.9383,130.36746308037254
1976.5366,135.86438827381426
1978.1342,132.2094222703654
1979.7311,142.2528188475244
1981.3273,146.04483046069618
1982.9227,142.4857081427599
1984.5173,124.97570146614999
1986.1112,134.01505857844495
1987.7044,155.65402637746593
1989.2968,117.69285042088632
1990.8885,121.53177470984156
1992.4795,145.27104206854256
1994.0697,133.61089410588556
1995.6592,143.20157097805895
1997.2479,129.29331150514463
1998.8359,144.58635307520944
2000.4232,101.23093178338968
2002.0097,126.97728227895823
2003.5955,115.07563819888674
2005.1805,110.02623191037219
2006.7648,128.77929462985867
2008.3484,106.28505647353086
2009.9312,149.94374626978424
2011.5133,122.75559178416734
2013.0946,114.52081928279313
2014.6752,111.38965380422451
2016.2551,108.21231924181666
2017.8342,113.78903837503185
2019.4126,108.17003290120829
2020.9902,101.95552337980007
2022.5672,125.59572928856142
2024.1433,101.2908690856948
2025.7188,126.14115997344743
2027.2935,114.3468181411572
2028.8674,102.55805851675723
2030.4406,106.87509488471187
2032.0131,99.94814000390579
2033.5849,88.97740556447206
2035.1559,91.81310225706784
2036.7261,120.25543988257778
2038.2957,113.05462732376145
2039.8645,111.71087226082545
2041.4325,122.77438124343371
2042.9998,124.54535970414054
2044.5664,112.37401184776172
2046.1323,100.51054063365973
2047.6974,110.20514789745539
2049.2617,124.4080344696722
2050.8254,125.81940007878075
2052.3883,108.3894432091729
2053.9504,121.46836108705338
2055.5118,121.35634985473007
2057.0725,101.75360443983118
2058.6325,120.06031855642414
2060.1917,108.97668490104479
2061.7502,111.25289496962523
2063.3079,121.03913916833244
2064.8649,109.5856067908071
2066.4212,119.39248592030253
2067.9767,104.95996354421595
2069.5315,111.1882254560237
2071.0856,85.17745639960413
2072.6389,74.27784000695237
2074.1915,86.18955905829534
2075.7433,71.0627955910827
2077.2945,83.49773078087082
2078.8448,71.19454509258867
2080.3945,77.20341815619076
2081.9434,93.87452888969165
2083.4916,69.45805543907181
2085.039,86.95417501157408
2086.5857,67.91306411985806
2088.1317,81.28489840704378
2089.677,72.21985283712047
2091.2215,77.56810156123083
2092.7652,74.37981800831994
2094.3083,94.00517483165186
2095.8506,74.7443439406934
2097.3921,100.39749630486313
2098.933,87.01480214613684
2100.4731,86.7964306825179
2102.0124,89.94255026186283
2103.5511,87.8033283640666
2105.089,104.02893156960226
2106.6261,96.81952558091143
2108.1626,105.17527506014994
2109.6983,90.39634370127851
2111.2332,99.13289414651035
2112.7675,103.68508813409562
2114.301,103.4030864109609
2115.8337,115.2370486871805
2117.3657,100.28713363880024
2118.897,112.20349878949446
2120.4276,96.93630066007108
2121.9575,98.83569464930224
2123.4866,112.75183518660015
2125.0149,100.38487571302221
2126.5426,97.23496854210907
2128.0695,93.0522649835566
2129.5956,97.58691537471259
2131.1211,106.63906912240554
2132.6458,92.05887465759679
2134.1698,106.99647934485984
2135.693,106.35202962818266
2137.2155,108.9256708815874
2138.7373,109.56754741558098
2140.2584,99.52780245141412
2141.7787,109.25657811466499
2143.2983,95.95401553563397
2144.8171,103.57025475205637
2146.3353,120.55543484212922
2147.8527,88.15969384834989
2149.3693,98.13316860766372
2150.8853,113.47599507542054
2152.4005,88.13830822563796
2153.9149,114.52024189757776
2155.4287,111.07192904912108
2156.9417,98.09350149294914
2158.454,108.03508993102605
2159.9655,112.5468240843843
2161.4764,113.32883259370783
2162.9865,109.13124297421336
2164.4958,102.1041816078291
2166.0045,105.79777378517474
2167.5124,101.81214377582728
2169.0195,105.54741479139057
2170.526,110.20370902535024
2172.0317,119.08114761571733
2173.5367,110.07985059846897
2175.0409,116.3999368187715
2176.5445,110.2415240209948
2178.0473,113.90472878550963
2179.5494,111.83966659027465
2181.0507,110.59645177420316
2182.5513,108.47519755781605
2184.0512,109.32601605567152
2185.5504,102.89901829757719
2187.0488,96.3443142200831
2188.5465,92.31201273074839
2190.0435,72.70222177369305
2191.5397,85.9150483699159
2193.0353,100.30059881339548
2194.5301,81.75897853895958
2196.0241,77.39029197843365
2197.5175,86.59464274605398
2199.0101,90.82213368215662
2200.502,87.12286676113081
2201.9931,72.34694304914592
2203.4835,69.79446274114298
2204.9733,72.16552530859508
2206.4622,70.91022952503226
2207.9505,81.42867344233264
2209.438,75.82095440327157
2210.9248,61.63716893634046
2212.4109,65.67741281182407
2213.8962,59.141781183635885
2215.3809,74.98036854891643
2216.8648,68.99326881338902
2218.3479,75.98057513297363
2219.8304,67.64237997365899
2221.3121,64.52877504163007
2222.7931,58.08985136664705
2224.2733,51.225699333186185
2225.7529,59.936408744822984
2227.2317,55.17206889287809
2228.7098,67.88276846931285
2230.1872,45.418595614367405
2231.6638,67.22963778945586
2233.1397,38.615982001807424
2234.6149,58.427714586356615
2236.0894,52.76492149188016
2237.5632,61.62768808287956
2239.0362,59.366099196207415
2240.5085,52.030239052441175
2241.9801,33.620191278495895
2243.4509,43.53603898098572
2244.921,43.0778649303229
2246.3904,51.49575146156212
2247.8591,41.089780478980174
2249.3271,53.46003337190086
2250.7943,27.356591118748838
2252.2608,43.12953416334949
2253.7266,43.4289426759633
2255.1917,37.5048963955569
2256.656,42.75747462680829
2258.1197,45.98675629934996
2259.5826,40.29281991524249
2261.0447,35.22574351667936
2262.5062,44.58560474292835
2263.9669,35.9224808809995
2265.4269,33.73644877205061
2266.8862,45.527584898014084
2268.3448,54.94596540345947
2269.8026,39.64166597768144
2271.2598,36.31476176051547
2272.7162,39.41532749537964
2274.1719,42.243437562545296
2275.6268,54.949165948132304
2277.0811,54.432586215827996
2278.5346,59.593771379831196
2279.9874,53.582793910014516
2281.4395,58.64972568031453
2282.8908,47.54463802883993
2284.3414,53.117601707202084
2285.7914,61.81868699156985
2287.2406,52.297963626933324
2288.689,62.15550074009889
2290.1368,61.09136693489563
2291.5838,70.60563019359915
2293.0302,59.69835788757064
2294.4758,55.919616682117976
2295.9206,47.369472645567384
2297.3648,54.19799128705199
2298.8082,55.75523764201171
2300.251,59.29127620390773
2301.693,62.15617090864953
2303.1343,56.199985099235164
2304.5748,50.92278149710137
2306.0147,54.07462226168718
2307.4538,57.405569043205105
2308.8922,67.91568295112347
2310.3299,80.70502452085748
2311.7669,47.52365360866497
2313.2031,47.471629263752675
2314.6387,67.9490100600924
2316.0735,63.805854096938674
2317.5076,63.142218794057044
2318.941,60.25816093315598
2320.3737,47.90373666452342
2321.8056,52.02900153586597
2323.2369,59.98401061585264
2324.6674,62.868818452864616
2326.0972,58.18347899544369
2327.5263,58.77804556344563
2328.9547,55.45257089489087
2330.3823,67.05710714002134
2331.8092,63.39170589455307
2333.2355,55.506418083632525
2334.661,56.55129399849284
2336.0858,72.92638337530389
2337.5098,63.43173538472365
2338.9332,74.96739846814671
2340.3558,74.18342043265238
2341.7778,60.929848335648785
2343.199,63.50672849271268
2344.6195,57.214106610122144
2346.0393,60.052027759089015
2347.4583,59.67053643868485
2348.8767,75.5696765474645
2350.2943,81.19949138727634
2351.7113,69.46002350427716
2353.1275,73.65131463262696
2354.543,75.72340581188564
2355.9578,77.226337345101
2357.3718,53.71014877808966
2358.7852,66.7248788844081
2360.1978,58.02056590051188
2361.6098,56.19724739561025
2363.021,60.80496035870601
2364.4315,70.2437412168315
2365.8413,80.5636257889696
2367.2504,75.26464919166392
2368.6587,62.74684573582408
2370.0664,69.96024897971483
2371.4733,65.35489185413326
2372.8795,57.2308065902771
2374.285,54.28802476579449
2375.6899,66.47657738602584
2377.0939,40.19649491343216
2378.4973,58.19780714570834
2379.9,57.33054347858251
2381.3019,60.94473272580399
2382.7032,59.94040312781681
2384.1037,49.81758231561798
2385.5035,60.976297320804406
2386.9027,61.81657467679452
2388.3011,51.03844030724645
2389.6987,54.29191951765597
2391.0957,64.7270371031318
2392.492,45.74381731586641
2393.8876,46.29228376078163
2395.2824,46.872459585363686
2396.6765,43.68436747417741
2398.07,41.178029643065656
2399.4627,46.35346787102867
2400.8547,55.51070352528245
2402.246,45.54975750951121
2403.6366,48.820650172290016
2405.0265,33.62340140669539
2406.4156,45.55803061760048
2407.8041,40.47455687364345
2409.1918,34.7229987878834
2410.5789,33.353374568633626
2411.9652,40.36570207697832
2413.3508,39.20999884046773
2414.7358,21.286281982994296
2416.12,33.894568236350096
2417.5035,49.93487411946603
2418.8863,24.757215812329832
2420.2684,50.51160899558408
2421.6497,36.09806910229668
2423.0304,21.866611060424475
2424.4104,49.66724943694726
2425.7896,33.299998580183
2427.1682,39.76487234177762
2428.546,48.81188424037737
2429.9232,42.29104739698232
2431.2996,42.30237444447312
2432.6753,46.09587759282135
2434.0503,49.52156862897505
2435.4246,32.07945887892356
2436.7982,40.76955917344185
2438.1711,43.741880022509804
2439.5433,33.39643152841245
2440.9148,43.18322335601579
2442.2856,26.152264836221775
2443.6557,41.90356486810174
2445.025,36.187132089203715
2446.3937,37.80297471804124
2447.7617,30.501100611258607
2449.1289,45.481517247471174
2450.4955,40.494231800285206
2451.8613,49.63925098849131
2453.2265,26.266581125940775
2454.5909,30.27622803009126
2455.9546,41.06819725573723
2457.3177,49.09249405491005
2458.68,54.09912326896119
2460.0416,59.138089248317556
2461.4025,48.359395802415975
2462.7627,53.31304614931355
2464.1222,48.64904302347418
2465.4811,62.26738862623051
2466.8392,62.868084672428495
2468.1966,63.10113225423879
2469.5533,56.01653183515282
2470.9093,57.96428324765134
2472.2645,65.79438576404982
2473.6191,70.90683807702112
2474.973,64.90163822129625
2476.3262,64.42878352253797
2477.6787,59.98827065739329
2479.0305,61.03009565822231
2480.3816,58.65425395750208
2481.7319,58.86074037741082
2483.0816,65.04954915358371
2484.4306,66.72067393304815
2485.7789,67.17410771233722
2487.1264,66.2098428207787
2488.4733,56.47787091595819
2489.8195,45.82818299336395
2491.165,44.21076948370592
2492.5097,61.97562035941405
2493.8538,50.122725150811675
2495.1972,45.152072768466496
2496.5398,50.963651621719464
2497.8818,58.95744966839197
2499.2231,51.433454356671064
2500.5637,44.8916525451682
2501.9035,43.33203057816104
2503.2427,44.1045743510108
2504.5812,38.90926932575917
2505.919,64.14610052340277
2507.256,62.11505257584554
2508.5924,64.11610947353256
2509.9281,49.49925458575967
2511.2631,41.164470640661875
2512.5974,46.711739871384225
2513.9309,58.54104409942738
2515.2638,53.752364679175116
2516.596,51.94568237960061
2517.9275,47.970977432154086
2519.2583,48.72822954882986
2520.5884,47.667417961912406
2521.9178,47.738521416403955
2523.2465,43.691518180633466
2524.5745,44.82638604554586
2525.9018,44.84310236517126
2527.2284,59.491644045275734
2528.5543,53.4719875431947
2529.8796,55.48410872134855
2531.2041,52.92798290743849
2532.5279,56.203584874326
2533.851,72.460888865593
2535.1735,58.89986856278597
2536.4952,68.07049692284363
2537.8163,59.022746313705966
2539.1366,55.50658842260896
2540.4562,66.771994346562
2541.7752,68.51893462750832
2543.0935,70.14737913967338
2544.411,67.85729707209316
2545.7279,64.84865691233108
2547.0441,60.671426469376456
2548.3596,77.87557290373434
2549.6744,78.9110627691955
2550.9885,75.92786184079523
2552.3019,71.02593510446013
2553.6146,78.10524678683669
2554.9266,76.76576040431405
2556.2379,78.75743869222902
2557.5485,81.33024361826097
2558.8585,82.63413636251494
2560.1677,78.06907729179557
2561.4762,86.08502594656534
2562.7841,77.08194108659677
2564.0913,93.55978061081419
2565.3977,90.81850164732282
2566.7035,79.25806038863129
2568.0086,98.62841211906311
2569.313,94.82951133036136
2570.6167,100.26131152798553
2571.9197,92.12376526910043
2573.222,96.66682410825933
2574.5236,106.34043867877745
2575.8246,98.49455864730203
2577.1248,100.17913261707713
2578.4244,91.99410820640128
2579.7232,97.33943203178251
2581.0214,107.76504978978937
2582.3189,116.47090620359495
2583.6157,111.9569449187236
2584.9118,125.27310841599024
2586.2072,112.01933805664135
2587.5019,130.24557394919293
2588.7959,122.4017550819683
2590.0893,118.83781914083443
2591.3819,126.40370258764165
2592.6739,118.14934069586207
2593.9652,134.47466747493172
2595.2557,131.07961575279387
2596.5456,131.21411701264697
2597.8348,134.0281014268935
2599.1234,130.1214978557955
2600.4112,143.39423381933625
2601.6983,149.39623553628417
2602.9848,137.87742779146652
2604.2705,136.88773387574815
2605.5556,139.1770757012198
2606.84,139.3953738110954
2608.1237,140.34254735681952
2609.4067,141.9685140958834
2610.689,133.72319038235378
2611.9707,138.80649115061215
2613.2516,132.9683299978085
2614.5319,131.7086191330277
2615.8115,128.02726943567313
2617.0903,114.82419046806126
2618.3685,115.09929051223776
2619.6461,118.60247670200624
2620.9229,123.48365502017805
2622.199,127.04273026354099
2623.4745,135.57960599404623
2624.7493,124.59418450321891
2626.0234,138.2863667267875
2627.2968,131.50605235453872
2628.5695,129.9031396933974
2629.8415,120.12752573522812
2631.1128,127.77910617286398
2632.3835,127.3077754978633
2633.6535,129.6134269239949
2634.9228,136.94595239194928
2636.1914,126.40524254628303
2637.4593,131.09118666209406
2638.7265,134.25367275042777
2639.9931,130.94258751141842
2641.259,126.35781630266433
2642.5242,121.94924317233813
2643.7887,132.46675090503504
2645.0525,134.2102210658593
2646.3156,123.42953389524723
2647.5781,125.17456829153343
2648.8398,122.8952019187575
2650.1009,126.8913111892141
2651.3613,128.76277128624702
2652.6211,120.50945612428711
2653.8801,116.33123833013838
2655.1385,113.57798932551077
2656.3961,119.44957936880235
2657.6531,131.89587758263258
2658.9094,129.4167518951258
2660.1651,117.01206891544791
2661.42,131.48169395859725
2662.6743,133.57549116945233
2663.9279,133.44332337807577
2665.1808,134.7350520787752
2666.433,136.85053743142555
2667.6846,140.18963824855166
2668.9354,145.8022119741729
2670.1856,142.9881146504132
2671.4351,144.34720086137418
2672.6839,151.52932376127774
2673.9321,160.78433506087356
2675.1795,150.6120849556188
2676.4263,154.6624220331273
2677.6724,164.03519337489342
2678.9179,164.38024451578735
2680.1626,167.8974193503277
2681.4067,158.83656012923132
2682.6501,162.34750742424103
2683.8928,164.1801002187351
2685.1348,149.6841758726173
2686.3761,153.45957010399138
2687.6168,160.75611713411934
2688.8568,149.82364964966848
2690.0961,147.41199872974562
2691.3348,148.77099395522168
2692.5727,143.50046343284782
2693.81,134.85023378166522
2695.0466,128.6701301857115
2696.2826,147.05997648052187
2697.5178,136.56959521493047
2698.7524,137.29880746717242
2699.9863,141.64743294978734
2701.2195,137.16529000232754
2702.452,152.70219554787093
2703.6839,146.60796513784317
2704.9151,145.8324127966482
2706.1456,160.57535108261095
2707.3755,154.23659109573202
2708.6046,174.11594233025926
2709.8331,167.46321273807507
2711.0609,176.72820852990333
2712.2881,181.31073424183603
2713.5145,197.310592642684
2714.7403,206.12758468815082
2715.9654,218.11150936083436
2717.1899,218.0621635820562
2718.4136,229.67934209202417
2719.6367,248.86283745032404
2720.8591,249.51243991974934
2722.0809,263.2279372744647
2723.3019,263.35911479351125
2724.5223,277.1557551236506
2725.7421,283.917638278054
2726.9611,285.5945414983355
2728.1795,281.68623918693345
2729.3972,272.49250289034103
2730.6142,258.2131013381902
2731.8306,244.19780053518775
2733.0462,240.84636390391017
2734.2612,207.45855242495622
2735.4756,202.28412467046212
2736.6892,177.52283713797817
2737.9022,166.87444430221421
2739.1145,159.08869886265268
2740.3262,136.46535185003165
2741.5372,127.1541527042026
2742.7475,108.1548495003641
2743.9571,107.96718904217357
2745.1661,88.99091705174021
2746.3744,86.02577817150166
2747.582,74.37151615398693
2748.7889,73.97787389146731
2749.9952,65.24459353249927
2751.2008,51.521416485860755
2752.4057,49.35808350788443
2753.61,43.454334839688954
2754.8136,41.85991022881285
2756.0165,37.57454898825142
2757.2188,45.19799001240165
2758.4204,36.279971819915204
2759.6213,28.170232477464765
2760.8215,34.86850968892361
2762.0211,24.424540876463084
2763.22,21.688063113569797
2764.4182,21.85881322948603
2765.6158,23.78652783657276
2766.8127,13.870943328603971
2768.009,12.311795861488918
2769.2045,5.708821452427173
2770.3994,4.211755995501562
2771.5936,3.670335327706198
2772.7872,3.28429524391845
2773.9801,-8.296628497687834
2775.1723,-10.922700171780889
2776.3639,-12.694101169710734
2777.5548,-16.21090376505265
2778.745,-17.473053417311576
2779.9346,-27.980333639063247
2781.1235,-12.082353387080275
2782.3117,-11.678442094602133
2783.4992,-5.767808492158906
2784.6861,-8.999544642643627
2785.8723,-13.372684988542687
2787.0579,-8.686174066891795
2788.2428,4.411177178395633
2789.427,-5.929355421714945
2790.6106,5.9935039196300295
2791.7935,14.181090223544516
2792.9757,21.38473845120825
2794.1573,20.85578342198926
2795.3382,32.69555974141019
2796.5184,41.20540180643536
2797.698,59.18664368707368
2798.8769,65.04061904128082
2800.0551,73.96866093514689
2801.2327,96.7221017843566
2802.4096,115.60227326490792
2803.5859,131.1105060855773
2804.7615,141.64812979911903
2805.9364,165.61647264718192
2807.1106,189.01686145493363
2808.2842,215.30062139137783
2809.4572,239.76907573534913
2810.6294,267.4235456126776
2811.801,311.7653497515015
2812.972,348.2458042057244
2814.1423,382.1162219115964
2815.3119,431.27791232291054
2816.4808,472.682181072297
2817.6491,511.5303294796089
2818.8167,579.2236541378769
2819.9837,615.113446524829
2821.15,647.8509923259573
2822.3157,691.6875710756199
2823.4807,752.4744558296647
2824.645,783.8129127270657
2825.8086,835.4042003820526
2826.9716,880.6495695707254
2828.134,935.3502627151433
2829.2957,966.4075134308707
2830.4567,999.3225459799683
2831.617,1021.5465749604228
2832.7767,1015.4808049769965
2833.9358,1016.2264304189863
2835.0941,1003.0346355208825
2836.2519,1003.856594354911
2837.4089,987.3434709629521
2838.5653,973.74641934832
2839.7211,969.5665836408963
2840.8761,968.4550982330977
2842.0306,992.9130878216757
2843.1843,1017.8416674188311
2844.3374,1082.9419421076345
2845.4899,1105.9150067927399
2846.6417,1186.311945549382
2847.7928,1249.0838313936472
2848.9433,1320.7317254785016
2850.0931,1398.1066764660745
2851.2422,1463.859719811177
2852.3907,1532.3918769875554
2853.5385,1593.4541548303578
2854.6857,1639.9475448508153
2855.8323,1691.723022625617
2856.9781,1734.5315473319758
2858.1233,1788.0240612298778
2859.2679,1820.301489233991
2860.4118,1881.5647383787448
2861.555,1918.6146974955534
2862.6976,1951.152236600184
2863.8395,1969.0782065222575
2864.9808,2007.8934385798727
2866.1214,2011.4987444003464
2867.2614,2022.5449155320628
2868.4007,2041.632723408418
2869.5393,2042.6629192373618
2870.6773,2076.086233810516
2871.8146,2079.903377492873
2872.9513,2085.915039888565
2874.0874,2061.6718898026884
2875.2227,2074.874575181191
2876.3574,2035.1237233533038
2877.4915,2024.7199408995084
2878.6249,2004.8138140490535
2879.7577,1979.8059087839868
2880.8898,1950.8967710382208
2882.0212,1942.8869269476058
2883.152,1915.476883139028
2884.2821,1920.817126810502
2885.4116,1902.9581260052755
2886.5405,1904.650329558424
2887.6686,1902.744167275443
2888.7962,1915.890049915325
2889.923,1923.5883692096218
2891.0493,1936.939497730984
2892.1748,1937.6937888161804
2893.2997,1954.1515764325845
2894.424,1954.4131751706336
2895.5476,1982.6788800792476
2896.6706,2007.2989666632166
2897.7929,2027.8236906005413
2898.9145,2065.1532874962327
2900.0355,2095.287972677066
2901.1559,2115.377940818284
2902.2756,2165.823365642249
2903.3946,2186.5243997175444
2904.513,2214.3811739545213
2905.6308,2228.8937973982866
2906.7479,2257.2623569501347
2907.8643,2279.236917222425
2908.9801,2306.667520254889
2910.0953,2314.654185294895
2911.2098,2325.896908523132
2912.3236,2300.795662973752
2913.4368,2293.9003984219357
2914.5494,2281.961041634909
2915.6613,2249.177496440893
2916.7725,2223.2496438484977
2917.8831,2195.5773423745613
2918.9931,2163.1104283034238
2920.1024,2150.998715963655
2921.211,2131.7919980527163
2922.319,2133.8900457580867
2923.4264,2101.1426089493248
2924.5331,2092.099416157087
2925.6391,2083.0101749006058
2926.7445,2079.4745717781184
2927.8493,2080.842272557761
2928.9534,2063.6629222129254
2930.0569,2054.3361449085805
2931.1597,2060.9615441730657
2932.2619,2049.4387029913605
2933.3634,2058.317183738829
2934.4643,2050.346528296449
2935.5645,2051.176257962027
2936.6641,1991.2058735299036
2937.763,1964.6348552826591
2938.8613,1910.5626635908143
2939.959,1862.6887391785415
2941.056,1812.4625036643884
2942.1523,1718.9333600400143
2943.248,1646.050693172454
2944.3431,1562.613870739409
2945.4375,1463.5222439580746
2946.5313,1370.9251484195079
2947.6244,1268.2719050795438
2948.7169,1166.7118211847664
2949.8087,1067.2441912990419
2950.8999,978.8682983191183
2951.9904,922.0834144693031
2953.0803,842.9388021852205
2954.1696,787.4837146816611
2955.2582,736.2173967440276
2956.3462,681.8890852828864
2957.4335,644.0480098466302
2958.5202,622.5933931647614
2959.6062,591.6744515263026
2960.6916,570.3403949943421
2961.7764,551.7904277152243
2962.8605,528.22374813189
2963.9439,530.3895491693769
2965.0267,532.5370184704848
2966.1089,520.6153383741189
2967.1905,519.7736858938139
2968.2714,513.9612328369519
2969.3516,517.3771458131786
2970.4312,526.320586292527
2971.5102,537.1907105712587
2972.5885,530.3866696824302
2973.6662,536.9076092871917
2974.7432,544.352669742826
2975.8196,537.7209860375409
2976.8954,527.7616877160176
2977.9705,517.773898945728
2979.045,503.05673861652747
2980.1188,502.50932044053206
2981.192,494.63075309929206
2982.2645,476.8201402492639
2983.3364,454.1765806005985
2984.4077,430.5991680952445
2985.4783,394.98699213338546
2986.5483,363.8391378092134
2987.6177,339.00468626705094
2988.6864,316.28271501282893
2989.7545,277.6722981624314
2990.8219,256.3725066689158
2991.8887,221.53240870861737
2992.9548,194.60106989414635
2994.0204,167.97755362278883
2995.0852,139.31092134582104
2996.1495,126.50023283474388
2997.2131,103.34454646794916
2998.276,91.19291935882632
2999.3383,75.84440758732
3000.4,62.09806632144603
3001.4611,44.10294997077597
3002.5215,38.608112323902105
3003.5812,21.46260672838673
3004.6404,15.01548614571152
3005.6989,9.315803322732336
3006.7567,4.812610856150627
3007.8139,-3.3450387504905166
3008.8705,-7.8580930417736
3009.9264,-2.6774661453446242
3010.9818,-4.003993686499825
3012.0364,-10.03848454264903
3013.0905,-19.231707591305394
3014.1439,-5.884331425521054
3015.1966,-5.996832513589993
3016.2487,-13.11962853933494
3017.3002,-9.603077278221804
3018.3511,-2.297405440627813
3019.4013,0.39725619781222576
3020.4509,0.8307998125433187
3021.4998,11.45311757503805
3022.5481,9.714101648461792
3023.5958,15.01364408144832
3024.6428,24.251636825490777
3025.6892,22.17797168194636
3026.735,26.64254020965609
3027.7802,31.745233745682185
3028.8247,44.38594336066126
3029.8685,47.214559807777675
3030.9118,44.88097339635607
3031.9544,61.08507396357561
3032.9963,64.27675089780593
3034.0376,71.80589297656638
3035.0783,73.82238833460895
3036.1184,86.22612438862734
3037.1578,90.61698781709111
3038.1966,98.49486443620901
3039.2348,95.90963915602026
3040.2723,104.21119590161527
3041.3092,110.74941763898852
3042.3455,112.02418629202248
3043.3811,111.13538267710601
3044.4161,109.53288649038632
3045.4505,112.016576316657
3046.4842,107.386329645383
3047.5173,112.69202284586356
3048.5498,104.38353121353475
3049.5816,107.51072891691285
3050.6128,103.22348908067852
3051.6434,106.12168375440558
3052.6734,103.75518395543304
3053.7027,95.62385963988345
3054.7314,91.82757972632794
3055.7594,89.91621217709911
3056.7868,97.13962403625408
3057.8136,91.19768144868789
3058.8398,92.59024958789985
3059.8653,87.16719271541263
3060.8902,88.52837416684656
3061.9145,89.72365640614998
3062.9381,87.95290101198776
3063.9612,85.21596866578824
3064.9835,77.46271916945074
3066.0053,76.1930114727154
3067.0264,82.40670375069504
3068.0469,75.85365341657268
3069.0668,75.78371705946415
3070.086,75.04675050994888
3071.1046,64.89260884076941
3072.1226,61.37114637420075
3073.1399,56.48221678359181
3074.1567,54.8756731285805
3075.1727,51.601367903982634
3076.1882,42.55915305585762
3077.203,34.59888001425122
3078.2173,28.52039978361796
3079.2308,25.72356302242372
3080.2438,22.958220103930614
3081.2561,23.72422114416503
3082.2678,17.67141602957139
3083.2789,18.799654409352
3084.2893,11.35878575599503
3085.2991,15.748659353992252
3086.3083,5.86912437424769
3087.3169,1.5200298301789985
3088.3248,8.151224676512697
3089.3321,2.9625578527751486
3090.3388,3.2538782169805245
3091.3449,-2.8249654024823485
3092.3503,-8.174124209763363
3093.3551,-0.043721187608355194
3094.3593,-7.03379765926212
3095.3629,0.20560548880490614
3096.3658,-0.12548236223909726
3097.3681,-2.1270338852248756
3098.3698,7.5009795005854585
3099.3708,-0.8913923750018
3100.3713,-2.9040997571900675
3101.3711,1.5629160138269071
3102.3702,-7.590257390188157
3103.3688,2.386467686898129
3104.3667,-0.5567452721095378
3105.364,0.4302671917289729
3106.3607,-0.10232590076091697
3107.3568,1.6956401728769208
3108.3522,0.024331157334302134
3109.347,5.733912780346827
3110.3412,0.824550526581703
3111.3348,5.796409823367156
3112.3277,4.749656089785958
3113.32,6.934454686956798
3114.3117,8.600970928501823
3115.3028,10.14937005869885
3116.2932,8.779817235816154
3117.2831,9.742477516628412
3118.2723,16.487515870112418
3119.2608,11.965097167820261
3120.2488,11.925386116429053
3121.2361,14.41854730296484
3122.2229,18.79474519520005
3123.209,20.754144116721733
3124.1944,17.39690820316946
3125.1793,17.923201382641423
3126.1635,17.983187409266918
3127.1471,19.37702985794337
3128.1301,21.55489212373635
3129.1125,25.01693740794167
3130.0942,21.663328696306024
3131.0753,27.994228724406867
3132.0558,23.559800011188287
3133.0357,26.41020479565219
3134.015,25.795605081202496
3134.9936,30.31616260714111
3135.9716,34.87203885481398
3136.949,32.91339500240548
3137.9258,35.79039187937968
3138.902,32.05318998606688
3139.8775,35.751949464893585
3140.8524,36.08683013775439
3141.8267,39.20799146902439
3142.8004,42.26559256221057
3143.7735,42.80979212874004
3144.7459,39.040748457383955
3145.7178,38.30861940881576
3146.689,43.16356245330134
3147.6596,43.60573467802058
3148.6295,47.53529273851778
3149.5989,46.80239285428
3150.5676,49.60719076944142
3151.5357,47.44984176011225
3152.5032,48.93050060633101
3153.4701,48.99932161363776
3154.4364,48.45645859826759
3155.402,52.55206488646236
3156.367,54.43629331989938
3157.3315,52.85929621473531
3158.2952,61.12122534276392
3159.2584,54.67223194718602
3160.221,56.2124666599901
3161.1829,59.7420795664424
3162.1442,55.11122018968453
3163.105,61.22003745543732
3164.065,59.118679738309424
3165.0245,62.907294800709295
3165.9834,65.23602981385847
3166.9416,68.65503131990562
3167.8993,65.06444520863923
3168.8563,66.5144166832975
3169.8127,67.15509029647417
3170.7684,69.73660993561893
3171.7236,72.35911881663051
3172.6782,72.4727594580417
3173.6321,73.22767365479402
3174.5854,74.87400247710147
3175.5381,75.51188626290133
3176.4902,77.99146460139085
3177.4417,75.1128763266485
3178.3926,73.97625949283812
3179.3428,82.08175140299488
3180.2924,83.62948862039127
3181.2415,81.91960688748242
3182.1899,81.10224111042845
3183.1377,84.57752537619359
3184.0848,85.19559296071967
3185.0314,88.40657629417316
3185.9773,83.7606069547648
3186.9227,92.95781563663948
3187.8674,87.1983321963361
3188.8115,91.5822855608154
3189.755,93.9098037850548
3190.6979,92.13101400820895
3191.6402,90.34604243033445
3192.5818,92.8550143301778
3193.5229,94.90805408302498
3194.4633,99.605285135612
3195.4031,101.94682998559423
3196.3423,98.93281013457431
3197.2809,102.36334606468647
3198.2189,100.68855726873696
3199.1563,102.80856221589849
3200.0931,106.67347836845828
3201.0292,102.93342216061782
3201.9648,103.73850895984397
3202.8997,110.68885310426927
3203.834,112.48456789464119
3204.7677,106.7757655248187
3205.7008,109.21255706381505
3206.6333,111.74505251288588
3207.5652,113.07336078116117
3208.4964,115.44758966032049
3209.4271,114.5178458113097
3210.3571,113.63423474059884
3211.2865,116.34686080947944
3212.2154,122.75582724290066
3213.1436,121.36123610234316
3214.0712,122.86318822172916
3214.9982,120.51178322136863
3215.9246,123.55711949293963
3216.8503,123.04929422300238
3217.7755,128.18840336254584
3218.7001,126.8245416320661
3219.624,127.65780247017513
3220.5473,132.3382780472395
3221.4701,131.26605925704777
3222.3922,135.4912356700057
3223.3137,131.8638955438584
3224.2346,135.88412578143868
3225.1549,134.60201196694035
3226.0746,134.41763832571598
3226.9937,135.68108773709798
3227.9121,136.99244173624237
3228.83,140.7517805014943
3229.7473,137.05918284127438
3230.6639,142.8147261564855
3231.5799,144.21848647743866
3232.4954,144.02053840629748
3233.4102,146.37095510304084
3234.3244,150.71980828744222
3235.238,150.1171682155654
3236.151,150.1131036362762
3237.0634,151.65768179726865
3237.9752,150.50096844510574
3238.8864,151.8930278097736
3239.797,155.33392261624869
3240.7069,154.62371407057714
3241.6163,152.46246182546585
3242.5251,159.80022398738453
3243.4332,159.58705713817812
3244.3408,156.77301626168952
3245.2477,160.9081547458908
3246.154,161.04252441102398
3247.0598,161.67617546824943
3247.9649,162.7591565183023
3248.8694,162.0415145451559
3249.7733,163.27329490519202
3250.6766,165.15454133437714
3251.5793,163.58529593594494
3252.4814,167.06559916158344
3253.3829,169.04548982712782
3254.2838,171.97500507775715
3255.1841,172.05418036819563
3256.0838,173.4830494334173
3256.9829,173.66164428785453
3257.8814,174.3399952111089
3258.7792,172.11813074616572
3259.6765,177.69607769261017
3260.5731,176.5738611288461
3261.4692,179.30150435631646
3262.3647,178.57902891072558
3263.2595,175.45645453476268
3264.1538,180.4837991853266
3265.0474,181.81107906475168
3265.9404,179.93830857053416
3266.8329,177.46550028205945
3267.7247,181.99266497932985
3268.616,180.16981166769256
3269.5066,177.49694753256807
3270.3966,177.77407795767874
3271.286,183.10120655177732
