RamanShift,CorrectedData
30.1047,155.95044642966815
32.3739,145.72553967878187
34.6426,132.5006313683911
36.9109,121.12571848173606
39.1787,109.50079667705043
41.4461,97.87586040131083
43.7131,86.00090300648587
45.9796,73.22591686578545
48.2456,62.20089349241042
50.5112,50.02582366730236
52.7764,40.60069754939394
55.0411,31.52550479735954
57.3054,17.050234663866572
59.5692,7.674876086327377
61.8326,-4.350582168348048
64.0955,-13.276151409998477
66.3579,-23.751799486146826
68.6199,-33.52736161556346
70.8815,-38.60243573654187
73.1426,-36.97628484903308
75.4032,-16.34778631465511
77.6634,48.8845518980596
79.9231,213.4723851349638
82.1824,571.2673682530649
84.4412,1177.8711539746464
86.6995,1939.6853893093185
88.9574,2674.4617094879786
91.2148,3163.351730344673
93.4717,3366.907040968828
95.7282,3391.0291988163535
97.9842,3375.5197276740905
100.2398,3306.080117418587
102.4949,3226.8118241711945
104.7495,3184.316270992462
107.0036,3135.244848674821
109.2573,3052.648916167541
111.5105,2917.629801067443
113.7632,2833.338800444859
116.0154,2724.927182193822
118.2672,2585.9461858749773
120.5185,2461.997023799701
122.7693,2361.4808824199035
125.0197,2236.098923567529
127.2696,2147.1522854597106
129.519,2095.7920839525927
131.7679,2044.2694134307987
134.0163,2011.4853473210305
136.2642,1981.5909386072947
138.5117,1952.437220158747
140.7587,1920.2752050286324
143.0052,1852.0058867458233
145.2512,1791.7802396364423
147.4967,1725.5492195065513
149.7417,1671.2637642444106
151.9863,1623.5247944827881
154.2304,1591.3332141418155
156.4739,1566.2399109063758
158.717,1576.6457565480193
160.9596,1582.9016071759004
163.2017,1597.8583031327134
165.4433,1599.5166689321381
167.6844,1584.3275131092716
169.925,1549.291628204045
172.1651,1472.8097909131134
174.4047,1407.282762440217
176.6439,1362.9612892609978
178.8825,1313.5961037782704
181.1206,1293.7879247652368
183.3582,1271.5374578591388
185.5954,1246.1453957593396
187.832,1221.2624184498277
190.0681,1214.2391934531381
192.3037,1208.0763760791829
194.5388,1197.8246094954825
196.7734,1215.034524788793
199.0075,1211.5567410676263
201.2411,1227.1918652901481
203.4742,1229.790492298958
205.7068,1254.5532046647365
207.9389,1255.0805726602603
210.1704,1277.0231540127738
212.4015,1266.4314938987168
214.632,1268.7561247242977
216.862,1263.9475662314112
219.0915,1252.1063254743904
221.3205,1264.1328968680932
223.549,1263.7777623063157
225.777,1254.2413910415257
228.0044,1229.2742396884125
230.2314,1208.8767523192541
232.4578,1189.9993607135843
234.6837,1168.8424845621712
236.909,1142.4565316557882
239.1339,1112.6918980967857
241.3582,1106.7989685629477
243.582,1093.3281166051406
245.8053,1092.2797047062409
248.0281,1086.754084415845
250.2503,1092.6515963607517
252.472,1085.7725703002193
254.6932,1085.4673250669914
256.9139,1063.5861686360854
259.134,1076.0793981278462
261.3536,1089.7473000267573
263.5727,1119.9401500565095
265.7912,1152.5582130433202
268.0092,1224.201742614006
270.2267,1275.3709808698027
272.4436,1312.6161576699292
274.6601,1330.0374901198948
276.8759,1356.6851821990483
279.0913,1374.1594245863637
281.3061,1386.9603943939633
283.5204,1411.2382549923773
285.7341,1431.69315588253
287.9473,1436.475232452965
290.16,1428.6846057752944
292.3721,1380.5213825563792
294.5837,1335.1356552162356
296.7947,1292.0275023696665
299.0052,1253.9969892801178
301.2152,1238.6441682907614
303.4246,1222.9190792047993
305.6334,1180.4217494389932
307.8418,1168.4021941809137
310.0495,1131.3104168139146
312.2568,1089.1464090373277
314.4635,1038.9601512373818
316.6696,984.3016129088419
318.8752,917.0207531568728
321.0802,882.7175212436234
323.2847,869.6918572610357
325.4887,858.6436924738775
327.692,877.6729494499982
329.8949,906.7795421708104
332.0972,959.8633758409976
334.2989,990.3743465974474
336.5001,989.9123409784138
338.7007,942.3772356184086
340.9008,881.3188972528196
343.1003,816.4371831932647
345.2992,751.3819419381723
347.4976,713.6030138215995
349.6955,658.5002316637849
351.8927,641.4234211489372
354.0895,609.0724013762638
356.2856,593.3969850307387
358.4812,567.4469787066123
360.6763,561.5221830641647
362.8707,546.1723930892074
365.0646,542.4973981523299
367.258,548.3469821623987
369.4508,568.6209236033073
371.643,591.2189954754797
373.8346,615.390965093131
376.0257,636.0365938582863
378.2162,680.1556370190619
380.4062,684.5478434632087
382.5956,665.7129552769213
384.7844,631.7007077009166
386.9726,556.860829318782
389.1603,518.9430423970982
391.3474,482.7970636338389
393.5339,477.922604537549
395.7199,497.56937178880275
397.9052,524.3370672889491
400.09,567.4253879636444
402.2743,608.7340254951737
404.4579,661.6126658915698
406.641,688.5609890735259
408.8235,727.1786683456089
411.0054,781.865370126776
413.1868,839.9707535641987
415.3675,883.294469986396
417.5477,872.6361623221801
419.7273,820.0454646674189
421.9064,718.822002391619
424.0848,655.7653926638338
426.2627,578.0252454648964
428.4399,508.95116421798616
430.6166,455.34274656603
432.7928,389.6995850624435
434.9683,340.02126770721475
437.1432,319.1073786033369
439.3176,292.6574984535921
441.4914,278.9712047696871
443.6645,266.24807213675535
445.8371,246.43767235021892
448.0091,260.93957454301926
450.1806,262.2533453837216
452.3514,253.72854893149724
454.5216,246.4647466229835
456.6913,241.41149735753538
458.8603,241.06835756985924
461.0288,260.18488128054923
463.1967,251.46062009951606
465.3639,243.64512303482184
467.5306,230.68793657992364
469.6967,221.18860479182786
471.8622,201.09666942066156
474.0271,215.41167000466726
476.1914,207.93314407112211
478.3551,188.5606269931866
480.5182,184.2936520646913
482.6807,198.3817506938601
484.8426,213.42445244598207
487.0039,265.4212849025289
489.1647,317.37177351072864
491.3248,360.67544106359605
493.4843,386.0818071804308
495.6432,373.3403878737777
497.8015,334.7006952953632
499.9592,284.0122378635108
502.1163,224.82452064953645
504.2728,174.3370458846348
506.4287,155.29931355175563
508.5839,135.86082189047875
510.7386,128.5210675873916
512.8927,123.12954597047315
515.0461,132.8857510824921
517.199,140.4391757349224
519.3512,193.28931141038083
521.5029,271.28564818709515
523.6539,345.3776742103994
525.8043,352.2148749127732
527.9541,286.24673227291873
530.1033,209.47272474739134
532.2519,160.19232793027822
534.3999,126.55501532094127
536.5472,110.41025881681867
538.694,122.60752904979859
540.8401,139.24629554766761
542.9856,155.47602661213705
545.1305,162.69618915245633
547.2748,182.00624852311535
549.4185,193.3556684516425
551.5615,206.24391084550393
553.704,217.52043567861006
555.8458,239.18470086243224
557.987,269.83616213323853
560.1276,285.27427283544944
562.2675,363.44848361512413
564.4069,446.90824226557993
566.5456,486.65299294564966
568.6837,462.9321753450847
570.8212,382.9452242871066
572.958,275.2415699656158
575.0942,215.27063874506166
577.2299,181.28185423747846
579.3648,160.624637902195
581.4992,133.29840938572192
583.6329,145.1525867283242
585.766,171.23658663728224
587.8985,218.94982436835153
590.0304,278.6417134649221
592.1616,313.0616652808874
594.2922,321.7590883837231
596.4222,283.2833882102889
598.5515,214.2339669798555
600.6802,157.6602240788593
602.8083,105.41155675139771
604.9358,79.88736066496631
607.0626,84.2870304329449
609.1888,97.55995986984135
611.3144,106.5055419472933
613.4393,175.72316866134088
615.5636,230.26223094296847
617.6873,284.87211796593056
619.8103,313.8522166013606
621.9327,312.3519108716714
624.0544,284.8205816607542
626.1756,213.30760672898077
628.2961,163.912360988518
630.4159,126.53421721845802
632.5351,127.22254655876986
634.6537,115.17671888408131
636.7716,103.1461027967946
638.8889,99.28006574754568
641.0056,117.67797415550922
643.1216,121.38919344706005
645.237,137.8130878717925
647.3518,125.39902046540988
649.4659,83.54635288548525
651.5793,64.80444553560255
653.6922,51.92265798388166
655.8043,37.50034915039919
657.9159,23.88687743600599
660.0268,15.281600866549297
662.137,18.63387722900825
664.2466,19.04306415754604
666.3556,12.208519099987825
668.4639,8.929599313729113
670.5716,7.405661934081081
672.6786,0.03606400705893975
674.785,-9.229837495377524
676.8907,-13.442685961548023
678.9958,-11.65303257369601
681.1002,-7.71129422163267
683.204,-10.267771381376406
685.3072,-1.3726874931162456
687.4097,-1.2261634220064934
689.5115,-4.078306320054253
691.6127,-2.929211089895716
693.7132,-11.578931891887578
695.8131,1.0725063764307379
697.9123,5.375194491050024
700.0109,4.179212513621906
702.1089,13.234640452046051
704.2061,39.491558272430666
706.3028,54.25004580853829
708.3987,81.41018249921694
710.4941,111.07204724081407
712.5887,105.28571811557549
714.6827,104.85127209502684
716.7761,101.61878509783674
718.8688,102.98833199416322
720.9608,95.85998663797591
723.0522,108.73382185336231
725.1429,134.25990950581013
727.233,168.888320373469
729.3224,260.21912389189083
731.4112,318.30238780774584
733.4993,326.18817726551333
735.5867,287.8765542266501
737.6735,206.6175773907305
739.7596,137.06130257856444
741.845,104.55778354478548
743.9298,104.8070726734154
746.014,98.659221302898
748.0974,104.51427972360852
750.1802,112.17229723932837
752.2624,118.28332210869758
754.3439,108.04740146863514
756.4247,98.11458127322703
758.5048,113.53490639608572
760.5843,125.75842072967771
762.6631,164.1851670311214
764.7413,212.91518679995147
766.8188,311.5485198938509
768.8956,396.28520404135134
770.9718,482.97527385550075
773.0473,467.21875998649625
775.1221,443.215688254782
777.1962,409.5660798086151
779.2697,480.16995136409605
781.3426,592.8273155416646
783.4147,694.988180160062
785.4862,675.8525471097569
787.557,574.0704113313368
789.6271,434.0917610068643
791.6966,291.71657857769924
793.7654,184.64484214428444
795.8335,115.87652688989874
797.901,87.261606151372
799.9678,75.85005210677127
802.0339,81.59183606154784
804.0993,82.98692856265347
806.1641,74.43529934112144
808.2282,70.53691729811658
810.2916,50.391750590452375
812.3544,35.39976666957273
814.4164,20.610932483005854
816.4778,28.075214624282353
818.5385,39.69257948082395
820.5986,79.7129931593015
822.658,140.5364213694602
824.7166,223.71282902391545
826.7747,324.99217962991975
828.832,402.724434457597
830.8886,471.50955152715096
832.9446,505.89748483154017
834.9999,480.2881836486297
837.0545,399.0815921973076
839.1085,304.7276498935835
841.1618,214.37629216264986
843.2143,159.62745138242371
845.2662,130.98105778706076
847.3175,108.38704001444148
849.368,97.34532539263637
851.4179,79.50584016584617
853.467,97.9685096048197
855.5155,115.8332581852469
857.5633,108.75000940313339
859.6105,99.31868559615282
861.6569,89.93920801447962
863.7027,73.6114969151024
865.7478,77.18547165561881
867.7922,55.01105085751169
869.8359,42.03815237041022
871.8789,39.11669349383283
873.9212,44.046591106917504
875.9629,49.2777616976357
878.0039,66.21012131349312
880.0441,87.69358550921856
882.0837,106.87806917744115
884.1226,136.01348633385373
886.1609,184.24974992536931
888.1984,238.03677153876583
890.2352,288.7744609183251
892.2714,305.81272542796046
894.3069,282.05146954384213
896.3416,216.34059468401279
898.3757,172.52999944600106
900.4091,142.76958026393004
902.4418,156.75923184662338
904.4739,167.69884747520928
906.5052,194.93831886322346
908.5358,197.27753604721352
910.5658,187.56638711434425
912.595,134.40475817900642
914.6236,101.09253347992649
916.6515,68.12959591178446
918.6786,47.21582735833567
920.7051,46.401109022040146
922.7309,39.08532163320001
924.756,40.968345458107024
926.7804,55.450060372199914
928.8041,66.23034584123434
930.8272,88.75908077646591
932.8495,98.836143426847
934.8711,111.01141115374094
936.892,126.13476033014786
938.9123,144.90606621895563
940.9318,178.62520282170567
942.9506,213.39204269087782
944.9688,199.5564565927018
946.9862,173.06831315948762
949.003,120.17747902797964
951.019,108.03381910423968
953.0344,88.63719709255611
955.0491,73.93747561687883
957.063,68.78451641478682
959.0763,59.62818048448503
961.0888,59.66832813633437
963.1007,62.20481908441343
965.1119,76.13751244611899
967.1223,67.61626671679812
969.1321,60.09093963042437
971.1412,48.16138824480845
973.1495,40.22746901685332
975.1572,40.88903792184851
977.1641,42.695950532808865
979.1704,44.84806201385925
981.1759,47.14522710216556
983.1808,43.63730008641414
985.1849,27.524134783839145
987.1884,32.35558457530328
989.1911,42.98150256642805
991.1932,45.501741539279124
993.1945,55.91615384610748
995.1951,54.824591384147766
997.1951,64.17690549147278
999.1943,65.12294695791013
1001.1928,55.01256593151811
1003.1906,86.14561190912627
1005.1877,109.67193383743972
1007.1841,133.14137980170756
1009.1798,154.1537967904602
1011.1748,138.45903046081446
1013.1691,117.00692492835037
1015.1627,75.297322924058
1017.1556,45.7300660088581
1019.1477,22.354994990699197
1021.1392,6.2219502202298145
1023.1299,-6.819228175452395
1025.12,6.331299868531801
1027.1093,17.523442541151212
1029.0979,41.007107968061746
1031.0859,68.68220409968592
1033.0731,81.59863847637519
1035.0596,76.15631795165882
1037.0454,80.65514856308039
1039.0304,63.44503558661961
1041.0148,40.375883491705395
1042.9985,21.09759611331731
1044.9814,8.510076882676003
1046.9636,8.113229020027461
1048.9452,11.956955660516769
1050.926,42.191159858158585
1052.9061,57.41574454739816
1054.8855,65.93061224076996
1056.8642,67.88566487665105
1058.8421,66.98080373411301
1060.8194,56.76592941337083
1062.7959,57.14094184483247
1064.7717,59.50574039124717
1066.7469,64.31022384395453
1068.7213,61.854290399237584
1070.695,80.08783761027735
1072.6679,100.86076241171202
1074.6402,128.82296093730156
1076.6117,145.8243283121992
1078.5826,129.46475837332844
1080.5527,91.39414349937033
1082.5221,51.66237477435925
1084.4908,24.619342368387834
1086.4587,3.6649359349257793
1088.426,0.5490448812499835
1090.3925,-7.3284414220106555
1092.3584,13.23236091081344
1094.3235,19.431408976521652
1096.2879,37.9186597395892
1098.2515,63.74406997017854
1100.2145,100.70759605926526
1102.1767,127.20919376038512
1104.1382,186.34881781999798
1106.099,245.5764217124722
1108.0591,300.69195704868866
1110.0185,350.7453729837638
1111.9771,386.4866156658952
1113.9351,442.01562773582714
1115.8923,516.4823479694373
1117.8488,546.0867107224483
1119.8045,506.8286451857589
1121.7596,406.4580750894012
1123.7139,276.37491909512164
1125.6675,210.8790918000866
1127.6204,223.47050503771277
1129.5726,243.6990685326266
1131.524,244.56468977475015
1133.4748,197.71727381701498
1135.4248,133.7567232667061
1137.3741,85.58293875393576
1139.3226,54.9458195712491
1141.2705,51.94526415536188
1143.2176,58.38117039353199
1145.164,79.20343565356507
1147.1097,84.66195671945479
1149.0546,52.90662958316102
1150.9989,34.23734939002452
1152.9424,5.204010756319576
1154.8852,-9.493492044052232
1156.8272,-9.955264789229204
1158.7686,-11.581318417364628
1160.7092,-16.0715644135164
1162.6491,-11.575798565372907
1164.5883,11.40634389430602
1166.5267,26.875343374987665
1168.4644,54.281680172075994
1170.4014,92.72583431222245
1172.3377,123.75828527926217
1174.2732,180.32951162977213
1176.2081,276.68999068274695
1178.1421,404.74019795388676
1180.0755,553.3806061919925
1182.0082,638.3116840984627
1183.9401,625.7338948408909
1185.8713,524.6976952037538
1187.8017,370.95353571419014
1189.7315,259.8018616523624
1191.6605,167.79311458889788
1193.5888,114.97773349640534
1195.5163,87.35615566956255
1197.4432,65.02881725327018
1199.3693,45.19615351886705
1201.2947,24.358599087404514
1203.2193,17.016588127972796
1205.1432,9.170554566076476
1207.0664,15.520932157054858
1208.9889,8.818154564542056
1210.9106,16.012655296962976
1212.8316,19.204867774561876
1214.7519,27.24522525745715
1216.6715,38.884160813718495
1218.5903,60.2721072389636
1220.5084,74.05949693996945
1222.4257,95.29676172079189
1224.3424,98.48433264489154
1226.2583,123.8226398227622
1228.1735,156.3121123800545
1230.0879,204.4031782041934
1232.0016,236.79626361948317
1233.9146,274.09179290619727
1235.8269,308.39018797664585
1237.7384,313.1918680022226
1239.6492,295.69724907041825
1241.5592,325.3567441368061
1243.4686,381.5207631999873
1245.3772,451.9397130049962
1247.285,557.6139964816596
1249.1922,632.9440120404078
1251.0986,716.3801525155307
1253.0042,787.3228044118788
1254.9092,886.5223470705012
1256.8134,1005.579151959219
1258.7169,1096.6435816806313
1260.6196,1149.265988781545
1262.5216,1186.8467148423326
1264.4229,1185.8360899507059
1266.3234,1141.884432325911
1268.2232,1080.142048328833
1270.1223,1024.559232901514
1272.0207,982.1862701845755
1273.9183,940.6234340730467
1275.8151,960.6709886400952
1277.7113,998.4291885526543
1279.6067,1084.4982788709485
1281.5014,1233.9284946709104
1283.3953,1447.3700601834894
1285.2885,1679.2231873003516
1287.181,1830.838073439462
1289.0727,1918.114899226554
1290.9637,1868.95382697898
1292.854,1731.504999832945
1294.7435,1602.6185422351152
1296.6323,1480.2445613171078
1298.5204,1342.7831481843534
1300.4077,1254.9343791398387
1302.2943,1194.948317058719
1304.1802,1149.675012266806
1306.0653,1111.9645031404293
1307.9497,1083.5668165591683
1309.8333,1052.431968282958
1311.7162,1012.2599632360658
1313.5984,987.40079581844
1315.4798,959.6044503074285
1317.3605,952.4209011063724
1319.2405,976.9501130225688
1321.1197,972.7920413391062
1322.9982,918.1466315695726
1324.876,847.813819499636
1326.753,750.3435317334985
1328.6293,640.835686397224
1330.5048,547.1901941134427
1332.3796,450.80695909642714
1334.2537,395.5858800885487
1336.127,348.17685132410975
1337.9996,309.729763081554
1339.8714,289.3945021575573
1341.7426,258.370952251498
1343.6129,251.95899416880968
1345.4826,243.9585061312166
1347.3515,216.91936384085375
1349.2196,196.44144056027164
1351.087,202.62460738282743
1352.9537,190.4687334374637
1354.8197,190.52368582687745
1356.6849,210.48932974907837
1358.5493,219.9655284968395
1360.4131,254.95214325804113
1362.276,299.69903302090825
1364.1383,340.9060542241457
1365.9998,357.2230603094679
1367.8606,345.3999013095287
1369.7206,346.736423684752
1371.5799,340.5824704415627
1373.4384,340.38788111902215
1375.2962,311.5024918503668
1377.1533,264.7761353649547
1379.0096,209.90864127712007
1380.8652,163.14983655343542
1382.7201,127.24954606138817
1384.5742,119.0575930369672
1386.4275,87.42379944366735
1388.2802,70.99798605440742
1390.132,57.17997276786912
1391.9832,56.2695787727539
1393.8336,43.16662268596383
1395.6832,33.570922561705174
1397.5322,26.582296022517994
1399.3803,11.550560355233188
1401.2278,18.025532580858908
1403.0745,10.70702960489848
1404.9204,6.194868152599497
1406.7656,7.838864842140197
1408.6101,-6.511163770250391
1410.4538,-6.205401206731494
1412.2968,-6.093965942936279
1414.139,-6.376914462540412
1415.9805,9.345757629500213
1417.8213,25.474118433605327
1419.6613,45.35823595673742
1421.5006,80.39817795111776
1423.3391,115.7940117153853
1425.1769,173.99580374419736
1427.0139,263.7036193742715
1428.8502,360.56752220236785
1430.6858,438.1375731882108
1432.5206,477.5138296858498
1434.3547,462.5963446679591
1436.188,443.63516633207473
1438.0206,427.48033824977097
1439.8524,423.4318995562701
1441.6835,425.2898851119919
1443.5139,421.35432554303725
1445.3435,428.475247222608
1447.1724,429.95267231036405
1449.0005,438.3366186812118
1450.8279,426.17709991053243
1452.6545,428.57412519034074
1454.4804,427.3276994508808
1456.3056,413.23782333665645
1458.13,397.40449321889423
1459.9536,373.07770133644283
1461.7766,329.8074359541064
1463.5987,293.14368160591357
1465.4202,253.58641952781818
1467.2409,212.18562802433757
1469.0608,172.29128286412572
1470.88,139.60335769398046
1472.6984,122.32182443778709
1474.5161,93.74665362339795
1476.3331,80.57781455544716
1478.1493,75.06527560110328
1479.9648,70.45900432175642
1481.7795,70.55896752814431
1483.5935,75.31513132641476
1485.4067,68.97746111712615
1487.2192,86.2959215476858
1489.031,81.57047657572673
1490.842,82.45108929592345
1492.6522,78.23772198724566
1494.4618,79.23033610415268
1496.2705,82.57889231872684
1498.0785,76.03335051074703
1499.8858,73.34366973420367
1501.6924,64.6598082827536
1503.4981,56.03172371661765
1505.3032,51.459372949418366
1507.1075,55.14271233446118
1508.911,54.231697710459116
1510.7138,47.07628436469781
1512.5159,42.726427042146724
1514.3172,46.33208001701303
1516.1178,25.993197136239473
1517.9176,30.659731783448933
1519.7166,21.181637082332713
1521.515,17.758865849985
1523.3126,15.291370691683937
1525.1094,20.3291040351196
1526.9055,15.172018155068258
1528.7008,8.070065123015752
1530.4954,1.8231968587283518
1532.2893,7.281365201271683
1534.0824,0.19452197147984407
1535.8747,3.1626189173740613
1537.6663,11.885607785030516
1539.4572,9.813440288899187
1541.2473,13.29606802457431
1543.0367,13.183442489515642
1544.8253,14.375515048222837
1546.6132,25.072236933361523
1548.4003,33.623559233842684
1550.1867,42.72943278785419
1551.9723,52.63980809734903
1553.7572,72.75463523698625
1555.5414,85.47386375502629
1557.3247,126.99744247218416
1559.1074,158.1253193544361
1560.8893,209.15744109778439
1562.6705,251.04375281697878
1564.4509,293.0341975351945
1566.2305,297.4287157651697
1568.0094,315.82724508930085
1569.7876,305.9297201156974
1571.565,300.7360722941971
1573.3417,318.5462300153404
1575.1176,307.6601186623076
1576.8928,324.8776604328161
1578.6672,355.6987744479833
1580.4409,393.87337658014985
1582.2138,434.40137914466925
1583.986,472.3826905181618
1585.7575,526.2672147332337
1587.5282,571.204851098665
1589.2981,602.245493660564
1591.0673,622.7390307529903
1592.8358,628.4853446875484
1594.6035,628.4843115484537
1596.3704,619.6358011350669
1598.1366,594.4396769619073
1599.9021,574.1457963471353
1601.6668,544.7540106645156
1603.4308,527.0641655463544
1605.194,536.1761011774186
1606.9564,553.589652471833
1608.7182,619.9546489819616
1610.4791,725.1709147242725
1612.2394,819.888267515687
1613.9988,942.9065179214174
1615.7576,1038.0254683077937
1617.5156,1081.6449116120816
1619.2728,1069.5646303912908
1621.0293,974.0343963859831
1622.785,852.2039706410744
1624.54,724.0731044611362
1626.2942,576.6415406287007
1628.0477,469.15901468556905
1629.8005,375.97525640712695
1631.5525,310.18999087717026
1633.3037,256.80293941974276
1635.0542,218.36382025698805
1636.804,188.22234904302047
1638.553,158.2782392483167
1640.3013,144.6312024611301
1642.0488,119.48094868693204
1643.7955,105.47718648488217
1645.5416,93.66962321933039
1647.2868,84.50796519985528
1649.0313,85.39191779933941
1650.7751,74.67118554558556
1652.5181,72.2954721124778
1654.2604,77.41448042718832
1656.0019,79.72791269393485
1657.7427,95.88547034279054
1659.4828,114.1368540065497
1661.222,156.08176335915198
1662.9606,192.16989693316856
1664.6984,230.85095170035333
1666.4354,246.82462271076088
1668.1717,236.24060270593685
1669.9072,188.6985819591809
1671.642,135.79824838138677
1673.3761,102.73928799646256
1675.1094,71.47138547033398
1676.8419,52.044224441533856
1678.5737,34.407487833881476
1680.3048,22.660858050753802
1682.0351,22.954017151453115
1683.7646,16.136646968673574
1685.4934,7.108429105569371
1687.2215,14.219045003928159
1688.9488,9.018176034453745
1690.6754,5.455503425659231
1692.4012,5.130708315876461
1694.1263,6.243471788882232
1695.8506,0.043474877146650215
1697.5742,1.430398550705263
1699.297,-1.8960762208408823
1701.0191,-3.636268482194737
1702.7404,1.1595216637423391
1704.461,-0.9589695596091588
1706.1808,-4.2920059404239055
1707.8999,-3.389841686770808
1709.6182,-6.802688129579451
1711.3358,2.1692772647385254
1713.0527,0.125944988626145
1714.7688,-1.232794487166359
1716.4841,0.09294930685206282
1718.1987,-3.196920844210922
1719.9126,-0.4025021561769222
1721.6257,-4.623859907628798
1723.338,-5.461055356152599
1725.0496,5.635896433025664
1726.7605,1.0170349506228717
1728.4706,-2.0676003690028324
1730.18,-0.2679701016635363
1731.8886,-0.5340141678439636
1733.5964,-2.9156698110076604
1735.3036,3.8871310601833784
1737.0099,4.074485664608403
1738.7156,4.496491182275236
1740.4204,1.4032447524471081
1742.1246,6.394843469422085
1743.8279,1.87138441346616
1745.5306,7.132964600896685
1747.2325,4.379681029317339
1748.9336,10.161630625001806
1750.634,7.97891027042715
1752.3336,7.081616746454074
1754.0325,6.6198467541547075
1755.7307,12.293696923784807
1757.4281,14.353263819402116
1759.1247,11.548643882127465
1760.8206,15.529933409549358
1762.5158,16.597228583769777
1764.2102,17.000625431591573
1765.9039,17.440219813845317
1767.5968,19.016107421355457
1769.289,16.028383770544565
1770.9804,17.977144187674014
1772.6711,14.562483838721676
1774.361,18.73449770989373
1776.0502,18.493280641771833
1777.7386,22.288927287592855
1779.4263,20.521532115660932
1781.1132,23.341189371391067
1782.7994,19.59799309498311
1784.4849,23.342037093224974
1786.1696,22.373414976925034
1787.8535,24.092220123471293
1789.5367,26.998545686517872
1791.2192,21.342484578797013
1792.9009,24.57412944305537
1794.5818,28.04357270861493
1796.2621,26.950906559056392
1797.9415,22.846222897525195
1799.6202,22.479613357657826
1801.2982,32.55116934462856
1802.9755,28.960982038815985
1804.6519,23.059142295086787
1806.3277,26.945740678698172
1808.0027,29.570867524315872
1809.6769,24.984612897148253
1811.3504,28.78706656669516
1813.0231,31.478318052610405
1814.6951,26.458456586677272
1816.3664,28.627571085896022
1818.0369,31.58575020268239
1819.7067,26.683082303176406
1821.3757,29.81965543766094
1823.044,27.345557389587867
1824.7115,33.060875644212615
1826.3783,38.21569741333511
1828.0443,34.96010957814664
1829.7096,36.29419863768172
1831.3741,34.61805074137362
1833.0379,34.28175167571405
1834.701,33.73538688101394
1836.3633,35.72904145476693
1838.0248,32.16280015711271
1839.6856,34.136747390900865
1841.3457,37.50096723735297
1843.005,38.105543436323245
1844.6636,33.25055935265635
1846.3214,34.68609797014162
1847.9785,33.8622419400628
1849.6349,37.329073566842794
1851.2904,38.336674816282084
1852.9453,38.535127280890606
1854.5994,40.92451216981155
1856.2528,39.854910306836786
1857.9054,41.92640210651322
1859.5572,37.58906758483863
1861.2083,34.89298633854699
1862.8587,33.18823758848171
1864.5084,43.024900206556396
1866.1572,40.75305273280233
1867.8054,37.422773277001994
1869.4528,39.4341395414076
1871.0994,38.23722885404368
1872.7453,39.38211814859346
1874.3905,42.5188839763681
1876.0349,41.697602494857705
1877.6786,45.66834943636351
1879.3215,44.73120011621097
1880.9637,42.93622939304194
1882.6051,43.78351167818647
1884.2458,39.22312095361235
1885.8858,39.40513076345232
1887.525,41.62961425960813
1889.1634,38.146644199930364
1890.8011,42.656292925973446
1892.4381,40.65863239782553
1894.0743,38.653734149012024
1895.7098,40.14166930647198
1897.3446,45.22250861060738
1898.9786,42.196322400403574
1900.6118,38.663180562620965
1902.2443,40.073152562056976
1903.8761,41.87630747687726
1905.5071,43.3227139845161
1907.1374,39.41244034364479
1908.7669,40.89555437970765
1910.3957,40.422123524024556
1912.0237,41.19221479895995
1913.651,39.55589482265705
1915.2776,41.21322980133718
1916.9034,41.61428554566265
1918.5285,43.60912745416351
1920.1528,39.84782050922706
1921.7764,42.63042925714953
1923.3992,40.557017845749016
1925.0213,37.77764999653931
1926.6427,36.79238902546405
1928.2633,45.30129787069052
1929.8832,37.2544391024621
1931.5023,39.251874838009286
1933.1207,43.993666822018355
1934.7383,39.32987640665692
1936.3552,37.51056450415581
1937.9714,44.23579163344746
1939.5868,36.80561793835878
1941.2015,39.970103120358885
1942.8154,34.87930651286078
1944.4286,37.13328704957658
1946.041,38.282103315425246
1947.6528,39.12581352399286
1949.2637,36.96447550604461
1950.8739,37.19814670108747
1952.4834,41.47688417898371
1954.0921,35.45074463761429
1955.7001,37.01978436009142
1957.3074,35.084059275019996
1958.9139,34.993624940807024
1960.5197,41.948536565019054
1962.1247,38.148849005286536
1963.729,35.694616699754505
1965.3325,35.28589370507956
1966.9353,38.12273372097221
1968.5374,39.555190094284
1970.1387,38.183315790639256
1971.7393,35.40716338011049
1973.3392,36.02678505093709
1974.9383,35.14223263728698
1976.5366,30.903557613060087
1978.1342,40.410811100734236
1979.7311,34.81404391375162
1981.3273,36.86330646144643
1982.9227,33.8086488050123
1984.5173,34.80012063701011
1986.1112,33.23777131191409
1987.7044,33.92164983619753
1989.2968,35.001804883956
1990.8885,32.128284790068676
1992.4795,33.35113753939686
1994.0697,28.870410795519007
1995.6592,33.68615188850231
1997.2479,34.59840785970982
1998.8359,34.35722541364328
2000.4232,33.212650908820365
2002.0097,32.61473036018663
2003.5955,26.01350945056103
2005.1805,29.359033536615442
2006.7648,32.551347714886674
2008.3484,33.49049678832125
2009.9312,36.026525234352164
2011.5133,32.75947719550766
2013.0946,32.53939645405066
2014.6752,32.2163264646496
2016.2551,27.040310356578885
2017.8342,37.111390936949704
2019.4126,31.729610742470186
2020.9902,35.99501193873468
2022.5672,34.15763637404149
2024.1433,33.917525536738935
2025.7188,31.574720573599052
2027.2935,34.77926229221873
2028.8674,31.281191184447607
2030.4406,30.38054739434301
2032.0131,28.677370753150285
2033.5849,30.42170078830958
2035.1559,33.41357674048734
2036.7261,29.853037546133066
2038.2957,32.59012180756051
2039.8645,31.274867828553113
2041.4325,27.55731358699316
2042.9998,29.587496748014445
2044.5664,28.815454701177686
2046.1323,28.24122454016873
2047.6974,31.964843070518924
2049.2617,27.336346815347667
2050.8254,27.205771978125853
2052.3883,29.973154488961114
2053.9504,34.738530005903414
2055.5118,30.40193388727124
2057.0725,24.11340114399775
2058.6325,30.972966482996895
2060.1917,28.730664370048515
2061.7502,34.48652896120285
2063.3079,32.59059412520361
2064.8649,32.44289338592927
2066.4212,26.94345994135233
2067.9767,26.392326665016583
2069.5315,34.63952616103148
2071.0856,25.685090769583155
2072.6389,28.979052484462386
2074.1915,28.521443042609206
2075.7433,24.762293891173073
2077.2945,29.55163619208912
2078.8448,26.189500859669607
2080.3945,27.67591851271041
2081.9434,27.760919508112522
2083.4916,29.894533926017886
2085.039,27.776791568959254
2086.5857,29.75772194052405
2088.1317,25.937354266531884
2089.677,27.215717475225148
2091.2215,26.59284023547275
2092.7652,29.11875094398644
2094.3083,29.443477731549677
2095.8506,25.21704843775828
2097.3921,26.739490607773433
2098.933,26.71083153458582
2100.4731,25.631098243791342
2102.0124,27.45031749387772
2103.5511,30.168515787021818
2105.089,28.835719350897364
2106.6261,27.351954111492944
2108.1626,27.967245706440195
2109.6983,29.431619499851166
2111.2332,29.19510057616546
2112.7675,29.007713725506505
2114.301,31.16948344604677
2115.8337,27.03043394588181
2117.3657,25.99058912141234
2118.897,25.399972598734763
2120.4276,28.058607744039563
2121.9575,32.91651766951762
2123.4866,27.323725206773787
2125.0149,23.430252858247854
2126.5426,28.936122853142308
2128.0695,27.391357186357254
2129.5956,26.595977563431575
2131.1211,30.0000054159907
2132.6458,27.30346190970039
2134.1698,22.806367910226413
2135.693,26.458744010199865
2137.2155,30.210610574188337
2138.7373,28.611987702171945
2140.2584,28.012895192024757
2141.7787,27.913352555501064
2143.2983,26.063379024226236
2144.8171,24.412993550692022
2146.3353,24.6122148267564
2147.8527,28.561061300147486
2149.3693,26.859551172471186
2150.8853,28.10770235972285
2152.4005,27.055532509302395
2153.9149,23.10305898753282
2155.4287,24.85029889018196
2156.9417,22.14726908198702
2158.454,24.7439861791824
2159.9655,26.74046657652991
2161.4764,23.586726421351614
2162.9865,22.68278159356487
2164.4958,24.478647737219774
2166.0045,21.07434026953871
2167.5124,22.319874362957535
2169.0195,22.915264979168825
2170.526,22.610526856666638
2172.0317,23.505674504792296
2173.5367,26.900722206781865
2175.0409,22.44568401081466
2176.5445,25.790573696062864
2178.0473,21.68540481724193
2179.5494,27.030190671161506
2181.0507,22.724944337777316
2182.5513,24.96967862674319
2184.0512,28.264406120463562
2185.5504,25.859139151646204
2187.0488,21.60388977035484
2188.5465,20.798669768061885
2190.0435,20.193490720201055
2191.5397,18.888363994219432
2193.0353,19.93330075562926
2194.5301,20.128311981059284
2196.0241,20.773408447805195
2197.5175,21.61860073187954
2199.0101,17.013899201560903
2200.502,21.65931400894175
2201.9931,18.3048551359758
2203.4835,17.950532348023657
2204.9733,20.196355227397575
2206.4622,21.792333176904407
2207.9505,22.888475397387623
2209.438,21.63479087176725
2210.9248,22.83128835407865
2212.4109,18.32797638200941
2213.8962,19.974863264934243
2215.3809,15.121957128947969
2216.8648,15.769265900396945
2218.3479,19.566797354407896
2219.8304,17.364559108414824
2221.3121,18.812558584184004
2222.7931,21.910803029836103
2224.2733,17.95929950536636
2225.7529,15.95805485166214
2227.2317,17.457075730017692
2228.7098,16.30636864214692
2230.1872,14.355939915192977
2231.6638,18.705795713235418
2233.1397,18.80594205679438
2234.6149,15.406384779332186
2236.0894,12.457129526251677
2237.5632,19.108181788892026
2239.0362,17.459546934021205
2240.5085,13.21123013732543
2241.9801,15.213236399895692
2243.4509,15.865570590710846
2244.921,15.71823742661745
2246.3904,11.52124146580654
2247.8591,12.674587109286605
2249.3271,12.178278642853911
2250.7943,17.432320225558826
2252.2608,10.636715894669138
2253.7266,15.241469513129502
2255.1917,11.996584837517489
2256.656,13.752065471995905
2258.1197,10.90791490076181
2259.5826,8.764136470491493
2261.0447,12.820733418782353
2262.5062,7.527708895590422
2263.9669,12.735065922664575
2265.4269,8.89280744647661
2266.8862,14.900936286147783
2268.3448,10.759455171871252
2269.8026,16.918366684831
2271.2598,10.427673298616455
2272.7162,13.987377317633602
2274.1719,16.19748094201168
2275.6268,9.607986232006098
2277.0811,12.518895085897555
2278.5346,14.530209305886942
2279.9874,11.89193056898631
2281.4395,9.60406040690566
2282.8908,14.616600232435744
2284.3414,13.979551362326859
2285.7914,17.09291496716321
2287.2406,10.306692077733587
2288.689,10.72088355389765
2290.1368,12.685490152448168
2291.5838,9.800512522968958
2293.0302,13.615951188189058
2294.4758,12.231806572832426
2295.9206,13.19807896546368
2297.3648,10.564768532329452
2298.8082,9.331875307695583
2300.251,10.949399220180382
2301.693,10.067340105083318
2303.1343,10.435697688210169
2304.5748,12.904471594693206
2306.0147,9.72366134530786
2307.4538,9.993266331785051
2308.8922,11.51328584861912
2310.3299,13.883719090371727
2311.7669,12.504565136471797
2313.2031,11.275822927511072
2314.6387,7.797491279035853
2316.0735,11.319568893834344
2317.5076,11.792054396719834
2318.941,8.314946299309995
2320.3737,13.138242995302093
2321.8056,8.811942795244079
2323.2369,13.386043878301564
2324.6674,16.31054433552076
2326.0972,17.43544212408763
2327.5263,20.610735038082623
2328.9547,22.68642069723188
2330.3823,23.512496515154197
2331.8092,16.188959678604235
2333.2355,9.965807139211876
2334.661,11.743035686717576
2336.0858,13.22064201120375
2337.5098,8.698622685322519
2338.9332,5.676974149519623
2340.3558,8.105692757254843
2341.7778,10.434774805218368
2343.199,5.064216509043376
2344.6195,11.944013980015455
2346.0393,11.974163278778022
2347.4583,12.604660346534459
2348.8767,9.535501004746578
2350.2943,2.116680948829597
2351.7113,8.64819577884387
2353.1275,5.230041073682955
2354.543,10.312212325758452
2355.9578,7.6447049751815825
2357.3718,4.527514358941474
2358.7852,7.910635737580208
2360.1978,9.144064326364742
2361.6098,4.1777952614556995
2363.021,11.311823587573073
2364.4315,10.346144307659031
2365.8413,12.13075231153752
2367.2504,5.915642385571218
2368.6587,8.200809194815307
2370.0664,7.136247345168599
2371.4733,7.321951360521936
2372.8795,6.25791569340376
2374.285,10.144134723123017
2375.6899,8.380602766409481
2377.0939,9.96731403855162
2378.4973,9.70426267103187
2379.9,7.091442695659566
2381.3019,6.228848047201424
2382.7032,8.416472589509809
2384.1037,2.104310124148583
2385.5035,7.2923543685170955
2386.9027,9.33059901897154
2388.3011,5.86903769894478
2389.6987,5.457663938563641
2391.0957,2.696471209264658
2392.492,10.035452927907755
2393.8876,3.424602484388245
2395.2824,4.713913168246918
2396.6765,3.8033782347786627
2398.07,4.992990892139204
2399.4627,3.082744310450593
2400.8547,6.7726316099048915
2402.246,4.362645879866804
2403.6366,9.002780141974796
2405.0265,6.443027374240856
2406.4156,4.233380464649315
2407.8041,3.423832236754137
2409.1918,4.764375471775665
2410.5789,3.905002916695807
2411.9652,5.4957072708528045
2413.3508,5.836481194534841
2414.7358,8.077317293073165
2416.12,4.018208113434227
2417.5035,3.509146121811355
2418.8863,5.500123744215841
2420.2684,5.691133371567545
2421.6497,4.98216733978515
2423.0304,4.023217927876118
2424.4104,1.4142773650262939
2425.7896,-0.14466215981067876
2427.1682,6.496391528176204
2428.546,4.487432048972863
2429.9232,7.178452957601337
2431.2996,7.119447764209397
2432.6753,5.710409907160383
2434.0503,4.251332753623203
2435.4246,1.7422096136626948
2436.7982,5.18303375483039
2438.1711,3.9737984272557725
2439.5433,9.364496829238064
2440.9148,4.555122119338606
2442.2856,3.445667362473799
2443.6557,4.7861255780089635
2445.025,-0.5735102491472333
2446.3937,4.116752818052703
2447.7617,5.156913446023566
2449.1289,3.4469702600126624
2450.4955,8.336921833698156
2451.8613,1.926766706288646
2453.2265,6.916503333623481
2454.5909,3.8061301522743918
2455.9546,2.995645529648158
2457.3177,6.8350477950902615
2458.68,4.974335247989842
2460.0416,6.263506119385539
2461.4025,4.152558590572696
2462.7627,6.341490780211615
2464.1222,5.980300765437093
2465.4811,4.768986559969122
2466.8392,5.457546117724689
2468.1966,4.445977344930924
2469.5533,2.43427809323957
2470.9093,0.7724461698426097
2472.2645,6.810479357589244
2473.6191,3.9983754316043303
2474.973,4.986132098907973
2476.3262,3.373747026536506
2477.6787,8.26121783166505
2479.0305,8.748542097731203
2480.3816,6.235717325560486
2481.7319,6.022740928492979
2483.0816,4.959610257511713
2484.4306,4.796322603372303
2485.7789,8.13287520723432
2487.1264,6.71926526229403
2488.4733,6.905489880419083
2489.8195,3.4915461062844457
2491.165,8.37743091551026
2492.5097,10.713141248801236
2493.8538,8.298673963087836
2495.1972,4.134025808169085
2496.5398,7.419193450857378
2497.8818,2.7541735166247747
2499.2231,6.3389625567514685
2500.5637,8.873557094975965
2501.9035,8.307953591647163
2503.2427,6.042148418378446
2504.5812,8.97613786370367
2505.919,8.159918155735284
2507.256,6.8934854328243915
2508.5924,3.176835751722905
2509.9281,2.909965100247959
2511.2631,7.2428694344483375
2512.5974,8.37554468127324
2513.9309,7.20798669524315
2515.2638,9.490191247123136
2516.596,4.472154035598493
2517.9275,3.0538706644527025
2519.2583,6.485336692747694
2520.5884,5.316547649006864
2521.9178,5.39749899690031
2523.2465,6.428186146932646
2524.5745,4.0086044556335025
2525.9018,3.588749215250715
2527.2284,5.7686156779460305
2528.5543,10.798199059993834
2529.8796,6.977494519982173
2531.2041,7.656497108517144
2532.5279,7.785201806429853
2533.851,5.56360351798638
2535.1735,5.7416970696008605
2536.4952,5.169477232051406
2537.8163,5.846938718699249
2539.1366,10.074076191210821
2540.4562,7.1508842527832
2541.7752,10.277357405872692
2543.0935,5.553490081426801
2544.411,7.529276607619536
2545.7279,9.55471125709002
2547.0441,2.729788227184585
2548.3596,5.604501619702546
2549.6744,8.528845509145356
2550.9885,3.2028139139695355
2552.3019,8.526400767343134
2553.6146,6.749599970406123
2554.9266,8.872405339034486
2556.2379,7.94481062160817
2557.5485,7.966809477783158
2558.8585,7.188395487767352
2560.1677,8.109562152100565
2561.4762,6.980302899438669
2562.7841,9.200611077341975
2564.0913,9.170479963567786
2565.3977,9.039902743867259
2566.7035,6.208872512286874
2568.0086,7.627382272474065
2569.313,8.645424965987587
2570.6167,8.76299345811239
2571.9197,11.13008052767917
2573.222,4.096678865888805
2574.5236,7.712781052641418
2575.8246,10.528379626870318
2577.1248,9.2434670503811
2578.4244,10.808035679695521
2579.7232,5.122077778900689
2581.0214,7.385585504003416
2582.3189,9.898550959789759
2583.6157,10.160966177189977
2584.9118,11.322823088148787
2586.2072,12.184113523001386
2587.5019,12.944829198854663
2588.7959,10.654961710974455
2590.0893,10.614502525178338
2591.3819,9.323443000734272
2592.6739,14.081774390765247
2593.9652,12.239487855159865
2595.2557,9.146574412989018
2596.5456,10.95302496092873
2597.8348,18.208830304189384
2599.1234,10.613981138451066
2600.4112,13.718467977305735
2601.6983,12.922281228205506
2602.9848,13.675411161417884
2604.2705,13.677847917987606
2605.5556,12.82958150220535
2606.84,9.330601781583354
2608.1237,12.530898495338114
2609.4067,12.730461289380102
2610.689,9.729279684310882
2611.9707,15.127343073427397
2613.2516,14.124640752733903
2614.5319,10.471161866961175
2615.8115,11.466895419593655
2617.0903,12.511830309404203
2618.3685,9.555955320496729
2619.6461,8.19925911185694
2620.9229,13.041730246910973
2622.199,10.333357207092384
2623.4745,12.72412834341754
2624.7493,10.914031903569217
2626.0234,12.003056007988924
2627.2968,9.791188667977913
2628.5695,7.878417774806877
2629.8415,15.164731121834741
2631.1128,13.350116423636194
2632.3835,10.884561243138663
2633.6535,11.86805300976848
2634.9228,12.650579044106372
2636.1914,10.482126548052527
2637.4593,13.262682597001444
2638.7265,8.19223416152635
2639.9931,12.170768079573698
2641.259,9.748271107167618
2642.5242,9.874729878624578
2643.7887,9.850130930778413
2645.0525,9.374460701715584
2646.3156,12.297705531021307
2647.5781,9.76985166453617
2648.8398,14.590885225123714
2650.1009,9.260792237948962
2651.3613,11.729558582268112
2652.6211,13.697170044729475
2653.8801,11.41361229468577
2655.1385,10.728870864518044
2656.3961,10.342931172471225
2657.6531,9.455778529501579
2658.9094,11.617398143136072
2660.1651,10.527775126343883
2661.42,10.43689447592029
2662.6743,9.994741083382799
2663.9279,10.751299735880025
2665.1808,10.85655512061318
2666.433,14.410491817270518
2667.6846,13.11309429697475
2668.9354,10.814346886743756
2670.1856,8.96423378246444
2671.4351,13.112739071880313
2672.6839,11.909846753092566
2673.9321,8.955540693075001
2675.1795,17.29980463970302
2676.4263,16.24262225129666
2677.6724,16.28397701317786
2678.9179,14.923852248242433
2680.1626,13.312231116546414
2681.4067,13.19909662890737
2682.6501,15.68443166302059
2683.8928,14.418218964590366
2685.1348,14.100441122476752
2686.3761,10.63108058135763
2687.6168,14.510119644906418
2688.8568,13.087540510485795
2690.0961,11.563325230357258
2691.3348,12.587455725906942
2692.5727,9.10991380288776
2693.81,10.330681141178104
2695.0466,11.949739329557254
2696.2826,12.817069853497706
2697.5178,8.132654078974603
2698.7524,9.446473243792383
2699.9863,13.85850850442899
2701.2195,7.018740922897599
2702.452,13.927151422626373
2703.6839,12.58372085685604
2704.9151,11.688429939555832
2706.1456,16.891259258857787
2707.3755,15.192189286009679
2708.6046,11.691200323346685
2709.8331,12.638272521282097
2711.0609,13.933385913317267
2712.2881,17.976520406570828
2713.5145,23.51765576882756
2714.7403,17.306771588107075
2715.9654,18.593847217252424
2717.1899,15.12886183603893
2718.4136,17.31179443830346
2719.6367,21.442623866594296
2720.8591,21.07132879034178
2722.0809,24.047887664550025
2723.3019,24.47227873350989
2724.5223,21.994480001033345
2725.7421,23.214469226209566
2726.9611,24.38222394818299
2728.1795,24.497721473953327
2729.3972,19.510938866698112
2730.6142,20.571852944617667
2731.8306,19.380440330802976
2733.0462,20.536677442626498
2734.2612,20.040540503656302
2735.4756,15.042005532093697
2736.6892,15.991048345734605
2737.9022,14.837644611954957
2739.1145,9.781769838220207
2740.3262,12.473399383619387
2741.5372,12.962508509423834
2742.7475,9.899072352170911
2743.9571,13.433065918772897
2745.1661,6.814464117151388
2746.3744,10.393241720897343
2747.582,8.669373435457075
2748.7889,8.592833862344527
2749.9952,7.263597516379932
2751.2008,5.2316388264551605
2752.4057,9.046932148826123
2753.61,3.809451787432323
2754.8136,9.71917195574396
2756.0165,9.376066829136704
2757.2188,5.080110485794549
2758.4204,5.331276910140829
2759.6213,6.979540035797825
2760.8215,6.7248737430750865
2762.0211,10.817251842486755
2763.22,8.456648077298276
2764.4182,5.643036082602563
2765.6158,4.6763894089260845
2766.8127,7.206681550364955
2768.009,2.183885954251444
2769.2045,4.207975995851015
2770.3994,7.078925028590298
2771.5936,2.1967063638162188
2772.7872,-1.1887067579135149
2773.9801,-1.8273411180082775
2775.1723,-2.5192116226969503
2776.3639,2.335685076929323
2777.5548,2.6873774967034905
2778.745,-1.4141058708983323
2779.9346,1.2312634397262485
2781.1235,2.7235280210972377
2782.3117,0.51273045342203
2783.4992,0.5489132896727256
2784.6861,2.8321190776941805
2785.8723,0.3123903598421336
2787.0579,3.08976965015119
2788.2428,-2.7357005404679313
2789.427,2.136022267997788
2790.6106,1.1550078852097698
2791.7935,-1.2786739005307481
2792.9757,1.9850466875274293
2794.1573,-1.3037477999123013
2795.3382,1.2550251680030087
2796.5184,2.1614611465667792
2797.698,2.9156556785221994
2798.8769,5.917704284997853
2800.0551,0.11770245796581236
2801.2327,2.1157456302210846
2802.4096,1.4119292333816773
2803.5859,2.0063486779081927
2804.7615,0.1490993601420243
2805.9364,4.890276656361024
2807.1106,3.7299759413521016
2808.2842,3.9682925409993572
2809.4572,7.955321743887161
2810.6294,6.4411587989169945
2811.801,12.075898875437105
2812.972,11.609637078384218
2814.1423,12.59246839193608
2815.3119,14.124487684174085
2816.4808,16.555789697255022
2817.6491,18.636469032090844
2818.8167,23.06662012403561
2819.9837,29.396337222078735
2821.15,33.575714344543435
2822.3157,40.55484521578959
2823.4807,43.883823224419935
2824.645,56.46274135348877
2825.8086,62.341692147212186
2826.9716,69.1207675851789
2828.134,81.75005902356071
2829.2957,87.82965712732175
2830.4567,95.50965174392564
2831.617,100.34013184253936
2832.7767,101.32118543723348
2833.9358,104.15289953867713
2835.0941,97.73536014432773
2836.2519,100.7186522101137
2837.4089,89.95285971460984
2838.5653,89.93806562920446
2839.7211,83.32435202575726
2840.8761,80.91180007674734
2842.0306,81.75049012141024
2843.1843,79.04050168986348
2844.3374,80.23191349471975
2845.4899,87.47480345818677
2846.6417,80.71924870015317
2847.7928,88.16532546575942
2848.9433,89.71310919295371
2850.0931,90.61267443803081
2851.2422,93.21409486015455
2852.3907,91.21744321236201
2853.5385,89.52279131554928
2854.6857,89.73021007843819
2855.8323,97.83976951452254
2856.9781,103.20153873999413
2858.1233,101.21558589264703
2859.2679,107.88197807825993
2860.4118,110.70078139045577
2861.555,113.57206084403767
2862.6976,116.64588034680104
2863.8395,115.57230267082065
2864.9808,121.00138942171253
2866.1214,118.98320104936973
2867.2614,118.71779679367137
2868.4007,130.80523470466466
2869.5393,126.39557164521885
2870.6773,128.93886317015088
2871.8146,135.33516357032204
2872.9513,130.93452584720495
2874.0874,138.13700164892066
2875.2227,137.54264131424495
2876.3574,140.10149380058365
2877.4915,143.4136066899162
2878.6249,144.4790261632072
2879.7577,148.49779696728518
2880.8898,152.2699624041884
2882.0212,154.94556429097722
2883.152,150.5746429220124
2884.2821,157.70723704219898
2885.4116,159.14338389069576
2886.5405,158.93311912958902
2887.6686,161.8764768295313
2888.7962,164.47348947184395
2889.923,161.9741879190835
2891.0493,162.82860138907168
2892.1748,160.0867574798883
2893.2997,160.64868216132714
2894.424,161.0643998023146
2895.5476,163.53393316529005
2896.6706,162.2573034020491
2897.7929,167.534530029048
2898.9145,160.71563094016997
2900.0355,165.450622353953
2901.1559,161.53951888177872
2902.2756,163.28233348052262
2903.3946,160.77907749166496
2904.513,155.9297606238627
2905.6308,157.1843909779822
2906.7479,161.54297509559194
2907.8643,155.3555179464169
2908.9801,154.57202288475213
2910.0953,161.24249171133755
2911.2098,163.4169246811929
2912.3236,157.3953204369131
2913.4368,159.72767598692369
2914.5494,156.6139867656971
2915.6613,155.80424661042898
2916.7725,153.49844779217514
2917.8831,148.146581023949
2918.9931,144.79863548377946
2920.1024,137.50459886822966
2921.211,141.06445742587638
2922.319,138.97819603025047
2923.4264,134.79579814423812
2924.5331,134.9672458409437
2925.6391,138.2425198455134
2926.7445,133.0215995334213
2927.8493,140.15446289771592
2928.9534,137.79108660123003
2930.0569,136.73144590525183
2931.1597,141.1755146931585
2932.2619,141.92326548101292
2933.3634,148.87466937312274
2934.4643,143.72969605456314
2935.5645,148.7883137216624
2936.6641,148.60048913345207
2937.763,146.3661875610805
2938.8613,146.08537278969115
2939.959,147.35800714076566
2941.056,139.03405147493203
2942.1523,134.6634651792381
2943.248,129.8962062503913
2944.3431,119.48223133846446
2945.4375,112.92149579456829
2946.5313,106.06395377499128
2947.6244,94.609558306807
2948.7169,86.05826135644939
2949.8087,79.81001394425692
2950.8999,71.81476622998545
2951.9904,72.4724675752907
2953.0803,62.633066623680726
2954.1696,57.89651129393905
2955.2582,52.6627488785185
2956.3462,52.1817260909068
2957.4335,50.203389117964235
2958.5202,49.67768362473381
2959.6062,50.75455477422468
2960.6916,51.383947232669215
2961.7764,52.0658051587542
2962.8605,51.00007219732697
2963.9439,49.88669147257682
2965.0267,50.17560559869238
2966.1089,51.86675669099536
2967.1905,47.51008636305144
2968.2714,48.905535709758745
2969.3516,49.1030453509146
2970.4312,45.05255541726095
2971.5102,51.304005548509316
2972.5885,46.15733493384569
2973.6662,49.26248224941606
2974.7432,53.26938570979301
2975.8196,51.67798303692439
2976.8954,50.5882114200642
2977.9705,50.15000753168662
2979.045,50.66330753838374
2980.1188,48.97804710524759
2981.192,57.444161390737115
2982.2645,47.861585063530846
2983.3364,48.980252217865676
2984.4077,44.85009646936274
2985.4783,43.62105094384059
2986.5483,44.14304831861685
2987.6177,37.16602083479868
2988.6864,38.73990029206276
2989.7545,31.964618118425584
2990.8219,32.09010535450464
2991.8887,29.56629272127126
2992.9548,27.093110618795748
2994.0204,24.370489151485508
2995.0852,24.748358152816834
2996.1495,19.276647212561173
2997.2131,14.30528567300638
2998.276,13.034202683673875
2999.3383,12.963327251032226
3000.4,12.092588251207992
3001.4611,11.221914430694461
3002.5215,4.251234415059059
3003.5812,6.780476717650082
3004.6404,7.7095698093035026
3005.6989,5.188442093050533
3006.7567,5.717021894826708
3007.8139,5.6952374886831265
3008.8705,2.173017091500732
3009.9264,2.0002888632080698
3010.9818,2.7269809420035713
3012.0364,2.903021446082761
3013.0905,2.2783384663713733
3014.1439,1.852860064764947
3015.1966,1.7265142803756603
3016.2487,0.24922913378710376
3017.3002,1.170932628317729
3018.3511,1.9915527647937452
3019.4013,0.01101753233202274
3020.4509,3.079254900133968
3021.4998,0.696192837290802
3022.5481,1.0617592821012138
3023.5958,-0.12411783409800137
3024.6428,-2.861510590587642
3025.6892,-1.4004898267113468
3026.735,-0.0910977953219998
3027.7802,-0.233362758379144
3028.8247,4.92268793222464
3029.8685,0.12702925589072223
3030.9118,-0.4203638572064179
3031.9544,3.7304835218374315
3032.9963,-1.0704494786386398
3034.0376,0.926816232399652
3035.0783,-2.377729560223141
3036.1184,3.215902919049384
3037.1578,5.707727199291902
3038.1966,0.09775677742008071
3039.2348,2.0360050932723155
3040.2723,-0.07751441429054395
3041.3092,3.457211673232308
3042.3455,2.090197548710659
3043.3811,7.571457370442211
3044.4161,3.5510052758226855
3045.4505,4.3288553265332546
3046.4842,5.805021548745042
3047.5173,1.5295179253406417
3048.5498,3.852358381152442
3049.5816,7.273556825717662
3050.6128,8.043127130049953
3051.6434,4.161083092427443
3052.6734,5.477438430696939
3053.7027,6.342206821094447
3054.7314,7.405401885081606
3055.7594,5.967037180697989
3056.7868,4.977126191929184
3057.8136,10.335682343090404
3058.8398,8.39271900872562
3059.8653,10.148249460022011
3060.8902,8.452286884239562
3061.9145,12.4548443671558
3062.9381,9.105934910025383
3063.9612,9.205571389554546
3064.9835,10.103766591390162
3066.0053,11.65053320912341
3067.0264,10.745883835307833
3068.0469,12.589830945991629
3069.0668,10.632386909764161
3070.086,12.32356396931652
3071.1046,12.913374261015935
3072.1226,13.501829797993988
3073.1399,10.788942464248535
3074.1567,11.524724008759147
3075.1727,7.759186072615972
3076.1882,10.492340181661923
3077.203,11.724197784148064
3078.2173,9.504770223402087
3079.2308,6.43406872550969
3080.2438,11.212104421508897
3081.2561,6.288888378097052
3082.2678,8.314431549850475
3083.2789,7.638744828456588
3084.2893,7.011839022458513
3085.2991,5.683724864011921
3086.3083,5.054413015154097
3087.3169,7.073914081085093
3088.3248,5.192238616460834
3089.3321,3.409397105198117
3090.3388,7.175399979291349
3091.3449,6.840257636640988
3092.3503,5.253980403393491
3093.3551,6.416578537292752
3094.3593,6.928062243542868
3095.3629,1.138441663182169
3096.3658,6.297726867968358
3097.3681,4.855927918274727
3098.3698,3.813054811497313
3099.3708,6.219117496472874
3100.3713,6.124125883907617
3101.3711,6.178089822316592
3102.3702,4.631019098973585
3103.3688,6.882923439371508
3104.3667,5.333812522693078
3105.364,5.033695959291798
3106.3607,4.632583306183051
3107.3568,5.180484070045276
3108.3522,3.2274077112310913
3109.347,3.8733636382882803
3110.3412,2.8683612274905634
3111.3348,5.062409816378031
3112.3277,2.6055187138071627
3113.32,3.1976971780103494
3114.3117,4.088954441164798
3115.3028,4.979299703470744
3116.2932,4.268742124238887
3117.2831,3.107290812986937
3118.2723,6.144954836545191
3119.2608,3.5817432306710337
3120.2488,1.6176649696723189
3121.2361,2.5027289920394686
3122.2229,1.38694422008626
3123.209,3.370319551099186
3124.1944,5.5528638684953044
3125.1793,4.434586021988489
3126.1635,3.2654948057639857
3127.1471,1.9455989696611766
3128.1301,3.374907230864512
3129.1125,0.853428287102453
3130.0942,3.3811708023544043
3131.0753,3.108143432065482
3132.0558,1.8343547978691053
3133.0357,3.5098134903172706
3134.015,5.134528081618429
3134.9936,2.8085071088829068
3135.9716,5.531759057875746
3136.949,3.7542923862769335
3137.9258,0.4261154964488725
3138.902,5.647236753211045
3139.8775,2.4176645171217945
3140.8524,2.937407092267094
3141.8267,3.65647275855628
3142.8004,5.174869766524614
3143.7735,1.942606330142647
3144.7459,0.00969061163222662
3145.7178,1.8261307537891405
3146.689,4.841934899312287
3147.6596,1.257111172639263
3148.6295,2.7716676497883164
3149.5989,4.5856123942065885
3150.5676,4.048953441624546
3151.5357,4.361698781916543
3152.5032,4.773856364467401
3153.4701,3.085434095044958
3154.4364,4.9464398316784965
3155.402,5.156881401542964
3156.367,3.316766582348909
3157.3315,4.376103100238076
3158.2952,4.334898648184543
3159.2584,3.6431608754013585
3160.221,4.4508973877525895
3161.1829,1.5581157546706992
3162.1442,0.7148235010791755
3163.105,4.121028136320349
3164.065,4.776737162588322
3165.0245,1.7319580408669246
3165.9834,8.336698184372612
3166.9416,5.290964989002262
3167.8993,3.7947657672857735
3168.8563,4.498107778843402
3169.8127,2.5009982453477395
3170.7684,2.1034443434903123
3171.7236,3.0054532249526593
3172.6782,4.607032020381884
3173.6321,7.458187830370558
3174.5854,5.508927709440934
3175.5381,5.259258637533391
3176.4902,3.3591875394990325
3177.4417,6.15872128759638
3178.3926,2.4578667204920803
3179.3428,7.056630615265575
3180.2924,5.505019724417637
3181.2415,4.15304072988274
3182.1899,4.750700258545159
3183.1377,4.698004895758762
3184.0848,1.7449611793704216
3185.0314,3.441575600246959
3185.9773,4.687854631805587
3186.9227,4.283804713047768
3187.8674,5.079432236096414
3188.8115,2.524743550236389
3189.755,7.219744953958241
3190.6979,3.464442720505085
3191.6402,5.408843050922588
3192.5818,2.952952111611995
3193.5229,1.9967760148861182
3194.4633,5.590320843528256
3195.4031,4.8835926603539495
3196.3423,7.126597472275531
3197.2809,5.619341237369408
3198.2189,9.211829842446013
3199.1563,6.304069118122367
3200.0931,4.996064802897197
3201.0292,5.237822572228539
3201.9648,3.8293480516137772
3202.8997,5.8706468141720745
3203.834,5.811724394729117
3204.7677,5.65258626940412
3205.7008,6.293237856199057
3206.6333,10.233684516590042
3207.5652,3.7739315491208094
3208.4964,8.713984149998248
3209.4271,5.253847477689934
3210.3571,6.543526603523599
3211.2865,5.183026546288499
3212.2154,3.522352259338625
3213.1436,3.7115086441977034
3214.0712,6.150500567165939
3214.9982,8.689332857428447
3215.9246,4.978010282665345
3216.8503,5.666537523663416
3217.7755,10.854919211429344
3218.7001,7.143159920304444
3219.624,6.531264116080837
3220.5473,6.669236193119042
3221.4701,6.507080480466943
3222.3922,7.29480124048006
3223.3137,8.282402670443116
3224.2346,6.969888894692815
3225.1549,8.807263954741844
3226.0746,5.094531822403991
3226.9937,2.731696381420414
3227.9121,8.318761464586949
3228.83,6.655730877382469
3229.7473,4.092608342098241
3230.6639,8.12939751446822
3231.5799,5.516102009300275
3232.4954,7.152725360108306
3233.4102,4.089271045245181
3234.3244,4.975742471536519
3235.238,6.562143004915225
3236.151,7.998475961556781
3237.0634,9.534744592015233
3237.9752,4.170952066859877
3238.8864,9.207101461312554
3239.797,4.393195808885586
3240.7069,11.37923805102028
3241.6163,9.015231085225988
3242.5251,6.651177695219671
3243.4332,8.087080574565988
3244.3408,8.622942350317814
3245.2477,5.6087655686572235
3246.154,7.294552689536858
3247.0598,7.530306116821708
3247.9649,8.766028181431235
3248.8694,8.901721138981843
3249.7733,8.787387157429647
3250.6766,11.723028315713552
3251.5793,6.2086466048986
3252.4814,10.644243898819536
3253.3829,8.079822009224642
3254.2838,6.365382641419765
3255.1841,8.70092741991252
3256.0838,8.436457905556708
3256.9829,7.071975572196851
3257.8814,9.207481809312892
3258.7792,6.542977935665019
3259.6765,9.178465177938598
3260.5731,6.963944697389217
3261.4692,9.649417563487809
3262.3647,8.584884776065863
3263.2595,6.870347238460685
3264.1538,7.755805768160732
3265.0474,7.541261113950992
3265.9404,8.126713947058391
3266.8329,9.562164863297244
3267.7247,4.597614377214733
3268.616,8.133062907736381
3269.5066,8.168510827811577
3270.3966,10.103958429059073
3271.286,10.889405921412507
