RamanShift,CorrectedData
30.1047,244.99057938252125
32.3739,225.9095489703519
34.6426,208.42851610827674
36.9109,191.99747608729447
39.1787,171.71642211411864
41.4461,152.6853454754879
43.7131,135.40423574097673
45.9796,119.62308095330597
48.2456,97.29186780115411
50.5112,81.41058177696863
52.7764,61.4792074002784
55.0411,46.49772837650639
57.3054,29.966127796283466
59.5692,7.2843882852632404
61.8326,-9.247507830562
64.0955,-25.329578298043838
66.3579,-39.611748481430666
68.6199,-58.19369070248369
70.8815,-64.92468156159684
73.1426,-57.30341630419396
75.4032,-20.477941578130185
77.6634,95.60426842986809
79.9231,409.29594410771097
82.1824,1071.7998148872657
84.4412,2195.8686061074404
86.6995,3629.355032389145
88.9574,5027.211786394603
91.2148,5972.34152449249
93.4717,6367.6468527793595
95.7282,6409.680317628354
97.9842,6340.244401736145
100.2398,6131.841523702604
102.4949,5946.674038725153
104.7495,5744.944240682806
107.0036,5522.904363987833
109.2573,5307.106585603059
111.5105,5092.903027262272
113.7632,4875.695757628189
116.0154,4656.386794434499
118.2672,4457.428106657935
120.5185,4255.271616711359
122.7693,4102.969202433354
125.0197,3953.472699109788
127.2696,3828.033900996836
129.519,3740.6045628159463
131.7679,3644.3864010082298
134.0163,3564.6810946087517
136.2642,3477.2402862087133
138.5117,3374.8655827525054
140.7587,3262.5085564121155
143.0052,3151.020745610876
145.2512,3030.4536561470354
147.4967,2917.858762308633
149.7417,2823.587508079171
151.9863,2753.391308263567
154.2304,2719.271549430863
156.4739,2676.379590616186
158.717,2664.616763661951
160.9596,2638.884373646776
163.2017,2599.9336990031134
165.4433,2552.8659917745713
167.6844,2474.582478005421
169.925,2381.2843582112746
172.1651,2271.4728081619214
174.4047,2166.7989798143053
176.6439,2093.814002410644
178.8825,2013.7689835251654
181.1206,1964.3650097939576
183.3582,1911.95314771542
185.5954,1881.9844441443026
187.832,1861.0099268158249
190.0681,1827.180604645362
192.3037,1822.747467938192
194.5388,1818.5614887277861
196.7734,1813.373620820142
199.0075,1815.184799835644
201.2411,1844.5959432609397
203.4742,1856.2579504308296
205.7068,1887.0217022341558
207.9389,1895.13806099718
210.1704,1923.8578701759493
212.4015,1932.881954275131
214.632,1943.1611185608128
216.862,1948.246148970266
219.0915,1943.9878120091498
221.3205,1974.4368547006638
223.549,1947.2940046281299
225.777,1921.309969630503
228.0044,1883.3854380737982
230.2314,1854.2210791109324
232.4578,1818.4175430609675
234.6837,1784.4754617007561
236.909,1752.3454486229748
239.1339,1729.2280995755482
241.3582,1710.873992782944
243.582,1683.583689177351
245.8053,1677.857732582219
248.0281,1670.5466499851605
250.2503,1677.3009515952126
252.472,1697.371130915945
254.6932,1709.9576646779192
256.9139,1725.0110126379852
259.134,1759.5816174534184
261.3536,1827.619904531384
263.5727,1897.326281683231
265.7912,1988.3011384441122
268.0092,2094.994845375917
270.2267,2178.657753157525
272.4436,2251.790191517869
274.6601,2277.3924683993046
276.8759,2291.364869226287
279.0913,2294.857656649346
281.3061,2282.821070405366
283.5204,2306.6553272826536
285.7341,2298.1606212413053
287.9473,2327.7871231748654
290.16,2306.6349809952735
292.3721,2269.5543193365993
294.5837,2224.845239766563
296.7947,2199.1078211573445
299.0052,2218.7421201326706
301.2152,2182.0981713251904
303.4246,2159.375987180133
305.6334,2100.4255583217473
307.8418,2016.946853780521
310.0495,1912.7398215826893
312.2568,1803.304389585017
314.4635,1669.7404665168733
316.6696,1558.847943074585
318.8752,1445.6266932570732
321.0802,1382.326575474783
323.2847,1379.0474336818932
325.4887,1373.5390980093168
327.692,1381.1013847974941
329.8949,1419.8840966514742
332.0972,1426.0870223652935
334.2989,1407.6599365341458
336.5001,1349.1525994923552
338.7007,1289.414757497648
340.9008,1207.3961433162265
343.1003,1126.0964768201445
345.2992,1049.2154658074971
347.4976,979.8528068154146
349.6955,915.7081858888737
351.8927,893.5812792743229
354.0895,841.6717540611326
356.2856,820.3792684028592
358.4812,790.8534720363439
360.6763,777.2440064946343
362.8707,752.5005054022431
365.0646,771.4225946112463
367.258,788.4098924487141
369.4508,800.9620095274922
371.643,843.9285485763287
373.8346,884.3591043143506
376.0257,915.5532630214022
378.2162,946.7606021337349
380.4062,952.6306899320703
382.5956,917.0130852295247
384.7844,859.9573373129065
386.9726,794.7629862988947
389.1603,732.4295637045952
391.3474,697.4565930994863
393.5339,708.8935907287528
395.7199,718.9900658630145
397.9052,754.3455206839562
400.09,805.5594501833625
402.2743,869.7313418095637
404.4579,931.510674955297
406.641,1020.1469203159882
408.8235,1066.5395392719543
411.0054,1124.087983002048
413.1868,1159.141692019724
415.3675,1156.8000955975608
417.5477,1101.2626114167206
419.7273,1022.1286455903669
421.9064,955.4975932190364
424.0848,906.1188391819805
426.2627,823.3417588034758
428.4399,729.1157183466103
430.6166,641.1900758410543
432.7928,549.0641820253227
434.9683,464.8373812260279
437.1432,414.659012279144
439.3176,382.42840937226947
441.4914,335.9949025464157
443.6645,327.00781801830954
445.8371,313.96647864473016
448.0091,299.4202040123787
450.1806,290.0683105682938
452.3514,293.0601117653123
454.5216,292.84491815559113
456.6913,283.1220373606857
458.8603,290.3407740737057
461.0288,304.9504301565412
463.1967,301.30030456767645
465.3639,295.28969321609156
467.5306,283.8178889977644
469.6967,266.78418185577857
471.8622,246.63785889503788
474.0271,238.7782045526069
476.1914,252.70450079917237
478.3551,238.31602721764193
480.5182,254.46206086387838
482.6807,271.14187641058425
484.8426,303.6547459858439
487.0039,392.3999390063241
489.1647,476.0267218521435
491.3248,549.9843569794239
493.4843,582.6221020840208
495.6432,567.2392093619469
497.8015,522.3349251829945
499.9592,457.00849024456375
502.1163,373.6591400207053
504.2728,282.0861054153852
506.4287,240.6886135959803
508.5839,172.76588890900848
510.7386,142.31715329409872
512.8927,141.39162696322364
515.0461,155.23852870518476
517.199,211.25707589486728
519.3512,268.39648435477284
521.5029,370.7059677948355
523.6539,466.23473724102587
525.8043,484.3320000122544
527.9541,407.04695876508777
530.1033,324.32881131277054
532.2519,251.92675139808125
534.3999,213.83996952051075
536.5472,198.51765366028167
538.694,211.55898965921824
540.8401,228.26316137396861
542.9856,260.47935054559275
545.1305,272.35673663251873
547.2748,277.34449648838336
549.4185,294.19180424325623
551.5615,288.29783125376343
553.704,318.9617459346132
555.8458,357.0827138175373
557.987,408.8098972446496
560.1276,493.39245498723676
562.2675,594.6295417284882
564.4069,718.7703072176682
566.5456,832.6638952577473
568.6837,854.6594424639939
570.8212,722.4060771250392
572.958,563.4529189829191
575.0942,409.199080555612
577.2299,311.6436687265664
579.3648,279.7857862872438
581.4992,251.32453291266756
583.6329,277.7590054800048
585.766,356.68829835317774
587.8985,413.0615031185189
590.0304,462.8277077954799
592.1616,497.1859962728968
594.2922,460.4354478113314
596.4222,397.1251366994852
598.5515,291.75413262170696
600.6802,223.62150129109477
602.8083,169.07630550320573
604.9358,161.96760581738317
607.0626,166.99446110220788
609.1888,205.70592860658553
611.3144,252.65106390947858
613.4393,330.67892053279184
615.5636,408.23854947192103
617.6873,477.0289984154747
619.8103,489.44931096967775
621.9327,457.3985259704673
624.0544,381.3756773592854
626.1756,311.2297945035916
628.2961,234.20990295708816
630.4159,220.06502516118235
632.5351,208.39418121518293
634.6537,185.5463890177498
636.7716,170.22066438360116
638.8889,185.16602127199303
641.0056,181.28147193997438
643.1216,187.76602679293364
645.237,170.4686944234454
647.3518,150.78848154642537
649.4659,126.22439317210228
651.5793,94.92543280282234
653.6922,75.79060267868681
655.8043,68.71890409054413
657.9159,53.5593375713388
660.0268,45.86090296682596
662.137,53.522599587168315
664.2466,59.893426283919325
666.3556,37.87238137340819
668.4639,40.05846257303119
670.5716,32.30066722146148
672.6786,22.047992256789712
674.785,6.199434294099319
676.8907,-9.19601027200315
678.9958,-26.08934510890549
681.1002,-13.631482015854544
683.204,-21.523072159541243
685.3072,-22.714630528150792
687.4097,-10.056457094379311
689.5115,-0.3986249117638181
691.6127,1.5088934301638801
693.7132,-4.083870675866365
695.8131,-9.07688585221149
697.9123,25.479920076638336
700.0109,31.186709964281363
702.1089,60.34364640951708
704.2061,81.50089169927969
706.3028,114.9086075170676
708.3987,140.71695473137152
710.4941,153.27609306159638
712.5887,173.78618081997774
714.6827,176.097374785993
716.7761,177.60983000125634
718.8688,191.87369974641115
720.9608,198.98913552600334
723.0522,244.5562869258415
725.1429,294.0253015418425
727.233,389.5963245243597
729.3224,506.4694980834947
731.4112,553.3449605333858
733.4993,515.5228451234789
735.5867,424.9532795697719
737.6735,305.8863864330351
739.7596,233.92228402450655
741.845,177.4110875965598
743.9298,150.45291006234675
746.014,147.5478625609112
748.0974,143.09605472676822
750.1802,130.84759471895632
752.2624,155.70258926555516
754.3439,140.96114378616903
756.4247,160.82336214337874
758.5048,220.0893467901542
760.5843,289.2591985712352
762.6631,357.98301613046647
764.7413,501.86089521910117
766.8188,662.9429280085649
768.8956,838.8792016516727
770.9718,978.1197966718123
773.0473,961.6647852035803
775.1221,914.5642296003755
777.1962,908.5181825989523
779.2697,960.6266877904209
781.3426,1074.5897796807117
783.4147,1139.6574831694902
785.4862,1094.2298124105232
787.557,946.5567701610041
789.6271,755.3883482358306
791.6966,577.0245289843319
793.7654,395.1152872019561
795.8335,274.31059191390545
797.901,219.1104081942326
799.9678,187.51469837388413
802.0339,174.12342259270213
804.0993,168.38653911538358
806.1641,131.90400446538933
808.2282,119.47577348231653
810.2916,86.701799686723
812.3544,76.28203540440927
814.4164,74.11643209415797
816.4778,82.65494045193168
818.5385,124.39751043252909
820.5986,175.39409116419938
822.658,271.2446305312185
824.7166,390.09907466392247
826.7747,576.3073669802034
828.832,751.3694469969637
830.8886,890.535248468035
832.9446,934.4046976335542
834.9999,861.5777118283063
837.0545,718.9541990430298
839.1085,585.5340586526875
841.1618,452.11718284270205
843.2143,349.4034579431557
845.2662,281.44276576295965
847.3175,246.33498461699128
849.368,219.6299900057013
851.4179,212.97765496619058
853.467,202.72785033926243
855.5155,188.18044483594372
857.5633,196.33530513998267
859.6105,178.8922960533257
861.6569,170.20128041456655
863.7027,143.21211927337572
865.7478,127.72467197741253
867.7922,102.13879644221583
869.8359,99.70434930607985
871.8789,120.82118618591153
873.9212,110.18916170157513
875.9629,125.65812926472336
878.0039,168.8279411851188
880.0441,173.64844851594353
882.0837,230.46950062209953
884.1226,274.2409451320059
886.1609,324.7626273693868
888.1984,405.9843899155587
890.2352,488.75607210421276
892.2714,480.2275092091984
894.3069,450.2985316168033
896.3416,382.168964911044
898.3757,317.63863017294966
900.4091,285.1073446618627
902.4418,276.5249224607394
904.4739,309.2411748014638
906.5052,311.6559101506714
908.5358,303.11893388258727
910.5658,260.63004825487906
912.595,194.88905249402592
914.6236,143.4457432202057
916.6515,99.79991510470654
918.6786,63.651361384359234
920.7051,55.0998742979973
922.7309,66.59524544794067
924.756,70.28726588551172
926.7804,86.57572599608125
928.8041,103.51041546214697
930.8272,133.59112310045043
932.8495,151.46763669263055
934.8711,155.83974268441534
936.892,185.05722600685817
938.9123,200.46987003261552
940.9318,244.57745628377347
942.9506,243.1797642777192
944.9688,241.02657108606672
946.9862,198.76765134863308
949.003,140.15277729497052
951.019,97.33171916695528
953.0344,77.25424580493791
955.0491,66.07012507595277
957.063,59.029124074494575
959.0763,70.63100923435786
961.0888,72.02554639904793
963.1007,87.01250070576043
965.1119,84.89163657143718
967.1223,80.96271754289592
969.1321,79.67550631803738
971.1412,66.12976478513701
973.1495,56.52525403571508
975.1572,59.811734499995055
977.1641,75.0889660429491
979.1704,59.70670793143222
981.1759,54.014718681409704
983.1808,58.01275621178024
985.1849,56.35057790129713
987.1884,49.877940548586594
989.1911,62.84460038877137
991.1932,80.9503131581937
993.1945,90.19483396475266
995.1951,80.87791710684428
997.1951,64.9993159809178
999.1943,71.35878317464426
1001.1928,79.4560706257023
1003.1906,110.99092955818264
1005.1877,138.3131104016154
1007.1841,178.3223624756215
1009.1798,195.66843371669142
1011.1748,182.40107027809336
1013.1691,148.57001635641063
1015.1627,120.07501432421714
1017.1556,51.165805068387726
1019.1477,30.492128275047662
1021.1392,-4.846276881334461
1023.1299,-7.549671531211516
1025.12,-6.818268390730964
1027.1093,23.047795245178804
1029.0979,62.298450196090016
1031.0859,83.98362705109685
1033.0731,108.55325577631038
1035.0596,112.30726549800602
1037.0454,88.44558425692821
1039.0304,74.41813897074894
1041.0148,20.67485567268568
1042.9985,-4.484340348224805
1044.9814,5.440475990307732
1046.9636,-11.00072543086867
1048.9452,-1.4079747853093068
1050.926,23.068807650677854
1052.9061,57.029715666452375
1054.8855,52.424842820686536
1056.8642,60.10428210175701
1058.8421,62.36812597379276
1060.8194,66.1164662998799
1062.7959,75.14939431942344
1064.7717,78.81700061066522
1066.7469,82.41937500035237
1068.7213,114.65660652706492
1070.695,147.3287834051887
1072.6679,181.63599270254372
1074.6402,206.42832001366287
1076.6117,209.7558491167208
1078.5826,163.86866172560894
1080.5527,110.06683745666237
1082.5221,70.75045428752969
1084.4908,44.619589095191486
1086.4587,19.47431804912594
1088.426,-1.1852831273845368
1090.3925,5.8408610942015
1092.3584,24.802838083401866
1094.3235,61.25073515132567
1096.2879,101.38463936105495
1098.2515,154.75463716316403
1100.2145,202.6108139943824
1102.1767,279.2532537438933
1104.1382,358.63203827477173
1106.099,447.0972466575638
1108.0591,532.7489543764957
1110.0185,583.6872324448232
1111.9771,661.8621465483118
1113.9351,712.5237565358561
1115.8923,777.8221156377301
1117.8488,768.1072699589722
1119.8045,676.5292578263982
1121.7596,557.2881098857542
1123.7139,452.63385001749475
1125.6675,384.51649652919446
1127.6204,376.1860632020905
1129.5726,390.1925599722563
1131.524,371.13599301390354
1133.4748,308.76636459932047
1135.4248,223.88367328943605
1137.3741,152.43791455751534
1139.3226,121.57908163798788
1141.2705,117.55716624090542
1143.2176,113.32215886052745
1145.164,116.6240488155438
1147.1097,82.06282429142243
1149.0546,51.88847230739134
1150.9989,27.850979062051465
1152.9424,-8.099669764880446
1154.8852,-24.063488772196933
1156.8272,-33.09041164298992
1158.7686,-5.930131666099214
1160.7092,-8.032011557152828
1162.6491,11.254645210235594
1164.5883,37.53061540224667
1166.5267,89.49667567251618
1168.4644,130.95360229937432
1170.4014,197.50217066618575
1172.3377,276.99315484678027
1174.2732,400.5273269399679
1176.2081,581.6054562746278
1178.1421,776.5283081743662
1180.0755,975.5466421467358
1182.0082,1059.111209934007
1183.9401,1019.9227535229843
1185.8713,872.4820043093612
1187.8017,694.2896834896046
1189.7315,544.3465035353615
1191.6605,414.40316997538434
1193.5888,320.9103828949608
1195.5163,253.718838235347
1197.4432,217.87922872869513
1199.3693,210.2422445699715
1201.2947,189.10857377535103
1203.2193,189.628902258587
1205.1432,162.05391404234865
1207.0664,173.23429125301618
1208.9889,167.47071439643128
1210.9106,164.96386224609432
1212.8316,180.86441190079768
1214.7519,193.77303880969703
1216.6715,229.14041661330361
1218.5903,256.51721701440056
1220.5084,287.5041094243654
1222.4257,344.95176068940464
1224.3424,364.36083478068485
1226.2583,419.8819922198543
1228.1735,479.46588988495455
1230.0879,558.763180455207
1232.0016,636.8745118151755
1233.9146,714.9005262617925
1235.8269,747.5418597232465
1237.7384,789.3491409787225
1239.6492,787.5229913319884
1241.5592,831.21402419332
1243.4686,915.3228450977656
1245.3772,1058.6500512682328
1247.285,1194.696230774403
1249.1922,1337.7119610994557
1251.0986,1471.14780777961
1253.0042,1594.9543229739656
1254.9092,1709.5820441301457
1256.8134,1816.7814927462305
1258.7169,1861.7531732244793
1260.6196,1870.8475717993392
1262.5216,1874.3651560877247
1264.4229,1846.006374998077
1266.3234,1836.671658695185
1268.2232,1814.4114188837748
1270.1223,1789.976048901858
1272.0207,1747.9159239433307
1273.9183,1735.33140130233
1275.8151,1765.672820793833
1277.7113,1859.1905048795043
1279.6067,1987.4847583642807
1281.5014,2205.755867461195
1283.3953,2477.704098508433
1285.2885,2740.029695786623
1287.181,2955.7328787993515
1289.0727,3064.36383964991
1290.9637,3102.022740884263
1292.854,3059.409714404734
1294.7435,2952.124861093424
1296.6323,2822.218251238335
1298.5204,2703.8899256062223
1300.4077,2558.8898967416567
1302.2943,2448.2681501503134
1304.1802,2351.1246457489674
1306.0653,2235.0093189717145
1307.9497,2097.9720817414027
1309.8333,1977.6628236307906
1311.7162,1863.5814132329156
1313.5984,1792.3276993641866
1315.4798,1714.7015122051998
1317.3605,1671.4526640132744
1319.2405,1613.5309498987147
1321.1197,1530.4861482572999
1322.9982,1373.5680213495002
1324.876,1235.5263161309247
1326.753,1085.8607658215037
1328.6293,962.7710912859061
1330.5048,863.3570025301924
1332.3796,763.2681999327137
1334.2537,685.9543752382529
1336.127,640.3652125589097
1337.9996,610.1003891472435
1339.8714,576.2595758521613
1341.7426,565.442437421566
1343.6129,563.6986328407661
1345.4826,546.377815440647
1347.3515,528.0296329151076
1349.2196,508.303727494271
1351.087,508.3497361279624
1352.9537,505.2172906829703
1354.8197,527.0560179425856
1356.6849,562.0655396379268
1358.5493,610.3954722295534
1360.4131,684.8954265573693
1362.276,756.3150073573254
1364.1383,801.8038125164182
1365.9998,800.8114323584953
1367.8606,768.3374491893687
1369.7206,713.3814373067353
1371.5799,666.0929633249186
1373.4384,627.8715867244293
1375.2962,567.266860324849
1377.1533,485.3283306670446
1379.0096,376.4555386192153
1380.8652,297.39802019627746
1382.7201,224.9053076485934
1384.5742,176.82693025254434
1386.4275,143.0624150354597
1388.2802,103.31128725639996
1390.132,89.97307074380205
1391.9832,69.74728829299056
1393.8336,36.48346179956047
1395.6832,39.93111246163403
1397.5322,29.539761112497445
1399.3803,14.208928186127423
1401.2278,5.038133821103202
1403.0745,12.076898013916434
1404.9204,-16.125259289323367
1406.7656,-11.668818263274943
1408.6101,-14.304097991257095
1410.4538,-7.3813009850955495
1412.2968,10.699513141322313
1414.139,18.988358513304775
1415.9805,28.53524914916602
1417.8213,58.34019887733689
1419.6613,92.65322124089653
1421.5006,141.6243291995222
1423.3391,189.5035347863593
1425.1769,291.99084861831193
1427.0139,430.1862794172482
1428.8502,562.3398329851289
1430.6858,706.5515108220525
1432.5206,772.0213088047199
1434.3547,796.149215744317
1436.188,780.2852127318192
1438.0206,754.92927289671
1439.8524,711.7313615656212
1441.6835,724.7914365158917
1443.5139,711.7594484075485
1445.3435,712.5353406527036
1447.1724,712.2690495458758
1449.0005,716.2105042562305
1450.8279,723.4096268302428
1452.6545,706.8163321522843
1454.4804,716.6805278726304
1456.3056,716.6521145733936
1458.13,701.3309856698825
1459.9536,647.1670274108853
1461.7766,590.9101190318818
1463.5987,518.5101332966826
1465.4202,448.06693705999805
1467.2409,366.3803919914376
1469.0608,326.15035527994087
1470.88,264.72668045064506
1472.6984,223.1592177671837
1474.5161,170.49781484592472
1476.3331,163.39231707164367
1478.1493,140.9925681241391
1479.9648,141.84841004928626
1481.7795,120.65968348303568
1483.5935,134.02622764285456
1485.4067,125.0478805396126
1487.2192,127.32447884391922
1489.031,121.60585797590466
1490.842,118.89185208245476
1492.6522,121.38229409439623
1494.4618,127.92701575363913
1496.2705,118.27584758826993
1498.0785,101.72861884710596
1499.8858,94.83515759620605
1501.6924,81.49529088434383
1503.4981,76.00884481194066
1505.3032,77.77564466446552
1507.1075,61.545514967299596
1508.911,60.31827946806743
1510.7138,36.79376129893899
1512.5159,26.42178298890053
1514.3172,29.452166699002873
1516.1178,2.1347343260790694
1517.9176,8.069307472441778
1519.7166,11.105707719056
1521.515,1.9937565661950885
1523.3126,2.2332754030753676
1525.1094,-2.375914401024147
1526.9055,-7.133991499156082
1528.7008,-7.341110808988105
1530.4954,-0.39735597961384883
1532.2893,-5.852737322428993
1534.0824,-4.907261179241914
1535.8747,-3.2608754230150225
1537.6663,-2.1634789031722903
1539.4572,2.33506210700898
1541.2473,3.4349029474042254
1543.0367,15.286198934538788
1544.8253,29.039105350590717
1546.6132,53.74377732487528
1548.4003,63.10036969631756
1550.1867,95.85903676640487
1551.9723,117.91993220562131
1553.7572,164.03320872586073
1555.5414,212.7490178598182
1557.3247,284.617509499858
1559.1074,359.78883141085316
1560.8893,441.1631285115029
1562.6705,504.9905421226183
1564.4509,540.4212091533796
1566.2305,578.6552614630625
1568.0094,587.1428255067312
1569.7876,588.584021952898
1571.565,597.5789655986472
1573.3417,586.527765355223
1575.1176,615.8805241580807
1576.8928,644.4873390773989
1578.6672,689.0483010245504
1580.4409,734.7634944660359
1582.2138,804.0829969778741
1583.986,873.9068787884485
1585.7575,950.0352020853138
1587.5282,1004.6180203169556
1589.2981,1083.155377431509
1591.0673,1123.6473073309267
1592.8358,1166.2438330856094
1594.6035,1199.9949665294857
1596.3704,1202.050707834046
1598.1366,1214.5110451708329
1599.9021,1196.2759546908803
1601.6668,1197.045400400113
1603.4308,1215.9193343416964
1605.194,1254.4976965883423
1606.9564,1338.5304150535694
1608.7182,1455.8674051059195
1610.4791,1611.6085687286327
1612.2394,1785.4037933462737
1613.9988,1937.452950267322
1615.7576,2039.40589294622
1617.5156,2057.062455462882
1619.2728,1982.4724515031608
1621.0293,1844.8856741822876
1622.785,1649.9518967907695
1624.54,1448.070874170257
1626.2942,1254.8423446628813
1628.0477,1062.0160321300673
1629.8005,923.8416478848154
1631.5525,802.3688926199671
1633.3037,713.7474577899471
1635.0542,627.6770268254916
1636.804,549.3572760198616
1638.553,492.6378753895499
1640.3013,459.5684894574754
1642.0488,423.0987778201793
1643.7955,409.2783954785177
1645.5416,401.8569932023597
1647.2868,392.03421766879137
1649.0313,395.3097115363295
1650.7751,405.2831135431476
1652.5181,424.70405847432403
1654.2604,436.6721770621052
1656.0019,486.08709579169874
1657.7427,544.9484367815899
1659.4828,615.0558172893934
1661.222,684.2588491232402
1662.9606,732.3571379407027
1664.6984,726.4502825567664
1666.4354,674.987874462845
1668.1717,571.0194978858492
1669.9072,458.39473030281204
1671.642,357.46314348057103
1673.3761,276.77430460201685
1675.1094,218.47777727540915
1676.8419,177.92312234126462
1678.5737,151.35989845532367
1680.3048,119.08766249409507
1682.0351,98.30596982048905
1683.7646,84.61437460653963
1685.4934,71.0624300412212
1687.2215,64.09968846736558
1688.9488,55.875701517180346
1690.6754,39.890020181876366
1692.4012,36.99219489390805
1694.1263,31.781775686829633
1695.8506,24.95831222427364
1697.5742,17.871353852055336
1699.297,13.820449666407171
1701.0191,21.455148584848757
1702.7404,8.524999386695299
1704.461,2.329550636710678
1706.1808,1.3683508144096095
1707.8999,2.4909483760121702
1709.6182,7.746891764054908
1711.3358,2.285729396165607
1713.0527,4.2070096125032705
1714.7688,-3.3897192696305183
1716.4841,-6.3549089750033545
1718.1987,-2.6389773650889765
1719.9126,-3.542278815820282
1721.6257,-3.8151413397471288
1723.338,2.492142437945404
1725.0496,-3.570681994665506
1726.7605,9.246130825575733
1728.4706,-2.707637967062169
1730.18,-3.282207330770916
1731.8886,10.37223082556011
1733.5964,-2.8944826177074674
1735.3036,-0.9325068839332289
1737.0099,-4.641972280596065
1738.7156,-4.5729997994315
1740.4204,-4.475664058872667
1742.1246,-0.19999399308449028
1743.8279,-4.745973824348653
1745.5306,0.4864142229931758
1747.2325,-1.8027646631227299
1748.9336,4.386554700375768
1750.634,0.8544555061799883
1752.3336,-3.4489790968839316
1754.0325,3.4263340314656716
1755.7307,-0.11948751318811901
1757.4281,7.013673830473863
1759.1247,7.525936817450884
1760.8206,-0.1325798673940426
1762.5158,2.3382423855424577
1764.2102,3.9885235103363357
1765.9039,5.31838341768173
1767.5968,13.927941978388048
1769.289,-0.6826809899195041
1770.9804,0.3866341911049176
1772.6711,10.786014019790173
1774.361,11.31558499059895
1776.0502,6.675473490133754
1777.7386,12.315805791841967
1779.4263,21.736708102416628
1781.1132,15.238306505392643
1782.7994,22.770726866938503
1784.4849,11.934094900839568
1786.1696,17.378536093174034
1787.8535,25.004175810679612
1789.5367,20.511139246308403
1791.2192,19.199551342971063
1792.9009,15.06953683846723
1794.5818,23.621220278601186
1796.2621,27.704726058482606
1797.9415,25.57017833700877
1799.6202,19.267700996030044
1801.2982,15.697417661695113
1802.9755,23.409451767475957
1804.6519,20.053926589870684
1806.3277,16.880965171283037
1808.0027,21.640690353577725
1809.6769,28.983224809810167
1811.3504,23.008690996629184
1813.0231,25.467211080851484
1814.6951,27.00890699920751
1816.3664,29.583900433755616
1818.0369,32.09231279646565
1819.7067,28.234265203468453
1821.3757,37.10987844997169
1823.044,39.219273048841046
1824.7115,43.01256914184353
1826.3783,41.839886478554035
1828.0443,35.35134437842191
1829.7096,39.89706174249807
1831.3741,31.727157118320406
1833.0379,36.99174865445593
1834.701,39.14095418220052
1836.3633,38.624891162932386
1838.0248,45.79367666662006
1839.6856,42.447427376983796
1841.3457,49.336259519807186
1843.005,42.51028889639974
1844.6636,52.11963081470907
1846.3214,41.96440015757986
1847.9785,48.09471128666058
1849.6349,52.16067814395649
1851.2904,46.6124141905259
1852.9453,57.30003236582036
1854.5994,50.5236451431673
1856.2528,53.68336442289433
1857.9054,56.82930160009249
1859.5572,49.711567533019604
1861.2083,56.43027251164051
1862.8587,56.885526328804644
1864.5084,58.12743821305901
1866.1572,55.85611682409558
1867.8054,56.87167024033232
1869.4528,55.87420598162606
1871.0994,59.41383099911724
1872.7453,57.24065168520423
1874.3905,57.654773838147264
1876.0349,59.65630268380056
1877.6786,57.8953428714708
1879.3215,52.32199845390181
1880.9637,54.83637290488434
1882.6051,59.08856917498889
1884.2458,62.82868966642263
1885.8858,57.706836190507204
1887.525,65.27310993027788
1889.1634,62.47761149170191
1890.8011,61.37044082801532
1892.4381,58.50169726767854
1894.0743,72.52147952544772
1895.7098,60.62988573106253
1897.3446,56.52701328904794
1898.9786,62.91295899763014
1900.6118,55.8378190897655
1902.2443,67.05168916928136
1903.8761,53.50466428162662
1905.5071,59.29683880173394
1907.1374,62.67830656948922
1908.7669,58.799160831810184
1910.3957,62.65949420883186
1912.0237,61.8593987326978
1913.651,59.54896580895684
1915.2776,57.87828622456408
1916.9034,55.19745017098501
1918.5285,58.45654726090271
1920.1528,60.05566655502582
1921.7764,60.244896529497396
1923.3992,66.1243250599046
1925.0213,54.794039419385626
1926.6427,57.104126219835564
1928.2633,64.10467152520994
1929.8832,59.34576082842307
1931.5023,57.777478981342995
1933.1207,57.149910242380315
1934.7383,52.46313829217104
1936.3552,51.517246239852284
1937.9714,58.81231666992983
1939.5868,53.498431651737405
1941.2015,51.72567266648565
1942.8154,57.794120660401006
1944.4286,58.00385606245362
1946.041,49.40495872367251
1947.6528,47.39750791504832
1949.2637,51.68158241352262
1950.8739,54.05726052206228
1952.4834,52.12462002681821
1954.0921,51.88373817336941
1955.7001,50.28469168604869
1957.3074,53.32755677035175
1958.9139,49.41240912892749
1960.5197,51.739323931149954
1962.1247,49.45837585226889
1963.729,49.8696390501413
1965.3325,52.42318718804046
1966.9353,52.26909343054348
1968.5374,47.20743041799591
1970.1387,53.88827026805245
1971.7393,53.91168462629378
1973.3392,51.02774459941793
1974.9383,48.936520755006256
1976.5366,44.638083150363
1978.1342,50.68250135342703
1979.7311,51.36984448575669
1981.3273,51.30018116208555
1982.9227,44.173579483448805
1984.5173,46.34010703787999
1986.1112,50.64983097167732
1987.7044,54.702817967737644
1989.2968,46.999134202459686
1990.8885,47.78884530521435
1992.4795,53.8720164353814
1994.0697,42.24871227445226
1995.6592,44.218996965198244
1997.2479,46.08293422790382
1998.8359,46.64058734066356
2000.4232,52.79201912074308
2002.0097,43.837291919002155
2003.5955,40.02646755838043
2005.1805,41.759607423445004
2006.7648,51.8867724984986
2008.3484,47.20802335024774
2009.9312,45.823420026531494
2011.5133,45.08302210310893
2013.0946,42.43688869750474
2014.6752,48.285078476413446
2016.2551,49.47764968216103
2017.8342,45.56466007422296
2019.4126,45.04616691729848
2020.9902,42.6722270204404
2022.5672,47.69289674224024
2024.1433,43.30823201456724
2025.7188,48.368288292361854
2027.2935,41.67312059748224
2028.8674,44.47278346810407
2030.4406,43.36733102567155
2032.0131,42.55681694690156
2033.5849,29.591294474837525
2035.1559,37.67081642695484
2036.7261,48.39543532481633
2038.2957,43.46520331327673
2039.8645,42.830172053236424
2041.4325,44.49039277094403
2042.9998,45.395916264346624
2044.5664,42.1967928864878
2046.1323,43.4930725364523
2047.6974,41.284804691357294
2049.2617,39.92203839338924
2050.8254,42.95482227188677
2052.3883,42.933204556968235
2053.9504,45.80723304920389
2055.5118,40.126955119832076
2057.0725,43.79241768201882
2058.6325,38.10366724766078
2060.1917,46.31074989073045
2061.7502,40.863711304164156
2063.3079,38.412596717790564
2064.8649,42.05745095280179
2066.4212,47.74831844626408
2067.9767,36.885243214669856
2069.5315,36.818268797028225
2071.0856,38.39743836349595
2072.6389,39.57279471604721
2074.1915,34.24438027268212
2075.7433,35.012237055672756
2077.2945,39.576406744847645
2078.8448,37.63693066991311
2080.3945,31.94384976481126
2081.9434,37.64720458711503
2083.4916,30.397035374959046
2085.039,32.893381990005594
2086.5857,29.7362839899468
2088.1317,39.77578060354108
2089.677,34.81191076218414
2091.2215,38.194712999514024
2092.7652,36.07422550105014
2094.3083,33.650486070364764
2095.8506,33.173532150288
2097.3921,37.09340084714546
2098.933,33.31012893552804
2100.4731,32.22375281909274
2102.0124,31.73430856839542
2103.5511,35.69183193175496
2105.089,36.84635834014745
2106.6261,37.047922867630575
2108.1626,40.1465602197988
2109.6983,36.39230473176747
2111.2332,33.785190337186464
2112.7675,28.67525060578265
2114.301,33.61251876943123
2115.8337,35.44702777325506
2117.3657,37.57881022625179
2118.897,30.457898382949054
2120.4276,32.33432412208657
2121.9575,30.058119017825106
2123.4866,33.82931432098246
2125.0149,26.19794098179557
2126.5426,31.864029612208185
2128.0695,32.477610562184964
2129.5956,26.73871386305018
2131.1211,27.64736922135222
2132.6458,33.95360607625213
2134.1698,34.40745359043723
2135.693,29.908940587058908
2137.2155,31.708095545194226
2138.7373,36.70494664483107
2140.2584,25.849521748876725
2141.7787,33.49184835318857
2143.2983,34.93195369512921
2144.8171,31.569864677142846
2146.3353,30.05560785235417
2147.8527,34.189209458189225
2149.3693,34.02069543151805
2150.8853,29.700091367318635
2152.4005,27.677422520362086
2153.9149,27.80271384841876
2155.4287,29.07599003248521
2156.9417,20.247275475531012
2158.454,32.816594289765874
2159.9655,24.383970384926727
2161.4764,30.699427342584613
2162.9865,29.262988500471295
2164.4958,30.274676889323928
2166.0045,35.7845152472504
2167.5124,33.8925260096114
2169.0195,26.598731253922892
2170.526,26.6531527187758
2172.0317,28.755811876774032
2173.5367,31.806729933990425
2175.0409,27.655927808939737
2176.5445,24.50342610206991
2178.0473,25.649245137269645
2179.5494,26.59340499339345
2181.0507,31.685925492803676
2182.5513,30.376826191929183
2184.0512,33.76612633033966
2185.5504,22.203844843836578
2187.0488,27.190000330560395
2188.5465,21.32461116661318
2190.0435,26.907695456196734
2191.5397,21.439271090266743
2193.0353,24.96935569070189
2194.5301,22.497966664988553
2196.0241,19.02512117091908
2197.5175,25.400836141306684
2199.0101,24.92512831871352
2200.502,27.698014191693346
2201.9931,20.0695099995487
2203.4835,26.989631704602402
2204.9733,29.458395068482105
2206.4622,24.525815582919336
2207.9505,19.741908445061256
2209.438,21.25668860679764
2210.9248,22.170170822599232
2212.4109,21.682369634370218
2213.8962,20.393299362312916
2215.3809,20.252974109806246
2216.8648,17.21140777629637
2218.3479,21.71861405869987
2219.8304,22.92460648181941
2221.3121,20.62939835327154
2222.7931,17.983002751427136
2224.2733,15.185432548363167
2225.7529,14.286700436326953
2227.2317,17.18681895571109
2228.7098,17.685800504041367
2230.1872,16.83365730697568
2231.6638,22.88040141331396
2233.1397,18.07604470352038
2234.6149,17.270598829255164
2236.0894,19.564075261418054
2237.5632,12.356485298202983
2239.0362,16.297840042163045
2240.5085,15.93815047228668
2241.9801,11.727427404583977
2243.4509,14.9156814956836
2244.921,19.90292328494013
2246.3904,14.78916316255146
2247.8591,16.97441131968651
2249.3271,17.258677799622376
2250.7943,13.241972475892396
2252.2608,15.274305049443512
2253.7266,11.955685088802909
2255.1917,6.436122009755252
2256.656,10.865625108528377
2258.1197,11.344203616989205
2259.5826,15.571866658348483
2261.0447,17.49862324237523
2262.5062,5.124482223119713
2263.9669,11.099452279646243
2265.4269,13.923542039774361
2266.8862,18.096760020329185
2268.3448,13.61911459890041
2269.8026,14.140613972110401
2271.2598,11.561266200390492
2272.7162,10.131079202765875
2274.1719,12.300060782649211
2275.6268,12.968218642142574
2277.0811,16.135560360347455
2278.5346,11.202093386683458
2279.9874,15.767825009214533
2281.4395,18.382762403983776
2282.8908,15.196912589356288
2284.3414,13.660282399869573
2285.7914,13.522878518092199
2287.2406,12.984707489989887
2288.689,9.095775726299735
2290.1368,10.306089507912048
2291.5838,7.665655024759388
2293.0302,11.674478363713462
2294.4758,9.732565534989561
2295.9206,13.289922432058376
2297.3648,10.146554851065076
2298.8082,18.402468455255757
2300.251,7.807668806410959
2301.693,17.012161282286627
2303.1343,7.765951182561992
2304.5748,12.3690436367948
2306.0147,5.971443696883341
2307.4538,15.373156291035656
2308.8922,11.074186287745476
2310.3299,18.724538401775078
2311.7669,12.424217237145001
2313.2031,13.57322721063062
2314.6387,12.071572614765273
2316.0735,8.769257606350038
2317.5076,4.466286221470455
2318.941,14.812662408519486
2320.3737,12.408390071227444
2321.8056,12.953472965197989
2323.2369,8.897914721950997
2324.6674,8.791718843471784
2326.0972,10.134888742766663
2327.5263,16.32742774492482
2328.9547,12.869339073686746
2330.3823,15.560625789518639
2331.8092,14.95129082419345
2333.2355,13.741336953877976
2334.661,8.780766805226278
2336.0858,9.419582867479136
2337.5098,8.257787542069593
2338.9332,5.19538313623508
2340.3558,14.732371874635135
2341.7778,4.768755929975612
2343.199,10.454537327638775
2344.6195,12.48971804531945
2346.0393,10.174299956167289
2347.4583,10.208284808435025
2348.8767,6.341674248632472
2350.2943,13.92446982118662
2351.7113,10.606673007107787
2353.1275,12.488285148161594
2354.543,12.76930748004716
2355.9578,14.149741113580632
2357.3718,8.279587031885285
2358.7852,10.508846076587076
2360.1978,13.637519006516214
2361.6098,10.2656064754145
2363.021,10.743109000648559
2364.4315,13.620026996929198
2365.8413,9.89636077153611
2367.2504,11.522110495548759
2368.6587,11.597276241083307
2370.0664,10.871857965034877
2371.4733,6.9958555083259455
2372.8795,9.919268603160617
2374.285,10.942096911784347
2375.6899,14.56433999725013
2377.0939,11.985997313190182
2378.4973,12.907068167593252
2379.9,10.577551748588263
2381.3019,3.0474471152335525
2382.7032,10.766753220812092
2384.1037,6.43546898813247
2385.5035,9.653593232335794
2386.9027,6.771124704208461
2388.3011,5.038062058000975
2389.6987,11.604403880252647
2391.0957,11.270148707122331
2392.492,9.23529495872495
2393.8876,7.749840942474009
2395.2824,10.663784873430046
2396.6765,3.5771248891553284
2398.07,9.43985902057429
2399.4627,7.90198526284027
2400.8547,8.913501516707925
2402.246,13.174405603912334
2403.6366,9.284695257053613
2405.0265,5.394368076988002
2406.4156,6.103421571724823
2407.8041,7.711853195329752
2409.1918,5.569660340834389
2410.5789,3.3268403241518456
2411.9652,4.133390405498773
2413.3508,5.639307811823414
2414.7358,5.5945897287401465
2416.12,11.199233285470427
2417.5035,5.853235555290013
2418.8863,7.806593499482403
2420.2684,7.059304020798891
2421.6497,5.911363943924869
2423.0304,4.962770022952526
2424.4104,6.013518952860778
2425.7896,6.0636073790006435
2427.1682,8.76303188658818
2428.546,5.161789000203385
2429.9232,8.759875156796
2431.2996,8.857286741698005
2432.6753,4.354020052642767
2434.0503,6.950071298790903
2435.4246,5.945436645762868
2436.7982,7.090112189678422
2438.1711,7.23409396720308
2439.5433,2.727377944101306
2440.9148,2.319960013796617
2442.2856,11.361836042438881
2443.6557,7.203001872978348
2445.025,2.043453234747062
2446.3937,3.8331857850471067
2447.7617,3.372195160746088
2449.1289,3.560476960379816
2450.4955,2.598026748762237
2451.8613,2.384840055102586
2453.2265,4.770912382629859
2454.5909,9.90623921072472
2455.9546,5.540815971058805
2457.3177,1.9746379962413698
2458.68,5.857700563473685
2460.0416,7.589998930210783
2461.4025,6.671528295330575
2462.7627,10.302283781811013
2464.1222,7.332260445914869
2465.4811,7.71145324088215
2466.8392,5.5398570466302886
2468.1966,12.417466665962394
2469.5533,12.444276846283003
2470.9093,6.970282210822177
2472.2645,9.095477258367026
2473.6191,7.51985641800195
2474.973,10.393414027856693
2476.3262,8.566144350862487
2477.6787,11.838041546016598
2479.0305,8.509099686654878
2480.3816,8.97931272773289
2481.7319,12.248674539115228
2483.0816,6.5171789008735175
2484.4306,13.534819470592623
2485.7789,10.351589840685847
2487.1264,10.567483468218285
2488.4733,8.732493706739177
2489.8195,8.29661380412307
2491.165,16.209836920919685
2492.5097,8.822156134712543
2493.8538,8.383564360986867
2495.1972,11.74405442700646
2496.5398,11.50361907619947
2497.8818,12.762250934553606
2499.2231,4.769942513020368
2500.5637,7.026686194928772
2501.9035,16.782474315908388
2503.2427,11.53729914132208
2504.5812,9.891152768707911
2505.919,11.744027180231
2507.256,10.445914259145127
2508.5924,8.746805771263723
2509.9281,11.296693377941182
2511.2631,14.295568653063782
2512.5974,10.393423057550962
2513.9309,10.590247909366553
2515.2638,10.786034422540212
2516.596,10.330773705199277
2517.9275,8.374456757610773
2519.2583,11.86707447673399
2520.5884,9.008617675783825
2521.9178,10.649077049304367
2523.2465,13.388443201753688
2524.5745,12.476706631099063
2525.9018,9.113857701423541
2527.2284,5.649886652043051
2528.5543,11.434783631135105
2529.8796,10.168538730378373
2531.2041,11.501141927103617
2532.5279,14.532583096956358
2533.851,11.86285200057074
2535.1735,11.941938253255245
2536.4952,10.969831351690004
2537.8163,7.796520673135575
2539.1366,10.521995485154434
2540.4562,8.646244977343713
2541.7752,13.069258234080792
2543.0935,11.391024253280676
2544.411,14.161531902165905
2545.7279,12.230769934048823
2547.0441,10.598726960626607
2548.3596,11.21539147128874
2549.6744,19.430751849437684
2550.9885,13.994796366321935
2552.3019,16.20751309888263
2553.6146,13.818889984112872
2554.9266,8.22891479693078
2556.2379,11.287575174065665
2557.5485,8.344858669957603
2558.8585,12.950752726171032
2560.1677,12.25524470082189
2561.4762,16.308321822518565
2562.7841,11.059971197317083
2564.0913,15.960179768190358
2565.3977,13.608934367511694
2566.7035,17.35622166805257
2568.0086,12.702028206495214
2569.313,15.44634034595964
2570.6167,14.389144322545661
2571.9197,16.230426217889658
2573.222,11.420171969736714
2574.5236,16.10836735352754
2575.8246,11.044998030501262
2577.1248,11.080049500813317
2578.4244,15.86350715416917
2579.7232,18.495356269474
2581.0214,15.275581966997876
2582.3189,17.804169182057464
2583.6157,13.631102697213663
2584.9118,21.756367116985743
2586.2072,24.07994690958199
2587.5019,19.75182632564706
2588.7959,20.47198937502631
2590.0893,22.990419870046708
2591.3819,23.357101418315537
2592.6739,17.272017397535876
2593.9652,22.685150951839873
2595.2557,21.296485052639653
2596.5456,27.1060024444959
2597.8348,27.363685659004503
2599.1234,21.21951695670137
2600.4112,25.273478324485694
2601.6983,23.825551537061642
2602.9848,23.87571811639853
2604.2705,23.723959346210307
2605.5556,26.020256271453803
2606.84,25.91458969984636
2608.1237,23.656940178902786
2609.4067,22.147287996992006
2610.689,22.485613205913538
2611.9707,26.37189563599408
2613.2516,23.25611489270422
2614.5319,20.238250317795618
2615.8115,20.018281020458858
2617.0903,26.496185907502067
2618.3685,22.821943685550607
2619.6461,21.295532796268034
2620.9229,21.466931453098454
2622.199,20.636117656530814
2623.4745,21.503069192384814
2624.7493,24.017763640118986
2626.0234,19.180178364161307
2627.2968,20.89029048876209
2628.5695,18.748076946369963
2629.8415,20.50351446053061
2631.1128,22.256579567309046
2632.3835,15.657248597735304
2633.6535,21.655497660273483
2634.9228,20.401302706815414
2636.1914,21.74463947269797
2637.4593,25.635483489244933
2638.7265,24.02381007033385
2639.9931,19.70959427348754
2641.259,20.192810915990734
2642.5242,18.023434618032283
2643.7887,18.701439797872993
2645.0525,22.97680069353936
2646.3156,20.649491356043498
2647.5781,19.91948560662958
2648.8398,20.786757060047023
2650.1009,14.25127913185051
2651.3613,18.263025029727203
2652.6211,17.621967818851545
2653.8801,18.37808038176773
2655.1385,19.33133542480033
2656.3961,19.531705470493094
2657.6531,17.17916284807646
2658.9094,17.623679691463906
2660.1651,22.215227962777334
2661.42,23.153779447901883
2662.6743,21.53930571057049
2663.9279,24.121778082978267
2665.1808,24.55116768192741
2666.433,16.377445383002325
2667.6846,22.600581816275934
2668.9354,21.02054744804674
2670.1856,25.337312518607447
2671.4351,29.150847058045343
2672.6839,27.96112084307454
2673.9321,27.768103358900845
2675.1795,30.77176381111886
2676.4263,25.07207112764219
2677.6724,32.36899392866695
2678.9179,28.312500583668566
2680.1626,27.052559138432514
2681.4067,29.13913735561937
2682.6501,24.122202727364296
2683.8928,26.60172245441096
2685.1348,29.327663496281104
2686.3761,23.499992546479305
2687.6168,24.018676005233516
2688.8568,24.783680037771816
2690.0961,17.34497056913557
2691.3348,22.902513276529348
2692.5727,17.35627366370811
2693.81,23.306217005401706
2695.0466,22.552308402777342
2696.2826,24.344512723940056
2697.5178,22.88279461147185
2698.7524,23.117118464509673
2699.9863,28.497448453362466
2701.2195,22.92374851716812
2702.452,23.995982310090014
2703.6839,26.214113257054095
2704.9151,27.128104543026566
2706.1456,25.637919090832526
2707.3755,33.09351955201606
2708.6046,30.244868321742004
2709.8331,32.69192746424004
2711.0609,32.98465874129138
2712.2881,35.72302358775811
2713.5145,37.506983108655675
2714.7403,37.4864980517695
2715.9654,36.311528789815554
2717.1899,39.63203532064462
2718.4136,42.84797727899236
2719.6367,44.159313903274054
2720.8591,47.86600400342533
2722.0809,48.41800594778864
2723.3019,51.76527762604648
2724.5223,55.50777644370126
2725.7421,52.045459288602714
2726.9611,51.32828249352279
2728.1795,53.056201870778835
2729.3972,49.6791727194055
2730.6142,46.64714980787535
2731.8306,40.31008740786942
2733.0462,41.16793932459724
2734.2612,39.02065896016758
2735.4756,32.518199305009816
2736.6892,34.06051295934684
2737.9022,26.847552198219574
2739.1145,29.479268956063848
2740.3262,26.25561489884005
2741.5372,22.976541397715863
2742.7475,23.0919995613029
2743.9571,19.601940268447365
2745.1661,19.806314167075428
2746.3744,17.15507170909399
2747.582,15.748163148346833
2748.7889,14.08553856712706
2749.9952,11.017147890246164
2751.2008,13.69294090166035
2752.4057,12.812867275154403
2753.61,13.026876547583711
2754.8136,9.234918127675058
2756.0165,6.2869412938865
2757.2188,6.982895232326911
2758.4204,11.022729066235826
2759.6213,10.556391849023882
2760.8215,11.23383252387454
2762.0211,6.204999928407233
2763.22,9.519842787903244
2764.4182,7.47830976559375
2765.6158,6.980349429511634
2766.8127,10.925910272906634
2768.009,4.514940719224995
2769.2045,2.9473890826539275
2770.3994,5.973203632231247
2771.5936,3.742332607520993
2772.7872,0.6047241883551493
2773.9801,-1.439673482857458
2775.1723,-3.790912269755239
2776.3639,-1.89902965363855
2777.5548,-1.3640252445942025
2778.745,-0.4858796814027926
2779.9346,0.135440023767174
2781.1235,-0.25002828731489046
2782.3117,0.6077532257660749
2783.4992,-4.041175098792337
2784.6861,-1.5467729288700411
2785.8723,-0.008959561007728212
2787.0579,-3.3276388394845497
2788.2428,-4.552714519073717
2789.427,1.865942888563481
2790.6106,-2.3714916466162634
2791.7935,1.0351568266843287
2792.9757,-0.9139130490358269
2794.1573,2.081497358370612
2795.3382,1.6715958110422662
2796.5184,-2.8434099496971754
2797.698,1.186687800760069
2798.8769,3.362125192687145
2800.0551,6.083138344490379
2801.2327,0.5499633409548466
2802.4096,4.212836206034311
2803.5859,8.421992958182855
2804.7615,12.877669573726294
2805.9364,7.630101944770573
2807.1106,13.279525834644957
2808.2842,20.576176930377756
2809.4572,20.020290786202196
2810.6294,23.362102750589756
2811.801,29.60184797180905
2812.972,32.639761364507734
2814.1423,41.52607754731494
2815.3119,45.1610308124624
2816.4808,54.04485503692098
2817.6491,64.32778364605139
2818.8167,70.76004952476583
2819.9837,87.54188491469863
2821.15,95.47352134988381
2822.3157,113.00518948893648
2823.4807,130.58711903573658
2824.645,146.21953856411227
2825.8086,157.00267534202055
2826.9716,177.1367551752233
2828.134,193.42200229945553
2829.2957,212.50863917908507
2830.4567,218.34688634425947
2831.617,229.38696220004007
2832.7767,237.62908296801942
2833.9358,237.02346257592038
2835.0941,228.5203125751752
2836.2519,224.86984214698168
2837.4089,211.72225818733426
2838.5653,206.17776534352922
2839.7211,193.78656614564028
2840.8761,196.9488610619636
2842.0306,195.11484862292986
2843.1843,195.03472538948103
2844.3374,197.20868597141072
2845.4899,200.58692302816524
2846.6417,210.56962724710434
2847.7928,213.90698730971832
2848.9433,223.9991897918016
2850.0931,238.34641913007843
2851.2422,246.74885752128137
2852.3907,248.40668477867877
2853.5385,254.32007824805055
2854.6857,260.03921279110966
2855.8323,267.81426072636845
2856.9781,278.2953917719474
2858.1233,285.38277296782417
2859.2679,295.87656857102263
2860.4118,302.82693998473917
2861.555,319.5340456534043
2862.6976,328.5480409931794
2863.8395,323.5690782248854
2864.9808,332.1473062838629
2866.1214,337.1828708697618
2867.2614,338.12591436075877
2868.4007,344.7265757632021
2869.5393,346.6849907021809
2870.6773,349.8012913555186
2871.8146,352.8256064341888
2872.9513,357.3080611511523
2874.0874,359.3487771911141
2875.2227,362.3978726656983
2876.3574,363.3554620930413
2877.4915,365.4716563673011
2878.6249,366.3465627490811
2879.7577,365.8802848442682
2880.8898,359.57292259528367
2882.0212,360.47457228574615
2883.152,361.835326603545
2884.2821,365.45527463182395
2885.4116,368.7345018353735
2886.5405,365.52309002443167
2887.6686,367.0211173218913
2888.7962,373.3786581954146
2889.923,372.5457834424524
2891.0493,380.1725601266694
2892.1748,372.059051586272
2893.2997,373.4553173577414
2894.424,378.86141325696804
2895.5476,383.1273913652893
2896.6706,383.4532999754287
2897.7929,379.1391835488357
2898.9145,385.18508271242683
2900.0355,390.89103430172685
2901.1559,394.25707130040973
2902.2756,390.0332227832395
2903.3946,394.3695138824092
2904.513,395.8659658297797
2905.6308,400.4225959135172
2906.7479,408.68941746312765
2907.8643,415.26643980389144
2908.9801,406.45366817419506
2910.0953,415.60110365976016
2911.2098,412.408743281772
2912.3236,409.426579905405
2913.4368,402.6046022717459
2914.5494,401.5427950276159
2915.6613,390.54113879379014
2916.7725,387.449610175616
2917.8831,388.4181818730292
2918.9931,380.24682271146986
2920.1024,371.1854976321961
2921.211,376.0841677739978
2922.319,364.34279056381
2923.4264,359.16131966772605
2924.5331,359.63970510841153
2925.6391,358.47789331691877
2926.7445,359.1758271279032
2927.8493,359.63344579124123
2928.9534,364.3006849650512
2930.0569,359.82747671111684
2931.1597,368.61374944821534
2932.2619,372.959427996849
2933.3634,375.7144334913828
2934.4643,377.57868333658746
2935.5645,379.7020911800894
2936.6641,384.9345668937283
2937.763,372.6760165523232
2938.8613,370.9763423813472
2939.959,370.4854428795137
2941.056,354.10321283577235
2942.1523,339.4295433342188
2943.248,329.31432191791635
2944.3431,296.607432735633
2945.4375,283.65875664299386
2946.5313,259.06817152954943
2947.6244,242.13555244826287
2948.7169,223.9607718614156
2949.8087,211.1436998099337
2950.8999,192.03420409513544
2951.9904,176.78215040690236
2953.0803,158.73740251477386
2954.1696,144.6498224204681
2955.2582,140.81927053832896
2956.3462,137.1956058362024
2957.4335,132.57868587374156
2958.5202,124.41836683864365
2959.6062,126.01450359281901
2960.6916,116.41694975399442
2961.7764,112.72555767975169
2962.8605,116.59017856350319
2963.9439,115.36066247140572
2965.0267,106.08685830371431
2966.1089,112.26861380707743
2967.1905,108.30577566727506
2968.2714,102.84818944740111
2969.3516,111.64569962749171
2970.4312,119.34814965910121
2971.5102,110.85538187732696
2972.5885,111.21723742378481
2973.6662,115.6835563315368
2974.7432,118.35417752147275
2975.8196,116.77893875764678
2976.8954,119.65767662057154
2977.9705,116.89022652297018
2979.045,115.32642268098918
2980.1188,114.21609814187292
2981.192,113.25908479960144
2982.2645,110.80521340599378
2983.3364,108.20431358027822
2984.4077,102.15621383363086
2985.4783,100.31074159518472
2986.5483,91.1177232725107
2987.6177,83.02698427007229
2988.6864,80.78834908115577
2989.7545,75.75164136877765
2990.8219,72.66668398807091
2991.8887,65.53329903665222
2992.9548,56.201307885471465
2994.0204,51.02053125014558
2995.0852,43.140789284278554
2996.1495,39.961901631269114
2997.2131,33.08368750310825
2998.276,30.505965712167892
2999.3383,25.328554739983147
3000.4,20.401272763029496
3001.4611,17.67393770449685
3002.5215,13.046367283562489
3003.5812,15.268379042664293
3004.6404,9.489790393776588
3005.6989,10.11041859618986
3006.7567,8.630080814296775
3007.8139,0.6985941113858161
3008.8705,4.465775464444718
3009.9264,1.531441843475264
3010.9818,0.045410173821551325
3012.0364,4.907497365513237
3013.0905,0.6175203281260053
3014.1439,0.07529592216043568
3015.1966,1.1306410019420525
3016.2487,0.433372421043444
3017.3002,-1.3166929782692165
3018.3511,5.1802616419366245
3019.4013,-1.1759337266437058
3020.4509,-0.43544914411745594
3021.4998,-7.198442923013971
3022.5481,0.6349309742742264
3023.5958,-2.6354095022005595
3024.6428,-1.609546408735369
3025.6892,-0.5375354738862939
3026.735,-1.619416346840893
3027.7802,-2.705223306807355
3028.8247,-1.744974455024618
3029.8685,0.011339132449180056
3030.9118,0.7137438118506338
3031.9544,1.9622659393030233
3032.9963,0.556931863792272
3034.0376,2.8477679146816115
3035.0783,4.134800415765085
3036.1184,1.4680556623590206
3037.1578,2.397559908431816
3038.1966,3.5233393932712858
3039.2348,3.9454203321897126
3040.2723,4.563828905266021
3041.3092,8.478591253124996
3042.3455,7.939733470753104
3043.3811,11.747281568350978
3044.4161,9.401261476721913
3045.4505,7.801699009196476
3046.4842,12.948619885092675
3047.5173,12.04204974571153
3048.5498,11.182014102868003
3049.5816,10.768538347956579
3050.6128,12.451647760551651
3051.6434,12.331367512542236
3052.6734,13.65772265130095
3053.7027,13.180738100886686
3054.7314,14.00043864878117
3055.7594,16.06684895065881
3056.7868,14.629993522189636
3057.8136,17.239896718375256
3058.8398,20.34658274791733
3059.8653,22.500075647118607
3060.8902,18.250399248815988
3061.9145,18.947577160845633
3062.9381,21.8416328085398
3063.9612,21.032589427754928
3064.9835,20.52047003593119
3066.0053,21.455297440182875
3067.0264,20.9870942424196
3068.0469,19.615882829998043
3069.0668,20.941685380403946
3070.086,25.71452387496423
3071.1046,19.884420085589014
3072.1226,22.151395527043192
3073.1399,20.66547151524751
3074.1567,17.77666914460883
3075.1727,17.835009302879286
3076.1882,16.940512700044373
3077.203,16.643199867739476
3078.2173,15.843091168194903
3079.2308,14.690206797208972
3080.2438,14.334566792149097
3081.2561,12.2761910434807
3082.2678,11.06509929832356
3083.2789,10.45131118103555
3084.2893,12.434846205323602
3085.2991,11.115723780381565
3086.3083,11.493963191054824
3087.3169,9.169583611031555
3088.3248,8.542604099060298
3089.3321,9.51304362219382
3090.3388,5.980921062058833
3091.3449,7.3462552051516425
3092.3503,10.859064778159329
3093.3551,3.7693684343064504
3094.3593,5.727184718226901
3095.3629,7.332532136860934
3096.3658,8.18542913987698
3097.3681,7.785894103618183
3098.3698,7.683945322573393
3099.3708,8.079601013372532
3100.3713,7.872879315806124
3101.3711,3.963798288868702
3102.3702,8.452375912826021
3103.3688,6.63863012830587
3104.3667,5.272578791412265
3105.364,3.7542396918629635
3106.3607,5.7336305666499285
3107.3568,7.360769115222759
3108.3522,5.435672979694743
3109.347,7.608359728571493
3110.3412,5.028846876001914
3111.3348,7.997151860051311
3112.3277,5.763292068496533
3113.32,7.52728480914292
3114.3117,6.639147332162899
3115.3028,4.548896812456057
3116.2932,2.8065503585305294
3117.2831,3.662125033405488
3118.2723,5.065637872034642
3119.2608,2.76710587275047
3120.2488,2.9165459832290637
3121.2361,3.613975123475509
3122.2229,2.7094101843294354
3123.209,1.7028680204907367
3124.1944,5.094365459565218
3125.1793,2.6339193121300006
3126.1635,4.121546337818611
3127.1471,-0.2927367300746404
3128.1301,5.791086800529122
3129.1125,5.673036546148698
3130.0942,3.8031320653920098
3131.0753,4.281392860136659
3132.0558,1.5578383942289058
3133.0357,1.5324880887011005
3134.015,7.055361349007246
3134.9936,5.926477565276457
3135.9716,10.29585605708428
3136.949,5.113516084741473
3137.9258,5.879476805600277
3138.902,5.193757325877776
3139.8775,2.0563766929962988
3140.8524,5.367353902440602
3141.8267,4.5267079291317
3142.8004,5.7344576943170615
3143.7735,0.7906220739770866
3144.7459,8.195219886747616
3145.7178,5.44826994335828
3146.689,5.59979097258654
3147.6596,3.9498016487271457
3148.6295,5.998320590076947
3149.5989,3.3953663754347936
3150.5676,6.190957523616312
3151.5357,2.585112519483495
3152.5032,4.527849785988742
3153.4701,6.869187720233345
3154.4364,5.8091446740401125
3155.402,11.697738930539987
3156.367,7.934988714772459
3157.3315,9.070912134799649
3158.2952,7.7055272193337885
3159.2584,6.238851906377999
3160.221,4.92090405688014
3161.1829,8.001701469399539
3162.1442,9.581261893286516
3163.105,5.009602997874373
3164.065,8.986742356683791
3165.0245,10.612697493139438
3165.9834,10.187485840798566
3166.9416,8.711124727091459
3167.8993,9.483631377573552
3168.8563,9.35502293068904
3169.8127,6.075316430045813
3170.7684,8.044528825701533
3171.7236,6.16267700696071
3172.6782,9.72977778268257
3173.6321,6.395847900099579
3174.5854,6.310904009146444
3175.5381,9.774962695799399
3176.4902,6.588040482925631
3177.4417,10.05015379564273
3178.3926,4.511318993187862
3179.3428,12.871552334296666
3180.2924,9.7808700325916
3181.2415,9.139288172979589
3182.1899,12.29682274255887
3183.1377,12.903489637034781
3184.0848,10.25930462914445
3185.0314,11.0142833625901
3185.9773,12.31844137848093
3186.9227,10.721794107783303
3187.8674,10.924356858279184
3188.8115,13.576144830532591
3189.755,11.47717311586397
3190.6979,12.47745666983233
3191.6402,12.477010333224955
3192.5818,12.475848822054559
3193.5229,8.62398672756376
3194.4633,11.321438516236686
3195.4031,12.418218568317583
3196.3423,11.014341150836334
3197.2809,9.559820406640627
3198.2189,10.254670368434738
3199.1563,13.148904973324742
3200.0931,9.642538055870011
3201.0292,13.03558331914087
3201.9648,13.078054369782262
3202.8997,10.969964684083305
3203.834,12.561327607552583
3204.7677,13.10215637599902
3205.7008,11.692464099618286
3206.6333,14.082263757584471
3207.5652,14.421568212147037
3208.4964,15.010390184732785
3209.4271,15.498742252552848
3210.3571,13.186636842714467
3211.2865,13.324086227337464
3212.2154,12.961102546675301
3213.1436,13.147697807740567
3214.0712,17.933883887934826
3214.9982,16.31967253318267
3215.9246,12.955075310069853
3216.8503,10.940103621985402
3217.7755,18.52476874276759
3218.7001,16.20908183685366
3219.624,13.443053883433148
3220.5473,17.726695699604782
3221.4701,14.510017968036752
3222.3922,15.643031194130302
3223.3137,13.125745738186495
3224.2346,17.408171804076066
3225.1549,16.390319464412308
3226.0746,18.07219861772681
3226.9937,17.353818998647963
3227.9121,15.035190161082188
3228.83,16.416321485397724
3229.7473,13.147222201610907
3230.6639,18.92790137557488
3231.5799,15.708367941670549
3232.4954,17.088630644999817
3233.4102,15.668698073580906
3234.3244,15.748578644545734
3235.238,16.428280618339233
3236.151,14.75781209792054
3237.0634,18.637181021965986
3237.9752,16.966395181573795
3238.8864,16.79546218147038
3239.797,15.574389456718187
3240.7069,17.753184274425063
3241.6163,19.88185374595499
3242.5251,18.560404805140063
3243.4332,18.188844186993837
3244.3408,18.26717844092583
3245.2477,16.945413934457058
3246.154,20.123556852436824
3247.0598,18.001613210260267
3247.9649,18.479588822086967
3248.8694,18.10748932206039
3249.7733,20.935320159528125
3250.6766,18.61308660276288
3251.5793,19.39079371068417
3252.4814,20.76844635608066
3253.3829,21.646049217833045
3254.2838,21.12360676713758
3255.1841,19.751123258730022
3256.0838,18.528602736110024
3256.9829,20.65604904526603
3257.8814,20.333465846900435
3258.7792,18.71085659515513
3259.6765,22.688224540837382
3260.5731,22.915572747645875
3261.4692,21.042904052397013
3262.3647,20.320221062751482
3263.2595,22.297526175940906
3264.1538,23.974821585994704
3265.0474,22.502109263967053
3265.9404,20.379390941163923
3266.8329,23.106668123870154
3267.7247,21.483942114576703
3268.616,22.26121398470781
3269.5066,21.63848459084825
3270.3966,20.515754566970664
3271.286,21.243024330662838
