RamanShift,CorrectedData
30.1047,209.4621763289458
32.3739,197.40864960528853
34.6426,178.35512078700944
36.9109,164.00158580540034
39.1787,147.64803880820168
41.4461,134.94447230313804
43.7131,117.64087732145364
45.9796,101.58724354494782
48.2456,88.98355947901109
50.5112,71.3798126131614
52.7764,55.22598954708118
55.0411,42.47207616665461
57.3054,25.718057805506003
59.5692,10.863919372538886
61.8326,-3.04035448052381
64.0955,-18.34477921059834
66.3579,-31.699339901459723
68.6199,-45.40383837253869
70.8815,-53.45775976686035
73.1426,-51.71013564310458
75.4032,-22.55946351693119
77.6634,60.04627568025501
79.9231,290.95932638608963
82.1824,772.9319324377459
84.4412,1569.8163347628033
86.6995,2608.4147665595224
88.9574,3602.9794453280006
91.2148,4281.212562484187
93.4717,4575.866273414239
95.7282,4585.792690692184
97.9842,4575.093881133389
100.2398,4481.971865695297
102.4949,4387.678619584408
104.7495,4313.4160731875045
107.0036,4232.986113014585
109.2573,4124.4905824414855
111.5105,3985.0312825141814
113.7632,3852.3099730337426
116.0154,3697.578373950927
118.2672,3549.338166693391
120.5185,3365.4909957130094
122.7693,3212.0884699682747
125.0197,3058.732164762769
127.2696,2913.873623279192
129.519,2831.2643581129214
131.7679,2755.705852720597
134.0163,2711.349562246218
136.2642,2677.346914276724
138.5117,2651.3493092855597
140.7587,2601.6581209727
143.0052,2545.624696524629
145.2512,2439.2003571112473
147.4967,2349.4863984462095
149.7417,2257.334091851167
151.9863,2190.9446851529087
154.2304,2149.2694036048806
156.4739,2107.1594505510834
158.717,2116.116007842824
160.9596,2139.040236259815
163.2017,2173.733275420612
165.4433,2182.7462435533635
167.6844,2160.080237148891
169.925,2100.1863308705497
172.1651,2008.7155777808957
174.4047,1922.419009940622
176.6439,1843.6476393232647
178.8825,1780.5524586781698
181.1206,1739.63444231821
183.3582,1710.7945467507313
185.5954,1685.6837110867377
187.832,1658.2028573292873
190.0681,1651.8028906246025
192.3037,1631.3846995368774
194.5388,1632.8491561122785
196.7734,1639.4471160831245
199.0075,1634.1794188532444
201.2411,1646.2968874319963
203.4742,1662.450328486944
205.7068,1693.0905322226827
207.9389,1718.268272219306
210.1704,1729.9843051260025
212.4015,1726.3393704092775
214.632,1711.2341902357953
216.862,1699.619469508827
219.0915,1697.8958960193027
221.3205,1704.5641405619576
223.549,1718.524856952569
225.777,1708.878681961275
228.0044,1691.8762351729642
230.2314,1653.6181190837399
232.4578,1617.9549192709428
234.6837,1590.8372047757339
236.909,1542.1655284597239
239.1339,1514.240427276153
241.3582,1504.0124227566066
243.582,1474.9820212902648
245.8053,1473.899714226186
248.0281,1473.5659781636077
250.2503,1465.8312749627707
252.472,1473.2960517482572
254.6932,1467.210740986336
256.9139,1454.4757604103168
259.134,1466.091513081402
261.3536,1476.8583875160375
263.5727,1533.1767575697545
265.7912,1585.0969823295009
268.0092,1659.4194055504572
270.2267,1740.2443551368372
272.4436,1809.1221423986592
274.6601,1848.3530612435006
276.8759,1865.7873874877168
279.0913,1879.575378464134
281.3061,1902.067272847705
283.5204,1900.2632905176295
285.7341,1944.6636323324337
287.9473,1975.4684801480141
290.16,1950.727996373629
292.3721,1885.7923236638546
294.5837,1823.7115851659887
296.7947,1750.085885169406
299.0052,1720.4153097263656
301.2152,1673.1499273882687
303.4246,1656.6897895023637
305.6334,1629.784930684401
307.8418,1609.7853689832339
310.0495,1552.7911061498653
312.2568,1510.4021278374462
314.4635,1439.4684041712173
316.6696,1355.389890172399
318.8752,1257.8165264675279
321.0802,1217.3482401292433
323.2847,1183.0349456520205
325.4887,1172.576545356852
327.692,1196.8729297343834
329.8949,1242.6239775494928
332.0972,1304.7795555983312
334.2989,1355.3395182508082
336.5001,1357.453706829038
338.7007,1315.2719491017422
340.9008,1231.694059263104
343.1003,1136.36983835459
345.2992,1036.1990751007265
347.4976,981.781546862341
349.6955,902.1670206382719
351.8927,867.7552536095425
354.0895,814.5459939355082
356.2856,806.788981097972
358.4812,784.8339464332767
360.6763,759.3306132098762
362.8707,741.7286968478859
365.0646,738.6779051741144
367.258,738.2779385980859
369.4508,752.1284901425458
371.643,799.1792454474601
373.8346,838.1298826315117
376.0257,873.0300718215897
378.2162,918.6794747632866
380.4062,944.4277444718937
382.5956,894.1245247759095
384.7844,833.7694500595544
386.9726,769.9621457658036
389.1603,706.2522289999392
391.3474,651.5393091676233
393.5339,680.0729886119973
395.7199,670.1528631608105
397.9052,713.2785218410834
400.09,760.049546978307
402.2743,821.4655137651896
404.4579,872.1259897939437
406.641,931.7805344421299
408.8235,993.6786983660459
411.0054,1055.9700229041878
413.1868,1117.754039458264
415.3675,1150.7302688702855
417.5477,1152.6982208047225
419.7273,1079.6073934187434
421.9064,983.2572733425372
424.0848,891.5973364102176
426.2627,796.4270486233263
428.4399,701.3958670674328
430.6166,598.5032408638344
432.7928,524.4486121198727
434.9683,466.5814169578548
437.1432,426.901086255604
439.3176,392.3570462251298
441.4914,369.59871880943115
443.6645,369.47552202793736
445.8371,359.08687020409184
448.0091,351.58217396658233
450.1806,342.61084035323006
452.3514,322.07227288603417
454.5216,338.61587166088884
456.6913,319.6410335529656
458.8603,335.24715205127814
461.0288,344.28361744843323
463.1967,331.2998166845655
465.3639,335.04513325697394
467.5306,313.5689473499617
469.6967,307.8206357973804
471.8622,288.54957229739216
474.0271,282.7551274699563
476.1914,257.93666904953625
478.3551,256.99356194304596
480.5182,254.52516847803236
482.6807,279.4808484121095
484.8426,291.30995895763886
487.0039,339.7118545321755
489.1647,433.2358866401755
491.3248,493.33140338897624
493.4843,538.6977485535583
495.6432,513.7842609755892
497.8015,471.24027410975896
499.9592,410.96511627291443
502.1163,315.60811106949996
504.2728,243.96857799431018
506.4287,210.59583338605876
508.5839,179.08919114377522
510.7386,171.8979630605304
512.8927,165.07145913850377
515.0461,172.15898766089504
517.199,203.15985526019085
519.3512,260.7233668472886
521.5029,373.3988253014893
523.6539,468.23553089486245
525.8043,497.03278016548893
527.9541,405.8898649690948
530.1033,300.65607219108097
532.2519,217.48068465794904
534.3999,183.91298218964062
536.5472,150.70224243129178
538.694,173.69774118890882
540.8401,178.49875276147577
542.9856,207.50454971099975
545.1305,245.81440281450273
547.2748,243.12758077396097
549.4185,265.99334983320773
551.5615,265.06097380480105
553.704,292.37971384136586
555.8458,320.9488284449185
557.987,350.8675731936785
560.1276,401.13520045637756
562.2675,509.50095909307106
564.4069,623.2140939524645
566.5456,694.723844788253
568.6837,668.7794451219927
570.8212,528.7301215280015
572.958,394.72509389280435
575.0942,291.71357681562563
577.2299,228.09478094843917
579.3648,208.51791402608524
581.4992,182.23218150245657
583.6329,195.08678674626753
585.766,238.6809313039098
587.8985,316.71381477090904
590.0304,387.0846343559824
592.1616,437.99258410070934
594.2922,446.3368541758241
596.4222,411.81663037213616
598.5515,308.7810940170866
600.6802,228.77942231995166
602.8083,161.01078940219713
604.9358,123.32436709749436
607.0626,121.31932562940801
609.1888,126.69483398825992
611.3144,167.75005995117976
613.4393,226.48417002835026
615.5636,317.7963290524549
617.6873,393.4356995913363
619.8103,455.2014410348763
621.9327,463.34270883860086
624.0544,414.60865390602135
626.1756,311.89842250722154
628.2961,209.8611567662017
630.4159,163.74599568797703
632.5351,173.6020761789539
634.6537,167.7785335080789
636.7716,138.17450120827766
638.8889,141.68911113469198
641.0056,162.72149376071934
643.1216,181.370778142865
645.237,184.23609171042017
647.3518,151.61656007896863
649.4659,122.76130702173396
651.5793,90.61945479577616
653.6922,81.69012443054135
655.8043,69.7224360492819
657.9159,42.31550895835039
660.0268,22.41846176687568
662.137,33.53041266083187
664.2466,32.40047960200786
666.3556,23.627780216891097
668.4639,25.611431807963754
670.5716,26.10055144143189
672.6786,1.344255927387394
674.785,-17.308338185081084
676.8907,-13.758127776002766
678.9958,-1.1058368151079776
681.1002,-13.752051828432514
683.204,-5.897348294703534
685.3072,-11.042164309652435
687.4097,-15.886879054502515
689.5115,-1.731761399256584
691.6127,-9.0269215039973
693.7132,-7.5224522285132025
695.8131,-0.5683562536476074
697.9123,-5.114561110945715
700.0109,15.189011345925337
702.1089,22.142490357761517
704.2061,43.74600501346936
706.3028,82.6996841805319
708.3987,125.45365628897207
710.4941,143.6080489418173
712.5887,155.96298848755828
714.6827,153.26859983860754
716.7761,136.92500634774683
718.8688,129.58232983507492
720.9608,144.4406907514383
723.0522,149.85020825186234
725.1429,176.66100004696477
727.233,246.27318234886252
729.3224,346.9868696030644
731.4112,425.852173792347
733.4993,454.9192034296177
735.5867,402.8880627692647
737.6735,289.5088515164848
739.7596,191.43166534759348
741.845,143.30659704381992
743.9298,115.98373747207643
746.014,117.86317606621219
748.0974,126.49500110023791
750.1802,130.47929966953393
752.2624,136.11615760452992
754.3439,115.85565943086408
756.4247,105.04788831301289
758.5048,124.94292625689741
760.5843,164.24085421795917
762.6631,220.5417519022119
764.7413,295.9956973732608
766.8188,422.3027664892943
768.8956,575.5630321485435
770.9718,658.4265630262144
773.0473,666.9934220418832
775.1221,598.2636655308606
777.1962,566.8873431585253
779.2697,661.7644986076198
781.3426,827.2451698920133
783.4147,967.029388407932
785.4862,965.6171772791488
787.557,832.0585499591448
789.6271,636.3035102452275
791.6966,425.45205361412036
793.7654,264.3041691795122
795.8335,166.20984180057235
797.901,123.21905369343017
799.9678,103.28178541211696
802.0339,103.0480162784745
804.0993,110.61772458152723
806.1641,117.89088757982108
808.2282,93.61748142572492
810.2916,58.84748109269958
812.3544,50.780860618031966
814.4164,26.11759345053497
816.4778,35.25765253121335
818.5385,64.35101053989638
820.5986,111.14763980383714
822.658,188.29751200677833
824.7166,304.90059772098766
826.7747,434.35686563575814
828.832,573.1662813913772
830.8886,663.9788062845641
832.9446,716.6443958803759
834.9999,669.1629991040809
837.0545,573.5345577145063
839.1085,445.50900677884874
841.1618,310.48627562896036
843.2143,229.36628914160246
845.2662,165.79896908867454
847.3175,148.8842349484146
849.368,133.37200454107165
851.4179,116.4121941980518
853.467,128.80471891704292
855.5155,150.94949253161076
857.5633,150.24642758727418
859.6105,152.64543512005912
861.6569,128.59642466352807
863.7027,103.14930422478847
865.7478,94.25398052498667
867.7922,70.2603592537755
869.8359,67.81834515826904
871.8789,68.72784228297746
873.9212,55.53875399422782
875.9629,83.20098297107029
878.0039,89.21443133716957
880.0441,126.92900038418111
882.0837,152.79459051161575
884.1226,191.76110084969605
886.1609,237.4284290006999
888.1984,336.1964706492947
890.2352,395.51511910586555
892.2714,429.3842643188332
894.3069,392.3537922814669
896.3416,308.7235846931958
898.3757,234.89351932991008
900.4091,193.8634708802656
902.4418,218.93331168398322
904.4739,239.10291214215022
906.5052,269.9721404665213
908.5358,277.1408624778228
910.5658,245.80894129706007
912.595,216.42623727383102
914.6236,135.04260829964437
916.6515,94.75791010174726
918.6786,78.67199705696066
920.7051,56.43472259452642
922.7309,67.44593935696753
924.756,65.3554994224603
926.7804,88.56325419472228
928.8041,98.26905442391649
930.8272,128.2727499745747
932.8495,147.6741897285399
934.8711,161.67322128492765
936.892,172.06969076611358
938.9123,208.61344267774166
940.9318,262.0043198047581
942.9506,271.1921628459752
944.9688,277.1768098801624
946.9862,246.15809627416797
949.003,191.9358546230726
951.019,158.0099150603769
953.0344,121.88010580022365
955.0491,114.39625347665697
957.063,93.10818350492173
959.0763,107.86572015630054
961.0888,95.91868677099569
963.1007,93.61690561055252
965.1119,84.61019797733002
967.1223,72.59838423751944
969.1321,68.83128391120954
971.1412,63.95871579250638
973.1495,53.73049798720285
975.1572,71.89644796150469
977.1641,79.75638264431382
979.1704,68.76011824556849
981.1759,69.55747017764202
983.1808,55.6982531653091
985.1849,43.982281237769485
987.1884,57.109367867241644
989.1911,54.129326086120955
991.1932,74.49196835571024
993.1945,96.59710659601888
995.1951,83.24455198213673
997.1951,71.23411472318367
999.1943,76.76560419583575
1001.1928,68.03882906442823
1003.1906,97.50359722564144
1005.1877,136.2597158957676
1007.1841,176.95699131606443
1009.1798,205.7452283651919
1011.1748,208.62423015224135
1013.1691,168.6437977288531
1015.1627,112.65373006042478
1017.1556,63.203824425917446
1019.1477,47.49387697775455
1021.1392,12.523683236322086
1023.1299,19.643038247068034
1025.12,6.401736930203697
1027.1093,21.599574009511116
1029.0979,62.88634414475587
1031.0859,89.46184177970895
1033.0731,118.52586072927829
1035.0596,125.17819391375451
1037.0454,108.51863306816972
1039.0304,99.7969686757749
1041.0148,52.712990134634765
1042.9985,27.41648584484551
1044.9814,7.3572436793745055
1046.9636,-3.3149487629748364
1048.9452,18.64969604302928
1050.926,56.55099873895756
1052.9061,80.7887797798835
1054.8855,90.36285905537147
1056.8642,80.02305564709854
1058.8421,97.91918773311409
1060.8194,93.15107269123587
1062.7959,96.16852692009229
1064.7717,92.2213658868011
1066.7469,86.50940409679447
1068.7213,89.23245513329243
1070.695,106.94033171442084
1072.6679,158.1828456659823
1074.6402,197.05980774437626
1076.6117,218.42102712417477
1078.5826,186.9663110093527
1080.5527,136.44546441967486
1082.5221,77.9582905052439
1084.4908,45.0545910517078
1086.4587,8.734167065133533
1088.426,-16.00318089895859
1090.3925,-2.7576523723885202
1092.3584,13.570712984799911
1094.3235,27.381903061510002
1096.2879,48.125905610937934
1098.2515,85.75270811246173
1100.2145,134.76229756420025
1102.1767,182.6546601067464
1104.1382,253.37978053307074
1106.099,336.13764180959834
1108.0591,420.9782243689556
1110.0185,485.1015052823943
1111.9771,542.4074574113852
1113.9351,612.2960487663847
1115.8923,732.0672419337754
1117.8488,792.7209933769802
1119.8045,744.6572522387505
1121.7596,591.7759597346276
1123.7139,409.5270496335804
1125.6675,310.7604497868206
1127.6204,315.37608395028906
1129.5726,331.52387277232333
1131.524,344.6537337474995
1133.4748,303.0155810551553
1135.4248,194.35932542809155
1137.3741,118.58487456895273
1139.3226,72.14213423679075
1141.2705,74.58100900481031
1143.2176,84.45140272479466
1145.164,108.20321850271694
1147.1097,109.78635860003624
1149.0546,92.10072419617973
1150.9989,44.49621537271514
1152.9424,19.372731290202637
1154.8852,3.030170664241723
1156.8272,-24.88156798329578
1158.7686,-21.26258616083851
1160.7092,-19.862736809951684
1162.6491,-10.831660458965189
1164.5883,-0.41879920746850985
1166.5267,27.42651305323602
1168.4644,68.00494661565017
1170.4014,111.81717149801125
1172.3377,181.41385703850779
1174.2732,254.2456714571565
1176.2081,394.713281159836
1178.1421,563.4173500099685
1180.0755,781.2585379238444
1182.0082,911.3874991835805
1183.9401,921.0048802587105
1185.8713,775.0613185048915
1187.8017,563.5074420677336
1189.7315,394.94387134223484
1191.6605,251.47122108831718
1193.5888,175.44010211646628
1195.5163,128.75112272245428
1197.4432,92.4048894476548
1199.3693,63.85200754592802
1201.2947,36.393081347087445
1203.2193,19.528714542425178
1205.1432,22.30951045930351
1207.0664,17.386072229797946
1208.9889,4.659002762888804
1210.9106,26.778904793696938
1212.8316,30.246381010752884
1214.7519,42.41203383479933
1216.6715,57.92646538411486
1218.5903,79.290277352859
1220.5084,101.8040708559272
1222.4257,121.96844621531181
1224.3424,142.1840027349656
1226.2583,169.75133849915755
1228.1735,210.52105017031636
1230.0879,261.99373271335844
1232.0016,338.0199789879898
1233.9146,390.10037923398
1235.8269,414.385520310899
1237.7384,435.825985177313
1239.6492,421.02235264793444
1241.5592,441.7751971792161
1243.4686,515.7850890173875
1245.3772,614.9025939909263
1247.285,767.4782727704608
1249.1922,888.2126798775932
1251.0986,1007.9063621591433
1253.0042,1124.1098575798048
1254.9092,1240.4736940252083
1256.8134,1393.7483881398869
1258.7169,1540.5344441636362
1260.6196,1653.1323523987699
1262.5216,1708.542587742257
1264.4229,1713.515608559743
1266.3234,1664.951856131449
1268.2232,1589.801754602441
1270.1223,1468.9657114682666
1272.0207,1420.0441183264563
1273.9183,1392.187352084884
1275.8151,1380.045775450983
1277.7113,1438.6197372103145
1279.6067,1569.2595723479815
1281.5014,1774.7156014628897
1283.3953,2054.9881294613506
1285.2885,2410.9774435025197
1287.181,2666.4338101956732
1289.0727,2805.007472040312
1290.9637,2722.6486448716005
1292.854,2550.7575164746295
1294.7435,2329.9842474080033
1296.6323,2132.328972722751
1298.5204,1942.1918041700633
1300.4077,1813.7228321778382
1302.2943,1723.322127752058
1304.1802,1641.939743761475
1306.0653,1585.0257158416234
1307.9497,1547.0300632086382
1309.8333,1485.9527892283988
1311.7162,1446.243881796484
1313.5984,1417.4033139489454
1315.4798,1383.2310442593962
1317.3605,1379.0770171274169
1319.2405,1414.1911631202765
1321.1197,1399.0233990144754
1322.9982,1348.3736274446028
1324.876,1244.1417370550148
1326.753,1122.5276030063328
1328.6293,981.8310880177603
1330.5048,811.8520435832279
1332.3796,681.5903113783545
1334.2537,572.9957249602398
1336.127,504.0681110700807
1337.9996,454.00729071911724
1339.8714,427.8630798779095
1341.7426,392.885289976944
1343.6129,369.1237281680774
1345.4826,336.47819767431406
1347.3515,319.84849802742065
1349.2196,293.4844253943836
1351.087,285.4857727437036
1352.9537,274.40233010903853
1354.8197,277.4338846691884
1356.6849,296.2302208589309
1358.5493,321.2911203387051
1360.4131,355.4163618066484
1362.276,416.10572074798756
1364.1383,488.65896909378614
1365.9998,506.62587461405076
1367.8606,500.2562001921998
1369.7206,479.7497036453931
1371.5799,487.9561377882287
1373.4384,495.9252506378091
1375.2962,454.20678533167586
1377.1533,380.05048004811806
1379.0096,306.506068423359
1380.8652,248.973280293117
1382.7201,208.60184242805065
1384.5742,162.59147910908496
1386.4275,129.64191253112767
1388.2802,114.65286326317141
1390.132,94.37405057779074
1391.9832,69.10519260103251
1393.8336,61.19600651520341
1395.6832,58.49620881155897
1397.5322,45.25551536939486
1399.3803,40.12364148304516
1401.2278,24.050301994288816
1403.0745,14.885211343669198
1404.9204,1.678083731226252
1406.7656,-3.5213667918512783
1408.6101,-16.863426191155668
1410.4538,-8.898345253825369
1412.2968,-11.276206301371872
1414.139,4.902997239162573
1415.9805,15.18938459003607
1417.8213,29.533074924477432
1419.6613,57.634187263822014
1421.5006,103.39284033407466
1423.3391,167.1591522848994
1425.1769,248.48324023203122
1427.0139,380.7152196196158
1428.8502,517.9552034069659
1430.6858,634.7033007462413
1432.5206,682.5596156100506
1434.3547,675.6242456239698
1436.188,648.0972815879788
1438.0206,630.0788075458165
1439.8524,605.3689010602493
1441.6835,609.6176333932563
1443.5139,612.1250697531277
1445.3435,617.9412692519776
1447.1724,633.2662848806706
1449.0005,632.0001634506593
1450.8279,609.0929454407341
1452.6545,614.0446650096845
1454.4804,603.3053502253711
1456.3056,593.0750230152067
1458.13,575.7036992735511
1459.9536,528.1913889640145
1461.7766,489.73809629317043
1463.5987,419.1438201856794
1465.4202,360.1585546688218
1467.2409,308.032289578441
1469.0608,254.8150111487953
1470.88,204.20670253382013
1472.6984,174.10734433930122
1474.5161,133.5169151289573
1476.3331,107.0353917254348
1478.1493,97.01274961621061
1479.9648,101.44896321840861
1481.7795,92.99400597902468
1483.5935,102.3978503305658
1485.4067,99.51046777559895
1487.2192,109.13182879271312
1489.031,108.26190286539361
1490.842,115.00065838580758
1492.6522,111.89806266350388
1494.4618,106.75408185802462
1496.2705,110.31868100993302
1498.0785,113.44182409225118
1499.8858,103.27347397481515
1501.6924,89.86359239304306
1503.4981,81.76214004961867
1505.3032,80.66907674858987
1507.1075,71.03436147638342
1508.911,68.9579524127355
1510.7138,52.88980702703884
1512.5159,51.92988209910732
1514.3172,46.628133879856705
1516.1178,35.98451810090535
1517.9176,37.848990027589934
1519.7166,39.821504565402165
1521.515,27.152016241343745
1523.3126,21.940479184200967
1525.1094,21.736847251240306
1526.9055,12.991074080323983
1528.7008,5.603113091945602
1530.4954,5.872917576689019
1532.2893,4.300440769108036
1534.0824,5.0356358450274
1535.8747,7.12845593726729
1537.6663,9.478854128292596
1539.4572,8.836783429283855
1541.2473,7.302196756633066
1543.0367,21.82504693836472
1544.8253,20.205286729481372
1546.6132,33.19286866673565
1548.4003,37.03774508482786
1550.1867,52.43986798652986
1551.9723,65.94918900423693
1553.7572,99.2156592459454
1555.5414,127.43922916016038
1557.3247,169.26984820323082
1559.1074,222.7574645571142
1560.8893,296.0520247110695
1562.6705,355.6534729267821
1564.4509,406.7617505054171
1566.2305,424.3267951916057
1568.0094,442.948540662361
1569.7876,441.6769163514293
1571.565,438.66184726307154
1573.3417,448.65325398477944
1575.1176,464.05105271742764
1576.8928,493.25515517535837
1578.6672,529.7654684324034
1580.4409,572.6818946298447
1582.2138,635.1543306113086
1583.986,701.732667493604
1585.7575,771.1167900419962
1587.5282,838.7565760044236
1589.2981,882.201895417657
1591.0673,913.702609930902
1592.8358,936.3585723713452
1594.6035,924.7696264291473
1596.3704,920.0356064308838
1598.1366,886.3563374554334
1599.9021,840.4816353813196
1601.6668,802.7113072235023
1603.4308,776.1451515921259
1605.194,785.6829590702214
1606.9564,811.1745124793688
1608.7182,901.3195867843197
1610.4791,1041.9679488380807
1612.2394,1207.4193564804623
1613.9988,1386.2735571315968
1615.7576,1552.3802861374224
1617.5156,1618.9392649811425
1619.2728,1596.8501996221576
1621.0293,1465.2627798304761
1622.785,1296.0766794076062
1624.54,1082.3415575024262
1626.2942,889.3070603030495
1628.0477,727.9228231741733
1629.8005,589.9384725874248
1631.5525,474.053627735203
1633.3037,377.86790191052216
1635.0542,329.5809036658609
1636.804,267.492237775019
1638.553,227.45150571598765
1640.3013,194.75830629183588
1642.0488,173.96223603111844
1643.7955,160.51288951480728
1645.5416,135.50985958425213
1647.2868,127.45273747567444
1649.0313,111.74111307019768
1650.7751,108.72457497441769
1652.5181,103.25271067751999
1654.2604,108.47510658144392
1656.0019,125.74134805560277
1657.7427,143.85101938465846
1659.4828,164.75370359585986
1661.222,214.24898227794563
1662.9606,286.08643537211765
1664.6984,342.71564067708823
1666.4354,379.73617313070565
1668.1717,350.547604243662
1669.9072,303.3495017292878
1671.642,224.14142979543783
1673.3761,164.82294961647256
1675.1094,114.04362012533818
1676.8419,78.90299860675202
1678.5737,55.950641204994895
1680.3048,41.43610327531792
1682.0351,26.758939613466282
1683.7646,17.068704600823935
1685.4934,17.714952351185957
1687.2215,16.74723680766067
1688.9488,6.065111736206916
1690.6754,3.518130735311388
1692.4012,2.105847342809909
1694.1263,3.527815061357103
1695.8506,-3.1664126274503133
1697.5742,4.122717722705943
1699.297,-1.0552088093937186
1701.0191,2.4493928138040246
1702.7404,0.1361181713883184
1704.461,0.20456281795458153
1706.1808,-6.4456776932627236
1707.8999,2.934992188925605
1709.6182,-2.9037675919715866
1711.3358,-3.5622971217952113
1713.0527,-3.5409074777483056
1714.7688,1.2101258503143981
1716.4841,-1.0594372537963181
1718.1987,-8.549836918370772
1719.9126,1.4886973120783864
1721.6257,-5.643978694090833
1723.338,-5.648009083406976
1725.0496,-3.5734816190518472
1726.7605,-1.9704276405968812
1728.4706,-4.1888427885320425
1730.18,-4.678703018775707
1731.8886,-0.3899424407072729
1733.5964,-1.4724484234632769
1735.3036,7.673895559344487
1737.0099,2.4492207438635205
1738.7156,2.1036582895026186
1740.4204,2.037339331178657
1742.1246,4.950394982772195
1743.8279,8.642956337790054
1745.5306,16.065154440235744
1747.2325,9.417120247683386
1748.9336,9.198984557055951
1750.634,4.210878071105753
1752.3336,8.852931400595594
1754.0325,13.075275114180386
1755.7307,9.628039691984554
1757.4281,16.211355483380032
1759.1247,13.32535274145846
1760.8206,22.52016155719832
1762.5158,17.945911888324872
1764.2102,17.05273346736203
1765.9039,21.590755847374567
1767.5968,19.66010841090025
1769.289,27.160920324569474
1770.9804,18.093320558411506
1772.6711,25.70743781084667
1774.361,22.003400599362294
1776.0502,23.9313371843715
1777.7386,29.141375606253405
1779.4263,31.283643666074113
1781.1132,26.75826887348603
1782.7994,32.56537842530548
1784.4849,27.655099250765886
1786.1696,33.87755795344748
1787.8535,29.932880860379726
1789.5367,30.821193959816526
1791.2192,37.042622940683316
1792.9009,41.09729318369364
1794.5818,35.185329699135366
1796.2621,30.606857086323146
1797.9415,36.86199959271892
1799.6202,28.800881159715857
1801.2982,33.67362536008744
1802.9755,38.330355478598165
1804.6519,42.0711944632767
1806.3277,35.54626487884809
1808.0027,32.50568886932581
1809.6769,39.84958822326047
1811.3504,44.978084404146216
1813.0231,45.391298476981376
1814.6951,47.33935105698379
1816.3664,44.62236230545807
1818.0369,39.490451910315755
1819.7067,40.343739113244794
1821.3757,46.83234276102854
1823.044,43.75638129701315
1824.7115,41.065972696221536
1826.3783,42.411234496113025
1828.0443,35.84228382348721
1829.7096,48.05923738103178
1831.3741,43.9122115130117
1833.0379,53.15132208309973
1834.701,48.52668451584651
1836.3633,44.28841370429001
1838.0248,46.78662405620116
1839.6856,47.57142953646718
1841.3457,49.592943642108935
1843.005,46.60127939443339
1844.6636,46.246549318817756
1846.3214,44.12886547462688
1847.9785,53.14833945875978
1849.6349,54.2550824268273
1851.2904,51.099205002957035
1852.9453,57.13081726872588
1854.5994,46.750028794718844
1856.2528,56.70694858021295
1857.9054,46.45168515698521
1859.5572,56.684346489743405
1861.2083,55.65504007867861
1862.8587,57.81387285713839
1864.5084,52.51095120192008
1866.1572,53.29638091168238
1867.8054,55.62026725997441
1869.4528,52.682714987381814
1871.0994,56.633828278287695
1872.7453,62.67371079024798
1874.3905,52.00246561448051
1876.0349,55.87019521546614
1877.6786,60.02700153766142
1879.3215,61.62298596682098
1880.9637,61.658249288429545
1882.6051,58.132891671742414
1884.2458,55.747012669432536
1885.8858,62.75071125284404
1887.525,54.44408583585124
1889.1634,59.07723420482131
1890.8011,55.70025360168103
1892.4381,60.3632406775846
1894.0743,58.21629152668396
1895.7098,56.90950163949856
1897.3446,60.89296592438495
1898.9786,57.366778720604884
1900.6118,57.3810337584905
1902.2443,58.08582419470616
1903.8761,55.33124261210594
1905.5071,53.267381012685746
1907.1374,60.04433084512908
1908.7669,57.86218302544603
1910.3957,56.32102786920325
1912.0237,55.72095511334595
1913.651,56.212053931609205
1915.2776,57.39441294051852
1916.9034,52.31812019447898
1918.5285,49.18326317395184
1920.1528,53.43992883621729
1921.7764,51.03820364672313
1923.3992,56.478173536517716
1925.0213,56.6099239262673
1926.6427,53.43353967185686
1928.2633,51.44910506307201
1929.8832,55.20670385536303
1931.5023,57.75641928968932
1933.1207,55.698334054943246
1934.7383,48.78253026245301
1936.3552,57.20908946656343
1937.9714,53.17809273379436
1939.5868,55.08962055857478
1941.2015,51.89375290355295
1942.8154,55.54056918048093
1944.4286,48.23014828217356
1946.041,59.212568546040075
1947.6528,51.73790782718817
1949.2637,56.056243388599995
1950.8739,55.26765197587878
1952.4834,51.322209774065385
1954.0921,46.21999241552459
1955.7001,53.961075019399004
1957.3074,46.59553224263175
1958.9139,47.42343820255482
1960.5197,49.34486655054533
1962.1247,49.609890463745955
1963.729,43.31858262585084
1965.3325,45.72101522445553
1966.9353,49.06726001396967
1968.5374,44.0573882915927
1970.1387,47.14147086385168
1971.7393,44.3695780966998
1973.3392,44.89177988467543
1974.9383,46.40814567862125
1976.5366,50.21874448046219
1978.1342,47.323644828041836
1979.7311,46.622914757016304
1981.3273,50.216621829805376
1982.9227,46.85483314259977
1984.5173,47.28761528942405
1986.1112,43.11503439575472
1987.7044,40.88715611419218
1989.2968,51.60404566618644
1990.8885,49.815767864316115
1992.4795,50.92238700511945
1994.0697,45.0739668869773
1995.6592,50.47057079904681
1997.2479,44.112261579745166
1998.8359,45.44910156278428
2000.4232,40.43115264075328
2002.0097,40.90847625175044
2003.5955,49.031133429562544
2005.1805,41.399184798891696
2006.7648,45.962690494128765
2008.3484,42.82171023567321
2009.9312,42.6763032842976
2011.5133,43.12652847255748
2013.0946,44.02244420624555
2014.6752,47.614108459889366
2016.2551,42.10157876779209
2017.8342,38.08491218811599
2019.4126,42.5641653580077
2020.9902,42.23939453376482
2022.5672,45.41065554604353
2024.1433,42.87800380310611
2025.7188,42.091494259108316
2027.2935,42.901181439425955
2028.8674,41.55711944851987
2030.4406,41.309361961839386
2032.0131,46.25796223926267
2033.5849,36.952973127574296
2035.1559,44.544447010979155
2036.7261,40.03243590415252
2038.2957,40.26699137632522
2039.8645,41.848164596403734
2041.4325,43.126006330624875
2042.9998,44.10056692674371
2044.5664,40.121896301255504
2046.1323,42.590043929650165
2047.6974,40.5050588861987
2049.2617,39.066989819271754
2050.8254,41.575884972189385
2052.3883,43.03179219760207
2053.9504,45.734758932401434
2055.5118,42.83483218316124
2057.0725,47.682058499107654
2058.6325,42.97648400111879
2060.1917,39.5181543332522
2061.7502,39.65711470980071
2063.3079,38.143409949875746
2064.8649,39.1270844760177
2066.4212,38.90818232933307
2067.9767,38.53674715965744
2069.5315,41.11282222774463
2071.0856,39.08645040898131
2072.6389,37.10767416762599
2074.1915,43.676535577072855
2075.7433,36.993076339639515
2077.2945,37.55733772087828
2078.8448,34.71936061641077
2080.3945,32.67918554628514
2081.9434,38.48685268335635
2083.4916,39.19240187368746
2085.039,34.9458725784732
2086.5857,34.2473038669842
2088.1317,33.09673445903263
2089.677,34.79420273195774
2091.2215,39.439746732131624
2092.7652,33.23340415798455
2094.3083,35.72521231354932
2095.8506,38.96520817052479
2097.3921,37.45342834335787
2098.933,37.33990905684337
2100.4731,31.774686161242016
2102.0124,43.00779513341561
2103.5511,38.08927113247901
2105.089,37.61914888746935
2106.6261,37.49746274653094
2108.1626,38.32424668161687
2109.6983,30.849534289705502
2111.2332,38.72335878453285
2112.7675,39.19575307133985
2114.301,39.21674966813387
2115.8337,37.536380700964855
2117.3657,40.05467790371529
2118.897,35.07167263490385
2120.4276,36.43739585250256
2121.9575,39.50187816376672
2123.4866,30.56514981157764
2125.0149,35.227240643798126
2126.5426,37.13818020263952
2128.0695,36.897997678040895
2129.5956,31.206721888559656
2131.1211,37.26438128377336
2132.6458,36.371004001192546
2134.1698,32.676617805684174
2135.693,34.531250098405025
2137.2155,31.284927953745836
2138.7373,35.58767810078493
2140.2584,34.93952695575149
2141.7787,33.24050057899791
2143.2983,32.49062468148156
2144.8171,31.239924641754897
2146.3353,32.83842551346402
2147.8527,30.036152037856112
2149.3693,31.033128627794014
2150.8853,33.829379395779085
2152.4005,29.674928143981617
2153.9149,31.36979833627811
2155.4287,36.26401313979588
2156.9417,29.20759540796439
2158.454,36.25056763157292
2159.9655,32.342952009334994
2161.4764,32.734770377458716
2162.9865,27.82604424872258
2164.4958,27.966794808557665
2166.0045,30.807042964134666
2167.5124,29.44680934295627
2169.0195,27.83611426445478
2170.526,31.174977753594362
2172.0317,28.663419556978056
2173.5367,33.25145910945923
2175.0409,28.439115559257118
2176.5445,29.476407722076402
2178.0473,29.713354129230652
2179.5494,31.549973017269565
2181.0507,28.43628232560934
2182.5513,28.772299678166434
2184.0512,34.7080424144944
2185.5504,28.493527586423937
2187.0488,26.578771898705384
2188.5465,28.113791771153842
2190.0435,30.848603357796804
2191.5397,31.38322253152387
2193.0353,30.767664856738662
2194.5301,31.151945584012594
2196.0241,26.63607965624044
2197.5175,26.12008170479757
2199.0101,30.80396609469844
2200.502,22.837746929756975
2201.9931,29.921438005747632
2203.4835,23.75505289006753
2204.9733,25.0886048508996
2206.4622,26.47210691887622
2207.9505,23.105571873743656
2209.438,26.989012230527123
2210.9248,23.12244027319622
2212.4109,23.305868015830328
2213.8962,23.889307241284627
2215.3809,23.07276949935587
2216.8648,16.70626610094766
2218.3479,22.13980812623609
2219.8304,24.723406488334632
2221.3121,22.057071878958936
2222.7931,16.64081474259089
2224.2733,19.474645303141585
2225.7529,20.35857361811415
2227.2317,19.292609550265354
2228.7098,21.42676275876633
2230.1872,25.91104270986233
2231.6638,19.845458655531132
2233.1397,18.680019588640278
2234.6149,19.614734303602745
2236.0894,18.099611408031336
2237.5632,16.784659313391387
2239.0362,17.269886250152325
2240.5085,15.455300280937252
2241.9801,19.440909295670195
2243.4509,22.076721029722307
2244.921,12.21274302405564
2246.3904,16.548982598864797
2247.8591,18.73544695221713
2249.3271,15.222143116690177
2250.7943,16.15907793750705
2252.2608,13.196258107669365
2253.7266,11.733690158588388
2255.1917,12.421380489712789
2256.656,15.50933538315445
2258.1197,13.197560996811376
2259.5826,12.486063333488602
2261.0447,11.87484826401564
2262.5062,18.763921534361543
2263.9669,14.403288771747214
2265.4269,10.592955415754261
2266.8862,14.782926761931463
2268.3448,12.973207999897909
2269.8026,16.663804171443616
2271.2598,19.05472018862656
2272.7162,15.895960796866746
2274.1719,12.487530551037054
2275.6268,9.629433847051018
2277.0811,11.721674955946725
2278.5346,13.714258052468011
2279.9874,7.957187194141994
2281.4395,17.200466301353373
2282.8908,15.494099214914968
2284.3414,8.088089603635211
2285.7914,10.132440981381393
2287.2406,15.027156781139922
2288.689,12.772240334572956
2290.1368,12.217694823071014
2291.5838,13.163523300302387
2293.0302,14.90972869775868
2294.4758,12.60631381529626
2295.9206,11.5032813036743
2297.3648,11.150633687588822
2298.8082,12.248373376703313
2300.251,12.996502669174959
2301.693,12.245023740677453
2303.1343,11.993938636919523
2304.5748,13.193249281159723
2306.0147,8.792957476717248
2307.4538,13.443064894979244
2308.8922,14.39357311940313
2310.3299,12.794483599016132
2311.7669,12.945797638909482
2313.2031,10.847516416229553
2314.6387,7.549640978664712
2316.0735,11.40217226542805
2317.5076,7.95511114023634
2318.941,6.458458352784419
2320.3737,14.912214573216005
2321.8056,10.116380407090219
2323.2369,12.170956310843962
2324.6674,11.625942639750662
2326.0972,19.631339627374047
2327.5263,19.287147391018664
2328.9547,23.74336585167572
2330.3823,17.549994737465283
2331.8092,20.657033539073637
2333.2355,13.814481571687452
2334.661,14.172337943923168
2336.0858,10.230601626252422
2337.5098,11.389271447423567
2338.9332,10.598346133879062
2340.3558,10.20782429816856
2341.7778,8.41770444685838
2343.199,7.727984984436517
2344.6195,4.438664231214005
2346.0393,7.4997404302221184
2347.4583,8.161211780105617
2348.8767,5.37307640451192
2350.2943,8.635332345476286
2351.7113,7.397977591303317
2353.1275,5.261010043944253
2354.543,14.274427531370776
2355.9578,9.088227828944355
2357.3718,5.652408569282386
2358.7852,9.51696729411998
2360.1978,6.531901488668353
2361.6098,7.847208542968929
2363.021,8.912885781744336
2364.4315,9.728930451245134
2365.8413,6.745339708593093
2367.2504,8.812110613620803
2368.6587,4.879240158707489
2370.0664,7.746725248111289
2371.4733,8.764562737298007
2372.8795,8.482749404266286
2374.285,12.551281939369176
2375.6899,7.120156948132262
2377.0939,6.739370910568368
2378.4973,12.408920235488722
2379.9,6.428801264311062
2381.3019,9.299010214364017
2382.7032,8.96954323868826
2384.1037,9.44039639733441
2385.5035,8.911565660657658
2386.9027,5.78304690460925
2388.3011,5.654835916025007
2389.6987,8.926928423910198
2391.0957,8.599320100721798
2392.492,7.6720065296476605
2393.8876,5.394983207882348
2395.2824,5.668245555900512
2396.6765,3.0417889402269793
2398.07,1.565608670704279
2399.4627,4.189700026757066
2400.8547,4.86405827215404
2402.246,3.78867862876686
2403.6366,2.4135562698265858
2405.0265,3.68868633067774
2406.4156,6.214063922529192
2407.8041,3.5396841197031677
2409.1918,5.165541934381281
2410.5789,2.0916323433483512
2411.9652,5.167950271733872
2413.3508,2.244490623751034
2414.7358,3.1712482519336618
2416.12,1.3982179863708382
2417.5035,5.675394625439225
2418.8863,5.152772953533457
2420.2684,6.380347698294344
2421.6497,2.2581135358348945
2423.0304,0.6360650784648385
2424.4104,2.514196915912777
2425.7896,2.3924972836170753
2427.1682,3.220954391874244
2428.546,1.8495564270559157
2429.9232,5.0782915433241556
2431.2996,7.45714787634553
2432.6753,6.786113511003677
2434.0503,2.46517645761071
2435.4246,5.094324658617765
2436.7982,4.873546031824205
2438.1711,1.8528284440863843
2439.5433,-0.36784028647480227
2440.9148,6.8115276397333275
2442.2856,3.8409236970277334
2443.6557,1.8703392916103354
2445.025,1.5997657912737537
2446.3937,0.7291945451072905
2447.7617,5.308616886202614
2449.1289,7.738024140359485
2450.4955,4.767407580291547
2451.8613,0.24675840133230054
2453.2265,-0.5739322488587959
2454.5909,7.6553243122613
2455.9546,2.584522500818693
2457.3177,6.46365665638632
2458.68,3.992721092691994
2460.0416,5.871710058826977
2461.4025,-0.09938223604461882
2462.7627,1.7794383585243168
2464.1222,3.55816698580945
2465.4811,3.786798771292112
2466.8392,3.315328804872024
2468.1966,1.5437521385809703
2469.5533,4.8220637912975945
2470.9093,4.75025876646302
2472.2645,8.178332019297827
2473.6191,8.456278457520028
2474.973,3.5340929070643767
2476.3262,5.661770109302992
2477.6787,2.48930477026704
2479.0305,6.91669153937012
2480.3816,7.143925041132789
2481.7319,10.620999830908673
2483.0816,4.247910392612312
2484.4306,5.024651103948145
2485.7789,6.151216300141698
2487.1264,7.177600266171908
2488.4733,8.45379722550571
2489.8195,8.479801329834103
2491.165,8.455606646310116
2492.5097,9.731207157288921
2493.8538,8.056596760569647
2495.1972,3.8317692566393333
2496.5398,5.056718365419158
2497.8818,5.331437768512643
2499.2231,7.055921096956098
2500.5637,4.880161928471651
2501.9035,5.404153770222152
2503.2427,7.077890080568935
2504.5812,8.901364263831724
2505.919,7.574569653551606
2507.256,9.347499494256041
2508.5924,6.820146954726923
2509.9281,4.49250511027121
2511.2631,8.91456696799429
2512.5974,10.036325490076564
2513.9309,5.507773549552894
2515.2638,1.3789039190945545
2516.596,9.299709316295278
2517.9275,1.720182444959832
2519.2583,7.890315915895911
2520.5884,8.710102322709503
2521.9178,3.6295341801034624
2523.2465,1.9486039156796693
2524.5745,6.01730392074478
2525.9018,4.885626567119417
2527.2284,4.703564166451244
2528.5543,5.971108981531714
2529.8796,7.738253228116648
2531.2041,5.304989062250925
2532.5279,4.821308562596883
2533.851,4.187203754767054
2535.1735,8.952666616160982
2536.4952,4.667689082306197
2537.8163,7.7322629992035985
2539.1366,8.996380166177218
2540.4562,4.2100323052284665
2541.7752,7.773211048395041
2543.0935,5.535907985614344
2544.411,9.848114629091725
2545.7279,6.409822435673547
2547.0441,9.971022763725017
2548.3596,7.13170690751312
2549.6744,8.191866061594666
2550.9885,7.601491349209468
2552.3019,5.2105738116786995
2553.6146,5.319104414308683
2554.9266,5.527074070300017
2556.2379,5.634473639662275
2557.5485,5.541293927134404
2558.8585,4.0975256811106675
2560.1677,9.553159594572449
2561.4762,9.058186319525902
2562.7841,6.912596412445666
2564.0913,9.666380339224546
2565.3977,9.319528496629374
2566.7035,7.422031184763256
2568.0086,7.973878610534101
2569.313,9.375060906629514
2570.6167,8.425568125998339
2571.9197,3.9253902278389035
2573.222,7.924517087093932
2574.5236,7.572938539452323
2575.8246,12.37064434135776
2577.1248,8.567624173524592
2578.4244,10.613867592960816
2579.7232,10.5593640709982
2581.0214,13.504102972829898
2582.3189,8.298073558055407
2583.6157,13.891264951233296
2584.9118,14.933666193941434
2586.2072,15.325266188844992
2587.5019,9.566053689272579
2588.7959,16.406017295300117
2590.0893,14.895145511343088
2591.3819,13.483426677756782
2592.6739,13.370848985945145
2593.9652,12.70740049247786
2595.2557,15.093069120216242
2596.5456,13.527842664947613
2597.8348,15.41170877152868
2599.1234,16.994654949537704
2600.4112,18.67666855443592
2601.6983,16.25773677173801
2602.9848,20.63784660019202
2604.2705,15.01698487596866
2605.5556,17.545138228860267
2606.84,17.17229313848938
2608.1237,14.798435909027134
2609.4067,15.773552672921795
2610.689,16.297629414637314
2611.9707,16.070651960902154
2613.2516,15.99260597546855
2614.5319,11.763476961382196
2615.8115,12.283250261762774
2617.0903,14.251911102095278
2618.3685,15.619444585032184
2619.6461,16.835835670706985
2620.9229,15.25106916305873
2622.199,14.615129697668138
2623.4745,15.52800175760538
2624.7493,13.28966967978927
2626.0234,14.500117645858708
2627.2968,17.209329704555884
2628.5695,13.717289759621934
2629.8415,15.8239815427047
2631.1128,18.27938864827911
2632.3835,14.083494512580359
2633.6535,12.986282389049762
2634.9228,14.737735390293736
2636.1914,14.387836499055865
2637.4593,17.98656855070243
2638.7265,10.783914236721415
2639.9931,16.179856068735106
2641.259,13.124376450526768
2642.5242,16.21745762408102
2643.7887,13.70908170013881
2645.0525,13.09923062726645
2646.3156,13.43788621693949
2647.5781,16.17503014964126
2648.8398,13.560643971476267
2650.1009,13.394709066798669
2651.3613,8.777206684356315
2652.6211,13.908117938949985
2653.8801,11.53742385760846
2655.1385,9.115105328279412
2656.3961,14.441143123536307
2657.6531,11.315517924801611
2658.9094,13.338210269086403
2660.1651,15.709200580246588
2661.42,10.928469148756037
2662.6743,14.695996107996592
2663.9279,11.961761482065455
2665.1808,12.47574514809989
2666.433,15.187926863619595
2667.6846,13.3982862613869
2668.9354,22.506802822284897
2670.1856,17.61345589321381
2671.4351,20.468224596005868
2672.6839,17.871087876358757
2673.9321,17.77202447528795
2675.1795,16.42101295509812
2676.4263,17.66803170037369
2677.6724,20.213058931489
2678.9179,19.506072692138147
2680.1626,20.297050823884703
2681.4067,18.035970973231542
2682.6501,20.27281058371112
2683.8928,20.657546918496223
2685.1348,18.84015703803159
2686.3761,14.97061779618656
2687.6168,15.998905858428955
2688.8568,18.32499774052043
2690.0961,16.598869798233594
2691.3348,13.320498204091137
2692.5727,13.589858964627055
2693.81,13.456927953170364
2695.0466,11.921680907151597
2696.2826,14.834093429431945
2697.5178,15.544141003655866
2698.7524,16.501798965126895
2699.9863,12.657042493707195
2701.2195,14.709846604241037
2702.452,11.01018618500224
2703.6839,20.008035977166287
2704.9151,15.303370611806713
2706.1456,18.94616451991685
2707.3755,15.43639197945626
2708.6046,24.174027078922848
2709.8331,20.20904375245067
2711.0609,23.091415692433486
2712.2881,21.12111638917466
2713.5145,21.59811910206352
2714.7403,22.272396879278176
2715.9654,25.143922553015614
2717.1899,22.212668732748867
2718.4136,25.228607776511765
2719.6367,28.241711820211563
2720.8591,33.951952747469406
2722.0809,36.4593021594894
2723.3019,34.46373131795613
2724.5223,35.66521111996124
2725.7421,38.463712117959005
2726.9611,37.70920450775168
2728.1795,30.551658100504383
2729.3972,28.09104233029022
2730.6142,26.17732632566576
2731.8306,25.21047893427715
2733.0462,22.69046874199728
2734.2612,21.367264082594303
2735.4756,24.940833062931716
2736.6892,20.111143576200405
2737.9022,20.82816326618297
2739.1145,18.8418595755506
2740.3262,18.202199738692897
2741.5372,18.759150801580944
2742.7475,15.26267962816381
2743.9571,16.462752894799067
2745.1661,14.259337125217499
2746.3744,13.052398678522437
2747.582,12.191903771223863
2748.7889,9.427818489307754
2749.9952,7.510108796841138
2751.2008,12.338740563612859
2752.4057,3.4136795843106995
2753.61,7.734891530235032
2754.8136,8.652342038549477
2756.0165,5.915996669068733
2757.2188,9.325820895084206
2758.4204,6.331780130727367
2759.6213,3.2838396968714676
2760.8215,8.93196485107201
2762.0211,11.576120818046121
2763.22,3.5662727331913686
2764.4182,5.752385616144139
2765.6158,5.034424450878149
2766.8127,5.562354163843324
2768.009,4.236139631145292
2769.2045,4.555745673266259
2770.3994,6.321137068326976
2771.5936,3.732278548890818
2772.7872,3.889134784309789
2773.9801,1.6916704066131558
2775.1723,-0.2601499910611267
2776.3639,1.3336381675082833
2777.5548,-4.6269979425589085
2778.745,-0.4920911594793864
2779.9346,2.1383719022396406
2781.1235,-2.4355904559184154
2782.3117,2.2360400461461865
2783.4992,0.05330602008186247
2784.6861,-0.8337499448233814
2785.8723,4.5749147401855055
2787.0579,0.5293509930254459
2788.2428,3.0296096858642017
2789.427,0.9757416855760681
2790.6106,-4.482202171260724
2791.7935,0.1558289421746366
2792.9757,2.0399306299026563
2794.1573,4.070198494385593
2795.3382,3.4967281176863594
2796.5184,-4.73038495883408
2797.698,3.388954771218039
2798.8769,1.804890070782136
2800.0551,2.2675636689081955
2801.2327,4.927118276597241
2802.4096,4.833696582174753
2803.5859,3.5874412246950413
2804.7615,5.0884947948755155
2805.9364,4.036999847559187
2807.1106,5.333098886704235
2808.2842,8.926934375898838
2809.4572,7.868648725400163
2810.6294,11.158384256196143
2811.801,10.546283210588271
2812.972,14.132487719294204
2814.1423,17.86713980756879
2815.3119,20.15038135934202
2816.4808,17.88235407987254
2817.6491,29.81319947291516
2818.8167,35.293058863401214
2819.9837,38.32207327812999
2821.15,52.800383390970225
2822.3157,58.02812949256999
2823.4807,66.65545134557348
2824.645,80.43248813234361
2825.8086,95.30937836868888
2826.9716,106.83625976609287
2828.134,120.41326908294549
2829.2957,129.3405420092741
2830.4567,144.6182130309734
2831.617,148.19641534053272
2832.7767,155.17528068425923
2833.9358,148.60493932649615
2835.0941,144.9355199798337
2836.2519,146.11714987081285
2837.4089,136.39995477661938
2838.5653,125.88405901326762
2839.7211,126.06958553277227
2840.8761,121.15665602830757
2842.0306,120.54539093235188
2843.1843,120.98590946581706
2844.3374,126.32832964416112
2845.4899,126.57276827298298
2846.6417,131.7193408945983
2847.7928,133.11816178559508
2848.9433,134.1193439053679
2850.0931,136.0729988821298
2851.2422,130.12923700290042
2852.3907,137.83816719396935
2853.5385,142.09989708033382
2854.6857,138.26453290860962
2855.8323,142.5821795044135
2856.9781,148.50294031071684
2858.1233,150.42691734466948
2859.2679,155.35421113839163
2860.4118,162.53492071973454
2861.555,168.26914356300736
2862.6976,171.35697551717004
2863.8395,180.79851074849117
2864.9808,178.89384170966957
2866.1214,180.64305904541908
2867.2614,179.64625161151497
2868.4007,190.6035064573022
2869.5393,191.96490883566304
2870.6773,195.58054209344505
2871.8146,200.4504876578464
2872.9513,205.07482500026015
2874.0874,205.3536315875744
2875.2227,207.43698283592914
2876.3574,208.474952107928
2877.4915,211.3676106918047
2878.6249,219.36502779104376
2879.7577,219.21727049545328
2880.8898,224.97440370119136
2882.0212,232.58649011224333
2883.152,235.95359018285063
2884.2821,235.72576204138971
2885.4116,235.40306145670138
2886.5405,244.53554184036855
2887.6686,240.2232542499438
2888.7962,250.41624729762424
2889.923,245.76456719337455
2891.0493,247.8682576429968
2892.1748,242.5273598946476
2893.2997,250.29191271780087
2894.424,246.86195245665704
2895.5476,250.7375129524974
2896.6706,250.21862557798386
2897.7929,250.505319198403
2898.9145,241.34762017685534
2900.0355,244.04555237138837
2901.1559,251.2491372265731
2902.2756,241.65839374652535
2903.3946,243.32333842286923
2904.513,242.24398533064536
2905.6308,238.57034611166074
2906.7479,234.90242998528262
2907.8643,239.7402437851748
2908.9801,242.2337919959769
2910.0953,237.73307670492602
2911.2098,237.58809757692143
2912.3236,234.7488518995316
2913.4368,235.6153345844442
2914.5494,231.8375381958583
2915.6613,229.71545294181976
2916.7725,229.09906671199906
2917.8831,223.83836509891213
2918.9931,222.38333140408423
2920.1024,213.63394669065713
2921.211,212.8401897979393
2922.319,198.7520374288997
2923.4264,204.86946415810544
2924.5331,202.6424425726033
2925.6391,205.37094321074545
2926.7445,203.7049345844597
2927.8493,201.54438315196415
2928.9534,201.289253334428
2930.0569,206.73950753757646
2931.1597,205.74510615424225
2932.2619,209.40600750986306
2933.3634,215.62216787242556
2934.4643,216.14354141585648
2935.5645,216.87008015786077
2936.6641,225.80173395470808
2937.763,216.43845049396728
2938.8613,215.43017520519
2939.959,222.0768513535434
2941.056,213.1784200498927
2942.1523,202.084820184335
2943.248,196.4959885151829
2944.3431,178.66185977990108
2945.4375,168.43236675099422
2946.5313,162.15744041434857
2947.6244,144.73701007152675
2948.7169,130.32100340251682
2949.8087,122.50934663993698
2950.8999,113.30196471319523
2951.9904,104.49878132660626
2953.0803,97.34971905146509
2954.1696,91.5546994140789
2955.2582,85.06364296725785
2956.3462,85.12646934826499
2957.4335,77.29309734372707
2958.5202,79.11344488900619
2959.6062,80.18742914653353
2960.6916,82.5649664876059
2961.7764,72.99597248164588
2962.8605,81.03036187242644
2963.9439,78.1680486737609
2965.0267,77.00894608915887
2966.1089,75.30296654044966
2967.1905,82.50002167937308
2968.2714,80.20002240463933
2969.3516,73.95287878995836
2970.4312,72.60850010704009
2971.5102,75.96679488806556
2972.5885,74.07767093913091
2973.6662,74.59103530666432
2974.7432,75.65679429631732
2975.8196,77.07485346783113
2976.8954,81.94511762437907
2977.9705,79.61749079838593
2979.045,77.89187620282547
2980.1188,77.21817625449653
2981.192,77.79629259127915
2982.2645,72.07612607887177
2983.3364,72.9075768050098
2984.4077,65.24054413666747
2985.4783,68.92492671174321
2986.5483,62.2106225157301
2987.6177,64.49752884487191
2988.6864,52.335542373306204
2989.7545,53.424559130195355
2990.8219,46.81447462134628
2991.8887,43.45518381832035
2992.9548,46.796581224534194
2994.0204,41.83856090885259
2995.0852,32.781016472174535
2996.1495,28.42384109701345
2997.2131,27.816927638072613
2998.276,23.160168665816933
2999.3383,19.753456472542084
3000.4,19.54668311894209
3001.4611,10.53974046817634
3002.5215,10.43252018793747
3003.5812,7.974913840520749
3004.6404,8.166812883896228
3005.6989,10.308108696284869
3006.7567,3.3486925742395
3007.8139,1.93845571123191
3008.8705,3.2272892672469737
3009.9264,1.1650843828850483
3010.9818,4.351732166473589
3012.0364,-1.3628762853107332
3013.0905,1.3711500806914358
3014.1439,0.0037159327734954672
3015.1966,1.3347259255173824
3016.2487,1.1140846763828378
3017.3002,-0.05830321051763576
3018.3511,-0.232533142212354
3019.4013,-3.008699943280533
3020.4509,-0.28689611529535597
3021.4998,1.1828158970824418
3022.5481,-2.1996234847157226
3023.5958,1.6157261489134456
3024.6428,0.07882718181183179
3025.6892,1.189641981664046
3026.735,-1.8018670846335496
3027.7802,-1.2957376620810024
3028.8247,3.8580106049738347
3029.8685,1.4093710166023286
3030.9118,2.308336834295787
3031.9544,-1.995098694548183
3032.9963,3.299057654384683
3034.0376,-0.5591809635554057
3035.0783,4.0301985739912
3036.1184,0.9672149756019621
3037.1578,4.101886909552356
3038.1966,3.034233034445684
3039.2348,4.514271967866399
3040.2723,6.3920222970566485
3041.3092,5.267502564115844
3042.3455,3.590731247223161
3043.3811,3.4617267718827165
3044.4161,4.380507527691307
3045.4505,6.697091869628473
3046.4842,6.761498108868686
3047.5173,7.973744489615527
3048.5498,6.883849188457617
3049.5816,7.8418303022461515
3050.6128,7.147705858993881
3051.6434,10.40149380829525
3052.6734,9.403212028267646
3053.7027,9.85287829301356
3054.7314,13.050510282603398
3055.7594,11.146125578578754
3056.7868,12.839741631976146
3057.8136,11.781375782370858
3058.8398,11.471045240940782
3059.8653,11.308767101050023
3060.8902,12.694558341352312
3061.9145,13.328435827413685
3062.9381,15.610416297854641
3063.9612,18.140516358011325
3064.9835,18.418752457115744
3066.0053,16.04514086299475
3067.0264,17.969697659287725
3068.0469,19.64243876918261
3069.0668,16.663379936170426
3070.086,19.432536707317794
3071.1046,13.49992446305756
3072.1226,13.965558389497236
3073.1399,14.979453537745076
3074.1567,12.141624819253781
3075.1727,16.20208699568155
3076.1882,16.61085470727035
3077.203,14.567942432241257
3078.2173,13.723364482706852
3079.2308,10.17713502510028
3080.2438,11.679268088621047
3081.2561,11.52977760069733
3082.2678,11.078677371964616
3083.2789,10.625981097760665
3084.2893,8.671702362636427
3085.2991,7.86585464488309
3086.3083,11.708451336074791
3087.3169,9.149505749127187
3088.3248,4.739031079871381
3089.3321,7.677040432643462
3090.3388,6.7135468643892295
3091.3449,6.248563355284048
3092.3503,4.632102818367855
3093.3551,6.3141781041949585
3094.3593,5.694802016998661
3095.3629,5.3739872978704994
3096.3658,5.351746630953983
3097.3681,6.028092646652777
3098.3698,4.653037921853091
3099.3708,5.076594973160219
3100.3713,4.798776270649093
3101.3711,6.8695942336287175
3102.3702,4.23906123342033
3103.3688,9.307189572649257
3104.3667,7.57399151155019
3105.364,3.639479217285931
3106.3607,6.353664781279392
3107.3568,3.666560258558704
3108.3522,6.228177640615357
3109.347,6.388528882275249
3110.3412,4.09762587608251
3111.3348,4.555480450695999
3112.3277,4.062104393798322
3113.32,3.967509447517287
3114.3117,4.721707313359673
3115.3028,2.574709653157175
3116.2932,7.5765280815244225
3117.2831,4.977174187328966
3118.2723,4.2266594836730995
3119.2608,4.9249954338873785
3120.2488,4.122193459035785
3121.2361,5.0682649309323615
3122.2229,3.413221180169213
3123.209,2.257073486655827
3124.1944,4.949833096169463
3125.1793,3.09151123191668
3126.1635,3.782119067605702
3127.1471,2.8716677460296474
3128.1301,2.4601683721604637
3129.1125,3.0976320222534177
3130.0942,1.3340697479621149
3131.0753,7.069492569963838
3132.0558,0.20391149559518595
3133.0357,3.287337461497806
3134.015,2.3197814022742556
3134.9936,2.951254219653711
3135.9716,0.3817667921675323
3136.949,5.16132996883454
3137.9258,4.039954594855898
3138.902,5.867651463819453
3139.8775,4.944431328913531
3140.8524,1.7203048846499467
3141.8267,2.1452827760962077
3142.8004,0.5693756311167633
3143.7735,4.992594056123245
3144.7459,3.6649486518335372
3145.7178,3.9364499690395895
3146.689,5.10710852188387
3147.6596,1.9269347851443577
3148.6295,5.745939182527964
3149.5989,5.014132118472261
3150.5676,4.131523939955432
3151.5357,1.6481249438143522
3152.5032,2.2639453855706577
3153.4701,1.1289955042647506
3154.4364,1.3432855162975663
3155.402,7.956825626780088
3156.367,4.419626027390446
3157.3315,5.981696830238516
3158.2952,3.0430481032379255
3159.2584,2.8036898544853255
3160.221,5.413632061646897
3161.1829,4.972884674351917
3162.1442,5.781457588093364
3163.105,3.839360648635365
3164.065,4.646603643927477
3165.0245,3.3031963235256683
3165.9834,6.60914839051987
3166.9416,2.86446951496805
3167.8993,2.519169300836708
3168.8563,0.6232573234476408
3169.8127,7.526743132930946
3170.7684,8.029636273184174
3171.7236,6.731946212837432
3172.6782,7.633682340224475
3173.6321,5.234853976359602
3174.5854,5.085470365920296
3175.5381,5.285540701235501
3176.4902,5.285074123779456
3177.4417,5.184079722171004
3178.3926,6.982566532178247
3179.3428,3.7305435377284937
3180.2924,5.128019652923397
3181.2415,5.925003754559176
3182.1899,6.071504668151863
3183.1377,8.167531159967456
3184.0848,6.16309193555691
3185.0314,4.658195618795866
3185.9773,5.552850771929057
3186.9227,6.097065910619263
3187.8674,5.5408494950007645
3188.8115,4.584209924237189
3189.755,8.127155542083672
3190.6979,7.019694646453253
3191.6402,4.111835453987421
3192.5818,6.803586111130726
3193.5229,8.294954723209361
3194.4633,6.735949327513672
3195.4031,6.426577878384441
3196.3423,4.516848262802973
3197.2809,5.506768303484784
3198.2189,4.19634577797691
3199.1563,4.985588408758709
3200.0931,7.074503876346072
3201.0292,7.263099811399012
3201.9648,10.451383773832514
3202.8997,6.839363250930552
3203.834,7.12704562546327
3204.7677,8.214438211807177
3205.7008,6.051548253068331
3206.6333,8.138382910208406
3207.5652,5.174949283673593
3208.4964,6.7112543925262615
3209.4271,6.747305204079289
3210.3571,7.13310861853301
3211.2865,10.568671468614713
3212.2154,7.154000515720597
3213.1436,7.889102415560159
3214.0712,11.27398375230289
3214.9982,9.108651031227257
3215.9246,7.993110644871887
3216.8503,7.627368894688903
3217.7755,8.46143200219932
3218.7001,10.245306112650477
3219.624,8.828997286675385
3220.5473,11.762511482454011
3221.4701,8.095854569876337
3222.3922,10.029032301207248
3223.3137,9.712050347753074
3224.2346,6.9949142805298266
3225.1549,7.677629573433023
3226.0746,8.810201630409027
3226.9937,10.392635778627916
3227.9121,9.374937257157749
3228.83,9.957111201140222
3229.7473,8.889162651967672
3230.6639,12.721096551461308
3231.5799,10.252917752550726
3232.4954,5.384630980954551
3233.4102,8.816240859862237
3234.3244,10.697751958616928
3235.238,7.379168758399354
3236.151,7.510495633412718
3237.0634,9.991736884068542
3237.9752,12.372896735673388
3238.8864,9.153979313616443
3239.797,9.584988619557924
3240.7069,8.81592856361825
3241.6163,13.696802960067963
3242.5251,13.727615535018312
3243.4332,10.30836987761251
3244.3408,8.73906943971761
3245.2477,7.069717570116975
3246.154,10.700317530203261
3247.0598,8.530872510671951
3247.9649,9.711385595215349
3248.8694,14.091859782217034
3249.7733,7.5722979729467195
3250.6766,11.552702927755528
3251.5793,12.133077331271599
3252.4814,13.013423752596042
3253.3829,8.793744639499185
3254.2838,11.674042309617109
3255.1841,10.754318992648457
3256.0838,12.934576801551446
3256.9829,9.814817741741095
3257.8814,9.495043689286655
3258.7792,11.8752564221092
3259.6765,11.905457623179355
3260.5731,10.785648856715188
3261.4692,14.415831567880183
3262.3647,8.246007093981333
3263.2595,14.276176628167308
3264.1538,10.806341281126706
3265.0474,11.686502020786355
3265.9404,9.816659707009672
3266.8329,8.046815082795051
3267.7247,11.826968792974293
3268.616,12.107121401911046
3269.5066,10.78727335569927
3270.3966,10.417424979361716
3271.286,11.297576490048396
