RamanShift,CorrectedData
30.1047,1355.9932457637467
32.3739,1258.054457567257
34.6426,1161.1656558108348
36.9109,1067.276814354003
39.1787,973.0378954446277
41.4461,878.1988506578067
43.7131,781.7096218382584
45.9796,690.6701420487125
48.2456,595.4803365348015
50.5112,502.7901236354563
52.7764,409.24941573480413
55.0411,315.4081201890707
57.3054,220.61614026198748
59.5692,131.82337606320456
61.8326,43.62972549621067
64.0955,-52.11491485373935
66.3579,-141.06064883768784
68.6199,-223.95705967867775
70.8815,-295.1523214038704
73.1426,-315.44237070940113
75.4032,-209.72019571971464
77.6634,187.67436671002804
79.9231,1267.70357482942
82.1824,3677.729685011311
84.4412,8109.914940951516
86.6995,14266.271549568552
88.9574,20240.31163668179
91.2148,24311.39718544788
93.4717,26099.139976620372
95.7282,26352.751547838823
97.9842,26034.893175751404
100.2398,25327.675873478773
102.4949,24517.610393792653
104.7495,23563.507236188005
107.0036,22597.976654983697
109.2573,21714.728668863514
111.5105,20907.623070531485
113.7632,20123.869435544348
116.0154,19451.677130382614
118.2672,18944.705320288096
120.5185,18459.012975985846
122.7693,18039.358878753857
125.0197,17650.351625279993
127.2696,17302.549631858536
129.519,17016.06113828025
131.7679,16675.094211310407
134.0163,16342.506747553665
136.2642,15976.356476863743
138.5117,15593.900965669294
140.7587,15227.947620635417
143.0052,14870.30369248819
145.2512,14453.176279674228
147.4967,14124.272331937103
149.7417,13848.648654488625
151.9863,13593.211911297883
154.2304,13389.318627847482
156.4739,13138.57519368791
158.717,12984.037864476473
160.9596,12712.562764484726
163.2017,12339.955888143848
165.4433,11994.12310275939
167.6844,11572.770152237346
169.925,11184.252660542481
172.1651,10730.026135911858
174.4047,10398.545974740016
176.6439,10050.467466121234
178.8825,9766.345795164336
181.1206,9530.036046473473
183.3582,9275.393206989342
185.5954,9114.172168352268
187.832,8936.227729448663
190.0681,8805.114598023207
192.3037,8742.287392458315
194.5388,8652.50064308525
196.7734,8606.85879281241
199.0075,8579.366198023185
201.2411,8653.77712903238
203.4742,8609.495770361142
205.7068,8707.926219992845
207.9389,8722.772489815918
210.1704,8770.288504639524
212.4015,8791.378102045102
214.632,8906.945031911217
216.862,9008.392956202642
219.0915,9045.075447814717
221.3205,9135.045989558843
223.549,9213.757973795677
225.777,9355.814701535417
228.0044,9467.169381650681
230.2314,9668.425129455947
232.4578,9872.484965593994
234.6837,10000.551814023356
236.909,10063.428499977725
239.1339,9967.867748685272
241.3582,9787.122184739896
243.582,9445.994333056817
245.8053,9224.786620680032
248.0281,8981.001380193607
250.2503,8791.340851933737
252.472,8716.207186426613
254.6932,8691.10244628502
256.9139,8640.97860695968
259.134,8688.887556990292
261.3536,8719.981098506778
263.5727,8871.110946750174
265.7912,8929.978729761719
268.0092,9057.035986871537
270.2267,9049.184168109972
272.4436,9006.874632937013
274.6601,8920.558650320807
276.8759,8784.587399160759
279.0913,8634.761969150688
281.3061,8456.283362138553
283.5204,8367.00249362469
285.7341,8323.470194546619
287.9473,8362.937212171817
290.16,8422.95421053308
292.3721,8554.221770033833
294.5837,8793.890386847972
296.7947,9041.060471607161
299.0052,9170.63234700418
301.2152,9002.406245321201
303.4246,8713.332307134064
305.6334,8202.360582994574
307.8418,7710.541036321201
310.0495,7223.773548508831
312.2568,6841.707923846929
314.4635,6473.393894387242
316.6696,6250.631123764431
318.8752,6040.119210879235
321.0802,5950.457692126081
323.2847,5982.94604349821
325.4887,5974.383681484285
327.692,5887.069962743521
329.8949,5774.054184191282
332.0972,5498.235583872249
334.2989,5187.963342090563
336.5001,4919.186584168019
338.7007,4644.154383546771
340.9008,4485.015764477121
343.1003,4277.469704767824
345.2992,4185.465137377489
347.4976,4077.850952490029
349.6955,3986.7259984347093
351.8927,3937.4890827622876
354.0895,3872.888973156272
356.2856,3833.2743979252864
358.4812,3768.694046649065
360.6763,3720.296570574601
362.8707,3677.980583261966
365.0646,3658.094661068264
367.258,3668.9373435708094
369.4508,3653.407133765968
371.643,3741.202497960734
373.8346,3730.121865928035
376.0257,3733.913630028781
378.2162,3661.2761453226594
380.4062,3556.7077295302224
382.5956,3397.7066637592725
384.7844,3264.6211935505416
386.9726,3116.849530467709
389.1603,3021.589853428248
391.3474,2904.040310181137
393.5339,2856.999018259461
395.7199,2795.8140661559064
397.9052,2801.4835137931695
400.09,2798.805393135808
402.2743,2852.3777081335593
404.4579,2949.7984347481033
406.641,3095.465520417343
408.8235,3261.8268830811994
411.0054,3473.230409724949
413.1868,3708.6239547156
415.3675,3866.3053376878615
417.5477,3953.4223411902076
419.7273,3881.822709108066
421.9064,3786.604145792644
424.0848,3675.96431677693
426.2627,3442.6508497278664
428.4399,3182.6613355527606
430.6166,2800.6933307324252
432.7928,2466.7443599210656
434.9683,2135.411919765964
437.1432,1877.8434822469608
439.3176,1703.1864979897837
441.4914,1580.688398841723
443.6645,1549.1465996182142
445.8371,1456.1084993278055
448.0091,1353.171481487585
450.1806,1301.03291505356
452.3514,1250.3401554500324
454.5216,1275.4405450909708
456.6913,1209.1814138869468
458.8603,1216.5600789941273
461.0288,1264.0238454768678
463.1967,1236.570006233931
465.3639,1282.2458415238416
467.5306,1298.7986192394255
469.6967,1348.6255944510594
471.8622,1406.4740092411412
474.0271,1511.7410922058225
476.1914,1523.7740578765224
478.3551,1458.9701056672457
480.5182,1508.7764197542747
482.6807,1543.9901697241949
484.8426,1670.8085100758271
487.0039,1927.5785798681063
489.1647,2313.2975014518834
491.3248,2699.912377902234
493.4843,2784.0702891612636
495.6432,2730.368288171965
497.8015,2621.903400036632
499.9592,2557.172622553877
502.1163,2428.272927303289
504.2728,2131.401260292736
506.4287,1865.8545432473566
508.5839,1488.179676578291
510.7386,1240.8235420381316
512.8927,1061.3330064976872
515.0461,1007.754924419527
517.199,1010.6861396528948
519.3512,1096.4734859694927
521.5029,1286.663787034162
523.6539,1411.6038555470113
525.8043,1467.1404913415172
527.9541,1434.4204801351225
530.1033,1326.740592973867
532.2519,1242.5975865595992
534.3999,1275.6882043267742
536.5472,1412.3591772838681
538.694,1753.1072236824857
540.8401,2138.829047650641
542.9856,2453.821335785289
545.1305,2551.7307532951036
547.2748,2452.503940850549
549.4185,2165.3875136047827
551.5615,1936.7280621859318
553.704,1897.0721555682521
555.8458,1893.6163433587317
557.987,1976.0071561936256
560.1276,2085.2411057730424
562.2675,2299.714684037024
564.4069,2575.524362073207
566.5456,2823.316587972089
568.6837,2859.837784068932
570.8212,2521.084344465833
572.958,2039.0026346665254
575.0942,1550.2389949639037
577.2299,1221.6897452608446
579.3648,1088.8511899578389
581.4992,1107.4196212384813
583.6329,1227.6913203978602
585.766,1418.0625576568782
587.8985,1568.379590959521
590.0304,1564.0886640691551
592.1616,1518.8860050653511
594.2922,1405.417826386798
596.4222,1213.2303252833317
598.5515,1036.0196849506083
600.6802,874.4820764519882
602.8083,707.1136604906478
604.9358,687.1105890249382
607.0626,650.9190069420856
609.1888,692.9850522582146
611.3144,770.2548564802692
613.4393,776.974544185352
615.5636,810.2902322480277
617.6873,790.3480297731294
619.8103,680.2940377625891
621.9327,555.5243493148646
624.0544,465.63505072548105
626.1756,352.2222227347247
628.2961,271.03194142653774
630.4159,201.66027936265345
632.5351,200.50330639448657
634.6537,150.7570903568503
636.7716,142.71769707953354
638.8889,176.38119088475105
641.0056,169.44363466754294
643.1216,150.25108955914402
645.237,195.44961499636338
647.3518,123.48526891349684
649.4659,85.65410729036739
651.5793,91.25218487194616
653.6922,77.12555554668143
655.8043,91.32027229050254
657.9159,49.582387308082616
660.0268,4.207951890903132
662.137,5.293016834622904
664.2466,-13.816409102535545
666.3556,-0.4743700395920314
668.4639,-34.334772069645624
670.5716,-26.851516546836137
672.6786,17.071838179055703
674.785,-4.96799799510336
676.8907,44.175684656849626
678.9958,74.09964549137112
681.1002,60.70064342317892
683.204,58.92543662600292
685.3072,18.270782666564628
687.4097,17.33343852235157
689.5115,-20.689839011860386
691.6127,-25.6022933146196
693.7132,-62.656961072983904
695.8131,-82.70662320711017
697.9123,-29.00343469413201
700.0109,-73.09872427201844
702.1089,-55.393530934439696
704.2061,4.91183658117734
706.3028,76.81762291878658
708.3987,113.47402365307607
710.4941,159.58123359058663
712.5887,295.4894464031204
714.6827,440.6988541666851
716.7761,683.6096460023928
718.8688,912.8220066243703
720.9608,1099.086113910651
723.0522,1195.752136611045
725.1429,1159.7202324844911
727.233,1090.6405473324066
729.3224,1034.1632153590017
731.4112,881.8383598620894
733.4993,739.7160937978606
735.5867,529.4965213041196
737.6735,384.6297391215121
739.7596,269.11583869573224
741.845,190.20490762618465
743.9298,140.19703082112028
746.014,102.6422912867456
748.0974,121.09077062729921
750.1802,121.6925494206098
752.2624,142.74770703358809
754.3439,194.2063216162387
756.4247,279.9684698910751
758.5048,440.3842266385582
760.5843,712.9036638394664
762.6631,1082.1268490707444
764.7413,1592.0038427803083
766.8188,2236.7846945948168
768.8956,2727.219438220878
770.9718,3061.058084997274
773.0473,2956.9006189905976
775.1221,2702.946993656851
777.1962,2396.0471328830427
779.2697,2223.4009335267147
781.3426,2259.9082684849363
783.4147,2454.5189884207757
785.4862,2612.0329213982277
787.557,2537.499870936086
789.6271,2151.8696144328424
791.6966,1625.4919039119814
793.7654,1082.0664698782966
795.8335,758.5930265816769
797.901,506.1212774513551
799.9678,428.25091833063743
802.0339,345.4316400016178
804.0993,368.2631289638957
806.1641,338.4450682627503
808.2282,279.72713726083566
810.2916,247.45901193636018
812.3544,162.39036547026262
814.4164,79.22086856889291
816.4778,113.85019031471165
818.5385,152.8279989979801
820.5986,280.2539617704606
822.658,473.7777442556453
824.7166,720.1490092744807
826.7747,1082.0674149101578
828.832,1497.7826120443824
830.8886,1732.6442407381965
832.9446,1888.2019260748184
834.9999,1828.0052758110378
837.0545,1675.5038788216261
839.1085,1538.3973057013172
841.1618,1346.6351102898134
843.2143,1196.7668310428362
845.2662,1043.9919929497719
847.3175,984.86010903233
849.368,868.3706818723131
851.4179,788.7232042029209
853.467,651.317160073655
855.5155,564.6520256468011
857.5633,536.777270571476
859.6105,466.442358850285
861.6569,412.59674911806906
863.7027,350.08989534524517
865.7478,332.0712473762669
867.7922,360.3402515546986
869.8359,358.09635090338816
871.8789,403.18898484179226
873.9212,537.2675892084026
875.9629,677.3315958098374
878.0039,835.930431080038
880.0441,930.2135146796409
882.0837,972.0302579099844
884.1226,964.7800627702727
886.1609,927.0123215394178
888.1984,962.4764168485326
890.2352,1079.621722058615
892.2714,1064.4976009059028
894.3069,1051.2534063304265
896.3416,940.6384806272399
898.3757,858.3021555788728
900.4091,803.8937535614823
902.4418,833.7625883682122
904.4739,835.1079657532755
906.5052,894.2291831332568
908.5358,813.7255295736686
910.5658,724.3962851977467
912.595,545.1407219914727
914.6236,368.0581046968782
916.6515,308.59769260459507
918.6786,251.6587413246816
920.7051,308.6405033812225
922.7309,404.0422287817164
924.756,426.5631644472742
926.7804,519.2025532585794
928.8041,513.2596338306994
930.8272,574.5336395866834
932.8495,526.3737988169778
934.8711,521.0793340667115
936.892,434.54946261726946
938.9123,377.1333965392514
940.9318,338.48034355777054
942.9506,305.0395076266159
944.9688,223.21008931477263
946.9862,195.94128614084912
949.003,67.43229339134268
951.019,36.63230439336439
953.0344,-47.259488200304986
955.0491,6.256107896799222
957.063,106.1787570934357
959.0763,199.75812373581357
961.0888,253.6938711083567
963.1007,350.185660497913
965.1119,403.8331506543982
967.1223,408.4359968258741
969.1321,412.0938502220779
971.1412,450.3563579683905
973.1495,433.07316306924804
975.1572,480.8939040255391
977.1641,508.06821500741717
979.1704,499.84572537610256
981.1759,493.87605941214497
983.1808,523.6088363976341
985.1849,590.6936706759097
987.1884,695.8301713542187
989.1911,823.5679416328821
991.1932,929.1565777539181
993.1945,972.7456677236769
995.1951,916.934790256937
997.1951,949.6235143410322
999.1943,868.1113997939447
1001.1928,875.9479969374424
1003.1906,874.8328474121772
1005.1877,972.715484099328
1007.1841,1026.5454311317608
1009.1798,1019.3722029151886
1011.1748,902.995303589887
1013.1691,734.2142271024095
1015.1627,575.9784583693709
1017.1556,352.7874749652419
1019.1477,274.7907487047123
1021.1392,185.08774787460425
1023.1299,184.17793801383414
1025.12,211.66078281045156
1027.1093,283.23574411073423
1029.0979,389.65228164435575
1031.0859,432.0598523086337
1033.0731,471.10790910437754
1035.0596,425.9459007118003
1037.0454,310.273271100039
1039.0304,196.58945997877527
1041.0148,81.39390395495684
1042.9985,26.436037669649522
1044.9814,5.115294949988311
1046.9636,-54.968890641252074
1048.9452,-82.36708559243198
1050.926,-21.379307252709623
1052.9061,7.195249875941954
1054.8855,38.657604870828436
1056.8642,88.35877673730283
1058.8421,124.89978409415562
1060.8194,163.48164467658717
1062.7959,232.40537497080004
1064.7717,264.0219898281848
1066.7469,322.4325017760839
1068.7213,372.08792070162053
1070.695,436.9392532676047
1072.6679,414.08750241596863
1074.6402,412.8336667192507
1076.6117,407.0787406091149
1078.5826,345.1237143888902
1080.5527,292.11957429112044
1082.5221,297.0173030971182
1084.4908,364.0678806670112
1086.4587,461.92228389075717
1088.426,555.6814860176382
1090.3925,560.5964556777271
1092.3584,565.0681559442874
1094.3235,510.44754428461965
1096.2879,557.5855725153579
1098.2515,629.3831873486524
1100.2145,775.6413299208089
1102.1767,917.6609350742947
1104.1382,1119.6429298951734
1106.099,1309.4382322929105
1108.0591,1555.8477489805464
1110.0185,1710.2723735767395
1111.9771,1782.4129841416852
1113.9351,1626.2704416328434
1115.8923,1463.3455891835674
1117.8488,1252.7392536644911
1119.8045,1033.8022473128076
1121.7596,930.1353698383264
1123.7139,823.289410612837
1125.6675,843.7151497067807
1127.6204,874.8633589577166
1129.5726,854.2848017660581
1131.524,791.8302327835863
1133.4748,756.0503981192396
1135.4248,645.7460359636643
1137.3741,564.2178769469992
1139.3226,508.31664524194093
1141.2705,469.6430593790028
1143.2176,403.29783280553784
1145.164,375.63167427247754
1147.1097,346.2952884977749
1149.0546,302.63937644307225
1150.9989,213.6646356070578
1152.9424,148.87176046203058
1154.8852,51.66144334364981
1156.8272,-33.015624901139745
1158.7686,-26.858753941989562
1160.7092,-32.36692362246504
1162.6491,15.761154532816363
1164.5883,95.07709234478898
1166.5267,231.13250147678264
1168.4644,385.9289926413676
1170.4014,551.118174239793
1172.3377,805.351650814031
1174.2732,1084.6810213948793
1176.2081,1427.8078769596195
1178.1421,1800.8337976387393
1180.0755,2191.71034928464
1182.0082,2436.0390797413947
1183.9401,2562.2215149359745
1185.8713,2467.459156434965
1187.8017,2205.5034801827424
1189.7315,1915.8059374491004
1191.6605,1575.7679574487956
1193.5888,1331.9909502385399
1195.5163,1237.426310117362
1197.4432,1170.5754180643926
1199.3693,1124.139642684504
1201.2947,1101.2203408768219
1203.2193,1102.8688582990835
1205.1432,1112.5865295968324
1207.0664,1115.9746783869214
1208.9889,1119.584617160348
1210.9106,1148.3176472483574
1212.8316,1143.1250587863615
1214.7519,1201.5581304266088
1216.6715,1248.5681293900961
1218.5903,1313.856310882251
1220.5084,1318.3739176228191
1222.4257,1398.5721791929827
1224.3424,1393.652311990194
1226.2583,1511.615518426177
1228.1735,1606.5629869761397
1230.0879,1725.3458909991386
1232.0016,1857.7153877886049
1233.9146,1976.9726173845174
1235.8269,1908.0687012497
1237.7384,1881.90474107726
1239.6492,1720.3318194796066
1241.5592,1705.5010002501058
1243.4686,1670.9633299788165
1245.3772,1782.419838200789
1247.285,1895.021537741457
1249.1922,1956.06942360205
1251.0986,2011.8144718335952
1253.0042,2072.257638926434
1254.9092,2167.3498612527546
1256.8134,2274.992054462182
1258.7169,2433.035112530848
1260.6196,2592.529906684975
1262.5216,2826.827283820434
1264.4229,3010.178064907801
1266.3234,3210.1830426493816
1268.2232,3300.6929796457134
1270.1223,3387.5586063954906
1272.0207,3440.7306203905027
1273.9183,3416.359685246938
1275.8151,3341.546430173683
1277.7113,3339.44145021604
1279.6067,3331.8453070038413
1281.5014,3402.4585287725204
1283.3953,3615.281610439046
1285.2885,3911.465012895813
1287.181,4198.4091608824
1289.0727,4533.414440023746
1290.9637,4748.7811939606945
1292.854,4875.809720999952
1294.7435,4962.150271960414
1296.6323,5011.903048902879
1298.5204,5034.218204266657
1300.4077,5009.795840372026
1302.2943,4960.186009197094
1304.1802,4868.08871262201
1306.0653,4578.453902925075
1307.9497,4268.131483703704
1309.8333,3987.021312770783
1311.7162,3792.923205257872
1313.5984,3676.8369364263344
1315.4798,3611.9122436082907
1317.3605,3628.9988273675026
1319.2405,3575.0963521486083
1321.1197,3485.454446106267
1322.9982,3289.022701644177
1324.876,3160.7506763115016
1326.753,2939.33789476717
1328.6293,2856.5338500626094
1330.5048,2798.138005855866
1332.3796,2670.0497972396624
1334.2537,2632.11863132534
1336.127,2592.5938885237465
1337.9996,2608.97492292455
1339.8714,2593.261062691474
1341.7426,2627.9016098984994
1343.6129,2628.49584068699
1345.4826,2632.793004919302
1347.3515,2658.692326172828
1349.2196,2656.243001697034
1351.087,2682.69420215446
1352.9537,2764.7450716452186
1354.8197,2896.044727442484
1356.6849,3068.84225917199
1358.5493,3230.7367274990156
1360.4131,3319.0771624004265
1362.276,3423.362561545724
1364.1383,3373.141889413637
1365.9998,3150.8640762492796
1367.8606,2876.8780185663527
1369.7206,2551.382581369915
1371.5799,2286.8266008962582
1373.4384,2094.50888786784
1375.2962,1895.3782301388692
1377.1533,1623.8333946184666
1379.0096,1310.2231292619854
1380.8652,1042.5961657864482
1382.7201,772.6512228066531
1384.5742,553.2870085114428
1386.4275,381.1022233631502
1388.2802,272.0955622912461
1390.132,193.2657164141856
1391.9832,143.36137412946846
1393.8336,80.08122190194808
1395.6832,44.37394476285772
1397.5322,50.73822694263072
1399.3803,44.12275222795688
1401.2278,-0.47379610185271304
1403.0745,36.397264791285124
1404.9204,47.93462247867501
1406.7656,98.38696416765197
1408.6101,89.15297658620693
1410.4538,132.13134547845948
1412.2968,219.22075569700246
1414.139,270.66989077312064
1415.9805,372.77743204588114
1417.8213,453.29205814766647
1419.6613,597.7624439830852
1421.5006,757.637259923833
1423.3391,1019.7651703639913
1425.1769,1342.5448321212716
1427.0139,1747.7748918157395
1428.8502,2260.603982642013
1430.6858,2831.2307203169657
1432.5206,3260.803697951438
1434.3547,3473.1714803439663
1436.188,3508.4325996850494
1438.0206,3435.5855534334896
1439.8524,3297.228803963764
1441.6835,3227.310779294494
1443.5139,3150.679874472011
1445.3435,3092.084452269547
1447.1724,3090.272843953534
1449.0005,3052.293349869561
1450.8279,2988.994239460493
1452.6545,2988.423751646259
1454.4804,3025.780095456852
1456.3056,3033.511450038026
1458.13,2979.7159642777433
1459.9536,2841.9917567288485
1461.7766,2578.986916147036
1463.5987,2271.5495028680834
1465.4202,1912.4775514379044
1467.2409,1607.919073686924
1469.0608,1371.3220623207935
1470.88,1156.8344939659837
1472.6984,964.4043315357385
1474.5161,780.5295263749658
1476.3331,627.1580201845318
1478.1493,551.8377468600138
1479.9648,468.31663402541017
1481.7795,413.59260378634644
1483.5935,360.66357356528897
1485.4067,322.07745664877893
1487.2192,306.4321627167319
1489.031,283.17559822829753
1490.842,255.85566657830532
1492.6522,229.82026832983593
1494.4618,230.6673014874159
1496.2705,236.04466175737252
1498.0785,233.000242539365
1499.8858,209.08193487260814
1501.6924,182.9376274663191
1503.4981,163.41520693890016
1505.3032,162.5125580793765
1507.1075,142.07756404262818
1508.911,128.60810635841153
1510.7138,113.15206513571593
1512.5159,67.05731919744812
1514.3172,60.021746235001046
1516.1178,33.193223269198825
1517.9176,21.16962672064892
1519.7166,6.998832678032159
1521.515,-24.671282981660625
1523.3126,-12.942844451426026
1525.1094,-11.26772945814173
1526.9055,-29.24768642967956
1528.7008,-23.284351229300228
1530.4954,-32.67906753587977
1532.2893,-35.232946417632775
1534.0824,-44.69677247889558
1535.8747,-27.370978346872107
1537.6663,-38.80555012801506
1539.4572,-12.500200492708245
1541.2473,7.1957455561068855
1543.0367,42.08308789248986
1544.8253,26.762626318536604
1546.6132,82.68516021552477
1548.4003,83.90148869710356
1550.1867,169.66241005007305
1551.9723,245.71872172221902
1553.7572,320.3212194647067
1555.5414,438.1206965715155
1557.3247,544.0179431334191
1559.1074,681.0637448599855
1560.8893,814.258882020612
1562.6705,917.504128074057
1564.4509,1068.700248336494
1566.2305,1166.947998949061
1568.0094,1228.2481253658925
1569.7876,1241.8013613716412
1571.565,1248.4084284684814
1573.3417,1260.9700357405736
1575.1176,1270.3868797879986
1576.8928,1280.8096446011405
1578.6672,1231.4390014665169
1580.4409,1217.5756088625549
1582.2138,1207.4201129532921
1583.986,1208.02314772701
1585.7575,1229.385335097796
1587.5282,1262.7572848995005
1589.2981,1349.389594672125
1591.0673,1382.2328493280947
1592.8358,1485.5876202859454
1594.6035,1557.7544651418903
1596.3704,1623.2839266362735
1598.1366,1706.2765319319124
1599.9021,1809.6827919587895
1601.6668,1917.9532005841284
1603.4308,2028.0382335783297
1605.194,2189.0383475322596
1606.9564,2359.403978756406
1608.7182,2587.7855416708753
1610.4791,2867.383427101733
1612.2394,3099.9479999971936
1613.9988,3361.1295966316384
1615.7576,3627.478522279969
1617.5156,3790.8950486057984
1619.2728,3945.329410997948
1621.0293,3992.6318069362987
1622.785,3909.852394447442
1624.54,3708.941291631657
1626.2942,3462.598577490696
1628.0477,3170.4742939369
1629.8005,2917.2684482566356
1631.5525,2675.1810160315254
1633.3037,2465.0119436705063
1635.0542,2299.0111508307145
1636.804,2195.7785325191644
1638.553,2118.8639607527584
1640.3013,2112.41728559062
1642.0488,2096.288335903234
1643.7955,2164.2269194369164
1645.5416,2244.6828229751027
1647.2868,2344.1058116589584
1649.0313,2461.8956281828223
1650.7751,2622.951991799978
1652.5181,2795.074597144757
1654.2604,2982.063112621976
1656.0019,3226.7671786857054
1657.7427,3487.5364059693948
1659.4828,3803.620372838821
1661.222,3951.2686227844006
1662.9606,3916.380661260354
1664.6984,3725.305954208211
1666.4354,3342.593928405703
1668.1717,2835.3439733774994
1669.9072,2318.255445222332
1671.642,1894.4776716854985
1673.3761,1522.159957329748
1675.1094,1270.7515877730566
1676.8419,1039.1018334118025
1678.5737,857.7099519348494
1680.3048,722.6751906400477
1682.0351,632.2467882481524
1683.7646,528.5239762531701
1685.4934,475.2559798266475
1687.2215,434.9420188548902
1688.9488,358.98130847164884
1690.6754,324.7230594612565
1692.4012,306.9164790182376
1694.1263,270.56077108988757
1695.8506,265.8551365543417
1697.5742,228.74877358412596
1699.297,201.09087769321832
1701.0191,180.08064210811062
1702.7404,164.96725804438483
1704.461,121.4499149168214
1706.1808,121.62780049052981
1707.8999,98.65010131612507
1709.6182,109.66600272794585
1711.3358,95.32468907382918
1713.0527,70.9253436049521
1714.7688,73.26714861924756
1716.4841,71.74928570539669
1718.1987,64.4709357194115
1719.9126,61.73127879981166
1721.6257,29.3794944404126
1723.338,59.064761517711304
1725.0496,33.98625861441633
1726.7605,53.893163722585086
1728.4706,63.484654494419374
1730.18,45.859908043188625
1731.8886,36.41810084731878
1733.5964,42.208408926638185
1735.3036,38.08000793679548
1737.0099,39.33207311135811
1738.7156,32.21377930309609
1740.4204,-9.775699028539748
1742.1246,7.8128122537600575
1743.8279,3.378584946540286
1745.5306,3.9208907682141216
1747.2325,2.8890014034186606
1748.9336,-21.16781150241968
1750.634,-34.25027633276204
1752.3336,-30.258910004635254
1754.0325,-6.143887274808549
1755.7307,-3.1050806135481253
1757.4281,9.507698886314756
1759.1247,-7.4053288482973585
1760.8206,8.706056014464593
1762.5158,6.592147285682586
1764.2102,0.4532386893806688
1765.9039,-9.310376116336556
1767.5968,13.651596522105137
1769.289,10.789543268935631
1770.9804,15.953850651869288
1772.6711,12.794905090728207
1774.361,11.46309284580002
1776.0502,13.008800049421552
1777.7386,16.33241271930092
1779.4263,26.984316743061754
1781.1132,35.56489784500627
1782.7994,31.574541479599247
1784.4849,27.51363274565483
1786.1696,40.0325564262439
1787.8535,38.83169702930354
1789.5367,51.46143866244438
1791.2192,40.872165044967005
1792.9009,35.414259381555894
1794.5818,45.98810446817879
1796.2621,60.84408274666566
1797.9415,42.63257619896285
1799.6202,54.953966198585476
1801.2982,75.40863369271938
1802.9755,62.24695907901241
1804.6519,72.3193220010262
1806.3277,64.42610147986125
1808.0027,63.81767581342683
1809.6769,74.14442265537491
1811.3504,84.25671902118847
1813.0231,76.70494118491297
1814.6951,74.93946457802394
1816.3664,101.1606638649514
1818.0369,89.21891296073181
1819.7067,112.31458476880198
1821.3757,110.84805130040877
1823.044,95.36968344365823
1824.7115,115.82985097817573
1826.3783,99.9789227298943
1828.0443,112.61726636645199
1829.7096,106.09524855569771
1831.3741,117.96323483930883
1833.0379,124.9715896980133
1834.701,120.07067643290839
1836.3633,132.61085709537383
1838.0248,130.49249253608423
1839.6856,125.61594227960632
1841.3457,133.2815645455844
1843.005,127.13971629750222
1844.6636,149.3907531660302
1846.3214,142.78502951044493
1847.9785,144.82289819611606
1849.6349,159.25471066056753
1851.2904,167.88081689309638
1852.9453,173.4515652904538
1854.5994,160.31730257058462
1856.2528,180.1283737169224
1857.9054,190.9851221097283
1859.5572,194.08788932798006
1861.2083,199.58701504080682
1862.8587,185.38283697645875
1864.5084,181.87569086732037
1866.1572,185.06591059194807
1867.8054,203.7038282101439
1869.4528,194.63977393105233
1871.0994,193.02407592678355
1872.7453,198.6570604230501
1874.3905,184.48905171532624
1876.0349,212.72037211251654
1877.6786,198.90134207863775
1879.3215,207.5322799505052
1880.9637,215.4135020759186
1882.6051,220.74532272735996
1884.2458,205.17805402317526
1885.8858,195.86200587425992
1887.525,204.24748613972997
1889.1634,209.78480072008233
1890.8011,215.52425347333974
1892.4381,203.56614615968238
1894.0743,210.21077838404653
1895.7098,209.15844771570892
1897.3446,216.0594496218373
1898.9786,204.26407747801795
1900.6118,211.0726224992436
1902.2443,222.88537385786685
1903.8761,223.1526186155147
1905.5071,212.52464160496584
1907.1374,218.30172542747368
1908.7669,215.68415055904597
1910.3957,218.6721952926764
1912.0237,204.616135764516
1913.651,198.71624592399576
1915.2776,210.52279767438904
1916.9034,205.5360609318068
1918.5285,191.60630350714018
1920.1528,190.28379115591906
1921.7764,203.86878771761076
1923.3992,200.71155512884434
1925.0213,181.36235328756402
1926.6427,169.37144008459836
1928.2633,154.33907159715545
1929.8832,202.4155022087307
1931.5023,194.70098475942768
1933.1207,181.9957700652012
1934.7383,187.50010699499444
1936.3552,187.76424259779606
1937.9714,189.6384220475952
1939.5868,169.72288864074108
1941.2015,162.11788377719904
1942.8154,160.27364715970907
1944.4286,152.44041686983292
1946.041,154.46842938639747
1947.6528,152.35791966382658
1949.2637,147.30912111186217
1950.8739,158.8722656166674
1952.4834,149.24758359131738
1954.0921,158.03530386016428
1955.7001,157.18565375508797
1957.3074,157.59885902761516
1958.9139,142.0751438574198
1960.5197,146.56473084818663
1962.1247,137.3678411828496
1963.729,127.43469457869833
1965.3325,115.96550937934398
1966.9353,151.71050265405347
1968.5374,126.96989031243947
1970.1387,130.14388674701058
1971.7393,115.88270508057758
1973.3392,135.13655713451453
1974.9383,114.45565357137048
1976.5366,117.64020370232993
1978.1342,109.19041569402316
1979.7311,117.8064965366807
1981.3273,112.48865212862893
1982.9227,116.1370871901322
1984.5173,111.75200531656901
1986.1112,121.88360894195057
1987.7044,114.48209938276659
1989.2968,107.49767673667156
1990.8885,112.5805399564988
1992.4795,117.33088692010779
1994.0697,104.34891437955412
1995.6592,114.93481791358772
1997.2479,117.68879205746907
1998.8359,106.46103019711427
2000.4232,110.85172454155054
2002.0097,91.51106623519672
2003.5955,91.28924531395523
2005.1805,97.58645089862193
2006.7648,120.85287119709756
2008.3484,97.33869344142204
2009.9312,123.09410365510621
2011.5133,103.96928688827666
2013.0946,116.61442696011909
2014.6752,101.12970665012745
2016.2551,127.8653075716511
2017.8342,110.02141032674353
2019.4126,97.94819423880745
2020.9902,93.29583753103134
2022.5672,94.96451744712203
2024.1433,101.9044102978296
2025.7188,105.06569144426066
2027.2935,103.5485352284818
2028.8674,100.85311494190137
2030.4406,93.32960284044839
2032.0131,87.07817017151956
2033.5849,88.04898724921577
2035.1559,104.39222351685748
2036.7261,98.55804753727762
2038.2957,107.09662682938779
2039.8645,99.15812792652105
2041.4325,111.84271629104524
2042.9998,94.35055639374787
2044.5664,101.9818115869939
2046.1323,122.83664427964095
2047.6974,104.2652158607334
2049.2617,105.36768649095029
2050.8254,116.59421528832218
2052.3883,114.89496031720182
2053.9504,108.32007847600335
2055.5118,101.0197255141893
2057.0725,97.89405609802498
2058.6325,109.89322388357687
2060.1917,90.36738154797331
2061.7502,100.11668066941047
2063.3079,95.89127192241176
2064.8649,102.64130498033683
2066.4212,111.21692855763104
2067.9767,106.86829034232915
2069.5315,90.59553691029487
2071.0856,99.94881376871353
2072.6389,81.92826551881399
2074.1915,84.33403576233877
2075.7433,78.66626728174742
2077.2945,84.57510201616242
2078.8448,91.1606811180427
2080.3945,70.523144894099
2081.9434,70.91263273943878
2083.4916,77.67928334393946
2085.039,68.2232346883552
2086.5857,83.59462397664674
2088.1317,77.44358773054182
2089.677,87.37026163582414
2091.2215,85.5747806038421
2092.7652,67.70727867224196
2094.3083,72.26788902292446
2095.8506,87.4067441607167
2097.3921,92.82397586776915
2098.933,76.7697150521667
2100.4731,71.34409169375431
2102.0124,82.94723500468172
2103.5511,91.52927348365756
2105.089,95.69033479991913
2106.6261,93.08054570741479
2108.1626,85.40003200319097
2109.6983,89.39891855348696
2111.2332,96.72732937054525
2112.7675,81.23538757261895
2114.301,86.22321531068883
2115.8337,96.740933923385
2117.3657,94.43866388710194
2118.897,96.26652471082889
2120.4276,85.624634959167
2121.9575,93.01311223405582
2123.4866,95.78207328118788
2125.0149,91.48163391612434
2126.5426,83.01190899660878
2128.0695,86.32301246556744
2129.5956,86.31505743580965
2131.1211,85.48815615691547
2132.6458,86.19242001531393
2134.1698,90.47795954255298
2135.693,79.2448844082569
2137.2155,83.64330337727279
2138.7373,100.67332442199904
2140.2584,91.78505467840296
2141.7787,81.42860027571942
2143.2983,95.75406642533198
2144.8171,81.26155752434124
2146.3353,82.00117701230647
2147.8527,81.07302751617408
2149.3693,85.37721084287523
2150.8853,88.11382798861405
2152.4005,83.33297909582188
2153.9149,75.18476342579288
2155.4287,93.01927940649193
2156.9417,91.2866247140355
2158.454,91.08689609435032
2159.9655,75.72018938049678
2161.4764,86.3865994946691
2162.9865,91.73622060186108
2164.4958,92.06914600320033
2166.0045,84.53546808245392
2167.5124,100.08527830269622
2169.0195,79.6686672816495
2170.526,82.3857246361813
2172.0317,79.28653918647615
2173.5367,80.22119892885985
2175.0409,88.23979106679576
2176.5445,92.79240200153572
2178.0473,93.57911725193571
2179.5494,82.35002140892789
2181.0507,79.45519812765474
2182.5513,87.29473023976016
2184.0512,83.96869978233781
2185.5504,95.87718791953398
2187.0488,72.42027497581057
2188.5465,89.59804031685894
2190.0435,78.06056258416766
2191.5397,82.8079195232458
2193.0353,84.19018809899899
2194.5301,88.50744444825477
2196.0241,77.20976386594043
2197.5175,80.69722076190897
2199.0101,82.36988877391832
2200.502,74.37784073275384
2201.9931,63.92114864550422
2203.4835,61.399883775480475
2204.9733,65.21411674678325
2206.4622,69.01391756951534
2207.9505,63.49935560163908
2209.438,64.52049951097842
2210.9248,68.1774173303645
2212.4109,69.37017644742537
2213.8962,63.64884356801372
2215.3809,67.6634847042817
2216.8648,57.41416523189264
2218.3479,69.90094984987559
2219.8304,49.27390268311933
2221.3121,46.53308715750404
2222.7931,53.97856620617222
2224.2733,48.8604022969364
2225.7529,55.778657357824386
2227.2317,44.33339282826114
2228.7098,56.32466958988425
2230.1872,56.50254808099771
2231.6638,52.26708817666008
2233.1397,51.96834918690638
2234.6149,70.15638989909962
2236.0894,37.53126858092014
2237.5632,46.9930427984857
2239.0362,49.99176974260149
2240.5085,37.977506134142686
2241.9801,33.75030819406834
2243.4509,40.61023176356275
2244.921,37.657332346308976
2246.3904,29.54166503988813
2247.8591,41.01328456530905
2249.3271,32.32224534816487
2250.7943,31.768601403917046
2252.2608,33.052406424805895
2253.7266,41.77371378538669
2255.1917,49.93257652969078
2256.656,37.57904728401445
2258.1197,29.16317817532945
2259.5826,25.985020954817628
2261.0447,52.34462708202841
2262.5062,41.19204775666367
2263.9669,40.72733365497879
2265.4269,40.95053504130874
2266.8862,38.0117017727182
2268.3448,35.160883296767224
2269.8026,45.698128680900254
2271.2598,47.7734866409528
2272.7162,38.387005435781475
2274.1719,29.038732846508083
2275.6268,35.0787162703848
2277.0811,53.55700281427653
2278.5346,49.173639234262055
2279.9874,48.92867175085098
2281.4395,51.42214609281859
2282.8908,42.20410749965481
2284.3414,48.724600696629295
2285.7914,48.63366998697097
2287.2406,29.38135918666285
2288.689,41.667711625352695
2290.1368,48.34277033887406
2291.5838,52.10657794638519
2293.0302,52.80917658361682
2294.4758,36.50060786523454
2295.9206,41.73091287781267
2297.3648,44.35013234292023
2298.8082,49.75830656481821
2300.251,51.15547540426587
2301.693,51.29167822444174
2303.1343,50.21695387697082
2304.5748,52.88134070056094
2306.0147,41.73487653175266
2307.4538,51.5275986782724
2308.8922,53.35954403049823
2310.3299,47.380748963533506
2311.7669,53.99124931888673
2313.2031,52.69108046426118
2314.6387,44.33027722744646
2316.0735,39.30887390932435
2317.5076,35.22690436747462
2318.941,36.93440206638911
2320.3737,55.38140011829137
2321.8056,49.517931266061396
2323.2369,43.79402769876401
2324.6674,47.05972111028677
2326.0972,44.21504275657708
2327.5263,45.26002342298489
2328.9547,62.044693452711954
2330.3823,48.56908273635827
2331.8092,55.78322054407931
2333.2355,40.13713566034062
2334.661,38.43085631177678
2336.0858,50.964410323650554
2337.5098,56.68782513691622
2338.9332,60.55112768288609
2340.3558,39.65434432599409
2341.7778,35.3475008251628
2343.199,42.63062254277202
2344.6195,54.853734487726115
2346.0393,53.366861242624054
2347.4583,58.52002684152808
2348.8767,70.26325478483227
2350.2943,58.34656798773085
2351.7113,64.76998866278609
2353.1275,56.88353843909408
2354.543,64.63723829805099
2355.9578,64.83110865221784
2357.3718,59.21516926778463
2358.7852,52.58943926263191
2360.1978,53.603937162489046
2361.6098,52.15868096719237
2363.021,44.65368814054091
2364.4315,66.33897562474522
2365.8413,62.61455991548041
2367.2504,62.83045684503327
2368.6587,51.08668161954324
2370.0664,55.733248816845844
2371.4733,51.670172503909725
2372.8795,41.7474661903716
2374.285,47.8151428691674
2375.6899,48.7232151157591
2377.0939,51.971695027458054
2378.4973,45.66059421434102
2379.9,50.989923766768925
2381.3019,54.45969431849835
2382.7032,43.36991599338671
2384.1037,48.07059837069505
2385.5035,45.011750595986086
2386.9027,47.9933813341172
2388.3011,49.0154987998294
2389.6987,56.57811072793106
2391.0957,53.43122436307726
2392.492,45.97484638414198
2393.8876,35.408982935686254
2395.2824,35.93363970252335
2396.6765,39.298822015376345
2398.07,55.20453484563177
2399.4627,36.8507827716885
2400.8547,42.08756981990018
2402.246,49.464899648113715
2403.6366,43.23277549330237
2405.0265,45.24120009779017
2406.4156,40.640175771574604
2407.8041,41.429704372241304
2409.1918,39.95978735097674
2410.5789,38.18042574466767
2411.9652,48.09162019060432
2413.3508,39.44337094427374
2414.7358,36.03567778024603
2416.12,38.71854007865886
2417.5035,38.19195685929526
2418.8863,43.55592675475327
2420.2684,51.360448015715065
2421.6497,42.505518457304106
2423.0304,33.24113538104325
2424.4104,37.717295663399454
2425.7896,45.73399584842991
2427.1682,49.94123210301882
2428.546,48.28900013671068
2429.9232,37.42729515963674
2431.2996,40.95611189903934
2432.6753,43.575444707889346
2434.0503,44.73528752959737
2435.4246,42.185633871819846
2436.7982,33.57647679486104
2438.1711,33.00780893717001
2439.5433,43.22962260143163
2440.9148,33.14190976025179
2442.2856,32.84466195394111
2443.6557,42.1878703913917
2445.025,38.771525953048695
2446.3937,43.395619097479084
2447.7617,31.660139895535167
2449.1289,43.315077984113714
2450.4955,50.110422683509114
2451.8613,40.29616288086663
2453.2265,43.42228696222833
2454.5909,32.48878291067376
2455.9546,39.84563827506099
2457.3177,38.09284027935996
2458.68,42.2803757490849
2460.0416,44.35823112882258
2461.4025,43.62639244035472
2462.7627,37.83484526188295
2464.1222,54.48357473534543
2465.4811,54.17256562433272
2466.8392,52.25180214759985
2468.1966,53.221267982177096
2469.5533,51.03094628257645
2470.9093,56.93081967109788
2472.2645,59.82087025973283
2473.6191,60.60107959116476
2474.973,53.92142860986837
2476.3262,52.13189765430889
2477.6787,65.83246652373623
2479.0305,65.82311449608301
2480.3816,50.90382019095682
2481.7319,57.774561569734715
2483.0816,56.48531608475582
2484.4306,55.73606061061423
2485.7789,52.62677145705197
2487.1264,55.15742437644997
2488.4733,55.17799459492244
2489.8195,61.33845678700948
2491.165,50.53878507547233
2492.5097,55.828952969687975
2493.8538,47.30893347364656
2495.1972,48.42869903304904
2496.5398,49.58822162050751
2497.8818,47.53747272434725
2499.2231,51.42642333701167
2500.5637,51.4050439755697
2501.9035,52.22330464282663
2503.2427,54.98117482753855
2504.5812,57.628623496228215
2505.919,46.91561906560776
2507.256,69.29212937610305
2508.5924,50.65812179898501
2509.9281,42.01356301260262
2511.2631,50.25841918872413
2512.5974,54.042656078983555
2513.9309,53.566238932430224
2515.2638,58.87913245768834
2516.596,61.13130082771954
2517.9275,52.172707626694546
2519.2583,58.2533158274714
2520.5884,54.773087881181596
2521.9178,49.03198565642424
2523.2465,56.97997047406875
2524.5745,47.86700316466499
2525.9018,55.943043988964064
2527.2284,53.558052729048086
2528.5543,59.51198860756881
2529.8796,56.25481031159802
2531.2041,48.83647593308763
2532.5279,64.85694300144087
2533.851,64.81616855769846
2535.1735,60.41410899433083
2536.4952,67.5507200556475
2537.8163,70.27595688181782
2539.1366,70.73977393750386
2540.4562,57.592124984608745
2541.7752,64.38296307763801
2543.0935,66.51224069517593
2544.411,67.57990967197748
2545.7279,78.58592117767523
2547.0441,65.03022570610267
2548.3596,71.9127729652347
2549.6744,74.68351201274413
2550.9885,77.09239118717608
2552.3019,69.68935808024162
2553.6146,84.02435951272798
2554.9266,74.54734160852922
2556.2379,76.8582496512962
2557.5485,87.0070281792066
2558.8585,77.79362096185673
2560.1677,80.31797089877239
2561.4762,68.23002011154324
2562.7841,80.72970991857926
2564.0913,82.96698095599004
2565.3977,78.3917730525892
2566.7035,81.35402520752018
2568.0086,93.10367563600914
2569.313,89.79066173974206
2570.6167,87.96491998936813
2571.9197,75.97638595763101
2573.222,85.92499433762498
2574.5236,88.51067906268156
2575.8246,84.43337320688181
2577.1248,86.49300895920021
2578.4244,82.58951766427799
2579.7232,94.97282980182615
2581.0214,94.84287502566099
2582.3189,100.79958203987121
2583.6157,96.04287860011698
2584.9118,107.52269145406285
2586.2072,99.38894638894578
2587.5019,101.99156811677562
2588.7959,103.63048035567328
2590.0893,108.10560580384413
2591.3819,109.21686612318933
2592.6739,115.16418189455453
2593.9652,117.3474726066172
2595.2557,108.71665659641246
2596.5456,125.12165102750146
2597.8348,116.86237197627929
2599.1234,120.18873426792481
2600.4112,126.70065155899431
2601.6983,125.54803630415688
2602.9848,128.38079969107548
2604.2705,124.39885165193289
2605.5556,123.65210083510442
2606.84,122.09045464497694
2608.1237,121.71381924941693
2609.4067,121.92209959538661
2610.689,127.26519941271079
2611.9707,118.59302121199312
2613.2516,119.75546623118566
2614.5319,114.75243452231075
2615.8115,110.68382493983643
2617.0903,114.24953519070618
2618.3685,111.94946187502592
2619.6461,123.08350045040675
2620.9229,116.50154525496544
2622.199,117.65348939598425
2623.4745,122.13922481573059
2624.7493,120.60864227993682
2626.0234,107.71163133294363
2627.2968,109.74808031300495
2628.5695,119.36787648125949
2629.8415,116.17090600136476
2631.1128,118.25705384330035
2632.3835,121.02620381533666
2633.6535,115.22823854317369
2634.9228,116.46303944224996
2636.1914,120.08048677572174
2637.4593,116.08045964211499
2638.7265,107.76283593915093
2639.9931,108.97749240374628
2641.259,119.1243046951895
2642.5242,115.85314738299462
2643.7887,118.3638938454327
2645.0525,117.406416302244
2646.3156,115.98058578952987
2647.5781,115.736272169328
2648.8398,100.42334414387017
2650.1009,111.99166925802535
2651.3613,113.0411140524294
2652.6211,114.32154394780162
2653.8801,108.88282323445026
2655.1385,108.57481505946873
2656.3961,110.24738148112203
2657.6531,106.45038347192781
2658.9094,103.58368090192994
2660.1651,120.09713257666817
2661.42,111.69059626584635
2662.6743,117.9139285381973
2663.9279,129.6169848455479
2665.1808,126.64961946058679
2666.433,121.46168535983304
2667.6846,126.35303425330949
2668.9354,132.77351663642253
2670.1856,131.37298174104785
2671.4351,133.95127747132676
2672.6839,137.50825041767018
2673.9321,140.79374583097706
2675.1795,141.65760758706313
2676.4263,138.34967815380753
2677.6724,145.51979858251332
2678.9179,152.51780854098718
2680.1626,141.54354624183748
2681.4067,156.64684837249547
2682.6501,154.27755020495704
2683.8928,145.3354854447498
2685.1348,137.17048625462553
2686.3761,138.7323833439816
2687.6168,137.02100605051078
2688.8568,131.1861823245821
2690.0961,131.6277387463549
2691.3348,132.39550058412692
2692.5727,126.339291789919
2693.81,125.40893499179697
2695.0466,122.15425155443381
2696.2826,120.8250615884134
2697.5178,126.52118398277742
2698.7524,127.89243641831729
2699.9863,128.68863531061288
2701.2195,120.4595957963204
2702.452,125.05513172520966
2703.6839,137.2750557424556
2704.9151,146.11917924268232
2706.1456,143.13731224776325
2707.3755,155.22926331838062
2708.6046,146.34483958384328
2709.8331,154.1338466211679
2711.0609,176.99608854392272
2712.2881,178.68136792433813
2713.5145,180.73948556468372
2714.7403,195.27024048041574
2715.9654,200.12342987959585
2717.1899,209.4988490175832
2718.4136,223.19629114850318
2719.6367,229.31554743149263
2720.8591,229.00640679372657
2722.0809,252.21865586922468
2723.3019,259.45207900194225
2724.5223,266.40645801364883
2725.7421,280.881572131593
2726.9611,270.4771979189602
2728.1795,271.29310913012023
2729.3972,255.9290768146709
2730.6142,252.38486930928013
2731.8306,235.06025239132452
2733.0462,230.0549893143325
2734.2612,212.0188409812299
2735.4756,189.4515659943935
2736.6892,178.50292083601175
2737.9022,165.47266009375778
2739.1145,154.76053657027649
2740.3262,133.7663014134862
2741.5372,122.23970422370041
2742.7475,111.38049326356997
2743.9571,104.43841557334895
2745.1661,94.96321707948687
2746.3744,95.15464266404933
2747.582,79.36243625946997
2748.7889,72.33634084663606
2749.9952,61.87609861281078
2751.2008,58.88145102189446
2752.4057,54.40213891902681
2753.61,43.93790256053296
2754.8136,35.63848165871673
2756.0165,42.90361548650367
2757.2188,41.68304296043436
2758.4204,39.97650256801353
2759.6213,36.083732379916
2760.8215,32.354470067052034
2762.0211,29.838452939494914
2763.22,23.9854179837738
2764.4182,28.345101888033582
2765.6158,31.567241100564956
2766.8127,25.301571786207774
2768.009,19.447829794130143
2769.2045,11.705750720484957
2770.3994,16.5750699669469
2771.5936,14.005522818133272
2772.7872,-6.653155607089047
2773.9801,-10.201230329907958
2775.1723,-10.338899906486972
2776.3639,-14.26626098269935
2777.5548,-8.933306918808057
2778.745,-16.439888555129073
2779.9346,-17.13576748824255
2781.1235,-14.120541080242106
2782.3117,-11.693635506904911
2783.4992,-19.00433587980308
2784.6861,-10.151810491089918
2785.8723,-3.78503777960384
2787.0579,-4.002894767596217
2788.2428,2.74577933520834
2789.427,-2.5378146919963456
2790.6106,9.047523902526336
2791.7935,15.603021223281985
2792.9757,22.229903284300804
2794.1573,17.929395943583813
2795.3382,29.0027248368325
2796.5184,40.45111542045515
2797.698,48.82579286083262
2798.8769,55.77798191983504
2800.0551,66.10890687107599
2801.2327,83.51979143038852
2802.4096,96.6618586525176
2803.5859,103.38633075700989
2804.7615,122.49442899679309
2805.9364,128.63737359093466
2807.1106,147.0163835335568
2808.2842,179.78267653240948
2809.4572,209.98746882507987
2810.6294,225.0319748513275
2811.801,261.467406951038
2812.972,303.0949752137774
2814.1423,334.21588711443746
2815.3119,375.88134709696146
2816.4808,416.8425562631335
2817.6491,453.30071195592495
2818.8167,503.65700734988184
2819.9837,554.362631086543
2821.15,595.1187667708776
2822.3157,649.426592464229
2823.4807,692.4872802767527
2824.645,751.601995824339
2825.8086,794.1718977980067
2826.9716,847.5981373727536
2828.134,903.9318577818592
2829.2957,927.5741937826214
2830.4567,963.0762710930208
2831.617,971.0392061552956
2832.7767,982.0641057809225
2833.9358,986.4020670709866
2835.0941,975.1041773059321
2836.2519,970.1715139021829
2837.4089,945.6551445251214
2838.5653,928.3061271384145
2839.7211,929.6755102491788
2840.8761,925.5143330814686
2842.0306,940.773625562584
2843.1843,964.0544083646826
2844.3374,997.4576927521852
2845.4899,1036.5844803489695
2846.6417,1093.2357628043364
2847.7928,1146.5625214017423
2848.9433,1218.915726492286
2850.0931,1279.6463369614412
2851.2422,1332.1052995055254
2852.3907,1381.893548024392
2853.5385,1448.0120030968433
2854.6857,1503.1615714827453
2855.8323,1541.4431454618455
2856.9781,1574.9576022822753
2858.1233,1636.4058037777354
2859.2679,1677.4385960323507
2860.4118,1726.1568087661885
2861.555,1766.5612549249308
2862.6976,1795.0027301926907
2863.8395,1834.4820125879705
2864.9808,1861.0498621792444
2866.1214,1881.757020690167
2867.2614,1873.7542112338947
2868.4007,1903.6921381060142
2869.5393,1918.1714868645709
2870.6773,1924.292924030688
2871.8146,1946.207096943775
2872.9513,1938.6146337003124
2874.0874,1921.8661429347096
2875.2227,1928.9622138952313
2876.3574,1910.6534166114802
2877.4915,1866.2903018234374
2878.6249,1846.9234011645503
2879.7577,1823.5532276053632
2880.8898,1808.6802756471877
2882.0212,1798.6050215558028
2883.152,1780.277923510185
2884.2821,1776.6994217032616
2885.4116,1759.719938525181
2886.5405,1765.5398785990983
2887.6686,1783.7096289509686
2888.7962,1786.3795589513493
2889.923,1795.6500201337008
2891.0493,1799.3213461676896
2892.1748,1799.5438527664815
2893.2997,1814.3178376500298
2894.424,1826.393580542849
2895.5476,1835.3713430262767
2896.6706,1861.7013684177143
2897.7929,1882.8338816808498
2898.9145,1918.919089162357
2900.0355,1931.4571783805727
2901.1559,1955.5483176646421
2902.2756,1992.4926560291399
2903.3946,2028.9403229331565
2904.513,2050.841427910857
2905.6308,2092.446060207003
2906.7479,2102.3042885579425
2907.8643,2122.5161607755626
2908.9801,2159.881703648708
2910.0953,2145.700922741061
2911.2098,2142.323802017488
2912.3236,2123.0503039858468
2913.4368,2122.630369730756
2914.5494,2120.763919106332
2915.6613,2100.450850740389
2916.7725,2079.4410420530994
2917.8831,2055.4343494601294
2918.9931,2007.5806085827342
2920.1024,1980.079634487826
2921.211,1958.5812221665121
2922.319,1949.7351468091024
2923.4264,1941.391164020095
2924.5331,1938.0990099066366
2925.6391,1919.1084011619637
2926.7445,1919.9690350983221
2927.8493,1913.9305898368746
2928.9534,1909.2927242990925
2930.0569,1933.1550782671434
2931.1597,1931.4172724302666
2932.2619,1928.6789081461525
2933.3634,1939.9895674583174
2934.4643,1918.2488131234893
2935.5645,1927.8061884985013
2936.6641,1883.9612177576987
2937.763,1862.0134057973646
2938.8613,1806.1122386741704
2939.959,1779.9571838246536
2941.056,1713.0976906242313
2942.1523,1650.083190648747
2943.248,1567.2130983430693
2944.3431,1503.6868116512335
2945.4375,1391.9537128451457
2946.5313,1302.7131691598424
2947.6244,1210.1145339108248
2948.7169,1129.8571473864622
2949.8087,1027.0903377739794
2950.8999,937.5634219620301
2951.9904,873.825706568365
2953.0803,815.9764888351006
2954.1696,770.6650572660972
2955.2582,718.3406922054503
2956.3462,669.1526662906052
2957.4335,633.2502449756015
2958.5202,596.1826870229515
2959.6062,571.2992448626661
2960.6916,563.7491649629296
2961.7764,538.9816880789338
2962.8605,532.6460493283802
2963.9439,519.7914784391525
2965.0267,504.7171998126747
2966.1089,512.7724326524561
2967.1905,503.05639111483504
2968.2714,501.86828422842507
2969.3516,504.7073159912767
2970.4312,516.0726853827571
2971.5102,513.663586335161
2972.5885,530.3792076200564
2973.6662,532.2687328723755
2974.7432,519.5813404232589
2975.8196,524.46620328116
2976.8954,523.1224892587193
2977.9705,508.1993609239164
2979.045,502.8459756135053
2980.1188,498.91148558224756
2981.192,478.295038056444
2982.2645,465.6957752732816
2983.3364,448.51283468699705
2984.4077,424.59534909486865
2985.4783,402.24244680904735
2986.5483,376.2532518957304
2987.6177,344.2768843986911
2988.6864,315.7624605991698
2989.7545,299.0590933356393
2990.8219,269.5658922889477
2991.8887,243.2819641493528
2992.9548,211.70641291145364
2994.0204,184.6383401370298
2995.0852,163.87684527079716
2996.1495,141.02102591108837
2997.2131,120.46997801746772
2998.276,106.42279613929009
2999.3383,79.77857362121074
3000.4,69.18640274365748
3001.4611,54.54537498927243
3002.5215,47.754581148833836
3003.5812,38.913111467666624
3004.6404,28.77005571355039
3005.6989,18.974503265133194
3006.7567,7.9755432133633235
3007.8139,5.022264459443818
3008.8705,-2.386244175177467
3009.9264,-4.650893919275177
3010.9818,-7.022572163045311
3012.0364,-3.8021198342538014
3013.0905,-9.490307705171006
3014.1439,-14.437868564890437
3015.1966,-5.8954403943318425
3016.2487,-11.413516940108025
3017.3002,-6.3425330533821125
3018.3511,-7.382809564283093
3019.4013,-0.034603941035072694
3020.4509,-7.4980998975945
3021.4998,-6.973480802224856
3022.5481,2.539144882828225
3023.5958,-0.26026163960801796
3024.6428,0.6782608079026318
3025.6892,10.104676002809754
3026.735,10.668947715780916
3027.7802,16.221039616437224
3028.8247,19.610915267710766
3029.8685,23.388538070323648
3030.9118,32.853871228888636
3031.9544,41.10687771413359
3032.9963,51.99752016824766
3034.0376,43.92576082235183
3035.0783,49.79156138759174
3036.1184,60.59488313585564
3037.1578,74.38568684111613
3038.1966,65.21393267139734
3039.2348,75.47958005086645
3040.2723,75.78258775155166
3041.3092,85.22291379068542
3042.3455,91.50051542767483
3043.3811,85.26534906969755
3044.4161,81.81737020892672
3045.4505,79.55653348488192
3046.4842,88.08279271890922
3047.5173,91.99610093678933
3048.5498,84.34641028347545
3049.5816,81.13367198395946
3050.6128,84.20783641976948
3051.6434,82.96885316109723
3052.6734,87.16667093605633
3053.7027,81.80123764307189
3054.7314,86.32250030890236
3055.7594,81.4804051422941
3056.7868,73.92489748876841
3057.8136,84.10592187904257
3058.8398,74.92342210458509
3059.8653,76.22734111580553
3060.8902,86.66762111387914
3061.9145,79.39420353770794
3062.9381,78.20702895951803
3063.9612,80.40603715759386
3064.9835,78.89116712814956
3066.0053,70.16235706333907
3067.0264,71.4195443664048
3068.0469,65.71266573896548
3069.0668,70.14165716844468
3070.086,65.2564539851391
3071.1046,60.10699081792933
3072.1226,55.893201643131306
3073.1399,60.415019835991245
3074.1567,51.62237821282338
3075.1727,49.21520898579206
3076.1882,40.79344385083755
3077.203,35.40701401174857
3078.2173,36.50585026437943
3079.2308,34.639883050514584
3080.2438,33.00904244687993
3081.2561,23.91325818380284
3082.2678,18.90245966152014
3083.2789,15.22657604113644
3084.2893,13.935536294731719
3085.2991,12.929269242120313
3086.3083,12.057703563761322
3087.3169,8.120767810821206
3088.3248,9.018390413889591
3089.3321,3.8504997223484168
3090.3388,-0.6829760046041997
3091.3449,3.3178914537250535
3092.3503,-2.2469628590404795
3093.3551,0.8223960675435933
3094.3593,-0.8240743089194211
3095.3629,5.9135834609498374
3096.3658,-1.8146649409670204
3097.3681,-0.9088538919243092
3098.3698,1.2810003593265264
3099.3708,1.3548906434842536
3100.3713,-4.537190221562355
3101.3711,-3.0952494314732917
3102.3702,0.5307511446215472
3103.3688,4.490880559134041
3104.3667,2.5352025622721612
3105.364,-0.4362191406648037
3106.3607,-0.5733208697295709
3107.3568,-4.526034587145631
3108.3522,1.4557134723388288
3109.347,2.5720422890610735
3110.3412,3.4230708288013147
3111.3348,-1.2910819683805244
3112.3277,5.6797028033448385
3113.32,4.235556947715509
3114.3117,3.476612211672773
3115.3028,1.6530002998024997
3116.2932,7.114852881924406
3117.2831,2.912301611328388
3118.2723,6.095478070155735
3119.2608,6.664513811424911
3120.2488,10.66954032719974
3121.2361,8.460689042898935
3122.2229,10.538091277245996
3123.209,9.251878264357572
3124.1944,10.552181132969423
3125.1793,15.739130919298645
3126.1635,14.462858554040565
3127.1471,15.723494810499204
3128.1301,11.171170317349919
3129.1125,14.40601554603333
3130.0942,13.678160856278396
3131.0753,14.437736463754078
3132.0558,19.384872447347504
3133.0357,16.419698741568723
3134.015,17.142345087079036
3134.9936,18.502941060342962
3135.9716,17.40161606640163
3136.949,22.33849932526674
3137.9258,21.91371988293399
3138.902,26.877406562013974
3139.8775,22.929687965980236
3140.8524,24.520692429532318
3141.8267,26.300548058072877
3142.8004,27.669382711797766
3143.7735,27.877323987897483
3144.7459,27.57449920686868
3145.7178,31.31103541043491
3146.689,32.58705936457466
3147.6596,29.7026975221562
3148.6295,31.508076010177177
3149.5989,33.053320658608314
3150.5676,35.938556982339705
3151.5357,37.263910165728234
3152.5032,35.52950503374525
3153.4701,32.63546603872315
3154.4364,41.63191727769923
3155.402,39.26898252135628
3156.367,37.14678512405786
3157.3315,37.915448047477824
3158.2952,41.57509388182221
3159.2584,38.02584483814255
3160.221,44.16782271173952
3161.1829,46.101148917655365
3162.1442,44.62594442925412
3163.105,49.69232975888838
3164.065,48.75042497265128
3165.0245,48.55034963971273
3165.9834,42.64222284173838
3166.9416,49.07616317489036
3167.8993,53.2022888089086
3168.8563,52.92071742277142
3169.8127,54.93156616343431
3170.7684,52.284951648645645
3171.7236,60.18098994683812
3172.6782,54.569796603594945
3173.6321,55.451486562689446
3174.5854,60.876174222197015
3175.5381,63.54397342567823
3176.4902,62.1549974079319
3177.4417,58.45935876831713
3178.3926,62.5071694846431
3179.3428,61.29854095012534
3180.2924,62.48358393290772
3181.2415,66.36240858814872
3182.1899,68.18512444617099
3183.1377,64.90184037367311
3184.0848,65.11266455550243
3185.0314,69.61770452748794
3185.9773,68.06706717433192
3186.9227,73.86085868455974
3187.8674,72.34918456602601
3188.8115,74.2321495879768
3189.755,70.70985779616638
3190.6979,72.0824124940275
3191.6402,74.44991627789432
3192.5818,75.51247102327697
3193.5229,72.07017786118637
3194.4633,82.47313716750874
3195.4031,78.57144859742853
3196.3423,80.86521098139885
3197.2809,80.05452236415826
3198.2189,81.63947998179333
3199.1563,82.5201802698453
3200.0931,81.34671884746066
3201.0292,82.46919050858412
3201.9648,82.18768923369315
3202.8997,83.20230817857335
3203.834,87.71313967713341
3204.7677,91.42027523125897
3205.7008,86.22380546570422
3206.6333,87.47382009102064
3207.5652,94.97040795552165
3208.4964,92.26365703278243
3209.4271,91.20365434667414
3210.3571,89.4904859984313
3211.2865,95.77423717725193
3212.2154,97.3049921774292
3213.1436,98.58283433551387
3214.0712,97.95784601500674
3214.9982,100.83010859358035
3215.9246,99.7997024693287
3216.8503,100.11670703204469
3217.7755,101.8812006735242
3218.7001,103.49326078439607
3219.624,107.70296373647702
3220.5473,103.96038486665122
3221.4701,105.41559843477316
3222.3922,110.16867766109345
3223.3137,110.01969471170676
3224.2346,107.5687206510209
3225.1549,109.06582544324674
3226.0746,107.61107797690796
3226.9937,112.70454604986995
3227.9121,114.54629638388727
3228.83,114.58639457366911
3229.7473,115.42490506846153
3230.6639,114.86189117164668
3231.5799,110.74741503235771
3232.4954,118.33153765110877
3233.4102,117.76431892093987
3234.3244,119.74581755157558
3235.238,122.07609107509731
3236.151,122.85519582612824
3237.0634,122.08318691853064
3237.9752,122.66011823761482
3238.8864,126.1360424478592
3239.797,121.76101098714103
3240.7069,127.2850740319771
3241.6163,128.40828054127402
3242.5251,127.43067820108769
3243.4332,128.85231341339107
3244.3408,129.27323130585046
3245.2477,132.19347571760886
3246.154,135.61308919507707
3247.0598,133.28211296273096
3247.9649,131.7005868889156
3248.8694,131.66854950915484
3249.7733,135.78603804196655
3250.6766,136.9530883891832
3251.5793,138.31973509477672
3252.4814,135.88601133318815
3253.3829,142.00194889566126
3254.2838,137.76757821457954
3255.1841,139.68292830230698
3256.0838,138.09802679353174
3256.9829,141.21289992611273
3257.8814,143.02757255692853
3258.7792,145.44206813072867
3259.6765,144.70640866198698
3260.5731,146.37061471075646
3261.4692,143.33470539002616
3262.3647,147.0986983490788
3263.2595,143.81260980385005
3264.1538,145.47645449928856
3265.0474,145.1902457422169
3265.9404,149.50399538469293
3266.8329,146.81771382687216
3267.7247,148.28140997386998
3268.616,151.5450912626245
3269.5066,146.8087636472598
3270.3966,147.57243156644884
3271.286,149.4860979907769
