RamanShift,CorrectedData
30.1047,2181.663758418855
32.3739,2036.8049662455255
34.6426,1888.896152255558
36.9109,1741.1372742642657
39.1787,1592.1282711979993
41.4461,1450.9690645717362
43.7131,1303.809559979171
45.9796,1158.4496485043064
48.2456,1014.0392081930495
50.5112,869.6281055068087
52.7764,729.6661967666007
55.0411,582.3533295971608
57.3054,437.83934432656184
59.5692,286.7740754593432
61.8326,152.9573531216506
64.0955,13.189004571889171
66.3579,-128.4811444611096
68.6199,-256.40326838040414
70.8815,-378.0262580624201
73.1426,-443.24644291493155
75.4032,-377.3063758633957
77.6634,8.355818198694578
79.9231,1163.0057836685412
82.1824,3839.8591648597885
84.4412,8831.981594456025
86.6995,15815.788666742248
88.9574,22555.995887683635
91.2148,27228.718605087488
93.4717,29430.321941201153
95.7282,29833.070745984773
97.9842,29701.42957509529
100.2398,29061.912685858937
102.4949,28323.484038587652
104.7495,27474.557302974245
107.0036,26635.545865476684
109.2573,25746.512837807382
111.5105,24852.171065323277
113.7632,24005.383135916192
116.0154,23301.66138895624
118.2672,22764.767923759697
120.5185,22201.814606626234
122.7693,21690.213076207838
125.0197,21261.224749138353
127.2696,20840.810825149496
129.519,20602.582291360734
131.7679,20299.999926483426
134.0163,20011.17430320311
136.2642,19700.315791205343
138.5117,19361.034560063916
140.7587,19031.340582349483
143.0052,18685.84363702235
145.2512,18308.05331272942
147.4967,17947.929011259163
149.7417,17674.679951319526
151.9863,17416.915172139154
154.2304,17245.493536199898
156.4739,16996.173731814473
158.717,16821.664274840652
160.9596,16473.473511174467
163.2017,16133.509618495314
165.4433,15712.030609747864
167.6844,15220.194336541677
169.925,14838.758493366022
172.1651,14361.13062250822
174.4047,13964.668117868016
176.6439,13545.878229733844
178.8825,13219.968068747454
181.1206,12955.294610091834
183.3582,12647.314696750282
185.5954,12447.685042153149
187.832,12230.062233257642
190.0681,12106.952732544121
192.3037,11999.412880192325
194.5388,11853.498895312463
196.7734,11835.016877020633
199.0075,11798.772805897928
201.2411,11844.272544175286
203.4742,11752.571836095907
205.7068,11830.026307460279
207.9389,11850.691466543165
210.1704,11902.42270331907
212.4015,11900.775289255582
214.632,11973.004376796074
216.862,12061.114999376165
219.0915,12081.312070701435
221.3205,12211.750383866318
223.549,12357.684611152132
225.777,12567.16930272269
228.0044,12831.25888516497
230.2314,13158.70765939426
232.4578,13447.819798013257
234.6837,13706.499342037581
236.909,13805.300198004665
239.1339,13698.07613538695
241.3582,13433.730785603875
243.582,12953.51764309414
245.8053,12535.090067959134
248.0281,12134.101290765087
250.2503,11818.804416727311
252.472,11577.652429720127
254.6932,11460.648195429814
256.9139,11248.594463766138
259.134,11217.143870032392
261.3536,11084.548937045929
263.5727,11098.162075452672
265.7912,10956.185585053066
268.0092,10928.47165466593
270.2267,10793.52236354823
272.4436,10638.439681672224
274.6601,10526.275471074952
276.8759,10354.681487409067
279.0913,10262.159381064459
281.3061,10119.460698884222
283.5204,10065.686885089845
285.7341,10037.839282708226
287.9473,10123.169134109396
290.16,10291.477581285002
292.3721,10494.815664994996
294.5837,10807.58432308457
296.7947,11056.134388450751
299.0052,11151.266585914747
301.2152,10946.731529736408
303.4246,10577.779722662915
305.6334,9969.661557974166
307.8418,9386.27732317224
310.0495,8911.477206062622
312.2568,8491.961300588026
314.4635,8164.479611576395
316.6696,8004.782058936071
318.8752,7850.868480930607
321.0802,7806.538635775738
323.2847,7829.342203178518
325.4887,7823.628784780631
327.692,7688.14790393033
329.8949,7519.0990057395775
332.0972,7170.731458438877
334.2989,6861.094555067755
336.5001,6480.2875169584295
338.7007,6222.659496832188
340.9008,6071.959582607433
343.1003,5850.786799975993
345.2992,5774.59011391011
347.4976,5663.4684308741635
349.6955,5597.670599586636
351.8927,5627.245412131337
354.0895,5493.591604615391
356.2856,5521.957856873472
358.4812,5437.042793804339
360.6763,5414.394985087172
362.8707,5346.462946030737
365.0646,5311.445137799852
367.258,5227.589968094697
369.4508,5146.845791501015
371.643,5207.1609103286355
373.8346,5146.283575418962
376.0257,5089.311985541764
378.2162,4905.494288003996
380.4062,4801.878579219512
382.5956,4568.112906547205
384.7844,4419.1452693272
386.9726,4254.423621218521
389.1603,4166.445871688724
391.3474,4062.3098876611366
393.5339,4029.1134943946345
395.7199,3835.454476524985
397.9052,3866.6305783968455
400.09,3817.739506000329
402.2743,3874.4289266592605
404.4579,3846.796469520079
406.641,4040.989724984949
408.8235,4184.956244988076
411.0054,4408.393541053803
413.1868,4804.3990828569
415.3675,5082.070295988226
417.5477,5201.154557994636
419.7273,5191.0991956023245
421.9064,5014.051483525942
424.0848,4886.508644569156
426.2627,4601.367851395124
428.4399,4277.226227801937
430.6166,3863.6808515739976
432.7928,3479.6787577234572
434.9683,3086.8169426256645
437.1432,2835.392367859182
439.3176,2647.0019641344043
441.4914,2409.242633807822
443.6645,2379.9612527659046
445.8371,2236.804672802704
448.0091,2132.2197219126792
450.1806,2061.603205722251
452.3514,1964.651908535663
454.5216,1977.662594041136
456.6913,1816.8320062803832
458.8603,1824.306869518503
461.0288,1884.2338898522794
463.1967,1828.2597551354374
465.3639,1942.1811343793743
467.5306,1969.4446783129097
469.6967,2078.7970182430618
471.8622,2179.1847657824037
474.0271,2320.2545117555637
476.1914,2306.7028251953197
478.3551,2272.2762519319185
480.5182,2238.2213147285656
482.6807,2236.284513625713
484.8426,2310.8623262816145
487.0039,2590.951207991686
489.1647,2926.547590942715
491.3248,3369.3478814119953
493.4843,3541.498456411344
495.6432,3501.9456592591123
497.8015,3376.7857978586617
499.9592,3376.6151450938996
502.1163,3254.0799400808974
504.2728,3020.476388169558
506.4287,2698.5006621689936
508.5839,2262.9989046835617
510.7386,1948.3672313326206
512.8927,1736.9017351055554
515.0461,1635.79848950807
517.199,1565.1535506768814
519.3512,1543.1129583907095
521.5029,1632.0227367767511
523.6539,1689.6788945310982
525.8043,1694.9774240296138
527.9541,1686.8643007513892
530.1033,1644.1354832257384
532.2519,1641.9369131133608
534.3999,1756.914515633609
536.5472,2004.264199586487
538.694,2450.38185620285
540.8401,2997.2633566709337
542.9856,3450.9545476751555
545.1305,3590.151245927318
547.2748,3480.5492336296993
549.4185,3116.6442570830695
551.5615,2743.8320277827333
553.704,2616.108226057542
555.8458,2533.968504798042
557.987,2555.0084907337077
560.1276,2500.17378525433
562.2675,2617.4099641996363
564.4069,2617.6125784076357
566.5456,2602.1271525422344
568.6837,2570.99918509123
570.8212,2238.1241485211576
572.958,1905.197489588565
575.0942,1564.7646326687682
577.2299,1359.8209830851301
579.3648,1306.9619305133747
581.4992,1332.882851031045
583.6329,1526.6791076460759
585.766,1701.8960500376088
587.8985,1845.329012618
590.0304,1834.0733127806561
592.1616,1757.6242494657126
594.2922,1660.8771032725817
596.4222,1455.3271372244344
598.5515,1298.7695977356889
600.6802,1120.9497166674955
602.8083,926.7127128933134
604.9358,871.103794077113
607.0626,774.2181586157421
609.1888,782.150996195036
611.3144,736.4974887586432
613.4393,591.5028104287194
615.5636,567.912127962456
617.6873,475.8206022020313
619.8103,369.5733883105204
621.9327,270.2656366928277
624.0544,245.84249405811352
626.1756,250.19910441290267
628.2961,179.030609305315
630.4159,114.13214778148904
632.5351,92.99885709727096
634.6537,16.17587336719589
636.7716,14.408331775823171
638.8889,60.49120591071551
641.0056,130.16932542021095
643.1216,112.38751934773245
645.237,98.69061543501448
647.3518,85.323440299926
649.4659,121.73081957346221
651.5793,97.70757803336528
653.6922,106.59853924011259
655.8043,104.0985257770808
657.9159,99.85235916168676
660.0268,7.854859870352811
662.137,-56.64915261898204
664.2466,-37.56493729844442
666.3556,-47.8471872351256
668.4639,-87.50022022240591
670.5716,5.922123939719313
672.6786,44.31687957845497
674.785,72.13102185896423
676.8907,114.66152550326296
678.9958,221.8053645120599
681.1002,200.40951173947178
683.204,183.92093782156735
685.3072,144.18661139031246
687.4097,82.80349923847825
689.5115,50.01856671698988
691.6127,9.578778348739434
693.7132,-45.968901843552885
695.8131,-20.277605529186985
697.9123,-23.700005148130003
700.0109,-71.43857056709385
702.1089,-88.99553488974561
704.2061,-82.87241754843853
706.3028,-23.9198489101218
708.3987,47.71236855367897
710.4941,118.82467133074533
712.5887,298.66749543172773
714.6827,560.7912756790611
716.7761,895.4464439085241
718.8688,1284.3334263480028
720.9608,1448.0526402709293
723.0522,1563.0544901074136
725.1429,1390.4393658070476
727.233,1125.1576416888856
729.3224,956.0096781675929
731.4112,674.9958244062727
733.4993,449.96642000793145
735.5867,299.22179782562307
737.6735,223.21228621275804
739.7596,145.58821053053543
741.845,101.89989390803748
743.9298,72.34765801849062
746.014,52.48182351614014
748.0974,88.10271033175377
750.1802,96.61063787129387
752.2624,79.30592465969676
754.3439,108.88888825581307
756.4247,161.75984542542574
758.5048,284.3191118454524
760.5843,516.2670015752083
762.6631,815.8038258308479
764.7413,1259.5298906658463
766.8188,1898.3454939756703
768.8956,2332.8509210604643
770.9718,2628.096438236935
773.0473,2444.132288493289
775.1221,2149.2086885367753
777.1962,1820.2758306333417
779.2697,1610.7838855568407
781.3426,1668.833005878394
783.4147,1884.6233280612723
785.4862,2177.754971880422
787.557,2229.128038264589
789.6271,1898.5426063649575
791.6966,1367.0987330414318
793.7654,848.1464561685352
795.8335,542.1857999498097
797.901,367.4167801073527
799.9678,315.38940694143093
802.0339,280.8036870781434
804.0993,355.1596239896826
806.1641,360.6572183402386
808.2282,287.24646724240665
810.2916,174.67736420220535
812.3544,174.74989985321372
814.4164,77.46406308224323
816.4778,133.21984102860733
818.5385,115.86722005700722
820.5986,161.90618519995041
822.658,339.23672033130424
824.7166,434.95880770586155
826.7747,695.7224261860792
828.832,962.8275502848119
830.8886,1067.324147557727
832.9446,1224.862175932205
834.9999,1252.2915826623976
837.0545,1270.4623027538473
839.1085,1264.7742586891945
841.1618,1212.4273602464855
843.2143,1151.4215045560268
845.2662,1071.956576623863
847.3175,1022.882449941826
849.368,927.098987282181
851.4179,831.1560411883875
853.467,685.4534549329292
855.5155,624.6910634767337
857.5633,530.1686949262184
859.6105,439.6861711409001
861.6569,343.44330867861936
863.7027,363.88991970038114
865.7478,378.8258129327587
867.7922,426.30079346343337
869.8359,408.8646625918336
871.8789,579.8172173543753
873.9212,728.8082506988576
875.9629,879.3875497749104
878.0039,1106.304894444118
880.0441,1256.160055774173
882.0837,1266.452793769764
884.1226,1205.0828558739595
886.1609,1114.649976865323
888.1984,1044.3038794716122
890.2352,1119.1442752740659
892.2714,1083.2708654109192
894.3069,1086.583339828965
896.3416,1005.431377642315
898.3757,979.8146470992579
900.4091,973.5828063937734
902.4418,1037.735503921689
904.4739,1045.3723783430323
906.5052,1078.443057940447
908.5358,1028.3471605428895
910.5658,867.634293194893
912.595,649.9040526575372
914.6236,533.9060270155533
916.6515,543.9397978546549
918.6786,517.1549414214933
920.7051,602.8510285233424
922.7309,784.0776247959075
924.756,806.984289846434
926.7804,943.1705754413815
928.8041,846.486025277376
930.8272,950.8801736193564
932.8495,845.0025462674203
934.8711,803.6026595128751
936.892,629.0300211970134
938.9123,517.8841311251163
940.9318,439.1644828121789
942.9506,325.32056459434534
944.9688,269.4518604161458
946.9862,215.95785096890177
949.003,91.93801424941557
951.019,95.24182609494892
953.0344,130.66876142338515
955.0491,181.7682942001702
957.063,305.3398970841008
959.0763,435.0830409162918
961.0888,466.8971934844776
963.1007,633.1318182255636
965.1119,666.2863739074928
967.1223,706.5103129669187
969.1321,738.1530811776174
971.1412,789.5641172482756
973.1495,799.3928525060728
975.1572,860.8887103825509
977.1641,931.0011063153324
979.1704,895.9794471331516
981.1759,895.6231303547429
983.1808,969.3315445390581
985.1849,1042.4540692888113
987.1884,1191.2900745133957
989.1911,1392.038919697672
991.1932,1546.1499524136088
993.1945,1608.2225063127953
995.1951,1493.705899585333
997.1951,1474.9494343391234
999.1943,1452.7523977450073
1001.1928,1404.0140622243562
1003.1906,1376.6336856710295
1005.1877,1455.8605119387612
1007.1841,1416.3937711149483
1009.1798,1351.7326787284255
1011.1748,1167.8764361441135
1013.1691,968.9242312095994
1015.1627,748.7752400937388
1017.1556,519.5286292761484
1019.1477,443.1335577486825
1021.1392,338.3391793079318
1023.1299,314.5946433191493
1025.12,325.3990957642127
1027.1093,421.50167947904265
1029.0979,521.3015340456004
1031.0859,581.6977948308377
1033.0731,611.8895919887218
1035.0596,509.07604985623766
1037.0454,362.8562866515058
1039.0304,265.22941550187534
1041.0148,107.49454590615278
1042.9985,6.150784710873268
1044.9814,40.24723768762124
1046.9636,-79.51705083836714
1048.9452,-58.24303694430637
1050.926,27.669117667890532
1052.9061,-43.53016685575494
1054.8855,-12.290470645886671
1056.8642,62.13906103318732
1058.8421,142.95940569896993
1060.8194,175.57154024757256
1062.7959,202.62644014553007
1064.7717,284.5750791036844
1066.7469,292.7684288066084
1068.7213,286.40745809314103
1070.695,330.3931328744475
1072.6679,216.27641619763017
1074.6402,244.20826780586503
1076.6117,246.83964527955322
1078.5826,264.47150375702404
1080.5527,277.85479590822797
1082.5221,364.99047175843225
1084.4908,571.8294785543403
1086.4587,706.1727598927573
1088.426,839.8212536522151
1090.3925,835.3258906495321
1092.3584,835.5875933033312
1094.3235,690.0072756789741
1096.2879,639.1358434859612
1098.2515,670.1241955337391
1100.2145,790.2232242404061
1102.1767,850.3338153228433
1104.1382,1007.9568465956763
1106.099,1228.5931873702175
1108.0591,1428.0436968782378
1110.0185,1617.5592220655672
1111.9771,1676.5905955976232
1113.9351,1439.738633964229
1115.8923,1176.3541368893275
1117.8488,932.0878896994691
1119.8045,622.7906659576693
1121.7596,538.2632299060606
1123.7139,460.7063395588848
1125.6675,468.8707475477677
1127.6204,566.1072018972736
1129.5726,533.0164459432781
1131.524,576.9492173605904
1133.4748,596.1562484938695
1135.4248,517.9382659182993
1137.3741,525.2459902475057
1139.3226,496.6301369157336
1141.2705,543.9414161047971
1143.2176,421.5305330301853
1145.164,444.44818746799865
1147.1097,469.99507497903323
1149.0546,482.2218866796029
1150.9989,422.02930898607156
1152.9424,294.16802349258796
1154.8852,151.88870757300538
1156.8272,55.69203565953285
1158.7686,49.328680665479624
1160.7092,27.5993149472597
1162.6491,32.504610367996065
1164.5883,124.89523851484773
1166.5267,182.82187064992831
1168.4644,391.83517678641874
1170.4014,600.6858251092926
1172.3377,884.2244798851716
1174.2732,1124.2017993738555
1176.2081,1423.8184329928881
1178.1421,1690.9250189178128
1180.0755,1925.7721810859803
1182.0082,2063.9605265255123
1183.9401,2073.790643006814
1185.8713,1921.013097660696
1187.8017,1730.9284368800872
1189.7315,1513.537187847789
1191.6605,1178.0398604373113
1193.5888,961.7369493868246
1195.5163,874.578937654107
1197.4432,776.6162985795636
1199.3693,778.5994967578517
1201.2947,746.4789890174543
1203.2193,709.505224400873
1205.1432,745.5786444858277
1207.0664,760.4496837549959
1208.9889,818.1687692352752
1210.9106,867.9363203490648
1212.8316,848.7527483371086
1214.7519,950.9684557607688
1216.6715,960.1838366939082
1218.5903,1008.3992757007036
1220.5084,994.665147743508
1222.4257,1018.631817700676
1224.3424,983.9496405039354
1226.2583,1048.668960898689
1228.1735,1143.540113790863
1230.0879,1213.0634235997022
1232.0016,1340.8392033090713
1233.9146,1401.5177537721938
1235.8269,1311.64936243392
1237.7384,1255.384302723931
1239.6492,1105.1228349554403
1241.5592,964.4652068878022
1243.4686,939.6616552291598
1245.3772,919.8124070430349
1247.285,928.6676799963352
1249.1922,881.6776825578454
1251.0986,963.5926139096955
1253.0042,947.9126644172502
1254.9092,982.6880148099408
1256.8134,1125.3688363380752
1258.7169,1285.0552904251308
1260.6196,1414.1975272408927
1262.5216,1646.2956841046143
1264.4229,1859.2498841935849
1266.3234,2079.51023422214
1268.2232,2134.626822312115
1270.1223,2124.2997157902537
1272.0207,2160.5289606370534
1273.9183,2121.114581589998
1275.8151,2083.0065817813193
1277.7113,2035.0049431320913
1279.6067,1894.409626733348
1281.5014,1862.2205733260853
1283.3953,1834.487704707215
1285.2885,1905.1609240514372
1287.181,1993.3401161885813
1289.0727,2164.025146896871
1290.9637,2265.365862021139
1292.854,2432.96208576599
1294.7435,2538.263619682366
1296.6323,2718.4702409916135
1298.5204,2967.1817015324596
1300.4077,3195.997725958947
1302.2943,3296.868009253314
1304.1802,3367.442214437833
1306.0653,3224.319971566103
1307.9497,3034.300877017293
1309.8333,2976.084494927396
1311.7162,2845.370359089393
1313.5984,2870.957973535449
1315.4798,2897.6968138440134
1317.3605,2980.2863268839646
1319.2405,3085.325930547224
1321.1197,3029.615012922848
1322.9982,2905.2029312466584
1324.876,2907.039012458328
1326.753,2762.5725544455017
1328.6293,2782.0028260254403
1330.5048,2823.479068389697
1332.3796,2734.1004949098133
1334.2537,2751.516290722513
1336.127,2738.275613623551
1337.9996,2701.527593893523
1339.8714,2737.2213344302654
1341.7426,2694.855911116363
1343.6129,2725.4803724621706
1345.4826,2685.3937400294926
1347.3515,2712.2950081253366
1349.2196,2665.333144202792
1351.087,2717.2070885920075
1352.9537,2765.8157549698117
1354.8197,2926.908029840968
1356.6849,3118.6827720520887
1358.5493,3205.8388111807217
1360.4131,3298.174945617582
1362.276,3275.1399416950007
1364.1383,3144.3325327635794
1365.9998,2971.8514194225063
1367.8606,2656.895270827663
1369.7206,2404.5627264164214
1371.5799,2162.7523990572154
1373.4384,2003.1128775728466
1375.2962,1898.74272915861
1377.1533,1616.29050097867
1379.0096,1286.8547212097874
1380.8652,1066.1339018658182
1382.7201,841.6765420920929
1384.5742,582.9311303726099
1386.4275,440.9961467746143
1388.2802,308.5700655360488
1390.132,208.8013564849025
1391.9832,181.93848636348412
1393.8336,76.92991982610329
1395.6832,79.77411970771209
1397.5322,29.51954807394941
1399.3803,58.21466619273997
1401.2278,-13.242064963178564
1403.0745,-0.852185003212071
1404.9204,-29.81710124853271
1406.7656,26.161778988203878
1408.6101,58.98334626718497
1410.4538,69.64649088698206
1412.2968,109.35010255634916
1414.139,113.8430702875703
1415.9805,290.874281999455
1417.8213,380.79262447238216
1419.6613,490.046981577987
1421.5006,661.9362333800018
1423.3391,930.7592550416848
1425.1769,1255.6649151069396
1427.0139,1766.6020728121002
1428.8502,2324.2695748368315
1430.6858,2910.266250194807
1432.5206,3311.2909046569875
1434.3547,3576.2923148917034
1436.188,3608.569224454375
1438.0206,3595.9703411375267
1439.8524,3440.2943366479813
1441.6835,3385.8898467328727
1443.5139,3320.905472736409
1445.3435,3234.939782143898
1447.1724,3217.091309231617
1449.0005,3188.6085559264484
1450.8279,3138.4899919843665
1452.6545,3126.9840552752794
1454.4804,3146.9891522841917
1456.3056,3183.303658226272
1458.13,3130.025916846822
1459.9536,2969.604240058101
1461.7766,2650.6869084721257
1463.5987,2260.5721730048754
1465.4202,1912.708258065477
1467.2409,1548.7433654573397
1469.0608,1370.3256778568066
1470.88,1107.9533624527867
1472.6984,898.824572730955
1474.5161,707.437451097454
1476.3331,608.9901309701836
1478.1493,493.13073869268374
1479.9648,448.5573945185897
1481.7795,375.4182137702355
1483.5935,330.5613072843844
1485.4067,274.03478214363895
1487.2192,264.28674212498845
1489.031,268.46528826508074
1490.842,231.66851895770924
1492.6522,225.4945299120027
1494.4618,221.64141452041258
1496.2705,210.45726392044526
1498.0785,203.1401670332125
1499.8858,189.93821067525278
1501.6924,184.64947963170744
1503.4981,199.7720567883316
1505.3032,220.904023184401
1507.1075,169.34345786147787
1508.911,178.03843765208512
1510.7138,169.98703769532221
1512.5159,107.98733134993199
1514.3172,100.08739027478805
1516.1178,73.83528504889728
1517.9176,46.679085250412754
1519.7166,38.06685971913976
1521.515,43.79667682809668
1523.3126,33.26660456964055
1525.1094,46.27471049817359
1526.9055,8.5690618354256
1528.7008,-5.902274659616523
1530.4954,-50.5912323136381
1532.2893,-28.549685489610056
1534.0824,-45.67900314409053
1535.8747,1.7697309777031478
1537.6663,-17.45411053621683
1539.4572,-14.851155115522488
1541.2473,1.1281441766623175
1543.0367,18.33348264025335
1544.8253,6.564555563885733
1546.6132,34.27105805287465
1548.4003,42.15268514688614
1550.1867,87.909131542885
1551.9723,163.0400915163118
1553.7572,249.74525846352117
1555.5414,277.07432415047697
1557.3247,355.3769778456917
1559.1074,418.10290604694455
1560.8893,509.3517916982473
1562.6705,606.373313562588
1564.4509,715.7671453094426
1566.2305,747.9829545445573
1568.0094,902.8704017160126
1569.7876,931.629139792065
1571.565,989.8088127122737
1573.3417,1030.7090550999183
1575.1176,1059.9294916802064
1576.8928,1023.0197368712561
1578.6672,930.329394491906
1580.4409,928.1080581308033
1582.2138,818.405312073306
1583.986,728.8207313237126
1585.7575,686.1038827022658
1587.5282,636.0543257410154
1589.2981,663.2216131109672
1591.0673,634.455291122591
1592.8358,683.4048994541408
1594.6035,742.8699714393279
1596.3704,757.1000335778281
1598.1366,776.294604940611
1599.9021,868.2031970276548
1601.6668,932.975313576002
1603.4308,1024.8104496406686
1605.194,1160.0580909469245
1606.9564,1301.9177129719537
1608.7182,1457.2887795923616
1610.4791,1628.5207416655849
1612.2394,1817.86303547617
1613.9988,2007.2150810234725
1615.7576,2297.7762801282133
1617.5156,2529.9960145389705
1619.2728,2746.073643026566
1621.0293,2862.708499061864
1622.785,2875.599888655006
1624.54,2776.7970891890564
1626.2942,2665.199349291088
1628.0477,2392.055889820207
1629.8005,2178.365904983528
1631.5525,2007.12856506762
1633.3037,1843.2930185753885
1635.0542,1709.258393938453
1636.804,1658.3238011555204
1638.553,1628.9883331327128
1640.3013,1600.8510661929122
1642.0488,1586.5110603691337
1643.7955,1642.317359685885
1645.5416,1699.8689923025704
1647.2868,1818.7149699554302
1649.0313,1948.5042873820275
1650.7751,2096.88592113278
1652.5181,2277.3588282730725
1654.2604,2485.2219448994347
1656.0019,2779.374184334816
1657.7427,3102.864435049947
1659.4828,3424.691557721828
1661.222,3623.90438199882
1662.9606,3623.1017032823784
1664.6984,3463.732280734921
1666.4354,3088.644837287855
1668.1717,2599.0880612352703
1669.9072,2091.2106099848133
1671.642,1683.3611149532535
1673.3761,1392.4381866452513
1675.1094,1127.240418731857
1676.8419,917.3163909597642
1678.5737,747.2646718032629
1680.3048,640.1338205634875
1682.0351,535.5223890689358
1683.7646,422.2789227467638
1685.4934,419.1519616689184
1687.2215,342.94004168455285
1688.9488,307.5416944513054
1690.6754,269.50544819742026
1692.4012,253.5298280757288
1694.1263,234.91335654401337
1695.8506,211.2045535247653
1697.5742,188.4519365913511
1699.297,155.3540212050939
1701.0191,144.60932094280724
1702.7404,143.01634782777
1704.461,99.12361243716441
1706.1808,83.67962391801848
1707.8999,82.98289042612487
1709.6182,67.28191928048
1711.3358,45.225216970251495
1713.0527,76.46128931179555
1714.7688,59.98864166921885
1716.4841,23.40577864201623
1718.1987,31.561204229807117
1719.9126,21.95342219815757
1721.6257,-8.619064002976302
1723.338,25.492248856842707
1725.0496,-3.6640498875240155
1726.7605,7.060628843875747
1728.4706,11.264910734846126
1730.18,-20.00257860140664
1731.8886,-13.743213664318318
1733.5964,-7.5081691275754565
1735.3036,8.101517629838781
1737.0099,-1.9151157644591876
1738.7156,11.390968236129993
1740.4204,-22.1811736897871
1742.1246,6.9175150224928075
1743.8279,-4.063687472405945
1745.5306,-4.925503089019912
1747.2325,-38.068613145658674
1748.9336,-27.24364975485514
1750.634,-37.100864723703125
1752.3336,-22.640237695239193
1754.0325,0.2886223251298361
1755.7307,0.336332507969928
1757.4281,11.953510020963222
1759.1247,16.340772028430365
1760.8206,20.998735575160026
1762.5158,70.02801754253414
1764.2102,24.729234601956705
1765.9039,6.00300272455388
1767.5968,32.19993763416642
1769.289,55.1706549945975
1770.9804,50.11577014766226
1772.6711,59.485897883474536
1774.361,55.83165249099511
1776.0502,76.30364766433013
1777.7386,92.40249653927276
1779.4263,75.52881148858432
1781.1132,105.93320396099989
1782.7994,87.11628464997011
1784.4849,97.27866318962697
1786.1696,93.37094834294112
1787.8535,107.19374790009533
1789.5367,99.24766871757129
1791.2192,110.03331657991293
1792.9009,78.85129627919196
1794.5818,120.00221150715697
1796.2621,140.1866651670498
1797.9415,122.4052589620951
1799.6202,146.00859319366828
1801.2982,128.29726693908378
1802.9755,132.12187781557986
1804.6519,149.73302215743934
1806.3277,118.88129497771115
1808.0027,140.76728979212749
1809.6769,149.9415989276149
1811.3504,136.4048133034321
1813.0231,159.25752233942512
1814.6951,168.90031409139556
1816.3664,193.13377502257208
1818.0369,217.05848990718187
1819.7067,188.37504158811862
1821.3757,173.23401073769855
1823.044,198.13597614448372
1824.7115,207.73151486470124
1826.3783,193.27120197322438
1828.0443,189.2056104676103
1829.7096,200.4853114127054
1831.3741,214.51087398130767
1833.0379,221.3828653413657
1834.701,207.00185051572407
1836.3633,210.96839231341255
1838.0248,227.43305147344108
1839.6856,227.9963866251419
1841.3457,252.30895412352038
1843.005,231.97130804362405
1844.6636,276.28399993740913
1846.3214,248.99757903712816
1847.9785,280.3125918121923
1849.6349,258.6295822420434
1851.2904,276.7990915030132
1852.9453,279.6716581851342
1854.5994,296.94781811045686
1856.2528,313.72810430431764
1857.9054,311.9130468225803
1859.5572,333.2531725838335
1861.2083,341.29900538753554
1862.8587,370.20106570062126
1864.5084,341.3598705770355
1866.1572,333.4759333687198
1867.8054,316.24976401401454
1869.4528,352.0818691165141
1871.0994,345.3727521173132
1872.7453,330.0729129366955
1874.3905,339.78284804122177
1876.0349,346.4530505967268
1877.6786,370.0340103712215
1879.3215,381.5262136681913
1880.9637,365.8801430907888
1882.6051,372.3962774269057
1884.2458,366.7250918056434
1885.8858,349.4670576321423
1887.525,386.32264264429523
1889.1634,372.0423110853326
1890.8011,353.926523335258
1892.4381,361.97573605366233
1894.0743,400.6904023608731
1895.7098,381.97097175746603
1897.3446,397.06788973712173
1898.9786,392.7815979738152
1900.6118,414.01253417084536
1902.2443,371.91113210369167
1903.8761,395.37782140772106
1905.5071,367.7630279991836
1907.1374,392.9671738405623
1908.7669,361.240677216706
1910.3957,384.48395248280394
1912.0237,337.9474103816401
1913.651,365.4814578111609
1915.2776,358.93649828984235
1916.9034,349.6629316813478
1918.5285,354.2611542599825
1920.1528,311.231558803418
1921.7764,350.02453454672286
1923.3992,313.39046761264854
1925.0213,309.3797406237045
1926.6427,292.842733068499
1928.2633,283.37982134184676
1929.8832,322.9913789101365
1931.5023,307.2277764059636
1933.1207,304.1893812320104
1934.7383,321.4765577186945
1936.3552,321.2896671545386
1937.9714,302.37906761330487
1939.5868,270.7451139558625
1941.2015,253.03815801929522
1942.8154,246.05854893323522
1944.4286,246.20663329694162
1946.041,237.2327552490915
1947.6528,220.98725646629646
1949.2637,239.07047625284758
1950.8739,238.83275170316392
1952.4834,235.22441752096074
1954.0921,244.44580602162569
1955.7001,225.04724716830424
1957.3074,219.77906847968734
1958.9139,208.99159522399896
1960.5197,224.2351504716762
1962.1247,190.41005520324416
1963.729,207.01662815688178
1965.3325,192.95518616666232
1966.9353,198.57604399649608
1968.5374,184.429514480752
1970.1387,196.51590846803356
1971.7393,173.83553496265904
1973.3392,177.88870100378608
1974.9383,157.92571189222235
1976.5366,148.4468711498921
1978.1342,169.45248071946207
1979.7311,165.84284105913503
1981.3273,180.51825093258867
1982.9227,166.62900744507624
1984.5173,138.72540589668006
1986.1112,134.35773992119266
1987.7044,144.07630176515795
1989.2968,142.2313823315444
1990.8885,146.2232710825583
1992.4795,147.30225605809483
1994.0697,128.9686238358163
1995.6592,138.7226595203665
1997.2479,143.7146469267027
1998.8359,159.79486848256147
2000.4232,134.31360517853773
2002.0097,141.92113640728167
2003.5955,113.56774021830734
2005.1805,98.40369324192397
2006.7648,128.8292709727575
2008.3484,119.34474792140554
2009.9312,135.65039731017077
2011.5133,137.14649116791406
2013.0946,131.983300166994
2014.6752,135.5110936083065
2016.2551,136.0801394729233
2017.8342,135.64070438680574
2019.4126,129.04305361511706
2020.9902,111.737451066615
2022.5672,141.82415935962763
2024.1433,150.05343999511388
2025.7188,129.57555305579262
2027.2935,126.04075712385747
2028.8674,129.0993094857413
2030.4406,105.75146616747406
2032.0131,124.34748190409573
2033.5849,130.1376103731318
2035.1559,126.1221040086375
2036.7261,122.70121394329362
2038.2957,128.77519004856458
2039.8645,122.5442809689066
2041.4325,150.95873406102328
2042.9998,142.16879545618121
2044.5664,134.92470977606354
2046.1323,116.52672022066508
2047.6974,126.12506864074385
2049.2617,132.21999572178538
2050.8254,118.211740888034
2052.3883,144.05054224153355
2053.9504,119.73663670221595
2055.5118,127.07025974951193
2057.0725,113.55164566548319
2058.6325,128.13102746149616
2060.1917,139.15863701340277
2061.7502,146.88470491574662
2063.3079,118.70946037148497
2064.8649,120.88313111473235
2066.4212,123.95594369251285
2067.9767,140.62812344302347
2069.5315,137.79989446490072
2071.0856,110.4214794505042
2072.6389,83.44309971419625
2074.1915,91.61497546612827
2075.7433,86.48732608202045
2077.2945,88.66037002144276
2078.8448,91.88432487909267
2080.3945,80.2594073630662
2081.9434,96.23583326261814
2083.4916,78.16381756440933
2085.039,80.89357429274332
2086.5857,98.27531669028849
2088.1317,98.05925719078186
2089.677,84.8956072452047
2091.2215,94.93457732395018
2092.7652,76.8263770484582
2094.3083,94.22121509082444
2095.8506,94.41929935488679
2097.3921,103.62083680226988
2098.933,112.32603345040661
2100.4731,111.13509428052566
2102.0124,103.04822315060028
2103.5511,117.01562280725375
2105.089,124.68749496662804
2106.6261,117.11404017471068
2108.1626,113.195457730616
2109.6983,109.58194576231745
2111.2332,133.42370126584046
2112.7675,111.12092014139216
2114.301,126.9737969549451
2115.8337,119.88252516126522
2117.3657,115.34729694537691
2118.897,122.56830329348941
2120.4276,131.24573403833438
2121.9575,123.87977778696586
2123.4866,120.42062183398048
2125.0149,131.5184522351774
2126.5426,99.52345384215187
2128.0695,101.73581019131052
2129.5956,114.70570382383357
2131.1211,109.13331626354193
2132.6458,104.4188278872034
2134.1698,138.3124179802544
2135.693,135.81426478394678
2137.2155,143.2245451564122
2138.7373,141.24343459763531
2140.2584,137.12110717536325
2141.7787,121.25773554490206
2143.2983,112.05349099035357
2144.8171,95.10854358324468
2146.3353,117.9730622745692
2147.8527,111.54721506423812
2149.3693,109.73116877243046
2150.8853,114.82508910385968
2152.4005,108.42914066592311
2153.9149,124.24348691777686
2155.4287,118.66829023428545
2156.9417,118.85371174787997
2158.454,107.39991140431266
2159.9655,114.95704796080281
2161.4764,123.67527910057015
2162.9865,113.90476135727204
2164.4958,128.99565002780946
2166.0045,107.94809927004098
2167.5124,114.81226195186628
2169.0195,125.53828986170993
2170.526,137.27633363987115
2172.0317,121.77654267127036
2173.5367,110.78906496806485
2175.0409,125.21404732465089
2176.5445,130.80163542753144
2178.0473,119.85197371107824
2179.5494,136.21520530164707
2181.0507,133.99147212707794
2182.5513,127.08091475306173
2184.0512,142.533672405375
2185.5504,110.19988303898526
2187.0488,104.1296831835275
2188.5465,111.27320826664163
2190.0435,116.88059267466951
2191.5397,98.90196968122473
2193.0353,106.83747139111802
2194.5301,91.3372289201393
2196.0241,84.7013723157088
2197.5175,93.93003071187195
2199.0101,102.42333239566369
2200.502,91.1814047148182
2201.9931,79.00437399284147
2203.4835,83.24236564142439
2204.9733,64.54550428221728
2206.4622,96.6139137044479
2207.9505,90.64771705188923
2209.438,70.9470365021798
2210.9248,73.66199332647875
2212.4109,95.04270808648062
2213.8962,79.9393006072628
2215.3809,80.05188976347381
2216.8648,87.78059363037073
2218.3479,77.92552948269349
2219.8304,84.78681371737775
2221.3121,68.86456195210621
2222.7931,62.00888895669368
2224.2733,61.46990881231113
2225.7529,71.09773498004142
2227.2317,85.89248030627186
2228.7098,66.9542569264122
2230.1872,52.93317611695056
2231.6638,69.22934848483465
2233.1397,63.04288410768049
2234.6149,57.62389237081243
2236.0894,77.8224820291307
2237.5632,65.73876126129653
2239.0362,72.72283746774929
2240.5085,51.52481739154018
2241.9801,37.84480704849739
2243.4509,57.032911939199494
2244.921,45.28923718577926
2246.3904,56.113887340041856
2247.8591,44.95696650090167
2249.3271,51.86857820613295
2250.7943,42.498825543942075
2252.2608,42.447811083850866
2253.7266,47.71563697039801
2255.1917,57.30240492364328
2256.656,47.90821618649261
2258.1197,44.033171428828155
2259.5826,41.327370841450374
2261.0447,58.94091417483196
2262.5062,53.373900766169754
2263.9669,54.17642936325046
2265.4269,53.74859818012874
2266.8862,42.99050488909279
2268.3448,57.70224662494957
2269.8026,69.18392009260197
2271.2598,56.335621419935705
2272.7162,62.007446042997344
2274.1719,56.34948883447714
2275.6268,66.16184404699561
2277.0811,78.04460536967963
2278.5346,46.497865830040155
2279.9874,72.7217176751401
2281.4395,96.91625268706821
2282.8908,58.78156192069537
2284.3414,73.51773546173172
2285.7914,73.6748628080727
2287.2406,58.653032722437274
2288.689,75.9523332307972
2290.1368,38.72285177259437
2291.5838,64.51467502775222
2293.0302,55.42788928896289
2294.4758,64.36258020377545
2295.9206,66.86883286546072
2297.3648,58.29673172366256
2298.8082,78.99636055933797
2300.251,72.96780257047749
2301.693,56.21114016511001
2303.1343,72.17645502158575
2304.5748,74.6138282561451
2306.0147,68.82334026326453
2307.4538,73.50507069128389
2308.8922,55.65909850031039
2310.3299,67.48550191540335
2311.7669,68.53435860502896
2313.2031,56.75574556279935
2314.6387,57.29973909698538
2316.0735,54.81641494830228
2317.5076,58.60584828447054
2318.941,61.76811372504653
2320.3737,70.80328530352881
2321.8056,77.31143643573841
2323.2369,40.04263982946304
2324.6674,68.84696741937887
2326.0972,66.07449073973703
2327.5263,64.27528063631871
2328.9547,74.24940729416176
2330.3823,67.14694025555536
2331.8092,73.56794832029436
2333.2355,73.21249961670628
2334.661,77.53066153744248
2336.0858,78.37250074302983
2337.5098,70.8880831186907
2338.9332,74.02747376592697
2340.3558,81.94073707735834
2341.7778,72.72793670533338
2343.199,61.58913548279361
2344.6195,80.02439551540465
2346.0393,87.53377829294186
2347.4583,93.91734450494005
2348.8767,87.37515396559775
2350.2943,90.80726554994226
2351.7113,97.71373725925014
2353.1275,97.9446261867256
2354.543,87.6999884484394
2355.9578,84.77987918101644
2357.3718,66.98435264408135
2358.7852,81.61346224946055
2360.1978,69.66726073913878
2361.6098,84.99580003896699
2363.021,71.49913137812291
2364.4315,84.07730513582692
2365.8413,89.53037097630977
2367.2504,72.45837772303275
2368.6587,54.161373304152676
2370.0664,82.63940492324264
2371.4733,76.69251924226228
2372.8795,69.5207620967758
2374.285,64.9241785554259
2375.6899,75.45281299165299
2377.0939,58.656709129655155
2378.4973,69.78590993910393
2379.9,66.54045780310798
2381.3019,65.37039440691524
2382.7032,63.07576077037265
2384.1037,63.20659725962332
2385.5035,72.11294361005866
2386.9027,69.59483892500202
2388.3011,68.7523215866504
2389.6987,70.33542928125462
2391.0957,60.49419900754265
2392.492,57.17866706089171
2393.8876,42.488869131737374
2395.2824,56.72484033872388
2396.6765,51.98661537561111
2398.07,34.32422836891328
2399.4627,43.287712925281994
2400.8547,57.427102308126905
2402.246,51.74242934798394
2403.6366,38.03372630112244
2405.0265,37.65102490638219
2406.4156,34.04435652226948
2407.8041,48.5637521307799
2409.1918,45.959242373463894
2410.5789,30.430857406236555
2411.9652,37.52862692541885
2413.3508,45.00258032302554
2414.7358,30.3027466157846
2416.12,42.17915437040074
2417.5035,48.481831850553135
2418.8863,42.66080689812998
2420.2684,50.91610687020557
2421.6497,39.397758697247355
2423.0304,19.105788800561186
2424.4104,27.740223207477356
2425.7896,40.601087754267155
2427.1682,39.23840799980417
2428.546,43.90220909695108
2429.9232,45.492515806188294
2431.2996,33.659352448975824
2432.6753,47.05274289184945
2434.0503,37.02271066475214
2435.4246,39.31927882710261
2436.7982,35.292470068093735
2438.1711,35.94230668372575
2439.5433,43.81881061707645
2440.9148,27.272003451801083
2442.2856,28.901906333369425
2443.6557,36.2085401345289
2445.025,31.191925439012266
2446.3937,36.302082468464505
2447.7617,29.139031132614036
2449.1289,34.452790978167286
2450.4955,43.04338126043967
2451.8613,31.81082089022084
2453.2265,36.9051283478675
2454.5909,43.526321795628064
2455.9546,46.6744190267018
2457.3177,52.34943739902383
2458.68,44.65139380378787
2460.0416,53.93030460869568
2461.4025,52.036185734934406
2462.7627,55.569052564390404
2464.1222,55.128919958588085
2465.4811,49.86580222336306
2466.8392,42.17971311326255
2468.1966,51.3206658841782
2469.5533,66.03867337020483
2470.9093,71.1337478922319
2472.2645,56.00590111076326
2473.6191,68.15514397496509
2474.973,79.88148687394732
2476.3262,66.28493951526798
2477.6787,57.61551080767049
2479.0305,64.77320899705114
2480.3816,50.808041753148245
2481.7319,65.57001609797317
2483.0816,49.1591385454567
2484.4306,47.325414953831114
2485.7789,67.51885068973797
2487.1264,43.28945064656659
2488.4733,46.83721904251706
2489.8195,45.66215966289815
2491.165,45.21427582464571
2492.5097,54.49357038807602
2493.8538,43.25004576136121
2495.1972,53.1837038077399
2496.5398,36.34454595794932
2497.8818,53.232573110890826
2499.2231,64.64778580202096
2500.5637,46.49018403447167
2501.9035,43.10976716489654
2503.2427,46.25653408504877
2504.5812,41.18048325558493
2505.919,40.2316126745975
2507.256,64.40991992837507
2508.5924,61.815402200891185
2509.9281,45.69805603202167
2511.2631,43.10787734348969
2512.5974,54.944861600038166
2513.9309,48.80900383533253
2515.2638,38.100298533588784
2516.596,49.51873969093481
2517.9275,47.51432092249547
2519.2583,45.1870353482102
2520.5884,41.43687561287743
2521.9178,61.66383390942656
2523.2465,54.4179020164197
2524.5745,44.849071095782165
2525.9018,56.8573317652606
2527.2284,51.54267419411326
2528.5543,50.70508798302467
2529.8796,49.244562217255634
2531.2041,50.91108547501608
2532.5279,64.50464584207134
2533.851,75.72523089507717
2535.1735,66.77282756564364
2536.4952,50.297422028127585
2537.8163,58.04899978916001
2539.1366,61.72754585239636
2540.4562,66.23304464100374
2541.7752,65.11547996087529
2543.0935,73.62483495557422
2544.411,67.91109211751132
2545.7279,77.67423320284865
2547.0441,81.41423928863946
2548.3596,75.78109067519517
2549.6744,71.67476684868507
2550.9885,76.89524653746821
2552.3019,81.69250775315686
2553.6146,83.0165277384117
2554.9266,66.06728291897002
2556.2379,68.34474889040416
2557.5485,83.34890058761493
2558.8585,80.27971226205796
2560.1677,87.08715733169947
2561.4762,89.0712084117099
2562.7841,84.63183724638861
2564.0913,89.86901468932365
2565.3977,89.68271074778613
2566.7035,91.97289453035751
2568.0086,88.63953424879378
2569.313,85.68259719512298
2570.6167,91.95204977497792
2571.9197,97.59785753716665
2573.222,92.01998511097668
2574.5236,103.26839614971755
2575.8246,105.59305338650029
2577.1248,105.44391852175204
2578.4244,117.52095219997136
2579.7232,126.17411401121763
2581.0214,115.30336237034089
2582.3189,108.10865443045054
2583.6157,113.4399461916239
2584.9118,120.29719257285274
2586.2072,124.38034735872952
2587.5019,118.48936313087461
2588.7959,124.52419122710603
2590.0893,134.48478180034795
2591.3819,134.97108375828338
2592.6739,142.43304466374934
2593.9652,132.2706107298709
2595.2557,141.53372674544516
2596.5456,140.92233617656257
2597.8348,142.63638107397537
2599.1234,137.0758020792141
2600.4112,152.7405384074475
2601.6983,139.23052790308657
2602.9848,142.39570688313756
2604.2705,136.3360102723027
2605.5556,154.90137157132585
2606.84,140.3917229175936
2608.1237,141.50699489947783
2609.4067,141.34711670143452
2610.689,130.81201609284994
2611.9707,147.45161942964
2613.2516,135.2158517596015
2614.5319,139.10463665601492
2615.8115,129.11789634000343
2617.0903,136.4555516416449
2618.3685,136.2175220998388
2619.6461,130.55372588892897
2620.9229,136.26407982108458
2622.199,135.29849940293957
2623.4745,141.95689877848736
2624.7493,134.33919073873744
2626.0234,142.49528665513117
2627.2968,142.17509655571735
2628.5695,128.7785290435927
2629.8415,140.60549130010418
2631.1128,128.20588921881404
2632.3835,133.07962728723078
2633.6535,125.12660871080448
2634.9228,141.3967353641906
2636.1914,137.2899078707792
2637.4593,138.45602543999235
2638.7265,137.6449859083557
2639.9931,129.45668572783438
2641.259,132.6910199739434
2642.5242,133.69788242763252
2643.7887,129.0771655429412
2645.0525,139.37876043693018
2646.3156,126.85255693588942
2647.5781,131.34844347232206
2648.8398,118.41630721020647
2650.1009,122.00603400003683
2651.3613,129.317508508145
2652.6211,125.35061418080227
2653.8801,121.15523317110592
2655.1385,126.98124637864771
2656.3961,129.72853349146772
2657.6531,126.49697292779388
2658.9094,126.03644180856963
2660.1651,133.19681598977036
2661.42,145.37797006700725
2662.6743,147.07977730392486
2663.9279,139.15210951038898
2665.1808,135.39483702546772
2666.433,157.1578287967086
2667.6846,147.5409524177105
2668.9354,153.54407391049472
2670.1856,150.767057821673
2671.4351,162.95976716241694
2672.6839,159.27206343622765
2673.9321,166.40380651700866
2675.1795,165.95485468594347
2676.4263,167.87506456017763
2677.6724,164.3642910973092
2678.9179,162.87238757618593
2680.1626,167.8992056320128
2681.4067,167.29459527127256
2682.6501,167.50840482145577
2683.8928,171.99048093710758
2685.1348,173.34066859768996
2686.3761,152.25881106276097
2687.6168,149.44474985847341
2688.8568,149.04832498839232
2690.0961,149.66937496163655
2691.3348,149.65773679684162
2692.5727,139.36324601595038
2693.81,134.08573664433015
2695.0466,141.67504131371584
2696.2826,132.88099131498598
2697.5178,149.65341652227016
2698.7524,144.64214548088808
2699.9863,144.9970052396261
2701.2195,153.86782140084938
2702.452,153.0544181169539
2703.6839,155.05661800165717
2704.9151,150.02424213813333
2706.1456,151.15711005899016
2707.3755,159.0550397965951
2708.6046,159.06784787174433
2709.8331,177.4453492146847
2711.0609,182.18735716498531
2712.2881,187.69368328776204
2713.5145,191.4641373262573
2714.7403,213.3985271467775
2715.9654,218.14665870098884
2717.1899,222.2083358065729
2718.4136,228.9833600997447
2719.6367,249.77153099463771
2720.8591,255.4726456155522
2722.0809,255.1864985890736
2723.3019,273.36288198706075
2724.5223,280.50158532950854
2725.7421,294.7023954027825
2726.9611,286.9150961882335
2728.1795,295.4894687201895
2729.3972,273.37529116382757
2730.6142,255.9723387294307
2731.8306,251.68038389352932
2733.0462,242.49919657293117
2734.2612,214.2785441676399
2735.4756,202.01819165266716
2736.6892,188.81790186024023
2737.9022,161.5274356024047
2739.1145,152.54655180302825
2740.3262,143.4750077707049
2741.5372,134.36255928856235
2742.7475,114.90896070498002
2743.9571,104.46396502471157
2745.1661,106.57732410342146
2746.3744,89.0987887521353
2747.582,79.47810871610545
2748.7889,57.56503284959672
2749.9952,58.009309212094195
2751.2008,60.1606852874329
2752.4057,46.16890797935366
2753.61,41.18372358999227
2754.8136,42.50487795979416
2756.0165,29.88211651736765
2757.2188,36.765184266273764
2758.4204,34.40382591125217
2759.6213,24.947785789391673
2760.8215,36.04680789374288
2762.0211,26.050635967879316
2763.22,26.65901339490756
2764.4182,18.17168329742799
2765.6158,12.938388531451892
2766.8127,15.558871771273516
2768.009,8.882875561804212
2769.2045,9.51014229236739
2770.3994,10.290414263457706
2771.5936,-8.726566319531003
2772.7872,-0.7410573541080794
2773.9801,-9.153229559387114
2775.1723,-7.713246251318765
2776.3639,-21.72117930509171
2777.5548,-17.277023540564755
2778.745,-23.13055678301589
2779.9346,-9.231384260257869
2781.1235,-14.178880125841943
2782.3117,-8.072326311791471
2783.4992,-15.76086310311814
2784.6861,-10.693550142293702
2785.8723,-7.119289620768882
2787.0579,-2.986876901428559
2788.2428,-0.7950362254553056
2789.427,5.007538004868593
2790.6106,-2.4778406703283054
2791.7935,2.250141239009281
2792.9757,23.342821976563073
2794.1573,24.55153976351494
2795.3382,31.727632587618928
2796.5184,54.17243819111491
2797.698,54.687293998965515
2798.8769,68.92353689441052
2800.0551,88.3325032138157
2801.2327,92.46552860431325
2802.4096,109.17394782970905
2803.5859,131.20909472915332
2804.7615,144.3723020500588
2805.9364,169.2149012277489
2807.1106,177.58822225382323
2808.2842,210.89359342773355
2809.4572,238.58234127304854
2810.6294,274.1557902044026
2811.801,317.46526225060734
2812.972,352.9120766989156
2814.1423,390.3975496619287
2815.3119,432.2729937231268
2816.4808,477.58971756201504
2817.6491,522.2990255353691
2818.8167,561.8522172240675
2819.9837,608.6505869860002
2821.15,651.6454235605347
2822.3157,696.9380096005327
2823.4807,761.9796212424021
2824.645,802.121527653172
2825.8086,844.7649903800739
2826.9716,895.511262949125
2828.134,921.9615904386937
2829.2957,959.7172089720352
2830.4567,997.2293454527903
2831.617,1013.9992171874273
2832.7767,1016.5280315101227
2833.9358,1023.8669856150609
2835.0941,1014.0672665311479
2836.2519,998.2800510486184
2837.4089,974.8065058170364
2838.5653,983.8477875031647
2839.7211,972.9550430257027
2840.8761,981.2794094648723
2842.0306,1001.7720141713457
2843.1843,1036.7339746830014
2844.3374,1074.916398519999
2845.4899,1123.9203828351576
2846.6417,1194.7970140321345
2847.7928,1258.9473672753825
2848.9433,1337.1725057813856
2850.0931,1409.6234801771525
2851.2422,1477.1013277179693
2852.3907,1544.607071562886
2853.5385,1608.4417200999412
2854.6857,1655.856266271101
2855.8323,1721.4516869339184
2856.9781,1767.028942387381
2858.1233,1802.8889757159616
2859.2679,1854.3327123338436
2860.4118,1894.8610596263213
2861.555,1937.2249064353637
2862.6976,1970.3751226543282
2863.8395,1984.5125588043265
2864.9808,2014.9880457027168
2866.1214,2028.2023943217343
2867.2614,2027.5063954837324
2868.4007,2057.1508197290427
2869.5393,2064.6364173229326
2870.6773,2091.0139179591615
2871.8146,2094.584030685126
2872.9513,2107.847443638083
2874.0874,2096.3048240094513
2875.2227,2099.2568179121736
2876.3574,2066.3540504961475
2877.4915,2043.947125918699
2878.6249,2001.336627673617
2879.7577,1988.4231188152185
2880.8898,1960.557142384456
2882.0212,1945.8392215380502
2883.152,1937.0698598271526
2884.2821,1920.3995413445211
2885.4116,1915.7287308122166
2886.5405,1912.9578737483064
2887.6686,1907.3373965135702
2888.7962,1929.0677063392109
2889.923,1933.349191383056
2891.0493,1945.3822205122585
2892.1748,1964.6671432604785
2893.2997,1968.7542897075546
2894.424,1989.4939702866548
2895.5476,1991.8864757434028
2896.6706,2014.1320769284848
2897.7929,2060.831024773721
2898.9145,2070.283550069611
2900.0355,2098.7398629983463
2901.1559,2134.5001530392824
2902.2756,2177.3645886843756
2903.3946,2205.183317080582
2904.513,2224.556463601213
2905.6308,2267.934131567747
2906.7479,2294.316402056097
2907.8643,2299.6033334628364
2908.9801,2326.044961241374
2910.0953,2340.341297849087
2911.2098,2340.892332482902
2912.3236,2336.3980309363337
2913.4368,2327.508335593974
2914.5494,2308.6731654764344
2915.6613,2268.292416329243
2916.7725,2239.065960811199
2917.8831,2226.3936488981763
2918.9931,2172.1753081753886
2920.1024,2159.660743964115
2921.211,2151.7997398638827
2922.319,2123.442057877609
2923.4264,2106.937438490217
2924.5331,2098.335600952209
2925.6391,2083.7862434447125
2926.7445,2098.639043165499
2927.8493,2091.5436564744787
2928.9534,2084.8997187451714
2930.0569,2082.756844435661
2931.1597,2081.1646271550344
2932.2619,2071.4226396848117
2933.3634,2080.2804339948657
2934.4643,2050.087541340843
2935.5645,2040.3934721755872
2936.6641,2007.4977164510663
2937.763,1980.8497437153133
2938.8613,1933.3490034413853
2939.959,1869.3949252938423
2941.056,1801.7869196037545
2942.1523,1740.2243780082435
2943.248,1664.3066741265607
2944.3431,1564.0831641757147
2945.4375,1455.703187729649
2946.5313,1363.8160687214731
2947.6244,1259.4711165272665
2948.7169,1160.3176268849497
2949.8087,1069.254882937731
2950.8999,982.3821562256435
2951.9904,893.0487075961707
2953.0803,846.8537880729762
2954.1696,777.6966397492359
2955.2582,735.72649624959
2956.3462,685.7925834217122
2957.4335,634.844119756012
2958.5202,613.9303168849738
2959.6062,594.1503800926412
2960.6916,576.8035085237557
2961.7764,559.0388953815543
2962.8605,534.1557281012402
2963.9439,537.1531885276283
2965.0267,527.4804531639762
2966.1089,521.58669314201
2967.1905,508.32107431865234
2968.2714,519.0327573349596
2969.3516,530.6708977487765
2970.4312,533.0346459276219
2971.5102,527.5231469323055
2972.5885,539.2355404932916
2973.6662,531.1709610658127
2974.7432,530.0285377127476
2975.8196,531.4073941852655
2976.8954,532.0066489342513
2977.9705,514.075415096516
2979.045,508.712800488805
2980.1188,509.167907787109
2981.192,489.0898345802914
2982.2645,468.5276733655369
2983.3364,442.9805117491319
2984.4077,417.5974326520868
2985.4783,405.577514565608
2986.5483,372.11983180492746
2987.6177,352.12345462950225
2988.6864,308.98744957759186
2989.7545,278.46087966622235
2990.8219,253.6428048225447
2991.8887,220.13228218910172
2992.9548,194.87836637200826
2994.0204,167.33010977605602
2995.0852,141.3365628572543
2996.1495,126.39677439831121
2997.2131,92.40979176856979
2998.276,85.42466107340533
2999.3383,67.39042749409532
3000.4,59.85613535767038
3001.4611,43.420828317257474
3002.5215,32.283549427422145
3003.5812,18.093341308521758
3004.6404,18.399246258079074
3005.6989,4.90030639268366
3006.7567,-2.6544363550669914
3007.8139,-2.965940101578326
3008.8705,-3.9851364454367513
3009.9264,-9.262927355487136
3010.9818,-12.450174989061566
3012.0364,-6.4976489668476916
3013.0905,-11.205994532285786
3014.1439,-6.575792017302319
3015.1966,-6.0575098059393895
3016.2487,-10.601550590076613
3017.3002,-11.508256547071369
3018.3511,5.872136055209353
3019.4013,-3.8604940836194146
3020.4509,8.443731677336586
3021.4998,19.884730545307434
3022.5481,9.362419643087264
3023.5958,18.926715894622816
3024.6428,15.877536130237445
3025.6892,23.26479699098809
3026.735,29.488414959156103
3027.7802,42.998306284375644
3028.8247,39.39438692139629
3029.8685,47.026572394984896
3030.9118,50.844777835964805
3031.9544,62.94891790489396
3032.9963,66.28890675388334
3034.0376,83.96465790555476
3035.0783,79.3760842196416
3036.1184,86.82309771623113
3037.1578,89.50560962164991
3038.1966,102.3735302939939
3039.2348,110.97676919630294
3040.2723,110.01523476788168
3041.3092,107.68883433826716
3042.3455,109.89747413684461
3043.3811,120.59105931611077
3044.4161,113.56949392958813
3045.4505,119.13268082488867
3046.4842,111.8305217139295
3047.5173,109.11291711730092
3048.5498,114.42976643728815
3049.5816,112.13096798504705
3050.6128,112.76641892743623
3051.6434,106.48601531000486
3052.6734,103.23965205063803
3053.7027,101.87722300236072
3054.7314,95.948620985802
3055.7594,100.30373780281843
3056.7868,93.7924642957812
3057.8136,100.51469030402421
3058.8398,95.42030472895703
3059.8653,98.55919546684277
3060.8902,91.93124945974148
3061.9145,95.18635266412218
3062.9381,86.22439011714107
3063.9612,90.64524590409098
3064.9835,85.29880324802104
3066.0053,81.48494446552809
3067.0264,81.35355102022106
3068.0469,78.2545035608598
3069.0668,76.78768192266875
3070.086,67.55296515832765
3071.1046,66.50023155263938
3072.1226,70.62935871487718
3073.1399,61.5902235893123
3074.1567,55.13270241392286
3075.1727,42.05667081078468
3076.1882,45.362003850647056
3077.203,39.44857618369247
3078.2173,35.51626200648366
3079.2308,35.61493512109752
3080.2438,22.944468974449023
3081.2561,21.15473665730366
3082.2678,21.04561103098257
3083.2789,11.26696474525994
3084.2893,11.36867023945382
3085.2991,2.6505998402128625
3086.3083,8.612625760499384
3087.3169,6.05462018677008
3088.3248,3.976455219355273
3089.3321,3.578002898039756
3090.3388,8.159135222843815
3091.3449,-2.4802758419921247
3092.3503,-1.490358413819024
3093.3551,-4.1712158320324875
3094.3593,-3.0229365473476832
3095.3629,-2.395567340033665
3096.3658,4.9608752087761445
3097.3681,-0.35360155033379215
3098.3698,2.2110096836119055
3099.3708,-2.145280255931823
3100.3713,-3.17246055762007
3101.3711,-4.320498978758167
3102.3702,5.210668416229453
3103.3688,5.07114872470288
3104.3667,6.51104899191597
3105.364,-3.219523787588969
3106.3607,-1.1704626843797428
3107.3568,3.958371394018343
3108.3522,1.3671292330020037
3109.347,-2.394038421615562
3110.3412,4.075019162307456
3111.3348,1.324476633356653
3112.3277,0.20450859936744337
3113.32,9.865289654930848
3114.3117,9.00699235159695
3115.3028,12.079789142262996
3116.2932,13.28385238975659
3117.2831,18.369354336107676
3118.2723,6.53646709050787
3119.2608,13.135362578455158
3120.2488,16.666212660083005
3121.2361,13.129189064171413
3122.2229,18.07446335283828
3123.209,20.5022069569099
3124.1944,14.112591126467862
3125.1793,14.455786906572058
3126.1635,23.681965201156657
3127.1471,21.691296769598154
3128.1301,23.383952134453637
3129.1125,28.41010160136716
3130.0942,26.51991524214347
3131.0753,28.2635628444867
3132.0558,33.59121393090183
3133.0357,29.903037741258345
3134.015,30.049203179513654
3134.9936,31.279878850594912
3135.9716,33.39523305893732
3136.949,33.74543379617742
3137.9258,33.53064871999953
3138.902,36.50104515063367
3139.8775,39.60679007300345
3140.8524,34.69805010702214
3141.8267,37.82499147653513
3142.8004,36.18778005840741
3143.7735,38.18658135125409
3144.7459,46.22156049181254
3145.7178,46.09288223495443
3146.689,44.95071087333582
3147.6596,40.54521023868398
3148.6295,49.076543713218996
3149.5989,50.344874273709166
3150.5676,51.200364406157206
3151.5357,53.193176093117216
3152.5032,53.22347080513967
3153.4701,48.041409480843384
3154.4364,58.197152526612484
3155.402,51.690859868417164
3156.367,52.472690850256214
3157.3315,54.29280429921991
3158.2952,59.65135851767165
3159.2584,57.24851126504697
3160.221,60.23441970426778
3161.1829,58.55924042577105
3162.1442,57.473129417649545
3163.105,59.9762420824036
3164.065,63.86873324780238
3165.0245,67.05075714185261
3165.9834,66.72246735387375
3166.9416,66.6840168026778
3167.8993,68.13555773985223
3168.8563,73.22724175014424
3169.8127,70.15921973694553
3170.7684,75.0816418713755
3171.7236,68.54465762296127
3172.6782,76.14841571041362
3173.6321,75.09306416699692
3174.5854,78.52875026449138
3175.5381,79.45562052374657
3176.4902,77.37382068032468
3177.4417,81.08349567523172
3178.3926,81.23478967573554
3179.3428,81.5778460382691
3180.2924,82.11280730691755
3181.2415,86.4398152099876
3182.1899,88.25901065465786
3183.1377,89.22053368370887
3184.0848,86.62452345733107
3185.0314,91.72111824350955
3185.9773,89.31045544398428
3186.9227,91.79267154328411
3187.8674,92.71790213283327
3188.8115,96.28628188612939
3189.755,97.39794454949106
3190.6979,96.60302290637411
3191.6402,101.55164876625494
3192.5818,101.59395297257979
3193.5229,95.08006535327846
3194.4633,101.96011472034125
3195.4031,103.18422893495779
3196.3423,102.45253483871667
3197.2809,109.66515824136414
3198.2189,102.02222392812118
3199.1563,114.22385558755713
3200.0931,108.57017588801918
3201.0292,107.31130635561595
3201.9648,112.29736743075429
3202.8997,108.72847848072806
3203.834,117.20475774985738
3204.7677,116.37632239517762
3205.7008,113.34328840167667
3206.6333,115.7057705905791
3207.5652,116.11388264967667
3208.4964,117.16773710970338
3209.4271,125.41744534025447
3210.3571,121.96311753924778
3211.2865,127.15486265042671
3212.2154,124.34278839790352
3213.1436,124.57700123424185
3214.0712,127.10760636857742
3214.9982,127.78470776427598
3215.9246,132.45840811362717
3216.8503,128.77880883107363
3217.7755,132.79601000647378
3218.7001,131.7601104418981
3219.624,135.6212076114569
3220.5473,134.92939767165942
3221.4701,139.88477542280276
3222.3922,136.1374343158901
3223.3137,135.88746640307681
3224.2346,140.83496237514393
3225.1549,140.93001156399785
3226.0746,145.42270189319524
3226.9937,142.46311987699275
3227.9121,147.40135057541988
3228.83,144.43747762387503
3229.7473,147.82158318374306
3230.6639,151.153747972034
3231.5799,146.53405122754205
3232.4954,150.96257067752393
3233.4102,149.83938258389583
3234.3244,149.96456169894813
3235.238,155.23818127657745
3236.151,157.86031307103474
3237.0634,160.0810272841892
3237.9752,158.30039253930676
3238.8864,159.36847585884314
3239.797,161.33534268225014
3240.7069,159.80105685529475
3241.6163,160.6656806103905
3242.5251,164.17927458194038
3243.4332,165.44189779769056
3244.3408,166.7536076435943
3245.2477,167.96445985118606
3246.154,166.07450848446396
3247.0598,167.23380592778165
3247.9649,167.99240290474762
3248.8694,169.55034846663227
3249.7733,172.307689984782
3250.6766,173.16447313503966
3251.5793,172.1707418701711
3252.4814,174.37653841129742
3253.3829,175.13190325783233
3254.2838,175.036875165424
3255.1841,182.29149113840157
3256.0838,178.8457864307254
3256.9829,178.74979447344091
3257.8814,183.00354690913554
3258.7792,182.5570735928988
3259.6765,181.91040254978464
3260.5731,186.51355997927635
3261.4692,181.316570261753
3262.3647,185.01945591245806
3263.2595,185.8722376334693
3264.1538,189.12493427666976
3265.0474,187.9275628352201
3265.9404,184.3301384110316
3266.8329,189.3326742267399
3267.7247,191.53518166167902
3268.616,190.63767020185628
3269.5066,188.29014741792705
3270.3966,190.29261897416984
3271.286,187.84508865196176
