RamanShift,CorrectedData
30.1047,1321.9480822967266
32.3739,1227.0000962866598
34.6426,1136.552097057112
36.9109,1041.0040591186016
39.1787,947.0559456161254
41.4461,851.3577092846394
43.7131,761.1592933885405
45.9796,666.7106326786472
48.2456,576.9116542941849
50.5112,486.81227870727224
52.7764,391.31242062091076
55.0411,300.06198986997947
57.3054,205.0608923762327
59.5692,116.85903106080498
61.8326,25.656306794221734
64.0955,-60.847380721581914
66.3579,-144.55213204123385
68.6199,-232.20743985402865
70.8815,-299.1613527734619
73.1426,-314.40959966070534
75.4032,-200.9449207550167
77.6634,218.0930846562469
79.9231,1343.166824725486
82.1824,3888.5887054241707
84.4412,8510.771119292103
86.6995,14885.276419983198
88.9574,21049.96687604366
91.2148,25222.104607166937
93.4717,27010.101522546793
95.7282,27195.719279155965
97.9842,26895.869263866156
100.2398,26068.812591591897
102.4949,25188.510108289014
104.7495,24187.22239922522
107.0036,23191.709797783107
109.2573,22316.23239547306
111.5105,21441.95005188837
113.7632,20643.07240345999
116.0154,19940.108872199387
118.2672,19400.8186736873
120.5185,18869.61082410338
122.7693,18444.494145619094
125.0197,18053.2272717098
127.2696,17675.668651405922
129.519,17386.826553205603
131.7679,17036.659068850306
134.0163,16676.62411621324
136.2642,16260.229442801006
138.5117,15865.532629353978
140.7587,15437.891094010238
143.0052,15077.262096252538
145.2512,14643.252741184731
147.4967,14263.61998313804
149.7417,14007.720630011157
151.9863,13724.91134706659
154.2304,13543.748659489633
156.4739,13260.988955216471
158.717,13133.388486745807
160.9596,12852.753373966454
163.2017,12463.689605433337
165.4433,12059.103041173861
167.6844,11636.849416578529
169.925,11229.334346446813
172.1651,10768.813329209697
174.4047,10419.09175100482
176.6439,10091.474890281686
178.8825,9751.617921298894
181.1206,9514.975917400285
183.3582,9272.853854413534
185.5954,9071.80661301655
187.832,8943.888981158705
190.0681,8817.25565607131
192.3037,8687.761245546788
194.5388,8624.260269205006
196.7734,8595.707159788231
199.0075,8579.706263796112
201.2411,8598.461841771245
203.4742,8602.978068459153
205.7068,8675.409032620753
207.9389,8721.608736987182
210.1704,8804.981097535492
212.4015,8846.329943026642
214.632,8941.459014171789
216.862,9037.271963218795
219.0915,9067.972353000925
221.3205,9161.813655978738
223.549,9237.54925393307
225.777,9380.682437026615
228.0044,9494.366403046586
230.2314,9720.80425597337
232.4578,9830.949004843686
234.6837,9988.503561486224
236.909,10065.870739420181
239.1339,9959.453252279727
241.3582,9782.05371304032
243.582,9482.074635082907
245.8053,9257.46843396788
248.0281,9007.6874304349
250.2503,8812.533852648943
252.472,8720.20983869812
254.6932,8737.067438545195
256.9139,8696.508614950859
259.134,8752.435243305123
261.3536,8833.899112032914
263.5727,9001.301922034807
265.7912,9080.495285872395
268.0092,9201.430726094248
270.2267,9218.459674443986
272.4436,9226.58347065093
274.6601,9153.2533622598
276.8759,9005.270504549495
279.0913,8858.435961266374
281.3061,8717.550706104103
283.5204,8607.81562417199
285.7341,8568.931513403844
287.9473,8573.349085655314
290.16,8636.768967092747
292.3721,8733.741698149002
294.5837,9002.46773288925
296.7947,9238.447438041252
299.0052,9319.1810903081
301.2152,9180.418874008401
303.4246,8888.160880268963
305.6334,8413.1571084124
307.8418,7908.957468879742
310.0495,7403.01178798044
312.2568,6968.369812934383
314.4635,6598.6312169313405
316.6696,6280.995603477393
318.8752,6073.112510092311
321.0802,6016.281411485919
323.2847,6054.901721636919
325.4887,6018.722794361198
327.692,5949.64392292563
329.8949,5800.014340409862
332.0972,5533.53322039711
334.2989,5253.69967847045
336.5001,4933.512774877627
338.7007,4667.221517329397
340.9008,4478.674864201388
343.1003,4306.971727197024
345.2992,4173.5109732329765
347.4976,4083.891426156215
349.6955,3993.111868078591
351.8927,3937.721040273047
354.0895,3833.067644081424
356.2856,3827.7503414683506
358.4812,3719.0677560677796
360.6763,3705.718473236173
362.8707,3640.051041139319
365.0646,3644.213970885832
367.258,3650.4557371838237
369.4508,3645.0247782992683
371.643,3746.9694959935878
373.8346,3729.438255577952
376.0257,3732.0793848938483
378.2162,3639.4411744883764
380.4062,3574.371877587848
382.5956,3427.8197110241654
384.7844,3288.8828558855275
386.9726,3123.709458981946
389.1603,3013.997634234609
391.3474,2917.7954643276134
393.5339,2862.5010018050816
395.7199,2770.112270033187
397.9052,2809.0272637530943
400.09,2786.843950004848
402.2743,2908.8102677382285
404.4579,2994.724128034579
406.641,3159.4834128871407
408.8235,3324.6859743419154
411.0054,3497.929632850077
413.1868,3766.012175615946
415.3675,3924.731354864547
417.5477,3978.7848851607905
419.7273,3981.920441822278
421.9064,3835.785660378764
424.0848,3695.228136540809
426.2627,3451.895427661115
428.4399,3235.3350541401087
430.6166,2832.49450185927
432.7928,2444.5712243467406
434.9683,2107.262646805728
437.1432,1865.3661699937238
439.3176,1656.6791735956067
441.4914,1508.999018642584
443.6645,1463.1230495990858
445.8371,1404.3985958395479
448.0091,1306.2229721071799
450.1806,1249.9934791012129
452.3514,1222.8074044586501
454.5216,1232.912023316565
456.6913,1160.3045985839562
458.8603,1175.0823808407058
461.0288,1257.8926090636487
463.1967,1216.1825104788077
465.3639,1263.649299733277
467.5306,1277.440179312327
469.6967,1302.3523390647497
471.8622,1382.0329560649316
474.0271,1439.3291943637541
476.1914,1468.688204191778
478.3551,1465.3571213862633
480.5182,1506.5830670976065
482.6807,1563.363147822638
484.8426,1711.7444549923584
487.0039,1978.9740644041485
489.1647,2389.8990347379495
491.3248,2709.0164048839724
493.4843,2845.2731898334405
495.6432,2818.4163774874232
497.8015,2665.4429272942652
499.9592,2595.6997705181457
502.1163,2419.1338117688265
504.2728,2108.391929699077
506.4287,1821.8709787703283
508.5839,1440.9677923601012
510.7386,1157.5791856272153
512.8927,1014.8519593208148
515.0461,972.1829026142532
517.199,964.2687945323687
519.3512,1088.7064043781775
521.5029,1287.442491812004
523.6539,1425.9738056071164
525.8043,1525.9970816623627
527.9541,1495.6590416168565
530.1033,1367.4063918497432
532.2519,1303.1858237835895
534.3999,1291.8440151669074
536.5472,1431.3276307163578
538.694,1726.0333222301633
540.8401,2177.2577271932732
542.9856,2455.8974658303177
545.1305,2549.399136593356
547.2748,2445.959313375479
549.4185,2144.974544575787
551.5615,1920.3913541337952
553.704,1866.9062445392792
555.8458,1888.2156990781095
557.987,2035.1661823670838
560.1276,2175.854140140862
562.2675,2420.775997782448
564.4069,2737.8781589163027
566.5456,3044.2570029591425
568.6837,3107.058881948904
570.8212,2722.130117480965
572.958,2160.2670000801136
575.0942,1661.0657930498528
577.2299,1295.9727380910153
579.3648,1131.9840602937875
581.4992,1145.2959717886242
583.6329,1300.1046733861513
585.766,1495.8063544440374
587.8985,1616.6471913189089
590.0304,1625.3733454093235
592.1616,1575.9309619473825
594.2922,1446.7161699114458
596.4222,1271.4250825205745
598.5515,1102.6037985266685
600.6802,909.7484039673818
602.8083,748.9549738543446
604.9358,704.5195741016942
607.0626,706.9382631340359
609.1888,764.2570923307794
611.3144,830.0221060019667
613.4393,881.0793408150712
615.5636,870.8748251373581
617.6873,887.4045785253093
619.8103,812.7146118266628
621.9327,671.000927015124
624.0544,518.7595179372438
626.1756,388.5363717295804
628.2961,287.3774703411
630.4159,218.02879183542063
632.5351,178.0363114023785
634.6537,163.14600205153147
636.7716,133.75383501207943
638.8889,166.55577988176083
641.0056,230.24780492077662
643.1216,203.3758767237723
645.237,205.53595958293408
647.3518,159.82401575668518
649.4659,130.68600544810033
651.5793,103.51788726203267
653.6922,61.16561849648315
655.8043,56.12515541427638
657.9159,63.24245366658397
660.0268,2.2134683433323517
662.137,-16.81584609796846
664.2466,14.950442687639224
666.3556,36.25843503541364
668.4639,-8.745768868886444
670.5716,-14.91606920207414
672.6786,-30.006278770744757
674.785,-12.770061369967152
676.8907,18.189218967911074
678.9958,85.66832578345566
681.1002,69.56402243535194
683.204,35.7730714256013
685.3072,28.242234560579163
687.4097,-28.781726711067677
689.5115,-16.752051223111266
691.6127,-58.8216902798722
693.7132,-69.69342783268621
695.8131,-76.21946020420364
697.9123,-59.95128747974377
700.0109,-22.639648312220743
702.1089,-5.9346824411913985
704.2061,-16.136303436140224
706.3028,63.9556344209268
708.3987,120.69143804966552
710.4941,168.22141373019076
712.5887,281.9958665357026
714.6827,440.56509985719094
716.7761,688.2794142656894
718.8688,945.0891059265887
720.9608,1134.8444641224924
723.0522,1203.0957686851143
725.1429,1208.6932880977492
727.233,1146.5872788127235
729.3224,1106.3279851954394
731.4112,926.6156401454373
733.4993,793.2004654989723
735.5867,609.1326738261523
737.6735,438.2624697650808
739.7596,322.49005186254
741.845,208.1156142826967
743.9298,126.18934796482245
746.014,126.01144176704656
748.0974,154.13208328561086
750.1802,149.2014588566526
752.2624,136.31975327499276
754.3439,234.5871498434517
756.4247,328.653830501662
758.5048,466.61997484339554
760.5843,766.9357591758944
762.6631,1161.7013551402106
764.7413,1723.4169267080415
766.8188,2407.2826262340805
768.8956,2957.098588838864
770.9718,3293.4149255701086
773.0473,3219.6817179045465
775.1221,2931.7490143847735
777.1962,2604.8168313565748
779.2697,2447.0851558482555
781.3426,2495.5039488399507
783.4147,2667.0231468409384
785.4862,2847.642661405471
787.557,2782.7623774175736
789.6271,2337.332151284856
791.6966,1770.801811587302
793.7654,1176.7211635315962
795.8335,812.2899946163961
797.901,558.5080805731577
799.9678,442.82518901044386
802.0339,372.4910819517427
804.0993,367.8555169923002
806.1641,358.6682480024592
808.2282,313.729025174016
810.2916,215.18759511209646
812.3544,146.64370128454175
814.4164,118.64708500731831
816.4778,131.7974861299699
818.5385,165.74464331557283
820.5986,284.9882939092404
822.658,502.57817359863657
824.7166,784.0640152215692
826.7747,1194.2455465900566
828.832,1612.7724876754928
830.8886,1934.594546506818
832.9446,2063.4114149852503
834.9999,1994.2227656660689
837.0545,1839.0782504704512
839.1085,1651.5275013773535
841.1618,1427.7701319749503
843.2143,1267.0057393361494
845.2662,1070.5839062561645
847.3175,1018.5042028601529
849.368,901.1661885674348
851.4179,821.5194126122879
853.467,707.9134152173337
855.5155,623.79772839
857.5633,564.4218770585812
859.6105,471.485379913398
861.6569,375.337750000559
863.7027,342.0784956513253
865.7478,313.2571214435866
867.7922,319.4731285344478
869.8359,333.9760149484555
871.8789,430.0152755154231
873.9212,512.5404017254168
875.9629,672.2508807683462
878.0039,819.8961947087191
880.0441,940.7258188885444
882.0837,962.2392204508778
884.1226,970.9358571315206
886.1609,959.2651770438952
888.1984,1020.77661859207
890.2352,1116.3196105874722
892.2714,1131.9935716337695
894.3069,1093.5979091714435
896.3416,942.682019321046
898.3757,865.795287267154
900.4091,836.5870887675301
902.4418,805.3567909219892
904.4739,860.2037524644802
906.5052,920.8773240753853
908.5358,846.3268478330665
910.5658,746.2016566071215
912.595,565.1010748038752
914.6236,355.52441936764626
916.6515,275.62100159175316
918.6786,229.74012921426583
920.7051,255.53110721704797
922.7309,348.9432382845753
924.756,399.5758225460104
926.7804,471.4781566410984
928.8041,474.999533213826
930.8272,517.8892401934081
932.8495,513.6965607590719
934.8711,502.3707729111484
936.892,406.01114951301133
938.9123,353.91695840434295
940.9318,349.8374633647054
942.9506,338.2719246345041
944.9688,248.31959895576802
946.9862,175.87973968781625
949.003,70.95159770678038
951.019,-8.1655778700042
953.0344,-1.3725386347177846
955.0491,21.580045394586705
957.063,87.44151791150216
959.0763,191.46122239383294
961.0888,244.28850144497483
963.1007,315.72269575370956
965.1119,378.21314356594485
967.1223,389.4091799703674
969.1321,384.8601362735444
971.1412,372.0153398879502
973.1495,395.22411437746086
975.1572,423.28577958580536
977.1641,471.0996514044764
979.1704,444.76504149211905
981.1759,436.7812567963774
983.1808,464.19759981725474
985.1849,550.4633686869402
987.1884,662.5778568956448
989.1911,781.7903524289486
991.1932,893.4001366466728
993.1945,978.5064830907377
995.1951,921.3586563690751
997.1951,879.5559113045547
999.1943,833.8974935064743
1001.1928,814.0826397885648
1003.1906,855.0605786255892
1005.1877,968.6305303514964
1007.1841,1035.7917067496346
1009.1798,1021.4933099170539
1011.1748,907.4845315928978
1013.1691,731.3645533013805
1015.1627,532.4325474918678
1017.1556,318.48767930009126
1019.1477,223.22910853745088
1021.1392,164.50599183047598
1023.1299,146.7174835734022
1025.12,167.11273651540978
1027.1093,263.34090193850534
1029.0979,339.1011294535783
1031.0859,438.09256603811446
1033.0731,464.0143552785885
1035.0596,421.01563638054904
1037.0454,295.69554390940357
1039.0304,204.90320822041213
1041.0148,86.3877567118816
1042.9985,5.8483147331025975
1044.9814,-6.965993230520326
1046.9636,-86.35604275205333
1048.9452,-90.47263981430478
1050.926,-11.66572770321909
1052.9061,4.565654116922815
1054.8855,20.022582722445804
1056.8642,76.05613514403012
1058.8421,125.01738821213439
1060.8194,170.25741799665775
1062.7959,220.57729931733047
1064.7717,283.82810529131166
1066.7469,349.2609068300044
1068.7213,404.32677200652506
1070.695,459.77676540140055
1072.6679,467.01194755189135
1074.6402,465.5833743974963
1076.6117,461.042097207599
1078.5826,387.53916259576
1080.5527,327.17561256513363
1082.5221,318.55248524348644
1084.4908,370.5208154868378
1086.4587,460.38163496568995
1088.426,536.43597164534
1090.3925,551.3848488872682
1092.3584,587.9292846886092
1094.3235,553.9202915326514
1096.2879,540.9588760234001
1098.2515,674.1460392256704
1100.2145,778.4827767946845
1102.1767,969.420077644214
1104.1382,1198.8089229032012
1106.099,1435.4002840063968
1108.0591,1671.2951204004676
1110.0185,1841.394377178085
1111.9771,1879.5489827189776
1113.9351,1764.409846988934
1115.8923,1597.477861158257
1117.8488,1416.903898753164
1119.8045,1196.638817325087
1121.7596,1064.1834602564359
1123.7139,951.1386589632311
1125.6675,945.3052342196679
1127.6204,984.5839972885587
1129.5726,940.1757499796713
1131.524,888.3812842569441
1133.4748,797.0013826825561
1135.4248,699.4868189348817
1137.3741,610.3383587222943
1139.3226,541.0067607582987
1141.2705,467.29277765302686
1143.2176,396.4471566065404
1145.164,381.5206401459909
1147.1097,340.4139668340649
1149.0546,291.27787141824774
1150.9989,218.61308524188462
1152.9424,138.3203367355436
1154.8852,20.850352143666896
1156.8272,-43.596143672504695
1158.7686,-38.06842606023929
1160.7092,-18.41533484132742
1162.6491,-12.185329533991535
1164.5883,119.07331431272723
1166.5267,218.41244288123198
1168.4644,390.03390116320224
1170.4014,592.2895319661966
1172.3377,889.5811741974449
1174.2732,1158.0106608412789
1176.2081,1544.92981598623
1178.1421,1981.0404521407181
1180.0755,2408.844366363879
1182.0082,2674.4933359044444
1183.9401,2810.7391139227075
1185.8713,2689.333426834037
1187.8017,2396.677972946418
1189.7315,2082.7744236745
1191.6605,1746.974426466164
1193.5888,1497.3796079415333
1195.5163,1339.4415772510056
1197.4432,1261.9119285711822
1199.3693,1256.5422426842488
1201.2947,1200.03408775328
1203.2193,1210.139019375927
1205.1432,1218.9585811495017
1207.0664,1207.5443045699303
1208.9889,1233.8977089435648
1210.9106,1221.5703015013096
1212.8316,1246.4635771351022
1214.7519,1328.5290185211816
1216.6715,1296.7680958711571
1218.5903,1382.5322661113496
1220.5084,1471.5729732004038
1222.4257,1542.7416472716377
1224.3424,1576.3897037426486
1226.2583,1649.2685426036296
1228.1735,1804.8795480808749
1230.0879,1926.3240879080058
1232.0016,2097.25351176985
1233.9146,2182.019150087999
1235.8269,2172.1223123115124
1237.7384,2102.1642860692646
1239.6492,1942.5963372689093
1241.5592,1910.6697107964537
1243.4686,1926.135632111951
1245.3772,1990.8953075687623
1247.285,2147.3499242588896
1249.1922,2253.95064936539
1251.0986,2378.3486285978233
1253.0042,2396.2449851262536
1254.9092,2506.1408183372605
1256.8134,2635.1872036549776
1258.7169,2793.6851914421386
1260.6196,2966.985805709599
1262.5216,3206.740042531379
1264.4229,3389.2488683116353
1266.3234,3610.163217387131
1268.2232,3733.633990202148
1270.1223,3794.9620510993373
1272.0207,3832.148227085012
1273.9183,3824.1433072158816
1275.8151,3777.898042227169
1277.7113,3755.113144612673
1279.6067,3753.7392890872106
1281.5014,3874.827112814477
1283.3953,4121.927215420776
1285.2885,4458.5401577841385
1287.181,4811.516459563332
1289.0727,5155.956595831731
1290.9637,5422.410993547541
1292.854,5624.280028109411
1294.7435,5670.664020691896
1296.6323,5663.163236226737
1298.5204,5660.177882939051
1300.4077,5633.458112422315
1302.2943,5558.654019668245
1304.1802,5422.115643333975
1306.0653,5117.892966490104
1307.9497,4725.635917986083
1309.8333,4410.344375492436
1311.7162,4165.168169423332
1313.5984,4079.3070860895004
1315.4798,3985.9108701499936
1317.3605,3992.4792254707954
1319.2405,3941.661816058786
1321.1197,3778.2082659960543
1322.9982,3543.5181599480748
1324.876,3367.5410447982395
1326.753,3164.426431994765
1328.6293,3063.8237993104685
1330.5048,2962.5325928739076
1332.3796,2846.902228175408
1334.2537,2783.032091079969
1336.127,2757.6215389835834
1337.9996,2745.169901451918
1339.8714,2774.276480474431
1341.7426,2747.390550588885
1343.6129,2823.961358590279
1345.4826,2784.988123799707
1347.3515,2826.820037298665
1349.2196,2821.106262318768
1351.087,2870.39593382344
1352.9537,2904.5881585650477
1354.8197,3046.782014592007
1356.6849,3244.326550906846
1358.5493,3417.8707860442864
1360.4131,3578.0137060957895
1362.276,3618.8042629741085
1364.1383,3607.5913728118667
1365.9998,3437.7739155536437
1367.8606,3094.6007350681157
1369.7206,2777.7206408462134
1371.5799,2462.9824114328694
1373.4384,2228.9347975958117
1375.2962,2032.1265254729442
1377.1533,1767.2062989128262
1379.0096,1429.8228014427623
1380.8652,1114.3246989179843
1382.7201,836.5606428955143
1384.5742,620.6292737891272
1386.4275,465.92922364699916
1388.2802,327.8091183110155
1390.132,220.71757896377858
1391.9832,183.85322350980096
1393.8336,104.16466764642428
1395.6832,102.65052523246595
1397.5322,48.90940908509765
1399.3803,46.4899309949833
1401.2278,31.440702263698768
1403.0745,58.26033372791608
1404.9204,29.547435909909836
1406.7656,99.65061874935236
1408.6101,126.4684918904477
1410.4538,176.94966398088945
1412.2968,235.7427424036996
1414.139,284.0963327724003
1415.9805,414.20903834308774
1417.8213,482.17945953090384
1419.6613,634.4561926088973
1421.5006,824.5378290283306
1423.3391,1017.0229538959084
1425.1769,1357.3101440729579
1427.0139,1841.6479662505817
1428.8502,2409.6849735467895
1430.6858,2991.9697006631095
1432.5206,3410.750658204225
1434.3547,3664.226326855127
1436.188,3703.295153193302
1438.0206,3648.2555471539818
1439.8524,3470.3058816394505
1441.6835,3364.3944930694424
1443.5139,3303.4696831606316
1445.3435,3232.8297199857507
1447.1724,3238.1228385828426
1449.0005,3202.3972416616552
1450.8279,3160.05109955071
1452.6545,3202.5325505545616
1454.4804,3222.2897013772545
1456.3056,3221.720626697509
1458.13,3155.8733689711535
1459.9536,2988.295938436818
1461.7766,2730.686313774396
1463.5987,2373.2924437808224
1465.4202,2030.4122499461746
1467.2409,1698.043630027605
1469.0608,1441.7344614781568
1470.88,1217.9326047704344
1472.6984,1025.3859059597016
1474.5161,839.3921989218943
1476.3331,702.299307279085
1478.1493,582.9050462594387
1479.9648,525.4572240681191
1481.7795,431.95364308125045
1483.5935,414.64210042038303
1485.4067,372.1703888875327
1487.2192,344.8362971382958
1489.031,332.3876101065698
1490.842,310.4721092778873
1492.6522,301.38757281391463
1494.4618,252.7817757715993
1496.2705,270.2524901940251
1498.0785,249.1474855964525
1499.8858,211.3145287916277
1501.6924,189.65138410081818
1503.4981,166.50581373215482
1505.3032,170.77557799725128
1507.1075,168.40843554266667
1508.911,125.2521433072061
1510.7138,123.65445654559608
1512.5159,75.86312926003757
1514.3172,30.525914216196725
1516.1178,23.790563421107436
1517.9176,-5.095171423457941
1519.7166,-6.583538853630671
1521.515,-18.176736504786277
1523.3126,-15.27689624274899
1525.1094,-35.735968347747075
1526.9055,-19.50575048381961
1528.7008,-40.53768331268566
1530.4954,-51.933012633619
1532.2893,-35.04257927443632
1534.0824,-66.51670525216923
1535.8747,-12.505362508482904
1537.6663,-12.007858483158088
1539.4572,1.6766243125894107
1541.2473,19.849023326049064
1543.0367,31.010275987744535
1544.8253,50.21131952971518
1546.6132,108.20309087390524
1548.4003,128.08652644014546
1550.1867,173.76256156624459
1551.9723,259.83213030913885
1553.7572,355.2961649881545
1555.5414,474.7555953242936
1557.3247,604.6613474856013
1559.1074,765.7643428925712
1560.8893,900.5654969190837
1562.6705,1055.7657172813806
1564.4509,1202.4659026900572
1566.2305,1281.0169412980504
1568.0094,1342.5697092336386
1569.7876,1365.4750698149383
1571.565,1393.433872934369
1573.3417,1375.8969548296027
1575.1176,1352.7651378039736
1576.8928,1378.5392304018405
1578.6672,1372.7700276399219
1580.4409,1347.8083107495358
1582.2138,1355.3048472343035
1583.986,1362.5103911197757
1585.7575,1403.3756828784544
1587.5282,1432.4014493577533
1589.2981,1535.6884033713304
1591.0673,1600.2872434088304
1592.8358,1681.1986526030205
1594.6035,1757.4232980837978
1596.3704,1851.3118301690783
1598.1366,1982.6148816025507
1599.9021,2081.5830666147904
1601.6668,2164.466979610229
1603.4308,2325.917194177473
1605.194,2499.18426226046
1606.9564,2685.6687125439603
1608.7182,2945.771048720897
1610.4791,3234.691747627511
1612.2394,3471.781256642339
1613.9988,3775.8899907969926
1615.7576,4051.06833040528
1617.5156,4271.116618022116
1619.2728,4402.785155691732
1621.0293,4415.624202747196
1622.785,4293.083974493722
1624.54,4067.214642080289
1626.2942,3796.516333725034
1628.0477,3479.939136973956
1629.8005,3175.9331014078925
1631.5525,2936.69824180829
1633.3037,2668.084541197273
1635.0542,2515.4919532299837
1636.804,2371.7704048807227
1638.553,2296.5697979688757
1640.3013,2305.9900105961196
1642.0488,2291.3808978984453
1643.7955,2326.6922919519393
1645.5416,2414.174001918883
1647.2868,2533.3258136946406
1649.0313,2673.4974890328413
1650.7751,2859.738764353857
1652.5181,3007.7993493430913
1654.2604,3229.7789250885544
1656.0019,3455.227142600271
1657.7427,3759.8936205904756
1659.4828,4062.327943219135
1661.222,4202.779657047277
1662.9606,4203.098268012657
1664.6984,3994.433240025235
1666.4354,3554.133994963987
1668.1717,3012.8999147635586
1669.9072,2481.080345817263
1671.642,2018.324604389415
1673.3761,1651.3819819335295
1675.1094,1332.3017497198807
1676.8419,1092.6331625049233
1678.5737,908.125461722093
1680.3048,774.0278778785032
1682.0351,657.1896324000072
1683.7646,563.7099389721907
1685.4934,510.53800470874194
1687.2215,432.2230310862542
1688.9488,369.31421447594494
1690.6754,357.31074692680977
1692.4012,327.6618167946999
1694.1263,289.6666088623597
1695.8506,249.52430463591827
1697.5742,257.78408272484194
1699.297,219.04511924335475
1701.0191,190.60658772784154
1702.7404,155.36765952423775
1704.461,144.32750407241383
1706.1808,125.28528925856699
1707.8999,131.64018152562767
1709.6182,101.99134606367352
1711.3358,90.08794674638466
1713.0527,101.2791464275333
1714.7688,82.31410706001589
1716.4841,46.991989583942086
1718.1987,66.0619541162805
1719.9126,75.77316030408565
1721.6257,56.5747671337931
1723.338,71.36593283411094
1725.0496,56.845815068001684
1726.7605,57.26357078477031
1728.4706,51.618356365262116
1730.18,31.959327617692907
1731.8886,28.885639834097674
1733.5964,22.396447986920066
1735.3036,38.240906759747304
1737.0099,39.91817061220627
1738.7156,34.52739362151988
1740.4204,18.717729465725824
1742.1246,10.888331477595784
1743.8279,2.9383528027256034
1745.5306,3.96694647782806
1747.2325,-5.576734489761293
1748.9336,-19.14353713237506
1750.634,-23.784252770768035
1752.3336,0.9505185182342757
1754.0325,-23.539585737508787
1755.7307,-17.954928019640647
1757.4281,4.054364350660762
1759.1247,-10.561656578060138
1760.8206,13.197061202202349
1762.5158,-0.4693247895993409
1764.2102,-3.7106571664844523
1765.9039,2.8732261470831872
1767.5968,12.88252429610202
1769.289,6.067436396838275
1770.9804,-19.67183856326119
1772.6711,5.164898342577544
1774.361,15.57804256279178
1776.0502,18.81798949417407
1777.7386,4.385134377739632
1779.4263,19.87987226632231
1781.1132,21.90259816890466
1782.7994,13.903706895674077
1784.4849,32.583593037792525
1786.1696,34.09265104739006
1787.8535,46.68127505075972
1789.5367,43.74985883327372
1791.2192,53.348795713488926
1792.9009,35.928478572468066
1794.5818,59.38929975779138
1796.2621,34.83165125775167
1797.9415,32.255924466753186
1799.6202,53.86251043088214
1801.2982,50.40179987366719
1802.9755,65.92418298001166
1804.6519,72.4800494308065
1806.3277,64.31978824769794
1808.0027,64.69378772752816
1809.6769,68.85243552393786
1811.3504,85.04611864363233
1813.0231,71.47522340479281
1814.6951,84.29013527514553
1816.3664,101.14123900766481
1818.0369,93.82891851242539
1819.7067,92.55355668809216
1821.3757,77.51553549504388
1823.044,92.06523596812531
1824.7115,122.95303836703079
1826.3783,101.8293220308019
1828.0443,88.3444650689512
1829.7096,109.94884457270473
1831.3741,118.49283674984326
1833.0379,128.27681670866286
1834.701,111.60115837253124
1836.3633,137.3162343820518
1838.0248,126.92241626181749
1839.6856,117.37007416325969
1841.3457,124.70957696858886
1843.005,140.09129238631522
1844.6636,144.61558687785646
1846.3214,157.28282550371569
1847.9785,165.74337187824312
1849.6349,156.24758804296198
1851.2904,157.2458343819644
1852.9453,163.23846971686817
1854.5994,175.07585129683548
1856.2528,190.6583347386454
1857.9054,187.6362739083197
1859.5572,158.71002076530112
1861.2083,182.32992539267343
1862.8587,187.49633628641868
1864.5084,172.20960011922352
1866.1572,184.27006168881007
1867.8054,176.9780640708077
1869.4528,186.03394849814504
1871.0994,195.18805443397287
1872.7453,184.09071948110204
1874.3905,190.79227929046374
1876.0349,205.74306767208418
1877.6786,206.0434165280667
1879.3215,218.34365570308637
1880.9637,214.0941129813873
1882.6051,206.24511396377557
1884.2458,213.14698211012046
1885.8858,207.9500388178426
1887.525,209.80460335289445
1889.1634,185.8609929017316
1890.8011,194.86952255276447
1892.4381,202.98050553579606
1894.0743,216.8942531319376
1895.7098,226.1610745924936
1897.3446,220.08127699982833
1898.9786,216.9051651746945
1900.6118,221.58304173703573
1902.2443,215.86520713774462
1903.8761,211.55195961188429
1905.5071,212.79359523586936
1907.1374,208.39040797059533
1908.7669,209.0926896490214
1910.3957,218.80073002020436
1912.0237,207.3148167422769
1913.651,204.0852352853658
1915.2776,208.76226904645227
1916.9034,208.59619938166497
1918.5285,203.53730555951324
1920.1528,189.33586476254413
1921.7764,200.9421521379345
1923.3992,210.65644093950414
1925.0213,179.12900241165562
1926.6427,176.31010569222917
1928.2633,171.00001812777418
1929.8832,212.04900530174064
1931.5023,198.45733108758077
1933.1207,188.6752572382593
1934.7383,170.2530435221688
1936.3552,176.89094782095026
1937.9714,185.23922631371533
1939.5868,191.14813341066747
1941.2015,161.06792166961668
1942.8154,164.4988417368936
1944.4286,152.34114264815253
1946.041,170.94507179405946
1947.6528,152.110875041873
1949.2637,173.08879654940256
1950.8739,167.3790789533491
1952.4834,169.38196315952746
1954.0921,171.4476883999655
1955.7001,155.42649221287047
1957.3074,153.6686104219748
1958.9139,159.82427729674782
1960.5197,156.94372556997587
1962.1247,143.52718637620274
1963.729,145.17488928053717
1965.3325,122.93706241281461
1966.9353,139.01393245112513
1968.5374,135.0057248441858
1970.1387,136.46266365057772
1971.7393,130.33497157882448
1973.3392,122.22286997282481
1974.9383,118.02657887312716
1976.5366,127.49631709805317
1978.1342,122.43230228565835
1979.7311,140.084750799037
1981.3273,137.85387777696087
1982.9227,138.08989695735636
1984.5173,123.49302069960959
1986.1112,117.9134599822114
1987.7044,113.45142454872303
1989.2968,113.75712296357096
1990.8885,130.38076265667087
1992.4795,115.72254992036733
1994.0697,122.38268974320181
1995.6592,106.81138595648963
1997.2479,99.80884116772222
1998.8359,125.22525691627652
2000.4232,117.06083374344144
2002.0097,108.11577093825599
2003.5955,104.09026661915141
2005.1805,122.73451782340544
2006.7648,124.34872054739208
2008.3484,118.18306956014203
2009.9312,128.73775838720212
2011.5133,107.01297937228492
2013.0946,106.35892357173088
2014.6752,120.02578097174955
2016.2551,110.36374049496226
2017.8342,111.22298986373471
2019.4126,132.9037156967961
2020.9902,94.80610350064717
2022.5672,125.4303374527517
2024.1433,113.07660078251456
2025.7188,106.84507546503846
2027.2935,99.78594234466027
2028.8674,109.84938119726758
2030.4406,97.13557080089004
2032.0131,109.14468883506288
2033.5849,103.97691200796817
2035.1559,104.43241593634139
2036.7261,106.56137519715094
2038.2957,105.56396332304121
2039.8645,120.04035278104584
2041.4325,124.19071498255562
2042.9998,106.46522013856202
2044.5664,113.86403721814986
2046.1323,115.38733412575266
2047.6974,103.9352776271653
2049.2617,95.5580333343114
2050.8254,109.90576581976438
2052.3883,120.17863870051679
2053.9504,103.9768144945092
2055.5118,114.05045451789556
2057.0725,110.99971904706263
2058.6325,114.47476721789417
2060.1917,109.62575705627933
2061.7502,105.25284544335909
2063.3079,107.80618816401875
2064.8649,108.63593995061501
2066.4212,108.84225445744732
2067.9767,109.67528425245473
2069.5315,109.98518081515522
2071.0856,103.72209452831339
2072.6389,92.53617467484219
2074.1915,102.32756950043631
2075.7433,77.34642632542636
2077.2945,90.74289144686873
2078.8448,89.46711038835883
2080.3945,88.01922776606125
2081.9434,96.89938730147287
2083.4916,85.257731835899
2085.039,91.14440324165162
2086.5857,102.15954253846758
2088.1317,82.75328983463942
2089.677,80.3257842168673
2091.2215,90.87716394431936
2092.7652,66.20756647290591
2094.3083,76.36712834976788
2095.8506,109.20598545997109
2097.3921,95.87427292491293
2098.933,84.12212477393177
2100.4731,92.69967407762306
2102.0124,88.55705306536129
2103.5511,103.5943930395274
2105.089,96.26182441693072
2106.6261,114.95947657843726
2108.1626,99.78747794229594
2109.6983,99.39595577716136
2111.2332,101.73503635381576
2112.7675,110.80484494908114
2114.301,94.10550582243195
2115.8337,112.6371421252934
2117.3657,89.8498760680377
2118.897,100.8938287346673
2120.4276,96.16912031068614
2121.9575,83.67586997266199
2123.4866,110.91419593547062
2125.0149,104.68421557723377
2126.5426,89.98604516693013
2128.0695,82.7697999266984
2129.5956,84.58559417881725
2131.1211,90.33354141786731
2132.6458,94.16375429257687
2134.1698,97.97634454833906
2135.693,99.22142298891231
2137.2155,94.69909943829225
2138.7373,105.05948272826299
2140.2584,95.40268074361802
2141.7787,98.27880031855466
2143.2983,85.98794733324576
2144.8171,94.53022668507583
2146.3353,92.655742411549
2147.8527,82.61459760486969
2149.3693,93.15689443068231
2150.8853,81.53273422849065
2152.4005,80.39221740622679
2153.9149,99.43544355649783
2155.4287,96.51251146798768
2156.9417,85.07351893502619
2158.454,87.8185627868188
2159.9655,93.94773900183736
2161.4764,97.16114268036745
2162.9865,89.55886798321785
2164.4958,84.7910080995864
2166.0045,85.20765532308451
2167.5124,103.70890109941433
2169.0195,68.1448360222023
2170.526,94.76554964798811
2172.0317,92.77113085186261
2173.5367,94.66166756126313
2175.0409,82.18724677591672
2176.5445,86.24795454893342
2178.0473,80.64387611155189
2179.5494,79.67509583253263
2181.0507,88.64169727419812
2182.5513,88.64376320212136
2184.0512,96.83137549545768
2185.5504,88.75461514692597
2187.0488,86.76356218093247
2188.5465,82.80829573433857
2190.0435,81.78889407637098
2191.5397,87.60543464817465
2193.0353,82.45799407300797
2194.5301,79.84664809807487
2196.0241,83.02147164600001
2197.5175,77.58253884094233
2199.0101,81.12992297684559
2200.502,74.01369657182977
2201.9931,85.33393133271647
2203.4835,69.89069822619126
2204.9733,67.7340673656006
2206.4622,76.51410816538396
2207.9505,72.13088936264171
2209.438,68.98447892933359
2210.9248,69.02494411611315
2212.4109,57.20235148378879
2213.8962,58.36676690292097
2215.3809,54.26825567204605
2216.8648,67.35688250603607
2218.3479,63.28271157707786
2219.8304,67.99580638379257
2221.3121,65.39622979197406
2222.7931,61.43404398745952
2224.2733,65.45931050212357
2225.7529,60.2220902535023
2227.2317,58.87244350453852
2228.7098,59.76042991595523
2230.1872,58.586108559751665
2231.6638,66.79953791032358
2233.1397,58.35077585620775
2234.6149,47.98987961794637
2236.0894,53.26690583257414
2237.5632,51.18191065722908
2239.0362,46.73494971637842
2240.5085,52.22607812267188
2241.9801,40.55535052140999
2243.4509,47.372821035632796
2244.921,55.378543382828184
2246.3904,33.82257080675663
2247.8591,33.10495599739352
2249.3271,44.07575130648911
2250.7943,36.535008754744695
2252.2608,43.9327799221046
2253.7266,44.01911602316295
2255.1917,36.044067833185636
2256.656,35.95768568724793
2258.1197,38.31001955998681
2259.5826,26.20111906646298
2261.0447,38.031033438636314
2262.5062,34.499811646458056
2263.9669,33.70750227956955
2265.4269,44.55415358261462
2266.8862,40.789813463163455
2268.3448,47.26452938324519
2269.8026,46.678348396993215
2271.2598,40.0813170858944
2272.7162,45.023481564653366
2274.1719,45.0048875471623
2275.6268,37.47558029707898
2277.0811,42.58560462801415
2278.5346,38.23500497882151
2279.9874,40.87382536250129
2281.4395,54.002109409703735
2282.8908,33.91990034234186
2284.3414,46.677240842308265
2285.7914,51.47417325229594
2287.2406,40.660739448228014
2288.689,60.13698079128562
2290.1368,52.75293823604443
2291.5838,53.5586521357111
2293.0302,48.45416231596323
2294.4758,53.33950806689381
2295.9206,34.61472819405344
2297.3648,52.579860969599395
2298.8082,48.984944319541
2300.251,45.48001564408992
2301.693,50.765111853608914
2303.1343,56.24026940366002
2304.5748,50.60552424215575
2306.0147,51.260911754606695
2307.4538,51.90646682046918
2308.8922,48.9922238065908
2310.3299,53.96821656075417
2311.7669,55.584478440819794
2313.2031,49.991042264966836
2314.6387,40.78794029552955
2316.0735,51.32520429493388
2317.5076,52.452865617726275
2318.941,42.220955105202165
2320.3737,44.72950307412907
2321.8056,54.97853941906692
2323.2369,39.368093587279645
2324.6674,43.24819447624691
2326.0972,38.91887058976795
2327.5263,52.53014999916081
2328.9547,49.88206038655608
2330.3823,44.174628908783006
2331.8092,51.35788222385122
2333.2355,52.48184654802435
2334.661,49.59654758398824
2336.0858,56.852010509610636
2337.5098,50.69826000679336
2338.9332,50.58532018891947
2340.3558,56.7132146623901
2341.7778,49.33196652775473
2343.199,44.391598318431306
2344.6195,46.39213207451894
2346.0393,38.48358939220202
2347.4583,57.01599140374333
2348.8767,55.83935885657047
2350.2943,59.20371192795187
2351.7113,61.15907023676186
2353.1275,59.60545280983797
2354.543,55.99287806242614
2355.9578,52.471363813721155
2357.3718,52.84092732298882
2358.7852,58.40158532478267
2360.1978,51.20335402524802
2361.6098,59.346249046514686
2363.021,55.83028549867822
2364.4315,59.755477898372874
2365.8413,60.07184020393106
2367.2504,58.279385776131676
2368.6587,54.87812737503373
2370.0664,42.96807717790398
2371.4733,52.29924681322518
2372.8795,54.62164747980114
2374.285,57.63528985344328
2375.6899,50.54018406374894
2377.0939,52.63633966396242
2378.4973,50.573765701925595
2379.9,55.10247069911634
2381.3019,55.37246267127716
2382.7032,58.08374908312658
2384.1037,54.586336845658934
2385.5035,50.8802322890308
2386.9027,47.56544119753585
2388.3011,49.39196884666444
2389.6987,51.30982003625377
2391.0957,43.368999072223005
2392.492,40.91950974739166
2393.8876,51.56135542089169
2395.2824,40.89453904266111
2396.6765,46.769063047022655
2398.07,40.584929459356545
2399.4627,40.04213983735167
2400.8547,48.04069533284792
2402.246,44.780596697266446
2403.6366,47.2618442016219
2405.0265,43.68443766912287
2406.4156,39.94837645036
2407.8041,31.7536594590797
2409.1918,38.60028520954802
2410.5789,45.93825189849372
2411.9652,44.76755733664277
2413.3508,42.73819887534046
2414.7358,36.700173418257464
2416.12,36.30347744167989
2417.5035,34.44810705489476
2418.8863,40.13405800415535
2420.2684,44.81132569123383
2421.6497,29.929905116562395
2423.0304,42.6897908324604
2424.4104,40.940977091949435
2425.7896,41.83345772115558
2427.1682,41.36722613679308
2428.546,43.8422753372397
2429.9232,42.70859790720215
2431.2996,51.166185992964074
2432.6753,45.36503131372365
2434.0503,47.205125077017556
2435.4246,31.98645803673253
2436.7982,39.80902047470454
2438.1711,43.47280235290464
2439.5433,27.227793235215586
2440.9148,45.173982250790004
2442.2856,47.56135825650449
2443.6557,40.33990965749672
2445.025,37.70962438328979
2446.3937,43.97048996000876
2447.7617,41.67249353668353
2449.1289,38.66562182263965
2450.4955,43.54986111047765
2451.8613,44.77519730614358
2453.2265,44.14161588008483
2454.5909,47.64910185499775
2455.9546,44.147639812162424
2457.3177,46.13721385636882
2458.68,40.76780765093076
2460.0416,52.78940439779058
2461.4025,58.90198689121189
2462.7627,54.25553739756583
2464.1222,50.60003759420374
2465.4811,51.435468615922446
2466.8392,48.861811091517666
2468.1966,54.72904513543176
2469.5533,45.887150373487884
2470.9093,64.08610588422039
2472.2645,57.77589028729358
2473.6191,56.95648156150969
2474.973,54.77785710791352
2476.3262,51.88999375798562
2477.6787,61.04286779542781
2479.0305,51.986454985043565
2480.3816,63.02073048120769
2481.7319,63.49566891843142
2483.0816,60.86124430101995
2484.4306,50.81742999832204
2485.7789,61.214198771075075
2487.1264,51.451522871842144
2488.4733,60.57937394104442
2489.8195,53.54772310458782
2491.165,52.10654088258468
2492.5097,60.80579725967118
2493.8538,56.29546169941932
2495.1972,46.475503057343076
2496.5398,48.54588962600258
2497.8818,54.806589233203226
2499.2231,52.15756922129174
2500.5637,45.14879638455011
2501.9035,55.3302369956848
2503.2427,47.90185687591509
2504.5812,44.41362129315826
2505.919,55.56549503631379
2507.256,61.65744245014582
2508.5924,52.13942732376324
2509.9281,46.811412829700885
2511.2631,46.27336161910034
2512.5974,61.22523587498915
2513.9309,54.56699731766196
2515.2638,45.898607055161165
2516.596,57.270025649859235
2517.9275,49.53121320514265
2519.2583,61.93212925169803
2520.5884,57.52273282489989
2521.9178,66.00298234080242
2523.2465,66.07283564023248
2524.5745,63.63224990398737
2525.9018,63.58118165213659
2527.2284,73.31958676842771
2528.5543,60.497420500796125
2529.8796,53.71463736398243
2531.2041,55.52119126775278
2532.5279,66.56703558472736
2533.851,73.65212313231541
2535.1735,69.67640606225575
2536.4952,64.339835789767
2537.8163,63.84236303330454
2539.1366,61.78393786792594
2540.4562,65.56450973026597
2541.7752,59.33402743911995
2543.0935,59.29243915763925
2544.411,72.3396924556348
2545.7279,78.5257343099936
2547.0441,81.20051097420571
2548.3596,75.56396791650457
2549.6744,73.76604979311867
2550.9885,66.75670050463805
2552.3019,77.48586321399205
2553.6146,79.60348041654413
2554.9266,74.55949383279938
2556.2379,78.75384438722904
2557.5485,73.18647225870916
2558.8585,79.95731683857889
2560.1677,73.81631678631243
2561.4762,79.21340996181118
2562.7841,81.74853348681393
2564.0913,85.9716236909253
2565.3977,82.2826160862653
2566.7035,81.33144532523795
2568.0086,90.11804523742217
2569.313,86.24234883908241
2570.6167,88.90428824530352
2571.9197,95.05379470874766
2573.222,89.94079859303463
2574.5236,83.46522931124582
2575.8246,90.22701537705575
2577.1248,95.37608446948627
2578.4244,98.66236336528925
2579.7232,97.0857778874564
2581.0214,99.29625287235615
2582.3189,109.94371218549918
2583.6157,104.72807869943381
2584.9118,99.54927418727084
2586.2072,109.80721937484054
2587.5019,112.45183399248094
2588.7959,114.48303667245762
2590.0893,109.40074492251892
2591.3819,113.75487510558276
2592.6739,114.19534249056062
2593.9652,115.22206120881503
2595.2557,125.53494424975565
2596.5456,119.08390345057148
2597.8348,116.46884939310223
2599.1234,125.08969146834932
2600.4112,122.59633790262569
2601.6983,133.58869567134798
2602.9848,125.26667052397045
2604.2705,131.93016687405964
2605.5556,134.3290878825161
2606.84,128.1633353909383
2608.1237,124.2828098976347
2609.4067,117.2374106192807
2610.689,121.07703552972407
2611.9707,125.10158143043805
2613.2516,123.81094391212628
2614.5319,118.80501731447737
2615.8115,113.33369473907044
2617.0903,111.84686809943514
2618.3685,109.14442817576423
2619.6461,111.57626462978169
2620.9229,117.04226603176812
2622.199,123.24231983624122
2623.4745,117.07631232729591
2624.7493,116.34412855660457
2626.0234,111.44565240507711
2627.2968,113.98076659018272
2628.5695,121.9993527149345
2629.8415,119.35129124253831
2631.1128,112.18646141620673
2632.3835,123.15474128563983
2633.6535,113.75600777867328
2634.9228,112.99013659159584
2636.1914,117.00700228313633
2637.4593,117.25647828212311
2638.7265,116.58843684731391
2639.9931,107.5527490649024
2641.259,118.59928485519833
2642.5242,116.57791306298407
2643.7887,116.53850134704965
2645.0525,114.480916200406
2646.3156,110.9050229506795
2647.5781,113.96068578068775
2648.8398,109.19776776419837
2650.1009,109.26613083537279
2651.3613,111.76563583639427
2652.6211,113.04614251678572
2653.8801,111.65750950841368
2655.1385,107.89959431268414
2656.3961,117.27225331442764
2657.6531,113.92534181947951
2658.9094,115.8587139609524
2660.1651,119.12222273270527
2661.42,119.26571997001088
2662.6743,121.93905631692041
2663.9279,133.04208122482783
2665.1808,120.57464292573775
2666.433,126.9865883212334
2667.6846,128.27776310715183
2668.9354,133.1980117094655
2670.1856,128.74717727136886
2671.4351,135.87510160407794
2672.6839,148.7316252313367
2673.9321,147.61658731813816
2675.1795,147.37982554215932
2676.4263,135.67117610491164
2677.6724,146.69047373410854
2678.9179,154.18755180075198
2680.1626,144.71224220893907
2681.4067,154.66437532089185
2682.6501,155.04378005171043
2683.8928,146.8002837698516
2685.1348,143.78371229333447
2686.3761,139.14388997217543
2687.6168,136.18063971855406
2688.8568,140.54378305321165
2690.0961,124.68314013508234
2691.3348,135.94852971766306
2692.5727,124.78976930761928
2693.81,125.35667505213121
2695.0466,129.24906185048098
2696.2826,120.96674334838497
2697.5178,123.30953189906847
2698.7524,125.87723864608995
2699.9863,124.7696734999131
2701.2195,125.23664511222944
2702.452,130.3779608870342
2703.6839,145.69342697595607
2704.9151,145.08284822684436
2706.1456,137.39602803061393
2707.3755,154.3827683273513
2708.6046,159.24286968318324
2709.8331,160.276131120409
2711.0609,170.982350068899
2712.2881,182.11132235576304
2713.5145,187.51284209828748
2714.7403,188.13670159264507
2715.9654,198.43269125988115
2717.1899,213.850599639674
2718.4136,228.7902132873753
2719.6367,231.10131661983087
2720.8591,245.1836917659848
2722.0809,256.13711854376845
2723.3019,267.3613743192766
2724.5223,285.90623389723305
2725.7421,275.37146940874834
2726.9611,277.7068501258707
2728.1795,280.9121425669347
2729.3972,274.5871104732064
2730.6142,260.78151477683093
2731.8306,248.79511366408224
2733.0462,226.17766271341952
2734.2612,216.12891501535114
2735.4756,190.2986213986095
2736.6892,188.48653053063754
2737.9022,160.79238917589237
2739.1145,151.51594221396658
2740.3262,141.456932916529
2741.5372,124.4151030400891
2742.7475,114.79019292658677
2743.9571,110.6819416738116
2745.1661,96.24008723165184
2746.3744,81.96436644317635
2747.582,88.25451518905345
2748.7889,66.76026853030885
2749.9952,60.03136064542241
2751.2008,61.367525045273055
2752.4057,48.81849464042557
2753.61,46.98400172777053
2754.8136,43.663778116013304
2756.0165,37.8575551440199
2757.2188,50.11506371401856
2758.4204,35.636034349662054
2759.6213,32.720197073453164
2760.8215,34.91728155153476
2762.0211,40.277017122847724
2763.22,31.449132777160116
2764.4182,27.033357101469846
2765.6158,33.82941836828468
2766.8127,29.387044579777694
2768.009,19.405963399828806
2769.2045,9.235902198447207
2770.3994,5.076588151583451
2771.5936,-2.0722516571709093
2772.7872,0.589109805009457
2773.9801,3.9604202727442726
2775.1723,-14.858572525238287
2776.3639,-12.418120899813857
2777.5548,-10.868328724718708
2778.745,-13.609175816661718
2779.9346,-15.99053341774811
2781.1235,-17.812136814417045
2782.3117,-19.773561547678582
2783.4992,-11.02420521529723
2784.6861,-15.263267877157318
2785.8723,-16.139839461333622
2787.0579,-0.65285741585501
2788.2428,-3.0010979517544456
2789.427,-2.533330758019588
2790.6106,2.9017044573304247
2791.7935,10.405293294250328
2792.9757,14.578721323679133
2794.1573,19.173274012502816
2795.3382,28.540236681820943
2796.5184,35.530894461000685
2797.698,38.89653219400657
2798.8769,57.93843436949521
2800.0551,63.70788508715816
2801.2327,71.3561678673027
2802.4096,88.68456559315712
2803.5859,105.34436043438984
2804.7615,119.33683367382321
2805.9364,140.21326554083714
2807.1106,160.0749350714434
2808.2842,181.27311989952148
2809.4572,209.4090960582023
2810.6294,236.5341377678859
2811.801,276.6495171548818
2812.972,302.0065039801582
2814.1423,344.6063652381887
2815.3119,379.5503649033816
2816.4808,428.1897635040825
2817.6491,476.92581777313296
2818.8167,527.4097801614773
2819.9837,575.1928983508021
2821.15,623.7264147486966
2822.3157,672.1615660108215
2823.4807,738.8495825555735
2824.645,798.6916880797339
2825.8086,844.0390988915885
2826.9716,887.6430233125056
2828.134,936.8546612234641
2829.2957,972.9252036290122
2830.4567,997.3558321651532
2831.617,1024.0977187386372
2832.7767,1032.102025282658
2833.9358,1039.9199034894316
2835.0941,1033.902494730155
2836.2519,1007.9509299768259
2837.4089,992.9663298624171
2838.5653,978.6498049403931
2839.7211,972.7524558345551
2840.8761,965.4253733822064
2842.0306,974.4196386931267
2843.1843,1009.8863232228423
2844.3374,1032.9264886826836
2845.4899,1078.3911866851176
2846.6417,1129.4814585133486
2847.7928,1189.6483346666678
2848.9433,1264.7928343495532
2850.0931,1337.965964869999
2851.2422,1395.6187208880715
2852.3907,1463.8520836841785
2853.5385,1510.36702058254
2854.6857,1547.1644842688565
2855.8323,1615.7454123251582
2856.9781,1674.2607268618308
2858.1233,1717.8613338318064
2859.2679,1752.39812244541
2860.4118,1806.1719647343534
2861.555,1848.9837152063683
2862.6976,1886.1342103074667
2863.8395,1903.7742679938242
2864.9808,1952.9546873602742
2866.1214,1952.9262484639085
2867.2614,1975.9397118322713
2868.4007,1988.8458184636456
2869.5393,2008.345289596917
2870.6773,2016.6888265825132
2871.8146,2047.72711068741
2872.9513,2038.660803011695
2874.0874,2013.3405441781845
2875.2227,2026.5169544230873
2876.3574,1999.2406338492078
2877.4915,1964.26216229418
2878.6249,1943.1820996032325
2879.7577,1924.7009859789719
2880.8898,1906.4193421921861
2882.0212,1869.0376697666525
2883.152,1872.9564511619558
2884.2821,1845.5761501473046
2885.4116,1845.4472117623434
2886.5405,1838.4700625909545
2887.6686,1853.94511076255
2888.7962,1873.9727460218392
2889.923,1867.003339574082
2891.0493,1880.3872438848102
2892.1748,1884.6247927495235
2893.2997,1914.3663011598494
2894.424,1913.6620652611666
2895.5476,1924.8623620551928
2896.6706,1936.8674494070233
2897.7929,1978.577565933132
2898.9145,2001.3429308813174
2900.0355,2029.1137437136024
2901.1559,2065.3401838785812
2902.2756,2100.0724105337113
2903.3946,2120.8605621830475
2904.513,2135.354756329921
2905.6308,2177.705089269058
2906.7479,2196.4616359416373
2907.8643,2231.4244495117878
2908.9801,2251.3435611790223
2910.0953,2257.81897982861
2911.2098,2251.5506918323845
2912.3236,2241.88866098399
2913.4368,2233.882828561565
2914.5494,2206.4831134243595
2915.6613,2187.039412092797
2916.7725,2144.1015990224687
2917.8831,2131.1695267985724
2918.9931,2096.09302656529
2920.1024,2063.7719081551104
2921.211,2073.205960439591
2922.319,2024.194951652571
2923.4264,2013.53862929583
2924.5331,2012.8867206291995
2925.6391,1988.788932777124
2926.7445,2014.8449527351816
2927.8493,2017.8044476110613
2928.9534,2004.417064364003
2930.0569,2006.8324297752038
2931.1597,2007.7501505816892
2932.2619,2019.169813452162
2933.3634,2024.7909849778243
2934.4643,2024.713211558178
2935.5645,2015.4360193448174
2936.6641,1976.3589142422045
2937.763,1931.1313820004416
2938.8613,1908.8528886060408
2939.959,1881.3228807342025
2941.056,1792.4907859715963
2942.1523,1733.456013091666
2943.248,1647.0679529429458
2944.3431,1557.5759790394109
2945.4375,1462.579448424357
2946.5313,1374.9277025653203
2947.6244,1264.0200683040428
2948.7169,1177.3058587329897
2949.8087,1086.7843743044255
2950.8999,997.1549036975568
2951.9904,913.166724723747
2953.0803,852.31910522281
2954.1696,792.7613039028929
2955.2582,741.3925709489525
2956.3462,702.9121486183329
2957.4335,660.5192717544531
2958.5202,636.3131681716112
2959.6062,606.293059078913
2960.6916,584.808159322333
2961.7764,569.057677684915
2962.8605,553.7408171016223
2963.9439,550.2567748168415
2965.0267,535.404742537552
2966.1089,533.2339064681653
2967.1905,524.4934474590457
2968.2714,529.1825410282187
2969.3516,524.5503574487759
2970.4312,539.9460617019839
2971.5102,540.268813523606
2972.5885,544.8677672499456
2973.6662,557.1420718146173
2974.7432,557.6408707025595
2975.8196,548.1633018272898
2976.8954,543.6084975259176
2977.9705,539.8255846539199
2979.045,538.1636846306891
2980.1188,522.6219134773621
2981.192,510.24938183343966
2982.2645,492.3451951122033
2983.3364,483.4584536244415
2984.4077,453.1382527574906
2985.4783,431.0336830641031
2986.5483,394.84383056564934
2987.6177,370.4177769731631
2988.6864,342.55460004923964
2989.7545,306.153373852297
2990.8219,278.11316901520763
2991.8887,245.93305310930975
2992.9548,225.46209092481092
2994.0204,201.0493447925876
2995.0852,173.79387478889612
2996.1495,152.24473897949986
2997.2131,123.5009936922238
2998.276,110.21169373244538
2999.3383,91.7258926705324
3000.4,70.14264297473596
3001.4611,57.61099619604863
3002.5215,56.03000318403673
3003.5812,30.898714212156506
3004.6404,31.01617899356421
3005.6989,17.331446932429344
3006.7567,6.893567122759691
3007.8139,5.0515884852484305
3008.8705,-1.9454401283464904
3009.9264,-4.298469916783176
3010.9818,-0.6584326438726862
3012.0364,-16.626217131712394
3013.0905,-4.802705624657449
3014.1439,-7.4886142711541765
3015.1966,-11.034611240619483
3016.2487,-13.491289891214137
3017.3002,-9.15913334533252
3018.3511,-10.638489947383391
3019.4013,-4.729616542033398
3020.4509,-2.982663695434667
3021.4998,0.40226527512987786
3022.5481,-3.2749031508127473
3023.5958,0.23575750224210879
3024.6428,5.384206426081107
3025.6892,9.770402810134215
3026.735,2.5943057899891073
3027.7802,17.605874403529526
3028.8247,16.055067662696217
3029.8685,26.94184440337142
3030.9118,24.916163300886808
3031.9544,41.77798276115635
3032.9963,38.12726094093216
3034.0376,46.26395557918676
3035.0783,51.338024033620115
3036.1184,61.399423199293324
3037.1578,65.39810945788736
3038.1966,66.23403857708911
3039.2348,79.80716567060472
3040.2723,73.61744518980021
3041.3092,80.66483078797012
3042.3455,81.8492753822344
3043.3811,82.57073108306503
3044.4161,85.12914918244167
3045.4505,87.62448014663653
3046.4842,84.40667359063104
3047.5173,85.37567825316148
3048.5498,82.98144202889802
3049.5816,83.27391195875396
3050.6128,81.0530342538284
3051.6434,91.61875429248181
3052.6734,85.4210166425446
3053.7027,84.35976495565944
3054.7314,77.03494202925907
3055.7594,79.1464898171784
3056.7868,80.49434950290328
3057.8136,74.07846147845481
3058.8398,79.84876533091068
3059.8653,83.55519990656404
3060.8902,82.54770325322039
3061.9145,76.92621258313335
3062.9381,81.09066428307972
3063.9612,80.04099397057439
3064.9835,81.2771364522257
3066.0053,75.34902573423227
3067.0264,71.35659501002141
3068.0469,69.74977671953059
3069.0668,67.82850258913123
3070.086,69.09270364769702
3071.1046,62.54231024581691
3072.1226,57.377252043152566
3073.1399,69.84745807394296
3074.1567,48.95285679865424
3075.1727,51.94337597927853
3076.1882,42.21894288827923
3077.203,44.07948427868638
3078.2173,33.9749264813409
3079.2308,36.65519538628885
3080.2438,27.120216543827212
3081.2561,17.119915137701298
3082.2678,20.204216080454103
3083.2789,16.3730441134297
3084.2893,16.226323775929956
3085.2991,16.013979443526523
3086.3083,6.285935329527973
3087.3169,3.5921154871031433
3088.3248,6.182443906561758
3089.3321,2.356844542292464
3090.3388,3.2652412868595775
3091.3449,1.1575580092590485
3092.3503,5.333718545834444
3093.3551,-2.3563532786459973
3094.3593,-0.4127336927512033
3095.3629,1.914524614919145
3096.3658,-0.5746269210250148
3097.3681,1.419763114881107
3098.3698,-1.0523481213748767
3099.3708,-0.241003488002832
3100.3713,-1.2962353302549445
3101.3711,-0.968073585758475
3102.3702,-3.806535242749959
3103.3688,1.3883723815891926
3104.3667,-2.333320002635446
3105.364,-6.321581699202028
3106.3607,0.4236412979782642
3107.3568,1.8024661475952826
3108.3522,6.9150057761621895
3109.347,-1.7386269078323835
3110.3412,-0.058319065049659
3111.3348,-1.493940487268219
3112.3277,1.1046396163407906
3113.32,0.7375669610715931
3114.3117,2.4049872511721446
3115.3028,7.5570388225963825
3116.2932,6.043859987248396
3117.2831,2.215588981462048
3118.2723,9.372363981132708
3119.2608,3.914323139999908
3120.2488,9.691604518079657
3121.2361,11.6043461362448
3122.2229,8.052685918452198
3123.209,10.28676167261537
3124.1944,9.906711126121081
3125.1793,12.562671903488535
3126.1635,13.40478153016997
3127.1471,11.333177405990767
3128.1301,15.747996796728529
3129.1125,11.649376854829171
3130.0942,14.33745457525876
3131.0753,18.86236683648964
3132.0558,21.374250373619716
3133.0357,23.27324173312337
3134.015,19.00947724773249
3134.9936,19.533093017446575
3135.9716,21.744224952170484
3136.949,22.9930087664781
3137.9258,22.37957995750118
3138.902,26.954073792441278
3139.8775,27.516625314704356
3140.8524,28.317369298155498
3141.8267,27.20644024149371
3142.8004,29.133972360244286
3143.7735,35.05009959786804
3144.7459,33.40495560648621
3145.7178,32.59867368771896
3146.689,34.981386809136964
3147.6596,36.60322761232426
3148.6295,37.414328389050965
3149.5989,37.21482106505499
3150.5676,35.40483719193108
3151.5357,38.03450794912577
3152.5032,40.95396416203731
3153.4701,39.76333627571897
3154.4364,39.76275432568441
3155.402,41.452347949814026
3156.367,41.6322463883606
3157.3315,45.00257846705357
3158.2952,42.46347259529993
3159.2584,46.265056732480915
3160.221,43.85745841334311
3161.1829,48.2408047099826
3162.1442,48.01522225592092
3163.105,47.68083720227159
3164.065,49.537775219996
3165.0245,50.436161503247206
3165.9834,49.1261207508005
3166.9416,50.157777157069575
3167.8993,54.28125442520697
3168.8563,52.9466757567874
3169.8127,52.40416381057314
3170.7684,56.70384071585969
3171.7236,52.54582807790092
3172.6782,59.330246934912424
3173.6321,60.407217799651455
3174.5854,63.32686059157288
3175.5381,63.389294626059396
3176.4902,59.74463858522511
3177.4417,64.09301051729119
3178.3926,62.784527873032474
3179.3428,66.81930746229368
3180.2924,67.44746546707428
3181.2415,69.66911740118073
3182.1899,70.83437810394476
3183.1377,71.04336171800706
3184.0848,70.79618167766453
3185.0314,69.44295070678044
3185.9773,70.18378082125625
3186.9227,72.01878334256398
3187.8674,74.04806889033783
3188.8115,75.47174736402414
3189.755,78.13992792258861
3190.6979,74.85271897027944
3191.6402,86.41022812994555
3192.5818,78.86256227590872
3193.5229,81.55982741838837
3194.4633,83.65212877897838
3195.4031,82.88957076367433
3196.3423,85.3722569419505
3197.2809,83.25029005438547
3198.2189,84.5237719878353
3199.1563,88.94280379665312
3200.0931,88.70748568995431
3201.0292,87.46791698742625
3201.9648,87.97419612168144
3202.8997,92.42642065065326
3203.834,92.32468725253304
3204.7677,94.76909168124794
3205.7008,87.90972876747828
3206.6333,101.5466923942134
3207.5652,95.08007556534535
3208.4964,95.85997026929928
3209.4271,100.98646754369955
3210.3571,99.25965746757086
3211.2865,100.92962911007317
3212.2154,102.79647054776987
3213.1436,104.76026884792805
3214.0712,104.52111004985008
3214.9982,108.27907914523564
3215.9246,102.4342600805733
3216.8503,106.0367357195608
3217.7755,107.98658790155326
3218.7001,110.1338974055385
3219.624,110.47874393063836
3220.5473,108.77120607463574
3221.4701,107.21136133052603
3222.3922,113.49928610359255
3223.3137,112.48505572700502
3224.2346,111.11874439894024
3225.1549,115.90042519272441
3226.0746,113.93017007049639
3226.9937,115.90804983539059
3227.9121,118.33413415123981
3228.83,116.65849152279628
3229.7473,122.18118927147083
3230.6639,121.4022935520894
3231.5799,124.97186929766603
3232.4954,121.38998022719176
3233.4102,125.05668880993892
3234.3244,123.12205630128008
3235.238,124.38614270602095
3236.151,131.89900679774652
3237.0634,129.21070610618048
3237.9752,129.27129684205624
3238.8864,127.13083392400029
3239.797,132.63937097792598
3240.7069,128.39696035843838
3241.6163,133.50365309374882
3242.5251,133.6594989280989
3243.4332,133.56454627069382
3244.3408,135.26884219414364
3245.2477,133.97243243541305
3246.154,135.7753613787782
3247.0598,140.67767206879097
3247.9649,138.4794061922496
3248.8694,142.08060402917562
3249.7733,137.38130447479648
3250.6766,141.38154500353346
3251.5793,138.9813617159949
3252.4814,142.7807892989735
3253.3829,145.32986104944843
3254.2838,142.02860883659093
3255.1841,144.47706307627362
3256.0838,148.72525276408297
3256.9829,149.72320545083474
3257.8814,150.37094720009216
3258.7792,147.0185025781862
3259.6765,150.81589464773845
3260.5731,150.7131450011853
3261.4692,149.51027372280421
3262.3647,151.60729938974112
3263.2595,153.00423908403917
3264.1538,151.2511083716684
3265.0474,153.94792128855659
3265.9404,157.94469035812023
3266.8329,158.84142656429668
3267.7247,153.93813931157632
3268.616,159.38483641603528
3269.5066,156.93152415436822
3270.3966,154.37820720942136
3271.286,156.97488869472562
