RamanShift,CorrectedData
30.1047,1128.8826800329207
32.3739,1043.965795123523
34.6426,957.8988989252985
36.9109,883.3319697097623
39.1787,802.2649761694406
41.4461,721.3978781635393
43.7131,641.5306275286148
45.9796,560.6131688872438
48.2456,485.0454404466967
50.5112,404.62737480811154
52.7764,319.8588997221718
55.0411,245.6399388932872
57.3054,165.17041282727814
59.5692,89.55023957356578
61.8326,10.22933552986693
64.0955,-65.54238380160393
66.3579,-142.7150030209257
68.6199,-216.13795195976314
70.8815,-269.3592347269009
73.1426,-281.92469621298403
75.4032,-168.52749040990227
77.6634,216.34204511816915
79.9231,1237.3952563966836
82.1824,3532.6434872876753
84.4412,7781.948069279226
86.6995,13632.87029853298
88.9574,19370.771393391104
91.2148,23289.612435867064
93.4717,25009.804314266614
95.7282,25235.407683999376
97.9842,24955.382950376938
100.2398,24274.540266356806
102.4949,23509.139535342663
104.7495,22639.690417992788
107.0036,21678.30233987406
109.2573,20805.58450015646
111.5105,19992.745881226947
113.7632,19169.545257416634
116.0154,18478.191203129172
118.2672,17942.692101072775
120.5185,17380.20614917373
122.7693,16929.441365931405
125.0197,16551.40559604312
127.2696,16176.406514911772
129.519,15935.00163242621
131.7679,15569.398296711215
134.0163,15317.753696541553
136.2642,14964.474864998014
138.5117,14638.96868198384
140.7587,14266.291877757545
143.0052,13945.301036187942
145.2512,13590.552598480936
147.4967,13259.902866389417
149.7417,13012.108005760754
151.9863,12784.524049843283
154.2304,12625.456901764264
156.4739,12378.06233680572
158.717,12195.996003995111
160.9596,11963.913428579266
163.2017,11661.620013845062
165.4433,11249.121043440242
167.6844,10854.82168439635
169.925,10461.226991253718
172.1651,10019.991910004468
174.4047,9651.521282028443
176.6439,9326.719848505581
178.8825,8997.492254100602
181.1206,8752.993050211031
183.3582,8523.626698259475
185.5954,8333.297572138605
187.832,8172.55996050483
190.0681,8055.168068681586
192.3037,7953.026020266712
194.5388,7868.837858306367
196.7734,7834.907546316452
199.0075,7868.488969124491
201.2411,7890.685933208936
203.4742,7884.45216636335
205.7068,7955.841317474437
207.9389,8003.75695658439
210.1704,8093.152574176984
212.4015,8100.031580698427
214.632,8212.447305663409
216.862,8323.352997586302
219.0915,8420.901822857004
221.3205,8533.796864631893
223.549,8674.241121858326
225.777,8838.587508145694
228.0044,9039.088850360984
230.2314,9357.6978869853
232.4578,9676.017266108867
234.6837,9899.949542244929
236.909,10014.947173146564
239.1339,9936.262517567357
241.3582,9714.547834111425
243.582,9330.855282020264
245.8053,8977.53692338989
248.0281,8632.844727007778
250.2503,8422.430571886023
252.472,8273.64625070829
254.6932,8174.993471933932
256.9139,8064.12386128585
259.134,8065.7389627370185
261.3536,8079.190239619168
263.5727,8159.579074606645
265.7912,8121.456769581895
268.0092,8156.674544831574
270.2267,8090.733539427772
272.4436,8030.184810875838
274.6601,7938.829335773786
276.8759,7799.118010417788
279.0913,7691.351651715726
281.3061,7531.380998584302
283.5204,7502.856713026714
285.7341,7488.679381732346
287.9473,7561.599516362018
290.16,7691.317553689769
292.3721,7900.133854873638
294.5837,8237.448704158496
296.7947,8511.562306787882
299.0052,8631.474785630848
301.2152,8453.23617844082
303.4246,8108.696436656485
305.6334,7565.5554271841675
307.8418,7031.91293584324
310.0495,6549.868672797527
312.2568,6150.872277891717
314.4635,5855.523325471826
316.6696,5649.371328375145
318.8752,5521.915740883743
321.0802,5480.555960785974
323.2847,5553.7413306510425
325.4887,5526.521138242593
327.692,5437.544615786859
329.8949,5337.060940244866
332.0972,5034.919234202194
334.2989,4686.318566873821
336.5001,4385.007957125539
338.7007,4117.88637695995
340.9008,3980.352754529582
343.1003,3817.3559768081086
345.2992,3700.944890965673
347.4976,3593.9683059988693
349.6955,3548.724993894837
351.8927,3546.063690701043
354.0895,3483.233096977703
356.2856,3472.0318778244127
358.4812,3419.1086635084284
360.6763,3393.6620495766947
362.8707,3323.1905973850808
365.0646,3323.192834352838
367.258,3288.767254667324
369.4508,3281.6623192839634
371.643,3409.2264562705204
373.8346,3358.8580608781267
376.0257,3311.605494265661
378.2162,3227.2170840034196
380.4062,3128.3411245456446
382.5956,2981.1758780744167
384.7844,2853.1695754884095
386.9726,2702.120417874552
389.1603,2588.4265777880773
391.3474,2531.2362007630236
393.5339,2456.997406449158
395.7199,2371.7082891838945
397.9052,2389.3169187346757
400.09,2410.6713411518576
402.2743,2436.019578592637
404.4579,2543.209629107505
406.641,2699.8894663867486
408.8235,2852.557038688563
411.0054,3103.9102672722584
413.1868,3427.0970448715707
415.3675,3706.165233181142
417.5477,3853.6626596246533
419.7273,3826.287114564124
421.9064,3677.636349824963
424.0848,3564.758078969704
426.2627,3368.6999787845234
428.4399,3033.8096904080157
430.6166,2660.484821291793
432.7928,2270.0229485493746
434.9683,1932.6716226894368
437.1432,1701.2283715204303
439.3176,1517.7407035240922
441.4914,1405.5561101698768
443.6645,1339.6720677498397
445.8371,1269.5860385004762
448.0091,1192.895471261556
450.1806,1160.647802177
452.3514,1103.9404554617777
454.5216,1076.8708437243804
456.6913,1020.2863685338962
458.8603,1060.9344206907099
461.0288,1088.0623807923384
463.1967,1076.517618826967
465.3639,1178.947493902151
467.5306,1220.7993543602788
469.6967,1296.9705367542629
471.8622,1417.5083654290338
474.0271,1513.3101517598243
476.1914,1570.5231929467864
478.3551,1551.5447710569733
480.5182,1530.2221524522156
482.6807,1545.702587978907
484.8426,1673.0333131812095
487.0039,1929.76154814628
489.1647,2295.0844962309384
491.3248,2733.7993414944012
493.4843,2854.903245045047
495.6432,2859.9433406532626
497.8015,2720.016733540404
499.9592,2679.8205003284074
502.1163,2552.801690439039
504.2728,2315.957326495867
506.4287,1983.6344055944483
508.5839,1607.9799016707711
510.7386,1288.14076882448
512.8927,1115.6139450754326
515.0461,1010.196355562075
517.199,1017.5349142667183
519.3512,1041.7765250697103
521.5029,1143.0680816760596
523.6539,1247.9064673730081
525.8043,1278.2885540171173
527.9541,1299.4612009858902
530.1033,1232.271254873951
532.2519,1210.815549281313
534.3999,1273.4909054852942
536.5472,1491.8941326550557
538.694,1865.0220272248534
540.8401,2352.221370710009
542.9856,2804.4389259756263
545.1305,2913.5214323646123
547.2748,2812.0156011754752
549.4185,2460.018114571527
551.5615,2155.025626595916
553.704,2103.7847666916223
555.8458,2045.4421427513698
557.987,2108.844341630038
560.1276,2127.787929728089
562.2675,2240.4194523575497
564.4069,2410.03543355257
566.5456,2561.3823749431194
568.6837,2480.8567540588083
570.8212,2233.5550228154298
572.958,1789.9736083202224
575.0942,1421.3589153448775
577.2299,1172.8073307613522
579.3648,1087.6652272280244
581.4992,1137.0789656751986
583.6329,1299.294896156529
585.766,1488.3593573548897
587.8985,1664.4686749602042
590.0304,1645.4191597788013
592.1616,1600.8571059723363
594.2922,1478.678791248265
596.4222,1340.0804773054788
598.5515,1156.1584110560889
600.6802,1012.4588260113978
602.8083,855.3779441211409
604.9358,797.7119772104561
607.0626,747.3071285507176
609.1888,773.7595934361798
611.3144,779.1155596880344
613.4393,700.4212073898816
615.5636,691.6727088341813
617.6873,615.2162293091824
619.8103,576.597927186418
621.9327,408.61395468525734
624.0544,375.51045825910114
626.1756,283.5835802752099
628.2961,206.6794593457489
630.4159,159.5442312470568
632.5351,156.274029688675
634.6537,118.86498678471071
636.7716,79.01323308653264
638.8889,97.1648979568563
641.0056,125.9161099682733
643.1216,136.16299672172318
645.237,144.5016845589962
647.3518,124.97829846025888
649.4659,111.93896196066453
651.5793,120.62979734559485
653.6922,118.34692578105387
655.8043,84.1864672267493
657.9159,95.8945404589249
660.0268,0.9172634119549912
662.137,-15.799246938713623
664.2466,2.991126373193765
666.3556,-10.465341851568155
668.4639,-61.07237684215215
670.5716,-23.633599278955444
672.6786,4.147980270670814
674.785,54.51958733902393
676.8907,98.57844741691588
678.9958,160.17178544997114
681.1002,154.34682539802634
683.204,130.90078961921245
685.3072,115.48089892819553
687.4097,48.13437283064923
689.5115,48.10842967742974
691.6127,33.050287338061025
693.7132,-40.392836799008364
695.8131,-68.77372567582643
697.9123,-61.594758710009046
700.0109,-46.50762826965547
702.1089,-44.763411391229965
704.2061,-32.61272050000116
706.3028,-24.45572083475963
708.3987,61.957748166769306
710.4941,160.6280913795199
712.5887,302.30571305885496
714.6827,513.9910158538551
716.7761,820.6343993905557
718.8688,1129.33625815509
720.9608,1345.3469784272402
723.0522,1381.866935193444
725.1429,1292.846489986663
727.233,1123.5859905211928
729.3224,954.5357715828868
731.4112,759.2461567217251
733.4993,551.0174599423481
735.5867,391.8499876569349
737.6735,256.8940407674909
739.7596,172.04991625752336
741.845,125.11790854161518
743.9298,103.84831031385147
746.014,72.64141301714335
748.0974,92.24750705593397
750.1802,91.31688210824905
752.2624,122.19982692964913
754.3439,178.34662936253335
756.4247,271.30757602730773
758.5048,387.18295176092397
760.5843,659.2730386872645
762.6631,1009.2781150583778
764.7413,1506.6484525335927
766.8188,2141.284312679456
768.8956,2625.2859419960423
770.9718,2936.5035655705797
773.0473,2819.687382237442
775.1221,2519.8875614659737
777.1962,2154.304244528639
779.2697,2010.3875474990382
781.3426,2062.137564907731
783.4147,2270.704371181413
785.4862,2539.3380201254095
787.557,2539.288542838005
789.6271,2185.6559450241093
791.6966,1604.5402069957509
793.7654,1061.541287208407
795.8335,739.5091280721554
797.901,505.4436613816579
799.9678,427.8448115364863
802.0339,402.21249788178284
804.0993,438.8466354842367
806.1641,440.297135388415
808.2282,390.8139042504299
810.2916,292.19684432342365
812.3544,211.64585395239374
814.4164,128.360828560375
816.4778,159.49166145395975
818.5385,199.28824465613252
820.5986,268.4004685949694
822.658,438.37822170567597
824.7166,617.4213897394584
826.7747,921.9298540637446
828.832,1240.353489871759
830.8886,1435.9421631374262
832.9446,1598.4457274311462
834.9999,1561.914021963892
837.0545,1510.6468699621855
839.1085,1412.8940790334182
841.1618,1316.4054416785075
843.2143,1231.4807362694373
845.2662,1109.5697280141485
847.3175,1050.9721698057747
849.368,966.037803441759
851.4179,866.166360209827
853.467,751.3075617373215
855.5155,664.3611209899282
857.5633,568.8267434202571
859.6105,486.6041278373086
861.6569,417.89296736182223
863.7027,379.6429502485007
865.7478,330.3037605731206
867.7922,321.77507861503545
869.8359,377.8065813505691
871.8789,462.7479425382917
873.9212,615.2988321587163
875.9629,782.2089155648737
878.0039,953.5278519568183
880.0441,1057.2552927125107
882.0837,1110.8908796746382
884.1226,1034.8342441133427
886.1609,972.3350061898564
888.1984,960.3427757170793
890.2352,974.9071527845572
892.2714,964.8277278784135
894.3069,963.8540817356989
896.3416,853.8357854451933
898.3757,805.9224004571424
900.4091,793.7134796834271
902.4418,790.9085679767195
904.4739,834.2572022525619
906.5052,853.9089115174138
908.5358,771.8632164351675
910.5658,652.6696291306289
912.595,490.22765400997923
914.6236,356.13678895270095
916.6515,259.4465269360062
918.6786,201.2063573757423
920.7051,261.865767093288
922.7309,377.27424089797205
924.756,448.53126098046596
926.7804,539.5363057587037
928.8041,521.1888491653153
930.8272,568.8883597375625
932.8495,541.6343008008298
934.8711,523.3761299916132
936.892,386.96329953007444
938.9123,310.34525640261927
940.9318,244.12144372602052
942.9506,176.29130151360368
944.9688,90.00426733748645
946.9862,25.85977700686817
949.003,-22.442734569072854
951.019,-55.30383273976986
953.0344,-26.423858651736737
955.0491,12.247399033793045
957.063,83.06041562993414
959.0763,200.6156663273323
961.0888,228.51362548603356
963.1007,314.2547654599275
965.1119,366.6895563177677
967.1223,396.51846498577106
969.1321,425.3419547232661
971.1412,410.11048482439764
973.1495,432.77451032989484
975.1572,452.2844821793951
977.1641,519.7408469847924
979.1704,516.3940468351448
981.1759,523.4445186221019
983.1808,591.5926940733716
985.1849,651.2389996822203
987.1884,771.4338560259985
989.1911,930.3776771696648
991.1932,1052.8708694638608
993.1945,1129.7138299554445
995.1951,1075.8069451625797
997.1951,1064.7005903062818
999.1943,1026.3451298495038
1001.1928,1004.9409176082027
1003.1906,1032.3882971348776
1005.1877,1098.3376019326206
1007.1841,1081.6891551806457
1009.1798,1070.6432690747897
1011.1748,950.5002449940093
1013.1691,765.8103736108224
1015.1627,556.9739360927542
1017.1556,359.49120594922533
1019.1477,274.51245111991557
1021.1392,205.68793594960334
1023.1299,208.86792203794903
1025.12,243.45266892773725
1027.1093,312.8924340730755
1029.0979,434.8874724935522
1031.0859,509.488036079847
1033.0731,531.6443723737593
1035.0596,464.45672382222256
1037.0454,338.97532755571046
1039.0304,244.65041606015075
1041.0148,131.2822184317174
1042.9985,65.4209613200801
1044.9814,31.566870062095404
1046.9636,-9.479830659600339
1048.9452,-31.118916478015308
1050.926,4.399931677329732
1052.9061,7.927343754909089
1054.8855,45.263949659192804
1056.8642,87.31037921538336
1058.8421,150.66726179605212
1060.8194,186.83522590066423
1062.7959,229.81489852201958
1064.7717,267.3069047845711
1066.7469,327.66186751462556
1068.7213,352.6304068654281
1070.695,384.3131397136058
1072.6679,352.3606794094885
1074.6402,308.9236354602781
1076.6117,314.30261384956066
1078.5826,272.0482174717072
1080.5527,236.5610460780572
1082.5221,294.99169669947514
1084.4908,453.7407640012134
1086.4587,594.2588396986193
1088.426,719.7965109696343
1090.3925,723.354359049621
1092.3584,701.2829579759746
1094.3235,638.7828745525585
1096.2879,608.4046685703979
1098.2515,670.4488934327001
1100.2145,784.866096458627
1102.1767,903.1068182628478
1104.1382,1113.5215916113884
1106.099,1323.2609402392027
1108.0591,1506.9253767460323
1110.0185,1684.5154004990163
1111.9771,1743.5814957960447
1113.9351,1588.1741300898539
1115.8923,1359.6437533973694
1117.8488,1102.3907998537816
1119.8045,856.4156899978443
1121.7596,777.2688333444112
1123.7139,704.7506308441789
1125.6675,683.2614756751609
1127.6204,770.7017539678636
1129.5726,745.371845020185
1131.524,719.6221204230114
1133.4748,658.6029443135121
1135.4248,596.7646736326406
1137.3741,563.5576587353225
1139.3226,512.0822440088432
1141.2705,451.9887682049193
1143.2176,401.77756495444737
1145.164,400.2489633684436
1147.1097,405.2032885401495
1149.0546,361.29086156032463
1150.9989,300.0619994676981
1152.9424,183.11701568808894
1154.8852,49.456220646701695
1156.8272,5.879922937579977
1158.7686,-31.611569339798734
1160.7092,-51.51794814473942
1162.6491,-12.388589636982942
1164.5883,74.62764468803289
1166.5267,136.58201709687637
1168.4644,316.0257891098445
1170.4014,490.31022088141435
1172.3377,779.8365694058193
1174.2732,1007.1060867741962
1176.2081,1320.270017279323
1178.1421,1639.8795951429202
1180.0755,1945.736041383996
1182.0082,2167.5905606227843
1183.9401,2241.844338022147
1185.8713,2110.948537069051
1187.8017,1876.2542988320256
1189.7315,1601.4627432701272
1191.6605,1295.4749715798607
1193.5888,1091.7920689431103
1195.5163,990.7651075870199
1197.4432,913.2951488208109
1199.3693,884.0332440460606
1201.2947,862.5304355313947
1203.2193,858.0877567051102
1205.1432,877.2062323702048
1207.0664,900.8368787488034
1208.9889,923.0307032909695
1210.9106,961.088704438398
1212.8316,1010.7118714024855
1214.7519,1048.1011837837432
1216.6715,1082.9076110755668
1218.5903,1139.7821122903442
1220.5084,1144.7256356113958
1222.4257,1195.6891178242204
1224.3424,1212.3234842670681
1226.2583,1265.1796483212947
1228.1735,1384.408511245023
1230.0879,1499.960961644585
1232.0016,1618.6878742822319
1233.9146,1693.6901089206003
1235.8269,1648.6185091354546
1237.7384,1565.5739015656563
1239.6492,1406.6070963638867
1241.5592,1321.2188880270978
1243.4686,1299.7100569861623
1245.3772,1318.131370459776
1247.285,1381.7335826695426
1249.1922,1426.267434655746
1251.0986,1478.7336536413459
1253.0042,1477.1829525866297
1254.9092,1537.5660296645547
1256.8134,1642.4335682762476
1258.7169,1819.5862364471805
1260.6196,1981.1746857784901
1262.5216,2211.1995496754516
1264.4229,2422.8114417315983
1266.3234,2582.510953428471
1268.2232,2673.2486520195016
1270.1223,2725.375078933019
1272.0207,2733.940748864872
1273.9183,2738.8961492571652
1275.8151,2665.2917402125922
1277.7113,2658.127954444888
1279.6067,2567.1051980148677
1281.5014,2578.823850402081
1283.3953,2638.3842654150258
1285.2885,2783.5867710739685
1287.181,2975.4316690153373
1289.0727,3201.46923303969
1290.9637,3332.599707193276
1292.854,3487.3733035076584
1294.7435,3588.640200688408
1296.6323,3733.650542567364
1298.5204,3826.9044370899683
1300.4077,3976.1519548651677
1302.2943,4030.8931282328667
1304.1802,4030.27794977145
1306.0653,3778.8063717503765
1307.9497,3571.4283061363185
1309.8333,3343.443627107892
1311.7162,3236.0521731294302
1313.5984,3172.4537492308345
1315.4798,3202.1981280814925
1317.3605,3271.135050626247
1319.2405,3290.0142257879725
1321.1197,3236.135329778196
1322.9982,3049.548005908301
1324.876,2939.5518651283237
1326.753,2829.846487892819
1328.6293,2754.331425260836
1330.5048,2742.1561999929536
1332.3796,2659.7203073064484
1334.2537,2643.3232149970336
1336.127,2602.1143642632287
1337.9996,2619.6931698703193
1339.8714,2603.1590205624516
1341.7426,2576.7112788868426
1343.6129,2615.1992813591196
1345.4826,2613.372338727808
1347.3515,2612.0797355894347
1349.2196,2619.0707304068183
1351.087,2614.6445555219852
1352.9537,2678.9504170862583
1354.8197,2806.7374951045185
1356.6849,2985.5049427921485
1358.5493,3116.251885297157
1360.4131,3244.07741791251
1362.276,3257.0806047686547
1364.1383,3186.96047755527
1365.9998,2951.6160353912264
1367.8606,2682.2462455257983
1369.7206,2348.900045692095
1371.5799,2134.426346800773
1373.4384,1942.7740362734858
1375.2962,1801.591980187629
1377.1533,1563.7790251928564
1379.0096,1227.9339999229105
1380.8652,974.5057173737405
1382.7201,734.8429782619651
1384.5742,529.1945735591471
1386.4275,343.45928688842287
1388.2802,253.63589658098772
1390.132,163.82317753344705
1391.9832,102.21990210604599
1393.8336,47.824841020800704
1395.6832,43.6367639775317
1397.5322,36.75444019781207
1399.3803,18.02663846685664
1401.2278,-15.04787279766606
1403.0745,10.179674641651218
1404.9204,23.808199350462928
1406.7656,81.43661979263197
1408.6101,93.2638541939441
1410.4538,158.63881996582313
1412.2968,227.06043358706302
1414.139,288.47760995006956
1415.9805,388.88926167664886
1417.8213,487.14429850383294
1419.6613,628.1916262797668
1421.5006,821.3301459811546
1423.3391,1070.9087523027847
1425.1769,1394.5263317261479
1427.0139,1889.9817600236493
1428.8502,2471.32389902244
1430.6858,3032.651591649852
1432.5206,3454.3136561199835
1434.3547,3702.508880320417
1436.188,3754.1860175956026
1438.0206,3704.6937842649104
1439.8524,3558.23085910585
1441.6835,3450.2958838489985
1443.5139,3371.987464642628
1445.3435,3343.104173132052
1447.1724,3326.144547242715
1449.0005,3275.707091469021
1450.8279,3213.240277043933
1452.6545,3203.2425424433513
1454.4804,3245.562294010767
1456.3056,3241.0979060572563
1458.13,3194.9477204382747
1459.9536,2972.760046598297
1461.7766,2693.033162032327
1463.5987,2330.315314507772
1465.4202,1992.5047248617066
1467.2409,1674.6995906280517
1469.0608,1407.2480894156834
1470.88,1158.0483820864902
1472.6984,960.4486154298747
1474.5161,775.096924654762
1476.3331,626.9914353655931
1478.1493,533.5302654158431
1479.9648,461.4115263890726
1481.7795,410.2833245335414
1483.5935,357.09376148339925
1485.4067,310.7909347699642
1487.2192,291.622938353622
1489.031,267.9378630868514
1490.842,242.33379690590664
1492.6522,223.90882506766502
1494.4618,215.31103040566995
1496.2705,208.2384935143764
1498.0785,188.33929283513407
1499.8858,186.41150472691606
1501.6924,164.3532036653014
1503.4981,142.31246226175972
1505.3032,131.1873514842291
1507.1075,127.02594087753005
1508.911,131.6262986746051
1510.7138,93.38649183813959
1512.5159,76.40458601456157
1514.3172,52.42864591644229
1516.1178,27.856735492306143
1517.9176,-4.313081833601245
1519.7166,-8.832742915598828
1521.515,-8.45414152032572
1523.3126,-0.8290831753192833
1525.1094,-19.909288951253075
1526.9055,-27.046471636254864
1528.7008,-18.89214512466424
1530.4954,-34.94755311656991
1532.2893,-28.913750579538828
1534.0824,-47.541443355080446
1535.8747,-20.1310484363421
1537.6663,-28.0325078774531
1539.4572,-17.895562623373735
1541.2473,-10.119673574307853
1543.0367,15.195877146209568
1544.8253,39.05190851017687
1546.6132,70.54923933763894
1548.4003,85.6386880581249
1550.1867,128.87107239567558
1551.9723,184.4472092179476
1553.7572,270.86791410389105
1555.5414,361.1340007879826
1557.3247,440.69628029603155
1559.1074,553.6555600425054
1560.8893,683.0126430349119
1562.6705,800.1183267442075
1564.4509,882.1734018112256
1566.2305,984.128650875623
1568.0094,1049.434847755334
1569.7876,1087.6427564270016
1571.565,1100.5531303729204
1573.3417,1135.5667121989545
1575.1176,1140.1842335054425
1576.8928,1109.156414537053
1578.6672,1071.8339641366183
1580.4409,1020.0675800554081
1582.2138,959.4079493263589
1583.986,937.6557487817317
1585.7575,918.3116456597163
1587.5282,912.8762978219438
1589.2981,915.8003539469364
1591.0673,965.1344535844473
1592.8358,1002.7292271262313
1594.6035,1069.5852953127032
1596.3704,1116.2032688569861
1598.1366,1194.9337477763502
1599.9021,1270.9273209260364
1601.6668,1349.234565211952
1603.4308,1474.156044830731
1605.194,1628.2923104866686
1606.9564,1789.0938981424988
1608.7182,1991.8113274780353
1610.4791,2173.345100282154
1612.2394,2400.295698425619
1613.9988,2627.163582045745
1615.7576,2874.5491872768935
1617.5156,3068.90292398179
1619.2728,3282.975173277674
1621.0293,3378.066285592754
1622.785,3320.226578525493
1624.54,3205.65633589369
1626.2942,3049.1558083128757
1628.0477,2752.1752143420226
1629.8005,2530.464742048546
1631.5525,2319.5245519781074
1633.3037,2148.1047793717225
1635.0542,2018.4555362751653
1636.804,1916.776913253163
1638.553,1867.1189806858902
1640.3013,1863.8317897857569
1642.0488,1849.1653730939788
1643.7955,1906.5197445134618
1645.5416,1974.894899455454
1647.2868,2104.0908142660137
1649.0313,2210.207445542248
1650.7751,2372.6447288403615
1652.5181,2548.6525776144845
1654.2604,2741.130881592305
1656.0019,3031.3295050149854
1657.7427,3329.3982847123852
1659.4828,3618.1370272010718
1661.222,3821.8455057036244
1662.9606,3806.6234572612584
1664.6984,3604.770580696737
1666.4354,3205.936536766586
1668.1717,2689.8709501796284
1669.9072,2170.0734135853218
1671.642,1758.793492734414
1673.3761,1435.980731676921
1675.1094,1139.5346568749228
1676.8419,946.2547804306942
1678.5737,774.6906030511645
1680.3048,647.3916159807195
1682.0351,538.4573027168408
1683.7646,469.53714028309605
1685.4934,405.8306003184807
1687.2215,350.58714976662213
1688.9488,321.6062515128433
1690.6754,283.1373649365987
1692.4012,259.3299462012819
1694.1263,256.48344863891816
1695.8506,230.44732298823237
1697.5742,199.17101742311615
1699.297,168.8039778129887
1701.0191,155.54564803556104
1702.7404,135.94547028050602
1704.461,125.10288518204288
1706.1808,96.21733201493544
1707.8999,96.23824880292523
1709.6182,94.26507260758171
1711.3358,89.84723952809509
1713.0527,83.23418472100775
1714.7688,63.02534244438948
1716.4841,58.770146123972154
1718.1987,55.418028555235196
1719.9126,58.81842194595811
1721.6257,52.820757949741164
1723.338,51.82446763200187
1725.0496,20.67898152995258
1726.7605,45.43372966256311
1728.4706,32.83814184201583
1730.18,22.74164742615585
1731.8886,14.143675444448036
1733.5964,25.693654698944556
1735.3036,15.241013850262789
1737.0099,24.585181302083583
1738.7156,17.475585305676304
1740.4204,4.01165386645971
1742.1246,9.79281481509679
1743.8279,7.318495942136906
1745.5306,16.988124940204216
1747.2325,13.65112942873975
1748.9336,-2.5430631426938817
1750.634,-10.645025461041769
1752.3336,-12.005304808050823
1754.0325,-15.124342121665904
1755.7307,-13.00245840683965
1757.4281,-0.23982357634940854
1759.1247,-4.4864776484128015
1760.8206,-5.7924582454120355
1762.5158,-5.2077581698167705
1764.2102,-6.3323123574423335
1765.9039,-5.266003718601496
1767.5968,0.8913480961937239
1769.289,-5.060023956198165
1770.9804,5.930113072174208
1772.6711,-1.9879573210996568
1774.361,4.486048302273048
1776.0502,11.752433240275423
1777.7386,23.361500746030742
1779.4263,18.21355395513956
1781.1132,28.808895769588162
1782.7994,32.19782890923034
1784.4849,16.780655805833703
1786.1696,21.30767856918601
1787.8535,28.02919914127051
1789.5367,13.395519250995676
1791.2192,45.45694034697817
1792.9009,22.863763743884647
1794.5818,39.46629030181248
1796.2621,36.314820652225535
1797.9415,30.95965503192656
1799.6202,30.90109331457643
1801.2982,39.889435064234476
1802.9755,44.8749795359563
1804.6519,49.00802558590203
1806.3277,36.53887162148658
1808.0027,43.86781556004462
1809.6769,52.49515495352625
1811.3504,54.22118691520109
1813.0231,61.44620803339012
1814.6951,72.87051435420062
1816.3664,64.29440130928424
1818.0369,70.86816360158355
1819.7067,77.2920952911004
1821.3757,75.11648972915737
1823.044,81.74163949415743
1824.7115,88.41783641333996
1826.3783,73.24537149652951
1828.0443,88.57453486937266
1829.7096,85.90561592506492
1831.3741,92.53890317105652
1833.0379,101.62468425574434
1834.701,80.16324590213799
1836.3633,103.05487381699913
1838.0248,96.2498529054601
1839.6856,95.69846704210659
1841.3457,113.10099913902832
1843.005,103.00773115133052
1844.6636,101.26894390310918
1846.3214,122.53491718838495
1847.9785,120.00592978848908
1849.6349,122.68225925940487
1851.2904,116.9641819570611
1852.9453,131.2519730105646
1854.5994,119.04590637938054
1856.2528,122.99625471045738
1857.9054,135.95328946028621
1859.5572,136.81728085539453
1861.2083,138.78849776277593
1862.8587,150.8672076812536
1864.5084,164.40367672176808
1866.1572,147.09816948659
1867.8054,150.3509489339549
1869.4528,146.26227655111825
1871.0994,144.28241232182836
1872.7453,144.96161476721045
1874.3905,133.9501409655686
1876.0349,137.19824654559034
1877.6786,163.50618579646516
1879.3215,165.92421163540075
1880.9637,156.10257534454468
1882.6051,163.0915265468061
1884.2458,174.99131330406544
1885.8858,160.15218204729035
1887.525,153.07437745753623
1889.1634,170.35814261433734
1890.8011,158.0037190664866
1892.4381,146.81134665919672
1894.0743,161.58126365764474
1895.7098,152.06370685889397
1897.3446,158.9589114441951
1898.9786,167.11711107416386
1900.6118,168.28853781982525
1902.2443,166.67342208103992
1903.8761,168.02199257478242
1905.5071,159.83447635129414
1907.1374,152.81109878059988
1908.7669,171.30208363438214
1910.3957,170.60765315621438
1912.0237,168.17802787665096
1913.651,146.46342662017332
1915.2776,142.364066529482
1916.9034,161.6801632826464
1918.5285,156.7119311340939
1920.1528,146.50958272145272
1921.7764,160.0733291152328
1923.3992,159.4033799208496
1925.0213,141.3999431429852
1926.6427,139.86322519228906
1928.2633,100.743431065413
1929.8832,160.54076436037894
1931.5023,143.30542766777535
1933.1207,143.3376219727843
1934.7383,147.4375468275348
1936.3552,140.1554003507813
1937.9714,136.8913791869054
1939.5868,124.24567857873399
1941.2015,121.418492400182
1942.8154,128.86001328270822
1944.4286,128.82043264358754
1946.041,110.44994061149828
1947.6528,112.24872602691403
1949.2637,123.61697662581173
1950.8739,122.05487902168034
1952.4834,108.86261859184151
1954.0921,118.1903794930654
1955.7001,116.43834479349971
1957.3074,109.80669637938718
1958.9139,106.49561497258992
1960.5197,111.7052801969021
1962.1247,117.38587061116368
1963.729,102.93756365716263
1965.3325,95.61053560282835
1966.9353,93.15496168671643
1968.5374,96.67101619127743
1970.1387,95.75887246741058
1971.7393,98.41870289930921
1973.3392,97.55067891357885
1974.9383,99.60497095264145
1976.5366,92.18174848341414
1978.1342,98.08117997676482
1979.7311,98.95343298174703
1981.3273,91.04867406660469
1982.9227,89.76706881004793
1984.5173,79.40878188030138
1986.1112,93.62397704791965
1987.7044,80.51281728937101
1989.2968,85.32546464488541
1990.8885,80.21208034956453
1992.4795,98.17282478525658
1994.0697,80.3078575316913
1995.6592,85.01733718687365
1997.2479,79.90142154572914
1998.8359,86.46026755301364
2000.4232,84.09403135446837
2002.0097,88.0528682312347
2003.5955,76.73693262351435
2005.1805,83.99637809098067
2006.7648,88.38135742594159
2008.3484,71.34202258074129
2009.9312,92.02852462391138
2011.5133,87.14101391056465
2013.0946,93.82963987552785
2014.6752,100.49455108221855
2016.2551,85.73589515575895
2017.8342,73.6538187163278
2019.4126,87.49846752674421
2020.9902,72.96998661329144
2022.5672,68.71852012726958
2024.1433,78.19421149027676
2025.7188,83.3972034367307
2027.2935,68.62763791910402
2028.8674,77.78565605589984
2030.4406,72.22139827934552
2032.0131,72.48500424381064
2033.5849,72.22661288145355
2035.1559,80.64636239958372
2036.7261,82.09439028324596
2038.2957,81.12083321102182
2039.8645,82.32582704054948
2041.4325,85.55950681826198
2042.9998,78.72200676733337
2044.5664,65.31346025534503
2046.1323,67.08399986266022
2047.6974,79.08375751650829
2049.2617,82.51286447327948
2050.8254,76.57145119852817
2052.3883,92.95964733268033
2053.9504,80.12758175044837
2055.5118,80.77538239695082
2057.0725,84.90317641603042
2058.6325,82.86109014377735
2060.1917,76.349249067252
2061.7502,97.31777784490123
2063.3079,84.41680037168203
2064.8649,81.29643956937298
2066.4212,73.00681751558591
2067.9767,82.99805547496999
2069.5315,84.22027398210707
2071.0856,66.42359274160071
2072.6389,76.40813061585277
2074.1915,73.22400580302974
2075.7433,65.87133573721985
2077.2945,79.85023712027169
2078.8448,58.86082599532051
2080.3945,60.65321760699999
2081.9434,83.72752661133768
2083.4916,74.13386705782932
2085.039,78.17235215869732
2086.5857,69.09309438482705
2088.1317,62.99620542538105
2089.677,62.231796278592356
2091.2215,59.349977312732335
2092.7652,75.65085827375651
2094.3083,67.43454831411964
2095.8506,54.00115582976923
2097.3921,69.15078854230933
2098.933,58.38355363333244
2100.4731,64.54955759292443
2102.0124,78.79890632733486
2103.5511,67.0817050973194
2105.089,87.89805837564427
2106.6261,64.84806996425868
2108.1626,66.53184278613412
2109.6983,57.84947911576319
2111.2332,68.75108056231875
2112.7675,69.38674815648005
2114.301,71.45658224141584
2115.8337,60.86068246642799
2117.3657,77.44914776625365
2118.897,79.17207646702354
2120.4276,79.27956612037792
2121.9575,64.87171348623542
2123.4866,79.79861453172157
2125.0149,62.460364575245194
2126.5426,56.00705813722902
2128.0695,76.58878911349393
2129.5956,70.05565083979081
2131.1211,63.0577358859839
2132.6458,73.74513612138026
2134.1698,72.41794278471048
2135.693,75.87624637725548
2137.2155,73.47013667611736
2138.7373,68.7497026996366
2140.2584,77.01503273145386
2141.7787,62.316214367714565
2143.2983,80.4533344344145
2144.8171,68.37647913438832
2146.3353,76.98573386593807
2147.8527,58.2311833436022
2149.3693,71.06291151206437
2150.8853,65.78100173369671
2152.4005,57.235536660242815
2153.9149,69.37659828563869
2155.4287,65.10426803146379
2156.9417,75.96862662553349
2158.454,57.01975414462072
2159.9655,76.40772990581218
2161.4764,79.3326326559984
2162.9865,65.19454037799483
2164.4958,57.74353026129074
2166.0045,72.42967884343057
2167.5124,66.85306208452357
2169.0195,62.41375522038334
2170.526,75.76183281829344
2172.0317,78.59736882140146
2173.5367,81.72043641523737
2175.0409,73.88110799935839
2176.5445,79.82945515611937
2178.0473,76.9655487290645
2179.5494,73.93945876344401
2181.0507,81.3012545348547
2182.5513,78.60100457949875
2184.0512,65.5387766205663
2185.5504,74.51463759523836
2187.0488,66.67865378530905
2188.5465,65.8808907274281
2190.0435,58.371413291459476
2191.5397,63.75028568845869
2193.0353,52.01757154576762
2194.5301,55.82333385322613
2196.0241,61.36763508049921
2197.5175,69.85053713901902
2199.0101,51.922101326542816
2200.502,59.48238824232294
2201.9931,64.63145796639151
2203.4835,56.16936998395704
2204.9733,53.74618313391443
2206.4622,57.31195569346596
2207.9505,59.11674540235322
2209.438,54.56060942719796
2210.9248,49.393604343455536
2212.4109,56.265786180975965
2213.8962,40.42721047567443
2215.3809,42.52793220080912
2216.8648,55.41800592536606
2218.3479,54.54748579305419
2219.8304,46.91642539340455
2221.3121,46.7748777704719
2222.7931,44.82289549915026
2224.2733,42.160530686584934
2225.7529,51.4878349916944
2227.2317,50.304859651792185
2228.7098,52.91165538931455
2230.1872,47.05827242365035
2231.6638,45.394760445071825
2233.1397,39.12116867327063
2234.6149,47.98754587399026
2236.0894,46.94394042176555
2237.5632,42.0904002112552
2239.0362,46.576972667681275
2240.5085,40.153704795361364
2241.9801,30.770643132844043
2243.4509,33.32783381714171
2244.921,41.475322677560825
2246.3904,34.26315521013112
2247.8591,44.34137649612808
2249.3271,36.86003127419758
2250.7943,34.46916383957273
2252.2608,26.718818118886475
2253.7266,32.95903769408301
2255.1917,36.989865879918625
2256.656,32.0113456615602
2258.1197,38.87351965427683
2259.5826,32.226430153224555
2261.0447,41.270119064826076
2262.5062,26.30462797324003
2263.9669,25.22999804992446
2265.4269,31.146270203291806
2266.8862,35.303485089455535
2268.3448,35.801683053067336
2269.8026,36.24090408574557
2271.2598,30.821187821092053
2272.7162,25.792573530300388
2274.1719,42.35510017635352
2275.6268,40.358806464309964
2277.0811,34.70373067567584
2278.5346,41.43991068837113
2279.9874,52.26738403327795
2281.4395,39.93618782687963
2282.8908,35.79635866298622
2284.3414,32.897932736045504
2285.7914,33.99094588254161
2287.2406,50.17543360997979
2288.689,38.35143108595639
2290.1368,46.31897297631326
2291.5838,45.72809356337984
2293.0302,42.87882666629457
2294.4758,33.72120564691522
2295.9206,30.605263438312022
2297.3648,35.48103263634471
2298.8082,42.89854553082159
2300.251,31.107834056741467
2301.693,42.00892972011843
2303.1343,47.4518637158892
2304.5748,46.63666681890277
2306.0147,45.56336932948989
2307.4538,40.18200108161659
2308.8922,50.742591453615205
2310.3299,35.34516942199707
2311.7669,52.58976345584847
2313.2031,45.276401670804944
2314.6387,45.30511165660528
2316.0735,42.22592055022437
2317.5076,34.43885503558613
2318.941,43.493941374356154
2320.3737,41.341205483811564
2321.8056,39.78067284629083
2323.2369,48.762368530721005
2324.6674,49.28631720822386
2326.0972,52.20254306229708
2327.5263,54.761069783574385
2328.9547,41.911920540663004
2330.3823,49.10511795456159
2331.8092,52.34068422715018
2333.2355,40.26864106925791
2334.661,35.739009668308654
2336.0858,45.701810809039216
2337.5098,51.057064918797096
2338.9332,44.504791967912524
2340.3558,43.245011416147236
2341.7778,45.87774227821387
2343.199,35.45300313637722
2344.6195,49.02081211412428
2346.0393,50.581186980413804
2347.4583,56.53414501399493
2348.8767,47.67970298780574
2350.2943,53.66787710944368
2351.7113,50.248683109708736
2353.1275,54.62213618272335
2354.543,47.73825102012506
2355.9578,55.19704176732944
2357.3718,47.19852209236956
2358.7852,48.942705111308214
2360.1978,48.82960346822256
2361.6098,51.059229317762856
2363.021,60.8315943262844
2364.4315,52.54670964954994
2365.8413,57.45458583500795
2367.2504,54.95523290463893
2368.6587,44.09866030587705
2370.0664,43.634876936605224
2371.4733,50.713891253718884
2372.8795,61.035711277764676
2374.285,46.65034452214991
2375.6899,49.407797889926314
2377.0939,48.90807781764147
2378.4973,44.20119024776545
2379.9,52.0871406336903
2381.3019,49.815933986795926
2382.7032,47.73757479759138
2384.1037,53.802067058426246
2385.5035,44.15941428427527
2386.9027,45.00961945209269
2388.3011,42.20268509724019
2389.6987,51.38861330498344
2391.0957,47.61740573856264
2392.492,52.38906354733194
2393.8876,42.40358740447209
2395.2824,54.51097745927382
2396.6765,37.311233436990506
2398.07,39.104354517767206
2399.4627,40.99033950863827
2400.8547,41.169186825593215
2402.246,45.29089447472006
2403.6366,41.905460050414035
2405.0265,37.76288069416364
2406.4156,38.1631531283997
2407.8041,38.70627369792521
2409.1918,38.59223836591377
2410.5789,41.12104270847783
2411.9652,32.592681915810545
2413.3508,45.307150766894665
2414.7358,39.71444371478469
2416.12,37.964554759467205
2417.5035,47.1074775037838
2418.8863,36.643205170931196
2420.2684,47.52173051303134
2421.6497,36.493045915774815
2423.0304,40.90714328963452
2424.4104,40.064014180153436
2425.7896,43.56364972380311
2427.1682,36.656040656414916
2428.546,48.34117727818443
2429.9232,48.769049522747196
2431.2996,45.089646840327646
2432.6753,40.40295819345954
2434.0503,47.10897209378106
2435.4246,35.20767664890059
2436.7982,36.44905949533745
2438.1711,41.53310791753461
2439.5433,46.80980883544521
2440.9148,40.17914875369161
2442.2856,39.64111370879857
2443.6557,32.44568933550022
2445.025,49.69286087211947
2446.3937,48.73261323252268
2447.7617,40.264930833648805
2449.1289,46.9897976051102
2450.4955,46.107197073871475
2451.8613,44.66711229699945
2453.2265,49.3195258704892
2454.5909,44.41441994366528
2455.9546,40.10177617265754
2457.3177,45.73157576945141
2458.68,46.103799545014795
2460.0416,42.96842785300021
2461.4025,44.72544058602273
2462.7627,51.77481720701303
2464.1222,55.4165367316474
2465.4811,57.600577657854046
2466.8392,57.57691792939579
2468.1966,48.39553491403046
2469.5533,52.906405403746476
2470.9093,59.10950570657758
2472.2645,65.60481160149334
2473.6191,63.64229827636905
2474.973,63.721940263032025
2476.3262,75.24371145688747
2477.6787,68.10758511612198
2479.0305,58.113533746485246
2480.3816,62.761529172651194
2481.7319,49.40154263815839
2483.0816,57.033544758930816
2484.4306,54.5075056568769
2485.7789,61.22339488357011
2487.1264,51.58118144550883
2488.4733,64.08083373695808
2489.8195,54.92231963637107
2491.165,57.10560638139316
2492.5097,57.23066066044703
2493.8538,55.24744859089935
2495.1972,63.60593571781021
2496.5398,49.256087033765766
2497.8818,62.99786689529253
2499.2231,52.93123916635716
2500.5637,50.20616708094792
2501.9035,53.72261334374127
2503.2427,62.28054015735222
2504.5812,52.329909187170074
2505.919,54.02068147577893
2507.256,60.40281754246462
2508.5924,58.97627736630602
2509.9281,60.59102032235444
2511.2631,57.747005195898964
2512.5974,69.34419016631875
2513.9309,61.03253283552317
2515.2638,58.5619901119793
2516.596,63.732518293829116
2517.9275,59.144073093595125
2519.2583,58.34660958647453
2520.5884,56.89008225622422
2521.9178,67.87444500313563
2523.2465,55.69965115859918
2524.5745,55.66565337526083
2525.9018,63.472403748771285
2527.2284,65.0198538181246
2528.5543,58.00795448759152
2529.8796,64.8366560112446
2531.2041,67.95590806307666
2532.5279,69.81565966871437
2533.851,69.01585917422585
2535.1735,62.70645422752273
2536.4952,64.38739178635876
2537.8163,73.70861818142339
2539.1366,73.57007909953245
2540.4562,71.72171949041581
2541.7752,75.01348356810263
2543.0935,66.34531482940542
2544.411,71.1671560210018
2545.7279,72.37894922611679
2547.0441,69.4806358163039
2548.3596,78.82215643932761
2549.6744,78.3034510481458
2550.9885,72.0744588074956
2552.3019,75.2351180990803
2553.6146,78.48536658385888
2554.9266,72.92514117043959
2556.2379,76.45437798257672
2557.5485,71.67301241477332
2558.8585,74.38097909698956
2560.1677,84.67821194245528
2561.4762,72.31464412059108
2562.7841,80.04020795403528
2564.0913,78.25483504228055
2565.3977,82.10845618441783
2566.7035,88.05100139698948
2568.0086,75.18239987545417
2569.313,85.85257993476068
2570.6167,80.51146913803416
2571.9197,83.60899418987424
2573.222,81.9450809897661
2574.5236,76.71965460110562
2575.8246,84.58263926783741
2577.1248,96.3839584667104
2578.4244,88.423534828647
2579.7232,93.10129002073018
2581.0214,99.06714482580765
2582.3189,102.32101909571497
2583.6157,94.96283169161677
2584.9118,101.94250045146794
2586.2072,102.2099422635946
2587.5019,106.36507299689856
2588.7959,108.05780749818234
2590.0893,109.78805955059772
2591.3819,110.80574185671867
2592.6739,112.26076602123874
2593.9652,113.4030425407949
2595.2557,120.88248078941649
2596.5456,110.24898900710286
2597.8348,111.25247422502855
2599.1234,116.39284237187883
2600.4112,110.66999826381459
2601.6983,116.38384555306891
2602.9848,127.68428678517569
2604.2705,118.67122334183011
2605.5556,126.94455532788504
2606.84,120.75418166148165
2608.1237,114.14999999131578
2609.4067,126.03190675854171
2610.689,125.04979726281454
2611.9707,121.30356554347009
2613.2516,116.89310438934672
2614.5319,122.41830537624787
2615.8115,109.27905891104558
2617.0903,110.5752541764299
2618.3685,112.90677926230035
2619.6461,115.82352115280423
2620.9229,112.32536570302102
2622.199,117.06219760979491
2623.4745,118.93390044671708
2624.7493,112.79035661675687
2626.0234,113.43144733354495
2627.2968,119.20705268280835
2628.5695,116.06705161596062
2629.8415,119.41132189234406
2631.1128,131.4397401106313
2632.3835,120.1021816753821
2633.6535,121.24852067675909
2634.9228,115.02863000390312
2636.1914,124.84238133347026
2637.4593,119.0896451918303
2638.7265,121.07029085692966
2639.9931,119.03418641581823
2641.259,122.68119874484353
2642.5242,113.3611935300114
2643.7887,122.32403523051653
2645.0525,116.01958717194157
2646.3156,119.34771145662933
2647.5781,115.95826902672707
2648.8398,109.40111963090601
2650.1009,129.42612185825374
2651.3613,114.63313320384793
2652.6211,110.27200986850505
2653.8801,107.09260690671033
2655.1385,115.8947782702295
2656.3961,110.72837683990224
2657.6531,121.9432543376214
2658.9094,115.03926137799556
2660.1651,113.8662473562016
2661.42,122.92406051702358
2662.6743,118.2625479665835
2663.9279,131.6315555817631
2665.1808,126.68092805681863
2666.433,129.21050876969127
2667.6846,126.8201398315133
2668.9354,131.05966206131177
2670.1856,137.87891500991248
2671.4351,140.37773691754523
2672.6839,153.0059646456507
2673.9321,137.51343365189268
2675.1795,140.3999778638754
2676.4263,148.66542983406907
2677.6724,145.75962071094443
2678.9179,146.63238015631782
2680.1626,144.43353637440964
2681.4067,147.16291610311697
2682.6501,150.6703446360022
2683.8928,149.4056457949983
2685.1348,139.3186418953353
2686.3761,152.5091537581871
2687.6168,142.17700081154163
2688.8568,143.0720009582958
2690.0961,136.04397067957638
2691.3348,134.64272502579064
2692.5727,122.81807768690646
2693.81,125.21984100646432
2695.0466,120.44782609982428
2696.2826,117.1018428301478
2697.5178,120.98169985611827
2698.7524,129.2372046654006
2699.9863,131.81816353584298
2701.2195,128.77438145292194
2702.452,137.50566208393275
2703.6839,135.111807808427
2704.9151,138.84261963090012
2706.1456,150.49789720472972
2707.3755,150.37743879486737
2708.6046,161.9810411612862
2709.8331,165.00849956018521
2711.0609,166.4596076279533
2712.2881,177.83415735089426
2713.5145,186.83193905071607
2714.7403,193.35274127078526
2715.9654,207.69635068614934
2717.1899,201.3625520383282
2718.4136,222.7511279918782
2719.6367,235.361859197731
2720.8591,245.0445240793067
2722.0809,256.99889870640726
2723.3019,263.92475669838956
2724.5223,277.32186910462144
2725.7421,278.24000433522355
2726.9611,285.27892802709846
2728.1795,279.0384030347484
2729.3972,271.56818935988707
2730.6142,262.56804421384396
2731.8306,241.48772209226706
2733.0462,226.17697486512435
2734.2612,216.08555198750707
2735.4756,190.91320065273686
2736.6892,178.50966589327982
2737.9022,163.2246908324703
2739.1145,145.70801680854618
2740.3262,134.35938352749884
2741.5372,127.97852923823928
2742.7475,119.11519084608523
2743.9571,107.91910397656943
2745.1661,93.99000306407225
2746.3744,84.67762146378425
2747.582,74.28169159099588
2748.7889,68.20194501422213
2749.9952,53.438112559160686
2751.2008,53.83992436949069
2752.4057,52.20711005451051
2753.61,38.23939868511866
2754.8136,38.18651881014341
2756.0165,37.69819859601921
2757.2188,39.97416582731603
2758.4204,30.31414791162217
2759.6213,27.667871856784586
2760.8215,30.335064367508835
2762.0211,30.415451871821915
2763.22,19.05876049440019
2764.4182,23.814716055766098
2765.6158,17.733044185854055
2766.8127,12.213470276452654
2768.009,11.405719542019597
2769.2045,7.509517074878659
2770.3994,7.274587853296566
2771.5936,-0.94934321955418
2772.7872,-7.412551313246922
2773.9801,-7.265302113416055
2775.1723,-10.307787254308096
2776.3639,-7.140125789802141
2777.5548,-16.462333798982854
2778.745,-15.324356031078537
2779.9346,-10.17597277660343
2781.1235,-19.116811235755222
2782.3117,-13.146396950764142
2783.4992,-18.06406448691655
2784.6861,-11.419017076993441
2785.8723,-11.86027749377206
2787.0579,-5.43675443404959
2788.2428,-0.3472381104509168
2789.427,-3.0404644224250887
2790.6106,8.334834199487432
2791.7935,14.679955698985964
2792.9757,11.996197936420913
2794.1573,31.68485862534351
2795.3382,33.09723535934313
2796.5184,44.28462541515967
2797.698,50.948325738561266
2798.8769,68.93963283247001
2800.0551,83.25984269032608
2801.2327,99.31025061617481
2802.4096,104.49215108146302
2803.5859,121.30683756453595
2804.7615,141.60560249881746
2805.9364,157.8397371046632
2807.1106,175.36053118637335
2808.2842,207.36927296985084
2809.4572,239.31724892739408
2810.6294,263.70574345760883
2811.801,295.08603856592856
2812.972,342.7594136207292
2814.1423,372.0771450395263
2815.3119,413.94050581224155
2816.4808,456.5507652080257
2817.6491,502.7091883566243
2818.8167,554.4670358222754
2819.9837,599.0755631421259
2821.15,639.5360203086524
2822.3157,688.2996513235759
2823.4807,740.4676937932583
2824.645,783.4913784410647
2825.8086,827.2219285856846
2826.9716,870.0105597108928
2828.134,917.9584790282455
2829.2957,953.2168850491935
2830.4567,986.9869671056027
2831.617,999.1199049971709
2832.7767,1010.0668686537263
2833.9358,1004.929018013898
2835.0941,991.6075029156473
2836.2519,999.2034631476458
2837.4089,965.9180285824898
2838.5653,970.1523191007415
2839.7211,946.2074449237833
2840.8761,951.0845065714747
2842.0306,968.5845951015998
2843.1843,1005.1087920610992
2844.3374,1037.9581693110672
2845.4899,1087.0337886615102
2846.6417,1140.7867015428537
2847.7928,1225.067948515186
2848.9433,1282.4285587307268
2850.0931,1367.3195490910196
2851.2422,1428.441923673321
2852.3907,1492.096672881692
2853.5385,1551.0847728357771
2854.6857,1597.457184734251
2855.8323,1644.6148542649444
2856.9781,1693.158711141115
2858.1233,1739.289668629872
2859.2679,1782.758623066739
2860.4118,1829.0664533943414
2861.555,1876.7140207277203
2862.6976,1915.7021678912529
2863.8395,1933.2817189421758
2864.9808,1968.3034787807044
2866.1214,1982.3682329742383
2867.2614,2005.1767474071412
2868.4007,1997.679768140095
2869.5393,2015.0280211820154
2870.6773,2020.8722125650193
2871.8146,2041.4630281709447
2872.9513,2033.8511336729084
2874.0874,2030.837174329396
2875.2227,2020.9717750603836
2876.3574,2003.2555404774741
2877.4915,1981.289054982555
2878.6249,1948.5728829449572
2879.7577,1923.8575689211216
2880.8898,1900.0436379817618
2882.0212,1897.481595959015
2883.152,1884.171929684582
2884.2821,1863.6151070153473
2885.4116,1857.8615769664775
2886.5405,1872.7617699169878
2887.6686,1872.8660976672786
2888.7962,1878.4749532901324
2889.923,1889.4887111296728
2891.0493,1904.2577267452725
2892.1748,1892.7823368014194
2893.2997,1923.4128589200222
2894.424,1927.7995917951682
2895.5476,1946.2928148868145
2896.6706,1976.842788376924
2897.7929,1996.3997529845321
2898.9145,2006.8139296602453
2900.0355,2050.085519390674
2901.1559,2080.2147030942897
2902.2756,2116.851641188709
2903.3946,2144.9464732894007
2904.513,2164.349317843319
2905.6308,2196.9102718479535
2906.7479,2212.679410657299
2907.8643,2239.4067876562513
2908.9801,2270.792434102909
2910.0953,2251.9363588613046
2911.2098,2270.2385480875473
2912.3236,2269.198965418381
2913.4368,2257.467551788166
2914.5494,2247.8942254392746
2915.6613,2207.078882039401
2916.7725,2182.8213947772997
2917.8831,2149.3216147709354
2918.9931,2129.429371310059
2920.1024,2106.0944721912065
2921.211,2063.9167039166186
2922.319,2049.195831927592
2923.4264,2051.081601026257
2924.5331,2043.8237355227866
2925.6391,2024.5219392165382
2926.7445,2029.8258954686312
2927.8493,2028.985267394967
2928.9534,2026.1496978131886
2930.0569,2022.6688092510863
2931.1597,2020.2922039749537
2932.2619,2024.5194640243958
2933.3634,2012.200151236097
2934.4643,2009.3338072015465
2935.5645,1993.3199533902325
2936.6641,1968.6580911783053
2937.763,1929.4977020087163
2938.8613,1887.938247637836
2939.959,1841.579170527059
2941.056,1763.2198942583968
2942.1523,1708.0598239980716
2943.248,1629.3983472801042
2944.3431,1546.3348345579197
2945.4375,1446.2186399909592
2946.5313,1343.2491022753156
2947.6244,1247.7255456448956
2948.7169,1145.2972809011162
2949.8087,1069.5636063681384
2950.8999,976.9738089171507
2951.9904,892.7271647237062
2953.0803,835.2729401936199
2954.1696,766.5603928054356
2955.2582,722.1887716849681
2956.3462,681.8573182924273
2957.4335,636.965266866137
2958.5202,618.3618448258474
2959.6062,592.346273221656
2960.6916,572.0677669200426
2961.7764,554.5255348640242
2962.8605,534.5687802759402
2963.9439,532.6967008328753
2965.0267,525.0084888662269
2966.1089,509.10333138042574
2967.1905,512.5304101298175
2968.2714,519.938901777715
2969.3516,517.3779778621274
2970.4312,509.9968047216752
2971.5102,532.4445435211992
2972.5885,528.4203503255724
2973.6662,536.1233758752229
2974.7432,540.4027656263751
2975.8196,531.5576596740207
2976.8954,529.0371927091235
2977.9705,521.6404941070716
2979.045,515.0666879528812
2980.1188,504.76489311516434
2981.192,488.13422331186587
2982.2645,473.0237872132825
2983.3364,450.53268860836897
2984.4077,428.76002655584216
2985.4783,405.55489560909257
2986.5483,371.9663860339108
2987.6177,350.54358404053903
2988.6864,326.33557211955576
2989.7545,289.09142925610354
2990.8219,261.460231171969
2991.8887,234.09105069802433
2992.9548,208.5329580505404
2994.0204,179.4350211048776
2995.0852,153.64630565106717
2996.1495,129.71587568479038
2997.2131,109.19279366526541
2998.276,91.97612075455191
2999.3383,77.16491702278188
3000.4,62.90824162032618
3001.4611,48.655152925906975
3002.5215,25.454708689164477
3003.5812,20.40596617318772
3004.6404,17.857982386518643
3005.6989,9.209814133639668
3006.7567,0.5605180404539283
3007.8139,-3.4408493592332547
3008.8705,-0.3952315372211501
3009.9264,-8.753537591224188
3010.9818,-6.666672670593925
3012.0364,-8.135454476841574
3013.0905,-12.460634111418756
3014.1439,-11.942881402586806
3015.1966,-9.332741696872631
3016.2487,-9.33064103141811
3017.3002,-10.286912209275783
3018.3511,-2.8017948203943206
3019.4013,1.2745743115305572
3020.4509,2.8420863527330766
3021.4998,2.6506324567020556
3022.5481,7.55010374850599
3023.5958,7.640391326707174
3024.6428,14.771386214366999
3025.6892,15.192979358143248
3026.735,24.15506155697983
3027.7802,26.85752345789092
3028.8247,32.350255466340116
3029.8685,39.03314771921589
3030.9118,40.406090029904476
3031.9544,51.11897182146117
3032.9963,55.07168211288058
3034.0376,66.71410941196774
3035.0783,70.19614167581113
3036.1184,77.36766619435849
3037.1578,79.92856955559654
3038.1966,88.22873757383553
3039.2348,95.76805526410016
3040.2723,96.49640675912781
3041.3092,99.36367523397524
3042.3455,96.36974289873547
3043.3811,103.71449096986498
3044.4161,104.59779970012323
3045.4505,108.16954830512452
3046.4842,104.9296149545055
3047.5173,103.57787673620743
3048.5498,90.91420968887576
3049.5816,102.38848881537717
3050.6128,93.15058820943648
3051.6434,93.00038094089354
3052.6734,98.78773914808238
3053.7027,96.86253403933335
3054.7314,92.37463583509953
3055.7594,87.42391378720885
3056.7868,92.11023622374307
3057.8136,87.23347059854513
3058.8398,85.54348344435601
3059.8653,89.04014042158207
3060.8902,81.87330633519497
3061.9145,90.69284509976501
3062.9381,84.74861981112997
3063.9612,81.89049265819904
3064.9835,86.8183249823955
3066.0053,84.5819773062376
3067.0264,74.08130928406041
3068.0469,75.6161797243796
3069.0668,68.83644669489769
3070.086,68.14196750715564
3071.1046,67.33259878433009
3072.1226,59.708196468178045
3073.1399,63.568615827130714
3074.1567,55.31371153253744
3075.1727,47.9433376200613
3076.1882,38.45734757222843
3077.203,34.95559439213156
3078.2173,33.88793069829015
3079.2308,30.054208759667517
3080.2438,22.954280506348084
3081.2561,17.537997567874328
3082.2678,18.055211344246118
3083.2789,18.105773060083436
3084.2893,10.58953375945407
3085.2991,9.356344305368253
3086.3083,15.95605545494098
3087.3169,5.2385178717239285
3088.3248,2.9035820597083557
3089.3321,2.95109847050054
3090.3388,-0.5190824733290356
3091.3449,1.192889621279278
3092.3503,-3.363129666981166
3093.3551,-3.9372847713456736
3094.3593,0.27031347261566907
3095.3629,-0.9904064371924335
3096.3658,-4.219518703296899
3097.3681,-4.367087634064518
3098.3698,-3.2831353848704055
3099.3708,-1.4676404838842245
3100.3713,5.579451339246674
3101.3711,-5.791790983396652
3102.3702,3.3687014244724196
3103.3688,-0.6389447008675404
3104.3667,1.6853973431749978
3105.364,-0.3081393577509459
3106.3607,0.5305782651497282
3107.3568,-1.1983136410156874
3108.3522,0.20531577038306636
3109.347,1.0416093171294563
3110.3412,-0.9392922340977634
3111.3348,3.112751872964111
3112.3277,4.197891778107163
3113.32,5.9162775899961275
3114.3117,7.418059375316858
3115.3028,8.053387141592424
3116.2932,10.622410822165364
3117.2831,8.875280269844467
3118.2723,5.462145231214436
3119.2608,10.833155364107142
3120.2488,13.98846027173306
3121.2361,14.178209448971131
3122.2229,15.852552250815862
3123.209,11.761637890479648
3124.1944,19.90561542264942
3125.1793,19.084633784395777
3126.1635,16.348841713733194
3127.1471,15.348387757830011
3128.1301,15.183420300365754
3129.1125,21.754087571536232
3130.0942,18.26053764970284
3131.0753,20.80291839568625
3132.0558,26.431377487701752
3133.0357,27.146062395935502
3134.015,23.54712032625983
3134.9936,22.884698213086494
3135.9716,24.258942755356088
3136.949,27.42000042316228
3137.9258,30.568017444009314
3138.902,31.00313977120149
3139.8775,34.02551305236304
3140.8524,29.9352826250868
3141.8267,30.582593486710564
3142.8004,35.017590335219225
3143.7735,33.34041756277186
3144.7459,41.20121921135164
3145.7178,36.45013898953755
3146.689,38.28732019389646
3147.6596,40.66290575649384
3148.6295,38.627038226522046
3149.5989,39.87985974654437
3150.5676,42.62151207285372
3151.5357,43.402136562944456
3152.5032,42.671874148095796
3153.4701,46.53086532556561
3154.4364,44.72925016589309
3155.402,48.917168274308786
3156.367,45.64475880875079
3157.3315,49.112160437985494
3158.2952,50.01951137433177
3159.2584,50.066949338986895
3160.221,49.50461155295307
3161.1829,53.982634736562986
3162.1442,51.251155115103245
3163.105,55.31030837403416
3164.065,57.2102296863045
3165.0245,59.75105367175994
3165.9834,59.68291437814391
3166.9416,60.855945255689306
3167.8993,63.120279157799935
3168.8563,63.62604832932012
3169.8127,64.3233843838915
3170.7684,64.21241829889519
3171.7236,64.8432804084785
3172.6782,69.11610040466459
3173.6321,72.3810073310438
3174.5854,69.78812954004545
3175.5381,67.43759466028884
3176.4902,70.12952962251197
3177.4417,70.46406068307688
3178.3926,68.09131339705037
3179.3428,73.81141261485857
3180.2924,74.62448250601454
3181.2415,75.6806465019172
3182.1899,76.13002728772067
3183.1377,76.57274679177256
3184.0848,80.45892618112029
3185.0314,78.68868585708377
3185.9773,81.91214541639363
3186.9227,81.67942366889372
3187.8674,80.59063860530637
3188.8115,87.44590739955969
3189.755,82.3453464196754
3190.6979,85.73907115921615
3191.6402,85.17719628829109
3192.5818,87.45983561961869
3193.5229,86.08710211414541
3194.4633,89.45910785821941
3195.4031,89.87596407731778
3196.3423,92.1377811023265
3197.2809,96.24466836537194
3198.2189,91.59673437720265
3199.1563,95.34408668612048
3200.0931,96.88683192445994
3201.0292,98.27507577111462
3201.9648,96.7589229361098
3202.8997,101.58847714671995
3203.834,97.36384116263037
3204.7677,103.28511672764151
3205.7008,102.40240461191544
3206.6333,101.7158045527631
3207.5652,106.6254152634713
3208.4964,104.38133444016881
3209.4271,103.58365871273028
3210.3571,106.0324836672169
3211.2865,107.0279038538533
3212.2154,110.1700127625393
3213.1436,107.30890281289554
3214.0712,110.79466532284263
3214.9982,113.1773905372121
3215.9246,107.80716759288883
3216.8503,112.93408449498378
3217.7755,117.95822817053613
3218.7001,116.27968441724427
3219.624,113.99853785322424
3220.5473,118.91487193379518
3221.4701,114.8787689742908
3222.3922,122.9903101008961
3223.3137,119.89957529100826
3224.2346,122.00664329212142
3225.1549,121.86159165273386
3226.0746,124.86449670127747
3226.9937,122.91543354756811
3227.9121,123.81447605277674
3228.83,128.6616968489198
3229.7473,133.05716732986912
3230.6639,129.45095760287933
3231.5799,130.29313644463352
3232.4954,130.43377133730505
3233.4102,133.62292846013582
3234.3244,133.86067268803018
3235.238,132.49706755966304
3236.151,137.78217527510253
3237.0634,136.11605670944616
3237.9752,138.6987713599696
3238.8864,136.48037736278792
3239.797,140.21093146702844
3240.7069,140.04048905701467
3241.6163,141.3191041149609
3242.5251,144.34682922267643
3243.4332,142.22371554877947
3244.3408,139.99981281842003
3245.2477,143.97516933451078
3246.154,145.44983199996636
3247.0598,147.47384627794958
3247.9649,149.1972561771248
3248.8694,150.02010423141803
3249.7733,150.09243148278244
3250.6766,151.2142774729702
3251.5793,150.58568024280916
3252.4814,152.10667632098426
3253.3829,153.6773007303237
3254.2838,157.39758697258893
3255.1841,155.4175670127682
3256.0838,157.1872712418739
3256.9829,156.9067284967428
3257.8814,157.67596604233893
3258.7792,158.39500957455883
3259.6765,157.76388321253953
3260.5731,160.53260949146778
3261.4692,158.15120936889141
3262.3647,161.31970219703226
3263.2595,157.9381057465999
3264.1538,159.25643617510696
3265.0474,160.77470806068487
3265.9404,162.7429343889007
3266.8329,162.06112653757432
3267.7247,162.37929425709638
3268.616,160.89744567724608
3269.5066,163.76558730400973
3270.3966,162.23372403439902
3271.286,163.70185912776972
