RamanShift,CorrectedData
30.1047,814.538115970723
32.3739,757.7269061500429
34.6426,700.8156881839814
36.9109,643.1544463498885
39.1787,585.243157916957
41.4461,528.6317937228348
43.7131,466.27031875273843
45.9796,414.45869270556597
48.2456,356.296870617512
50.5112,298.5348033801839
52.7764,244.77243832222018
55.0411,184.05971978691122
57.3054,129.64658966982296
59.5692,76.082988025924
61.8326,17.168853613717012
64.0955,-37.69587556912518
66.3579,-91.6612616966183
68.6199,-142.82699036098114
70.8815,-180.09183145842832
73.1426,-192.40312804354073
75.4032,-142.25642405350328
77.6634,94.85465868174833
79.9231,711.6379194739543
82.1824,2054.851156686309
84.4412,4388.602161565626
86.6995,7510.19870481021
88.9574,10474.048513232341
91.2148,12548.209238542318
93.4717,13545.088427709952
95.7282,13794.54350222296
97.9842,13778.931748118177
100.2398,13580.910313487004
102.4949,13367.786208631529
104.7495,13153.916308044727
107.0036,12912.707352541724
109.2573,12681.46595139847
111.5105,12414.14858476385
113.7632,12073.711605972096
116.0154,11686.161244215942
118.2672,11324.703607951013
120.5185,10891.894688771323
122.7693,10482.79036502385
125.0197,10095.196406136625
127.2696,9782.568476709777
129.519,9553.262140391475
131.7679,9349.832863004194
134.0163,9245.486014837803
136.2642,9105.47687268383
138.5117,9048.310620878956
140.7587,8907.442352705084
143.0052,8769.377070961022
145.2512,8533.769689371147
147.4967,8280.57503396607
149.7417,8029.347845438704
151.9863,7865.192781676213
154.2304,7718.864420272283
156.4739,7602.817260168675
158.717,7595.505723118511
160.9596,7614.384154846733
163.2017,7659.556825123231
165.4433,7723.277927574058
167.6844,7708.651579229694
169.925,7565.381819887844
172.1651,7308.472612259695
174.4047,7104.127843402621
176.6439,6884.051327289266
178.8825,6681.796806851
181.1206,6533.467956178682
183.3582,6455.3683825452035
185.5954,6395.051627888773
187.832,6297.471169593921
190.0681,6267.380421094661
192.3037,6241.6327328502975
194.5388,6190.831392646332
196.7734,6184.979625851938
199.0075,6187.230595927981
201.2411,6238.187404485526
203.4742,6242.153091263339
205.7068,6312.480633618308
207.9389,6339.0229464857985
210.1704,6375.732881676366
212.4015,6344.6132276103435
214.632,6324.416708950732
216.862,6304.995986914401
219.0915,6246.703659474061
221.3205,6252.842261552458
223.549,6251.814265605302
225.777,6272.822081559892
228.0044,6186.968056825373
230.2314,6141.304476082681
232.4578,6065.633562143063
234.6837,5941.45747640473
236.909,5861.878319609556
239.1339,5742.448133084846
241.3582,5665.268899539121
243.582,5589.842544256428
245.8053,5595.2709358681195
248.0281,5552.555887107133
250.2503,5552.899154753686
252.472,5531.902440062457
254.6932,5493.867388759119
256.9139,5434.095591250336
259.134,5435.438583004097
261.3536,5466.647845147437
263.5727,5571.674804453005
265.7912,5646.370833026976
268.0092,5859.937247258774
270.2267,6051.12530707412
272.4436,6189.436213799362
274.6601,6281.321108249599
276.8759,6302.281069345566
279.0913,6376.717113194795
281.3061,6374.730192882009
283.5204,6430.12119772476
285.7341,6533.890953293304
287.9473,6592.990220856681
290.16,6549.319696345034
292.3721,6368.330009758602
294.5837,6131.321725604427
296.7947,5912.795344706259
299.0052,5798.101306574632
301.2152,5682.789991592122
303.4246,5604.461722160297
305.6334,5549.5667638528275
307.8418,5500.255326198774
310.0495,5413.627563231534
312.2568,5243.133573981949
314.4635,5026.0234033445895
316.6696,4820.247043782696
318.8752,4568.354437499273
321.0802,4393.645478494867
323.2847,4337.220015086476
325.4887,4285.97785165464
327.692,4300.618749207712
329.8949,4454.342425894258
332.0972,4582.34855685666
334.2989,4732.586772693889
336.5001,4749.50665818142
338.7007,4608.757750768871
340.9008,4400.789540410791
343.1003,4116.651470974156
345.2992,3867.0929423180487
347.4976,3661.1633131350427
349.6955,3483.811903446778
351.8927,3375.2379966632707
354.0895,3257.240841356417
356.2856,3196.1196523457393
358.4812,3127.173611878351
360.6763,3065.5018702401767
362.8707,3003.203546445404
365.0646,2994.8777288532137
367.258,2976.673475790748
369.4508,2964.9898156363834
371.643,3088.925747001751
373.8346,3149.7302388485978
376.0257,3268.4022292494074
378.2162,3344.790624779366
380.4062,3412.544299329632
382.5956,3326.56209334347
384.7844,3171.992813138704
386.9726,2926.6352317675437
389.1603,2776.388090562272
391.3474,2640.700101588828
393.5339,2611.469949149264
395.7199,2603.2462911386374
397.9052,2669.427759337308
400.09,2803.962959493171
402.2743,2979.8004706598513
404.4579,3066.188843851348
406.641,3212.2766002836515
408.8235,3342.6122305108647
411.0054,3475.294192964332
413.1868,3563.5209126492773
415.3675,3572.7907798179804
417.5477,3511.9021490875202
419.7273,3409.2533393470712
421.9064,3239.8926343667827
424.0848,3046.1682838242778
426.2627,2758.9285049982573
428.4399,2507.1714847057337
430.6166,2244.39538217445
432.7928,2059.1483315604355
434.9683,1896.528444575768
437.1432,1769.5338123410475
439.3176,1650.812507011592
441.4914,1573.8125830473818
443.6645,1547.632078400271
445.8371,1498.7190152839958
448.0091,1457.3714004359663
450.1806,1438.1372256064124
452.3514,1412.9144679718447
454.5216,1413.451090327413
456.6913,1377.8450413391156
458.8603,1389.144255538441
461.0288,1373.3466536784344
463.1967,1385.7001426206953
465.3639,1361.7026154933628
467.5306,1308.701951567572
469.6967,1259.0960164974413
471.8622,1199.2326628500678
474.0271,1189.809730601597
476.1914,1170.3750477358535
478.3551,1132.4264303385626
480.5182,1124.1116827917058
482.6807,1122.6785981530056
484.8426,1177.024958239067
487.0039,1338.1485336397154
489.1647,1521.2470831745313
491.3248,1706.5683522816144
493.4843,1789.7600711865953
495.6432,1745.3199530494285
497.8015,1620.6956931324667
499.9592,1469.1349692448712
502.1163,1208.3854429888424
504.2728,998.3947612752409
506.4287,898.2605589310733
508.5839,821.1804607994027
510.7386,800.3520827406874
512.8927,773.9730324035872
515.0461,809.4909094332397
517.199,840.4533057350554
519.3512,985.5078051195387
521.5029,1251.0519829926598
523.6539,1521.8334049053174
525.8043,1599.849623897886
527.9541,1383.8481777924162
530.1033,1078.8265884124603
532.2519,852.2323637430936
534.3999,759.063000981133
536.5472,688.5159888010758
538.694,677.238808286791
540.8401,725.5289336369879
542.9856,796.0838322779955
545.1305,861.8509643808566
547.2748,922.5777821557822
549.4185,913.111729194472
551.5615,937.6002398628525
553.704,997.9907393957365
555.8458,1020.3806436519353
557.987,1127.2673585103548
560.1276,1236.298279646101
562.2675,1520.820791461605
564.4069,1843.0822659963242
566.5456,2081.7300600815097
568.6837,1974.4615121175912
570.8212,1612.7739396877032
572.958,1170.2646406303702
575.0942,888.9308966563822
577.2299,720.419977773884
579.3648,624.829145101714
581.4992,580.6556525545157
583.6329,610.5967477986387
585.766,699.7996726938864
587.8985,869.41166299409
590.0304,1061.7799474550866
592.1616,1259.351746138601
594.2922,1317.9242684885567
596.4222,1195.6447113553659
598.5515,985.3602584101936
600.6802,743.4680813677687
602.8083,514.415342089218
604.9358,413.8491950009893
607.0626,410.66678938537916
609.1888,405.0652703861988
611.3144,492.0917790405947
613.4393,634.4434523350628
615.5636,845.167422335192
617.6873,1079.0608147621388
619.8103,1236.0207468853905
621.9327,1259.0443251838278
624.0544,1173.3286437761271
626.1756,885.6707841905236
628.2961,636.4678162219743
630.4159,494.9168008087281
632.5351,475.8647925243631
634.6537,445.6088409932836
636.7716,431.3459910812553
638.8889,433.57328319795215
641.0056,462.8377534395904
643.1216,509.0364335666545
645.237,557.6663507112589
647.3518,491.5745269151539
649.4659,394.4579786434315
651.5793,269.2637174454494
653.6922,228.18875092598773
655.8043,161.2300839971913
657.9159,121.48471928932122
660.0268,91.39965782033869
662.137,69.92189939336185
664.2466,91.14844289751909
666.3556,99.37628652272724
668.4639,55.00242754741703
670.5716,63.473862256257235
672.6786,27.487586383902453
674.785,-14.209404969738898
676.8907,-31.570391305747762
678.9958,-26.948510173250725
681.1002,-34.496583733171974
683.204,-20.06716493082422
685.3072,-20.312462090653753
687.4097,-25.93448306612845
689.5115,-28.335032789228535
691.6127,-11.215657106449726
693.7132,-51.97761879731479
695.8131,-42.872068596936515
697.9123,-16.149637984022775
700.0109,-4.86053014531808
702.1089,49.04521306731294
704.2061,88.81759835869252
706.3028,184.6066319431984
708.3987,333.51231914703203
710.4941,395.2346634503365
712.5887,420.3236649981309
714.6827,405.9293199830945
716.7761,347.55162039467723
718.8688,327.2405541630342
720.9608,292.6961057428116
723.0522,352.26825631625525
725.1429,430.30698413864866
727.233,539.6122639425994
729.3224,793.0340661576383
731.4112,1061.0723558171794
733.4993,1173.327090024297
735.5867,1043.1482152713425
737.6735,721.7856663173998
739.7596,415.3893674900801
741.845,247.95923589914128
743.9298,183.44518450045325
746.014,167.84712377029518
748.0974,158.8649623504998
750.1802,175.89860720442357
752.2624,166.99796370677996
754.3439,170.41293547329678
756.4247,181.79342444972644
758.5048,221.23933087769365
760.5843,302.00055318089653
762.6631,425.7269875706397
764.7413,639.668527238221
766.8188,1004.1750611176722
768.8956,1358.5964717463412
770.9718,1669.7326316198314
773.0473,1621.8333996477777
775.1221,1455.2486180424994
777.1962,1398.578112797979
779.2697,1610.7716953557192
781.3426,2058.1791631714386
783.4147,2434.450297593152
785.4862,2489.634859387077
787.557,2153.682584974932
789.6271,1644.343185882094
791.6966,1082.7163520971117
793.7654,649.6017571651055
795.8335,365.89906380403045
797.901,214.3579282358287
799.9678,161.97800302345058
802.0339,162.4589385862746
804.0993,215.7003837239008
806.1641,212.75198561134494
808.2282,161.8133892666192
810.2916,81.88423758021872
812.3544,19.464171824504774
814.4164,-3.947167546998571
816.4778,35.699859724596536
818.5385,54.554933330378844
820.5986,227.4177326044437
822.658,439.4379363353373
824.7166,724.1652210374332
826.7747,1073.2992588307316
828.832,1394.5397145935785
830.8886,1627.8362424713341
832.9446,1812.838482663964
834.9999,1717.5460590930797
837.0545,1497.858577551906
839.1085,1124.9256266582115
841.1618,797.5967800511826
843.2143,535.4716001207498
845.2662,400.3996412808847
847.3175,325.78045259083865
849.368,259.61357910586867
851.4179,245.49856262343565
853.467,232.38494234486188
855.5155,307.9222550164932
857.5633,328.0100350608227
859.6105,317.2978138211256
861.6569,273.0851193605813
863.7027,205.87147656939487
865.7478,162.7564076069193
867.7922,139.08943257379906
869.8359,94.9200699431185
871.8789,61.99783679706616
873.9212,46.87224926863291
875.9629,73.89282287084006
878.0039,139.9590726479828
880.0441,205.12051290543604
882.0837,285.77665654898556
884.1226,369.1770144332213
886.1609,553.221094554965
888.1984,759.7084012192754
890.2352,979.8884331989957
892.2714,1082.1106816698948
894.3069,1000.1246280088508
896.3416,792.1297427716436
898.3757,572.7754865128054
900.4091,460.86131186557213
902.4418,457.68666573542396
904.4739,563.8509904192388
906.5052,670.8537236370212
908.5358,713.7942974702719
910.5658,653.8721372919572
912.595,536.5866613371036
914.6236,372.5872813020178
916.6515,256.12340351714374
918.6786,160.09443058705529
920.7051,125.04976255509519
922.7309,125.23879786366615
924.756,146.91093370467752
926.7804,185.81556601765078
928.8041,218.7520892729999
930.8272,317.8198960829868
932.8495,353.36837687235675
934.8711,404.54691888765774
936.892,430.85490584176114
938.9123,506.89171740206893
940.9318,637.9567289274346
942.9506,727.6493107077995
944.9688,704.6188266535373
946.9862,644.7146333985256
949.003,512.0860805304619
951.019,402.63251118989774
953.0344,310.7032633965291
955.0491,271.54767114373044
957.063,235.56506531784453
959.0763,234.00477408974257
961.0888,224.66612327464918
963.1007,228.04843634773988
965.1119,215.4010345375309
967.1223,165.97323679205329
969.1321,142.8143599053301
971.1412,155.4237190116528
973.1495,137.0506278171697
975.1572,112.64439847379526
977.1641,162.9043417629391
979.1704,157.17976733956948
981.1759,181.9699832296119
983.1808,152.7242958871975
985.1849,114.49200994675903
987.1884,87.47242851548708
989.1911,116.91485355565328
991.1932,157.26858615480796
993.1945,188.43292623135312
995.1951,195.85717213100452
997.1951,202.54062031515423
999.1943,177.88256528661987
1001.1928,169.83229952281908
1003.1906,220.28911372234415
1005.1877,330.0022968854664
1007.1841,446.3711358095634
1009.1798,555.0449139919929
1011.1748,504.67291046640185
1013.1691,429.9043987159921
1015.1627,294.93864717723955
1017.1556,169.32491998757723
1019.1477,97.86247833505695
1021.1392,18.10058171448054
1023.1299,-23.611511357967174
1025.12,-23.32472319091994
1027.1093,17.910259785984636
1029.0979,100.54298415709127
1031.0859,183.4228175832468
1033.0731,249.84912671986967
1035.0596,302.17127638815145
1037.0454,265.48862891079625
1039.0304,215.55054358879897
1041.0148,142.90637706827147
1042.9985,52.40548383982423
1044.9814,-12.05278303499199
1046.9636,-35.71907101867964
1048.9452,4.756092833562434
1050.926,82.42253830005029
1052.9061,177.08004764573252
1054.8855,208.0284023113354
1056.8642,239.56738196678543
1058.8421,225.3467642017331
1060.8194,208.11632421015292
1062.7959,193.7758349325577
1064.7717,191.1750672282942
1066.7469,199.26379001895293
1068.7213,214.99177031437648
1070.695,267.70877313176607
1072.6679,353.21456133841
1074.6402,495.7588951245125
1076.6117,549.0415311481329
1078.5826,527.912221109752
1080.5527,362.27071121943027
1082.5221,215.066742408113
1084.4908,91.30005198403796
1086.4587,7.070375104777668
1088.426,-10.672553985092236
1090.3925,-29.029071674048282
1092.3584,-10.699407731754945
1094.3235,23.416498072550894
1096.2879,98.71881285671134
1098.2515,191.05770350440525
1100.2145,305.8833359121272
1102.1767,445.79587406579503
1104.1382,600.0954788924946
1106.099,833.8823068613547
1108.0591,1056.706508440545
1110.0185,1254.3682257594182
1111.9771,1407.8175903802621
1113.9351,1589.254721321684
1115.8923,1886.4797235241176
1117.8488,2113.5926860354493
1119.8045,2048.4436790387736
1121.7596,1673.1327515812563
1123.7139,1171.609932225634
1125.6675,866.9252328033144
1127.6204,799.1286534296078
1129.5726,887.6201855505733
1131.524,938.8998126209872
1133.4748,821.8175092194242
1135.4248,566.2232405354625
1137.3741,335.3669635405049
1139.3226,208.44862954372547
1141.2705,167.21818650063415
1143.2176,178.57558028225412
1145.164,274.7207550874282
1147.1097,299.5536533292461
1149.0546,254.824214673592
1150.9989,146.43237579081506
1152.9424,59.078070803024275
1154.8852,-19.63876763198823
1156.8272,-42.618207447214445
1158.7686,-50.16012038435656
1160.7092,-53.06395242922554
1162.6491,-33.128648468032225
1164.5883,1.997376721898945
1166.5267,63.91603931844111
1168.4644,160.42923554567096
1170.4014,295.43886098850726
1172.3377,467.8968096275785
1174.2732,638.2049724891267
1176.2081,987.9652359204265
1178.1421,1461.1294798867048
1180.0755,2038.999574473538
1182.0082,2442.7773751552086
1183.9401,2533.264717016007
1185.8713,2209.763410712452
1187.8017,1666.825241568422
1189.7315,1145.151972810162
1191.6605,743.9453509956675
1193.5888,517.6071112314162
1195.5163,383.5889811844354
1197.4432,270.1926833456828
1199.3693,187.81993637022833
1201.2947,124.47245621121738
1203.2193,94.65195694359818
1205.1432,58.460151397599475
1207.0664,42.49875145693477
1208.9889,34.36946842071484
1210.9106,47.92401316306632
1212.8316,61.2140962144249
1214.7519,107.74142762598603
1216.6715,154.00771683680705
1218.5903,188.01467220853237
1220.5084,255.36400056273578
1222.4257,325.5074068408485
1224.3424,357.6965934306613
1226.2583,412.2832594648935
1228.1735,535.2691004992953
1230.0879,666.9058079667857
1232.0016,850.9950679475965
1233.9146,983.7885598529019
1235.8269,1071.5379545839241
1237.7384,1097.994913204001
1239.6492,1066.061086061096
1241.5592,1116.438112523224
1243.4686,1269.7776212977897
1245.3772,1550.731229927822
1247.285,1910.4005432585755
1249.1922,2265.0371506279907
1251.0986,2570.942622270013
1253.0042,2834.818505768214
1254.9092,3197.8163229967427
1256.8134,3602.587567481566
1258.7169,4092.383700770487
1260.6196,4472.7061483854395
1262.5216,4722.4062949245235
1264.4229,4796.485480258779
1266.3234,4695.194997035189
1268.2232,4421.086089935877
1270.1223,4144.159956691026
1272.0207,3964.917750819954
1273.9183,3844.210584400385
1275.8151,3835.839529860862
1277.7113,3931.955621187826
1279.6067,4254.009854009321
1281.5014,4840.8031846338345
1283.3953,5648.886526829756
1285.2885,6592.110745957446
1287.181,7416.7266508884
1289.0727,7804.784984573016
1290.9637,7654.836415794419
1292.854,7129.28153528789
1294.7435,6482.87085724035
1296.6323,5823.7548245459075
1298.5204,5281.683815269964
1300.4077,4881.658149240371
1302.2943,4570.028093468144
1304.1802,4389.943866147718
1306.0653,4200.055639773249
1307.9497,4057.9635429394543
1309.8333,3946.417662240495
1311.7162,3853.4180436909
1313.5984,3760.8646938410216
1315.4798,3678.957580707036
1317.3605,3715.9466346964737
1319.2405,3818.2317494272907
1321.1197,3866.362781357981
1322.9982,3796.2395487647223
1324.876,3625.311831260067
1326.753,3256.8293704941725
1328.6293,2841.19187186408
1330.5048,2411.34900819854
1332.3796,2008.5504239143834
1334.2537,1687.5957393149552
1336.127,1462.684554618097
1337.9996,1310.0664531656953
1339.8714,1195.3910036727916
1341.7426,1092.7577617537636
1343.6129,1029.1662710690825
1345.4826,945.3660643516423
1347.3515,887.356664042677
1349.2196,809.4875831297609
1351.087,785.8583257269033
1352.9537,775.8183878532382
1354.8197,773.467257669322
1356.6849,817.2044155775288
1358.5493,863.0793342455609
1360.4131,982.7914781690779
1362.276,1118.8403032129463
1364.1383,1288.6252554141251
1365.9998,1387.695769621169
1367.8606,1366.0012677963841
1369.7206,1350.5411580251189
1371.5799,1372.2148347327138
1373.4384,1360.6716788390968
1375.2962,1269.361057542052
1377.1533,1075.032324432646
1379.0096,877.5348204083366
1380.8652,703.4678756162575
1382.7201,611.3808114281965
1384.5742,489.0229421812669
1386.4275,385.94357609877306
1388.2802,314.3920165137911
1390.132,238.5675628999643
1391.9832,221.76951158701877
1393.8336,183.39715651900588
1395.6832,194.19978942228363
1397.5322,145.47670018924282
1399.3803,113.92717677027576
1401.2278,98.10050566101381
1403.0745,61.195972217816234
1404.9204,18.762860816039392
1406.7656,-5.749544780919223
1408.6101,-9.741960997290334
1410.4538,-35.36504681935412
1412.2968,-32.96936391120198
1414.139,-26.55512064011009
1415.9805,10.37780399059011
1417.8213,69.72979626322285
1419.6613,140.9012423563331
1421.5006,256.6925277511709
1423.3391,437.1040365199701
1425.1769,646.8361501680424
1427.0139,995.1392458296605
1428.8502,1372.2136941707363
1430.6858,1706.9598559057922
1432.5206,1870.128078027216
1434.3547,1847.7186904577966
1436.188,1780.9320044190463
1438.0206,1714.4183126552907
1439.8524,1680.3778901015362
1441.6835,1661.3609945486087
1443.5139,1684.5678669835588
1445.3435,1716.9987317798273
1447.1724,1752.0037964651779
1449.0005,1747.983251397386
1450.8279,1701.73726941419
1452.6545,1689.0660058734998
1454.4804,1688.46959911585
1456.3056,1648.4481705911167
1458.13,1594.0518248644817
1459.9536,1502.380650016646
1461.7766,1340.134718187796
1463.5987,1190.5140864943082
1465.4202,1034.2187986512154
1467.2409,871.498886468411
1469.0608,740.7043714135998
1470.88,593.0352662394998
1472.6984,489.9415762917847
1474.5161,381.2233009857737
1476.3331,301.03043483737156
1478.1493,267.01296855025066
1479.9648,238.97088981778052
1481.7795,244.60418366320255
1483.5935,252.86283272005312
1485.4067,284.84681717582635
1487.2192,295.6061146893908
1489.031,312.44070007114897
1490.842,316.9505451754394
1492.6522,313.2356187321984
1494.4618,312.6458863018606
1496.2705,314.13131031250487
1498.0785,301.8918500657551
1499.8858,287.7274617219182
1501.6924,280.0380984223857
1503.4981,267.6737104312774
1505.3032,249.93424521233328
1507.1075,228.51964755255995
1508.911,215.4298597396246
1510.7138,184.11482177599873
1512.5159,171.52447150985563
1514.3172,150.15874494822265
1516.1178,128.66757638288072
1517.9176,106.75089860402841
1519.7166,93.7086431151888
1521.515,73.390740352379
1523.3126,61.0971198145312
1525.1094,50.877710266670874
1526.9055,39.33243986285197
1528.7008,24.661236248354726
1530.4954,16.264026675134573
1532.2893,32.590738148538094
1534.0824,11.391297511273024
1535.8747,23.515631280141406
1537.6663,18.86366585803262
1539.4572,26.58532741268027
1541.2473,38.730541923183864
1543.0367,40.59923510278986
1544.8253,63.1413322774406
1546.6132,74.45675836708733
1548.4003,100.94543766026982
1550.1867,140.70729370096205
1551.9723,197.89224902368323
1553.7572,241.80022475588248
1555.5414,321.0811400460898
1557.3247,443.5849116248319
1559.1074,602.0114530118276
1560.8893,793.5606732909446
1562.6705,974.6824755259395
1564.4509,1134.226754844965
1566.2305,1214.7933966293494
1568.0094,1247.2822749181578
1569.7876,1262.3932516025216
1571.565,1242.0761761007502
1573.3417,1276.8308852072196
1575.1176,1294.407203295546
1576.8928,1370.804941971037
1578.6672,1477.7738998949303
1580.4409,1636.5638620204154
1582.2138,1792.1745985229436
1583.986,1994.3558632123286
1585.7575,2191.30739197664
1587.5282,2405.5289007603915
1589.2981,2550.4200835950246
1591.0673,2665.6306104566943
1592.8358,2697.810125817355
1594.6035,2690.5582474926573
1596.3704,2640.1245663201535
1598.1366,2563.208646231812
1599.9021,2444.660024758359
1601.6668,2305.928213798436
1603.4308,2223.3127008040856
1605.194,2179.76295016807
1606.9564,2257.2284040500235
1608.7182,2473.758482811956
1610.4791,2852.8025842435877
1612.2394,3335.410081397057
1613.9988,3871.3803187964772
1615.7576,4381.362607611862
1617.5156,4667.80622029942
1619.2728,4663.660385501737
1621.0293,4351.724285183339
1622.785,3858.497054672145
1624.54,3268.9277857788356
1626.2942,2705.7655317291214
1628.0477,2169.0093130594378
1629.8005,1769.9081232485669
1631.5525,1430.7109340851953
1633.3037,1186.716699658934
1635.0542,970.9243597522845
1636.804,798.7328422805822
1638.553,682.0910654499216
1640.3013,612.5979394790697
1642.0488,507.85236776588454
1643.7955,463.70324758224706
1645.5416,416.29947112151604
1647.2868,362.0899259400185
1649.0313,343.4734954310861
1650.7751,320.2990593671507
1652.5181,319.61549408591145
1654.2604,317.57167272207744
1656.0019,331.96646521420325
1657.7427,393.09873832512903
1659.4828,472.56735549803125
1661.222,593.8711762450989
1662.9606,770.6590553528486
1664.6984,967.5798416690859
1666.4354,1091.3823763350279
1668.1717,1094.7654908160916
1669.9072,947.9780056638742
1671.642,756.9187304823158
1673.3761,556.9364653955786
1675.1094,388.78000295863876
1676.8419,287.6981301571095
1678.5737,200.33963008880437
1680.3048,152.80328297455753
1682.0351,109.28786703180822
1683.7646,80.94215894996069
1685.4934,74.26493432554571
1687.2215,55.854967945672115
1688.9488,39.36103385479987
1690.6754,33.4819055388391
1692.4012,24.666356090088584
1694.1263,24.41315826603045
1695.8506,15.77108457748227
1697.5742,16.438907291131727
1699.297,19.115398515957395
1701.0191,5.2493301965482715
1702.7404,-3.6105259136595578
1704.461,-6.0653981137218125
1706.1808,4.7835213664573075
1707.8999,-12.664899109698581
1709.6182,-2.8617912266013263
1711.3358,-7.15816014632037
1713.0527,-17.804982441631182
1714.7688,-21.403163175291184
1716.4841,-2.6534295382839446
1718.1987,-2.5062949039943305
1719.9126,0.3877538619531151
1721.6257,-10.421745068180826
1723.338,-10.785253526011275
1725.0496,-8.103129229921706
1726.7605,-3.775622153614222
1728.4706,-9.152901320529736
1730.18,-12.735098035645706
1731.8886,-7.722252166454382
1733.5964,-5.16427635682021
1735.3036,-9.761006105307843
1737.0099,0.9377746806376308
1738.7156,3.7823796060220047
1740.4204,6.52312226647382
1742.1246,26.310316219799915
1743.8279,16.14427495857808
1745.5306,5.32531171228311
1747.2325,16.753739548948943
1748.9336,9.029871483357965
1750.634,11.754020362755682
1752.3336,25.02649894408637
1754.0325,24.047619866755895
1755.7307,28.467695519902918
1757.4281,24.637038052191656
1759.1247,28.20595932760625
1760.8206,41.57477096376101
1762.5158,41.39378429621274
1764.2102,39.71331024477058
1765.9039,41.03365931530766
1767.5968,43.85514161656238
1769.289,57.078066846938555
1770.9804,48.85274426628939
1772.6711,54.77948256368745
1774.361,45.15858993968027
1776.0502,52.29037404702012
1777.7386,53.27514208687671
1779.4263,51.81320073751499
1781.1132,74.90485614445015
1782.7994,64.45041393506494
1784.4849,77.2001789876947
1786.1696,69.75445553617101
1787.8535,81.01354704232403
1789.5367,71.17775627043898
1791.2192,71.64738517466662
1792.9009,61.122734997379894
1794.5818,84.40410626447829
1796.2621,81.5417988906338
1797.9415,82.58611194647824
1799.6202,80.48734368722626
1801.2982,79.99579154223193
1802.9755,72.46175213597667
1804.6519,100.135521292985
1806.3277,79.66739411316348
1808.0027,80.65766469506548
1809.6769,92.70662634057021
1811.3504,93.16457154498175
1813.0231,93.78179187653745
1814.6951,99.20857797183066
1816.3664,95.09521952963746
1818.0369,97.54200525664783
1819.7067,93.3992229086009
1821.3757,100.56715926581637
1823.044,105.94610017462082
1824.7115,100.68633047567096
1826.3783,95.28813395016346
1828.0443,103.7517933724314
1829.7096,94.47759056392806
1831.3741,110.76580630859053
1833.0379,107.76672044557972
1834.701,103.58061170639871
1836.3633,111.35775774488434
1838.0248,125.64843517906843
1839.6856,114.95291951340482
1841.3457,119.57148499586492
1843.005,113.70440472489145
1844.6636,121.6519506032123
1846.3214,117.91439339651174
1847.9785,141.04200265395593
1849.6349,136.28504674556712
1851.2904,121.84379263094866
1852.9453,124.7185059068554
1854.5994,127.00945095160364
1856.2528,138.5168908963251
1857.9054,140.74108760205831
1859.5572,140.08230154467356
1861.2083,149.3407917926313
1862.8587,147.71681601357022
1864.5084,146.26063038172128
1866.1572,150.3224895941487
1867.8054,137.65264688531147
1869.4528,155.7513539864442
1871.0994,132.26886125225587
1872.7453,145.20541747994162
1874.3905,150.36127014400859
1876.0349,147.33666526691104
1877.6786,166.63184736748963
1879.3215,159.24705949121994
1880.9637,151.43254301725847
1882.6051,156.68853773229102
1884.2458,157.81528190867994
1885.8858,151.31301225190123
1887.525,160.68196388928004
1889.1634,154.37237043501204
1890.8011,154.53446389647365
1892.4381,155.11847473731768
1894.0743,153.22463187585345
1895.7098,153.05316267920557
1897.3446,146.75429298225413
1898.9786,160.7282470893474
1900.6118,156.4252478372905
1902.2443,148.6955164556075
1903.8761,151.63927260956825
1905.5071,154.60673447748877
1907.1374,152.1981187212923
1908.7669,154.0636404568354
1910.3957,153.35351327799413
1912.0237,148.2679492380089
1913.651,152.30715885658446
1915.2776,145.07135117074836
1916.9034,146.56073369445653
1918.5285,147.72551249095204
1920.1528,140.61589215787194
1921.7764,145.9820758155995
1923.3992,143.6242651783582
1925.0213,141.44266050055103
1926.6427,133.88746060033827
1928.2633,133.40886288145452
1929.8832,146.7570634087606
1931.5023,139.53225691302828
1933.1207,139.8346366574592
1934.7383,141.0143945099337
1936.3552,137.72172093998643
1937.9714,138.55680500700873
1939.5868,132.26983439317496
1941.2015,140.8109953950925
1942.8154,132.38047298667084
1944.4286,135.77845073370986
1946.041,123.205110878205
1947.6528,125.21063430436789
1949.2637,132.69520066435894
1950.8739,128.50898835823318
1952.4834,132.20217445909498
1954.0921,129.17493475495826
1955.7001,130.72744371181625
1957.3074,138.6098745039135
1958.9139,118.87239899822043
1960.5197,131.1651876756098
1962.1247,117.48840982823049
1963.729,111.89223343657977
1965.3325,114.97682530627208
1966.9353,116.74235112399992
1968.5374,108.93897542668856
1970.1387,110.46686158384045
1971.7393,115.72617187556853
1973.3392,125.81706747731823
1974.9383,114.78970840727311
1976.5366,108.19425342544741
1978.1342,111.78086014395808
1979.7311,102.59968509298119
1981.3273,100.55088368488396
1982.9227,104.28461030603796
1984.5173,104.4510183373061
1986.1112,106.95026011670575
1987.7044,107.63248693774585
1989.2968,103.94784902443212
1990.8885,101.69649552444662
1992.4795,100.32857454599366
1994.0697,104.69423318031181
1995.6592,102.14361751535489
1997.2479,98.72687259213421
1998.8359,103.04414243022552
2000.4232,105.04557006193511
2002.0097,104.08129748912938
2003.5955,96.05146566321878
2005.1805,94.95621449480097
2006.7648,96.2456829339593
2008.3484,106.3700089812155
2009.9312,102.87932967463439
2011.5133,111.77378098858117
2013.0946,100.4534978686288
2014.6752,94.56861414261334
2016.2551,101.31926263383593
2017.8342,96.45557521991304
2019.4126,99.37768276526845
2020.9902,92.58571516977133
2022.5672,103.2298013395141
2024.1433,96.51006925473246
2025.7188,99.176645863364
2027.2935,87.22965714824613
2028.8674,95.61922810044973
2030.4406,93.94548283875031
2032.0131,84.7085445257303
2033.5849,84.75853538451872
2035.1559,88.29557679115908
2036.7261,89.81978927411024
2038.2957,92.3312924788753
2039.8645,94.2302051527596
2041.4325,93.31664511975646
2042.9998,101.89072926155711
2044.5664,84.95257352668739
2046.1323,94.60229284476554
2047.6974,82.14000129588476
2049.2617,90.31581201411575
2050.8254,82.1298373121299
2052.3883,98.73218859944018
2053.9504,90.77297646426257
2055.5118,79.85231050749064
2057.0725,88.67029942228896
2058.6325,98.07705110329994
2060.1917,87.97267255846259
2061.7502,88.50726981494586
2063.3079,90.98094802019205
2064.8649,78.64381143657056
2066.4212,96.0959634166419
2067.9767,98.5875065265285
2069.5315,90.9185423713933
2071.0856,85.18917157052442
2072.6389,84.29949383402584
2074.1915,81.74960802010969
2075.7433,89.2396121439939
2077.2945,83.0196034034011
2078.8448,78.53967810365828
2080.3945,80.39993171989613
2081.9434,87.80045894184912
2083.4916,83.39135365525249
2085.039,76.82270886783692
2086.5857,77.6946167534204
2088.1317,71.0571687175941
2089.677,76.26045538900416
2091.2215,86.50456668572474
2092.7652,76.03959176322633
2094.3083,74.61561891193458
2095.8506,81.9827356618789
2097.3921,77.89102879693291
2098.933,69.89058428114242
2100.4731,83.88148729964348
2102.0124,75.76382233866559
2103.5511,82.08767304562502
2105.089,85.60312231029855
2106.6261,73.46025220158731
2108.1626,74.85914393236146
2109.6983,82.54987798088928
2111.2332,86.0325340768486
2112.7675,80.35719112441882
2114.301,79.77392716745408
2115.8337,75.73281944623807
2117.3657,69.83394440331551
2118.897,75.07737772390374
2120.4276,81.26319439488066
2121.9575,82.14146865235068
2123.4866,81.21227391978653
2125.0149,74.82568279924635
2126.5426,75.53176708066587
2128.0695,68.98059780572441
2129.5956,78.62224526078319
2131.1211,71.9067790423976
2132.6458,78.08426796090055
2134.1698,78.90478010755805
2135.693,68.7183827927928
2137.2155,71.22514253797999
2138.7373,75.07512517731107
2140.2584,66.9183958327269
2141.7787,75.85501887541727
2143.2983,69.33505800738862
2144.8171,64.15857617209701
2146.3353,67.77563561964826
2147.8527,64.08629795856325
2149.3693,71.24062411960608
2150.8853,62.73867439267826
2152.4005,58.48050835527533
2153.9149,71.8161849575065
2155.4287,59.095762564675965
2156.9417,63.86929882392701
2158.454,68.13685079144489
2159.9655,70.04847488472217
2161.4764,70.30422683988377
2162.9865,55.154161692569915
2164.4958,67.54833377537943
2166.0045,57.18679686936969
2167.5124,58.76960408011553
2169.0195,58.096807941323505
2170.526,67.41846039900474
2172.0317,62.78461281820262
2173.5367,58.445315889776225
2175.0409,60.700619676738825
2176.5445,65.20057365765092
2178.0473,68.94522670406661
2179.5494,56.68462703553496
2181.0507,56.168822182152894
2182.5513,57.69785910717155
2184.0512,67.62178421215492
2185.5504,66.19064332168784
2187.0488,57.95448158413819
2188.5465,61.36334348596722
2190.0435,57.56727293409176
2191.5397,57.56631322179555
2193.0353,53.7105070666903
2194.5301,59.74989661072493
2196.0241,62.98452345874398
2197.5175,54.764428618093234
2199.0101,60.58965246627395
2200.502,48.11023483314318
2201.9931,62.02621494266134
2203.4835,51.88763153768741
2204.9733,43.744522740818184
2206.4622,55.89692615577451
2207.9505,52.79487894883232
2209.438,43.68841772729968
2210.9248,41.07757857053571
2212.4109,45.71239712101544
2213.8962,49.24290861043892
2215.3809,44.469147813382165
2216.8648,48.84114901199189
2218.3479,46.15894604372397
2219.8304,45.52257225762355
2221.3121,43.73206054114701
2222.7931,48.08744332652486
2224.2733,33.83875260866648
2225.7529,36.3860199016076
2227.2317,31.92927638099559
2228.7098,39.81855285861786
2230.1872,38.853879826970115
2231.6638,38.23528738036248
2233.1397,31.262805224566705
2234.6149,41.4864626830024
2236.0894,38.60628876646092
2237.5632,31.922312070869793
2239.0362,38.334560806094146
2240.5085,37.543062862776765
2241.9801,25.2478457482149
2243.4509,29.098936594275415
2244.921,38.14636228034726
2246.3904,25.64014939483036
2247.8591,22.43032414466063
2249.3271,24.116912480373344
2250.7943,23.84994012820016
2252.2608,23.679432573204167
2253.7266,23.455415061948315
2255.1917,22.027912604202356
2256.656,28.5969499751817
2258.1197,20.162551729823463
2259.5826,29.074742137094972
2261.0447,17.33354526433834
2262.5062,30.638984888148116
2263.9669,28.691084611784845
2265.4269,22.989867732118682
2266.8862,21.93535725911022
2268.3448,18.927575972820932
2269.8026,15.166546433959411
2271.2598,25.952291013958188
2272.7162,17.634831932584916
2274.1719,21.11419115008414
2275.6268,18.540390450352902
2277.0811,26.113451406146282
2278.5346,24.18339540481645
2279.9874,16.85024357258169
2281.4395,28.164016793826022
2282.8908,20.02473578443187
2284.3414,33.682420978642085
2285.7914,16.887092610452896
2287.2406,24.538770577036757
2288.689,19.2374746066954
2290.1368,24.38322418234327
2291.5838,27.226038594520105
2293.0302,25.565936889933823
2294.4758,23.452937843031464
2295.9206,23.037059972600673
2297.3648,20.86832156289995
2298.8082,22.046740667817517
2300.251,20.72233513255844
2301.693,22.79512258186162
2303.1343,23.965120433244238
2304.5748,21.332345876272143
2306.0147,20.24681586086058
2307.4538,21.85854712360174
2308.8922,22.86755619861981
2310.3299,26.123859401454638
2311.7669,21.127472818969977
2313.2031,26.82841227679171
2314.6387,24.37669338927094
2316.0735,17.722331502474617
2317.5076,20.71534171870246
2318.941,15.305738963031672
2320.3737,14.593537953385407
2321.8056,22.72875325462951
2323.2369,21.01139928569512
2324.6674,21.99149023822531
2326.0972,17.219040093748504
2327.5263,23.044062613877713
2328.9547,28.16657138803555
2330.3823,21.886579775203813
2331.8092,18.804100852697502
2333.2355,12.969147478968239
2334.661,13.881732324425911
2336.0858,10.691867929790078
2337.5098,13.34956669696362
2338.9332,14.004840920930747
2340.3558,13.557702763179805
2341.7778,11.40816424515208
2343.199,19.456237252711162
2344.6195,19.751933557640427
2346.0393,16.845264737160846
2347.4583,14.936242170974197
2348.8767,14.374877070329717
2350.2943,14.361180497114333
2351.7113,20.09516336946649
2353.1275,20.576836461913445
2354.543,19.80621034803039
2355.9578,20.683295395625123
2357.3718,13.958101774443207
2358.7852,18.13063944739781
2360.1978,19.60091823782159
2361.6098,18.31894778774074
2363.021,26.63473754317272
2364.4315,15.848296766945396
2365.8413,13.909634455540186
2367.2504,20.768759446955528
2368.6587,9.525680440093652
2370.0664,19.580405926169306
2371.4733,19.132944301141322
2372.8795,12.833303765164715
2374.285,19.981492327065325
2375.6899,14.327517867336098
2377.0939,16.47138806665481
2378.4973,18.413110462424413
2379.9,20.502692427334637
2381.3019,15.940141149944168
2382.7032,13.82546361378536
2384.1037,18.808666642989238
2385.5035,16.489756923432424
2386.9027,12.568740952904704
2388.3011,20.145625064299338
2389.6987,18.07041546482162
2391.0957,14.34311816022148
2392.492,21.913738975544334
2393.8876,6.132283592405031
2395.2824,10.89875747328108
2396.6765,17.013166019327684
2398.07,7.8255145227126945
2399.4627,12.93580810547246
2400.8547,9.394051811388977
2402.246,10.500250554886179
2403.6366,10.404409156447969
2405.0265,13.556532331555843
2406.4156,8.35662469164788
2407.8041,2.2546907125968687
2409.1918,11.150734786710075
2410.5789,2.244761283747664
2411.9652,4.986774461962796
2413.3508,0.9267785571606169
2414.7358,10.464777755279442
2416.12,11.050766983739038
2417.5035,6.78474106531138
2418.8863,6.166694712261119
2420.2684,10.946622569005626
2421.6497,4.724519218295654
2423.0304,8.000379133416288
2424.4104,11.524196740407547
2425.7896,9.295966385306315
2427.1682,4.515682298907336
2428.546,2.2833386190461056
2429.9232,8.298929438401501
2431.2996,5.012448826819366
2432.6753,7.82389077115613
2434.0503,1.5332492081441842
2435.4246,5.990517996277163
2436.7982,3.845690978716391
2438.1711,3.998761938718644
2439.5433,10.049724621083442
2440.9148,-0.2514272693769044
2442.2856,7.695299871652878
2443.6557,2.3899021602459243
2445.025,0.23237563552265783
2446.3937,4.322716312704529
2447.7617,6.810917885580352
2449.1289,9.34697400471191
2450.4955,7.680878252552361
2451.8613,3.412624118085432
2453.2265,4.94220501348633
2454.5909,12.019614316804223
2455.9546,7.144845356666451
2457.3177,3.467891341504412
2458.68,14.388745408301247
2460.0416,10.55740065936169
2461.4025,12.323850053103001
2462.7627,7.538086442368865
2464.1222,8.900102556764864
2465.4811,10.159891050516023
2466.8392,3.8174444888464336
2468.1966,5.822755335381487
2469.5533,9.72581601557249
2470.9093,2.32661889664314
2472.2645,16.275156248559483
2473.6191,7.7714203180213985
2474.973,11.315403188977086
2476.3262,12.857096867660687
2477.6787,11.296493247152512
2479.0305,11.233584091962257
2480.3816,18.168361053634953
2481.7319,14.450815671379587
2483.0816,11.080939302722413
2484.4306,15.058723160681268
2485.7789,9.184158347464802
2487.1264,11.707235814694684
2488.4733,16.027946422151444
2489.8195,7.896280912543148
2491.165,15.3122298682988
2492.5097,12.175783792884658
2493.8538,6.036933036644882
2495.1972,16.89566782816604
2496.5398,10.001978335665228
2497.8818,15.10585455840328
2499.2231,9.857286395620974
2500.5637,19.356263595500252
2501.9035,18.602775807650573
2503.2427,15.646812488118428
2504.5812,15.438362906922919
2505.919,15.227416177614884
2507.256,14.36396125936136
2508.5924,15.947986959055527
2509.9281,14.079481939950938
2511.2631,21.40843470582189
2512.5974,17.43483361964769
2513.9309,14.658666830323568
2515.2638,15.879922312396047
2516.596,11.898587893825152
2517.9275,6.564651243773028
2519.2583,11.878099912415962
2520.5884,9.838921384283708
2521.9178,11.447103025125102
2523.2465,20.502632102299742
2524.5745,17.055495768696574
2525.9018,12.405680972178288
2527.2284,13.803174490053038
2528.5543,9.897962975572227
2529.8796,14.640032943955816
2531.2041,19.029370811444437
2532.5279,15.615962847879075
2533.851,11.199795132806798
2535.1735,16.430853589615367
2536.4952,15.609124029694499
2537.8163,20.63459210012587
2539.1366,16.307243291899965
2540.4562,13.077062889661477
2541.7752,17.34403601498309
2543.0935,18.258147658667156
2544.411,13.219382638075729
2545.7279,19.47772558798954
2547.0441,14.783161010995968
2548.3596,16.835673214905114
2549.6744,21.785246359695577
2550.9885,16.431864436989713
2552.3019,23.175511220557496
2553.6146,15.166170319850721
2554.9266,17.103825112566085
2556.2379,18.488458824739098
2557.5485,19.77005451136688
2558.8585,18.098595042562124
2560.1677,15.374063090737081
2561.4762,18.74644114731791
2562.7841,16.315711549990738
2564.0913,21.381856448977203
2565.3977,17.39485783134205
2566.7035,22.70469747033144
2568.0086,17.461356965243226
2569.313,19.214817688328594
2570.6167,24.31506083722485
2571.9197,23.062067417421304
2573.222,24.60581819125656
2574.5236,26.696293690448556
2575.8246,22.38347420065719
2577.1248,22.61733974057978
2578.4244,27.497870105079073
2579.7232,28.77504486284454
2581.0214,20.14884330758707
2582.3189,31.069244445267202
2583.6157,32.286227080357264
2584.9118,29.499769706637437
2586.2072,32.00985049502572
2587.5019,32.21644732144256
2588.7959,36.36953774170979
2590.0893,37.91909898948535
2591.3819,36.31510793473177
2592.6739,37.00754106822092
2593.9652,36.19637451757387
2595.2557,33.93158404033636
2596.5456,38.91314503209077
2597.8348,34.69103254910368
2599.1234,41.56522125851052
2600.4112,44.185685480536506
2601.6983,44.202399119755
2602.9848,46.865335638882584
2604.2705,40.1244680586118
2605.5556,42.82976893098214
2606.84,48.931210406788466
2608.1237,46.078764208528014
2609.4067,46.92240156938573
2610.689,41.21209326175938
2611.9707,46.297809588822815
2613.2516,42.879520441629325
2614.5319,40.207195248254266
2615.8115,36.430803007977715
2617.0903,40.450312318007946
2618.3685,40.56569141124555
2619.6461,36.67690811608827
2620.9229,38.333929855276835
2622.199,45.536723684783226
2623.4745,32.18525627724034
2624.7493,35.729493849913695
2626.0234,39.21940229821632
2627.2968,33.45494716026667
2628.5695,34.53609358198918
2629.8415,32.56280637475902
2631.1128,38.0850500045903
2632.3835,34.75278861186945
2633.6535,38.01598595613217
2634.9228,35.57460544938664
2636.1914,39.62861012348134
2637.4593,33.82796265451884
2638.7265,38.1226253223158
2639.9931,36.012560068409414
2641.259,41.29772845311061
2642.5242,39.47809167660483
2643.7887,41.853610526100226
2645.0525,34.12424539402423
2646.3156,32.28995625426819
2647.5781,43.15070273948106
2648.8398,35.90644415941239
2650.1009,35.00713939230468
2651.3613,34.35274695733642
2652.6211,27.243225023614798
2653.8801,35.07853141671944
2655.1385,30.008623689798185
2656.3961,31.483459045213692
2657.6531,33.30299438524264
2658.9094,36.76718629732744
2660.1651,34.375991035880645
2661.42,37.77936448764308
2662.6743,35.62726219559619
2663.9279,33.519639324927596
2665.1808,35.706450684552635
2666.433,30.087650748190526
2667.6846,43.11319363249595
2668.9354,40.73303315324745
2670.1856,49.74712269509172
2671.4351,44.305415235345095
2672.6839,47.85786325385294
2673.9321,48.154418787406314
2675.1795,52.2450333942179
2676.4263,52.9796581509562
2677.6724,54.05824361183954
2678.9179,51.58073980129001
2680.1626,55.34709620314726
2681.4067,48.65726178544389
2682.6501,57.461184962741584
2683.8928,51.30881366302981
2685.1348,46.05009523968616
2686.3761,44.98497653300021
2687.6168,44.21340392276073
2688.8568,38.18532333890704
2690.0961,36.05068026924434
2691.3348,41.65941981972483
2692.5727,39.76148673579405
2693.81,41.75682534630337
2695.0466,36.49537958248956
2696.2826,34.87709295802097
2697.5178,30.901908621612222
2698.7524,38.71976937320724
2699.9863,39.280617703731025
2701.2195,45.884395716910944
2702.452,40.58104512366825
2703.6839,41.92050717608058
2704.9151,50.25272272041511
2706.1456,50.67763218373409
2707.3755,45.145175490572655
2708.6046,56.50529205868986
2709.8331,50.95792085439294
2711.0609,55.65300027893633
2712.2881,52.140468223995526
2713.5145,62.52026202471609
2714.7403,62.79231849483901
2715.9654,62.90657382290314
2717.1899,68.26296356952395
2718.4136,78.66142266625141
2719.6367,80.7018853620059
2720.8591,86.68428511909363
2722.0809,90.85855459280216
2723.3019,95.67462557157634
2724.5223,94.8824289352755
2725.7421,94.23189460701289
2726.9611,96.42295156107775
2728.1795,90.70552782944043
2729.3972,78.57955047984203
2730.6142,72.7949456729682
2731.8306,65.85163878370926
2733.0462,60.29955445900626
2734.2612,59.388616687283786
2735.4756,62.71874885397108
2736.6892,55.93987375061113
2737.9022,50.401913541559765
2739.1145,48.80478983177406
2740.3262,41.548423722192126
2741.5372,42.282735825704265
2742.7475,40.00764633971659
2743.9571,34.67307503880812
2745.1661,31.72894129748144
2746.3744,32.4251641435084
2747.582,26.661662287371627
2748.7889,25.038354115302184
2749.9952,17.805157746914574
2751.2008,17.261991051439765
2752.4057,22.858771720057405
2753.61,11.84541727132725
2754.8136,17.371844995221466
2756.0165,15.187972063257973
2757.2188,15.19371547323638
2758.4204,12.538992071076791
2759.6213,16.473718550762214
2760.8215,17.19781148088606
2762.0211,15.11118726530438
2763.22,15.263762135895291
2764.4182,16.405452173424976
2765.6158,15.486173306022295
2766.8127,12.305841297761475
2768.009,12.41437175785498
2769.2045,11.761680172456977
2770.3994,6.697681903577973
2771.5936,4.4722921956118284
2772.7872,1.5854262259757377
2773.9801,1.4369991273641176
2775.1723,2.726926016617341
2776.3639,-1.4948780037940992
2777.5548,-4.728497858669016
2778.745,0.5759964610250847
2779.9346,1.518582202014187
2781.1235,2.5492366052645252
2782.3117,-0.1820631034434541
2783.4992,-2.97533972382152
2784.6861,-3.230614236771231
2785.8723,-3.797877899550258
2787.0579,-1.5770896955802414
2788.2428,-1.2681706674826785
2789.427,1.0289738972468285
2790.6106,-1.9355486198625442
2791.7935,-5.7616308475712685
2792.9757,-6.09914607850925
2794.1573,-10.397910046614413
2795.3382,0.6423224446445772
2796.5184,1.57190046692034
2797.698,-3.40882691455775
2798.8769,-2.2495106502790634
2800.0551,4.700232363447697
2801.2327,2.690807702925241
2802.4096,4.672620897453982
2803.5859,6.096077449426275
2804.7615,2.2615828145083015
2805.9364,12.819542387405619
2807.1106,11.720361540208017
2808.2842,13.264445516810156
2809.4572,19.55219944390302
2810.6294,22.1340283155333
2811.801,28.91033693022601
2812.972,33.18152986516603
2814.1423,46.598011408434814
2815.3119,50.160185516298526
2816.4808,62.668455679043376
2817.6491,80.62322488535366
2818.8167,89.97489549722945
2819.9837,118.97386907043833
2821.15,140.2705462609993
2822.3157,169.61532653519254
2823.4807,197.058607956593
2824.645,222.4007868926223
2825.8086,269.1422577401163
2826.9716,308.33341267190303
2828.134,344.27464116938756
2829.2957,376.36632963064176
2830.4567,394.10886101099027
2831.617,413.8526145020955
2832.7767,435.09796535453074
2833.9358,427.49528468034356
2835.0941,418.5449392406019
2836.2519,410.5972915214211
2837.4089,385.6026998234672
2838.5653,373.6615183414333
2839.7211,356.4240974139857
2840.8761,350.59078364317554
2842.0306,344.3119200668133
2843.1843,347.8378462168015
2844.3374,344.41889818192396
2845.4899,359.7554085725859
2846.6417,374.8477065550039
2847.7928,377.74611769784065
2848.9433,377.6009638212814
2850.0931,377.31256296805094
2851.2422,394.48122940486405
2852.3907,381.80727362531036
2853.5385,388.79100217816733
2854.6857,398.48271779413943
2855.8323,410.33271931602155
2856.9781,412.09130160178114
2858.1233,439.1087554060588
2859.2679,448.1353673625821
2860.4118,462.3214197139913
2861.555,485.01719022157323
2862.6976,487.9229520234006
2863.8395,503.48897340737426
2864.9808,511.46551778216565
2866.1214,520.0528435215568
2867.2614,533.8012038846744
2868.4007,540.960846930117
2869.5393,548.9820153784707
2870.6773,569.7149465407141
2871.8146,576.3098722380054
2872.9513,587.6170185943536
2874.0874,594.6366059706687
2875.2227,608.9188488516913
2876.3574,616.3639557757954
2877.4915,623.2221291921671
2878.6249,627.7935653863531
2879.7577,639.0284544116782
2880.8898,648.1269800435326
2882.0212,668.5393196670211
2883.152,686.1156441859794
2884.2821,693.30611781885
2885.4116,701.3108979229188
2886.5405,705.9301349224112
2887.6686,714.2639722284433
2888.7962,719.5125461928302
2889.923,725.6759860247477
2891.0493,718.6544137382463
2892.1748,710.0479440906165
2893.2997,717.6066846526053
2894.424,716.38073589448
2895.5476,706.7701911104414
2896.6706,715.1251364308829
2897.7929,713.9956509184964
2898.9145,716.7318064847225
2900.0355,715.5836679010454
2901.1559,702.0512927716311
2902.2756,698.7347315448096
2903.3946,697.9840276483974
2904.513,691.2992175228645
2905.6308,687.3803306288404
2906.7479,686.0273895139624
2907.8643,679.9404098520644
2908.9801,677.119400456707
2910.0953,678.5643633420466
2911.2098,680.7752937510455
2912.3236,675.6521801410228
2913.4368,666.0450041615442
2914.5494,675.2537407056541
2915.6613,660.0283580059468
2916.7725,647.3188175424791
2917.8831,632.7250741950245
2918.9931,619.9970763701685
2920.1024,611.7847661472459
2921.211,595.5880794056209
2922.319,595.6569459068103
2923.4264,584.44128945645
2924.5331,587.2410279036069
2925.6391,583.6060732529347
2926.7445,569.3863316366776
2927.8493,578.6817033510187
2928.9534,591.6420829982778
2930.0569,587.3673593939586
2931.1597,597.8074154371429
2932.2619,605.16212815324
2933.3634,610.7313685895846
2934.4643,619.5650017418903
2935.5645,625.8628864985576
2936.6641,625.4248755523363
2937.763,636.600815337348
2938.8613,636.9405460334654
2939.959,636.043901454553
2941.056,618.5107090450706
2942.1523,590.8907898890385
2943.248,559.5339588853703
2944.3431,520.090025024072
2945.4375,488.25879169980954
2946.5313,455.64005710634905
2947.6244,421.6836145548687
2948.7169,382.039252800146
2949.8087,352.5067563801228
2950.8999,328.135906012348
2951.9904,299.47647888930345
2953.0803,280.3282489221117
2954.1696,259.69098702713063
2955.2582,246.71446131743548
2956.3462,236.64843730919196
2957.4335,234.04267805142095
2958.5202,221.6469442266593
2959.6062,229.56099417701688
2960.6916,227.23458402813438
2961.7764,233.76746761004262
2962.8605,229.15939648042664
2963.9439,230.3601198592968
2965.0267,228.76938467506983
2966.1089,226.78693555256126
2967.1905,225.01251482889293
2968.2714,216.49586257331717
2969.3516,215.8867166049614
2970.4312,212.13481257799432
2971.5102,223.03988398771762
2972.5885,213.80166220808493
2973.6662,221.6698763826514
2974.7432,221.94425351695565
2975.8196,219.8245183998374
2976.8954,227.76039360069407
2977.9705,222.70159949067795
2979.045,225.94785416333772
2980.1188,223.09887348520593
2981.192,217.1043710633367
2982.2645,217.91405827379532
2983.3364,206.07764432160351
2984.4077,198.3948362326424
2985.4783,185.06533897201695
2986.5483,177.73885552088356
2987.6177,164.5150870097455
2988.6864,155.19373279171748
2989.7545,152.32449057476336
2990.8219,141.25705651490986
2991.8887,136.24112524493887
2992.9548,131.22638998506181
2994.0204,112.81254259307894
2995.0852,103.59927361452685
2996.1495,91.78627246681657
2997.2131,76.52322753136662
2998.276,62.55982627173296
2999.3383,53.64575538623927
3000.4,48.13070094761105
3001.4611,39.314348492116295
3002.5215,33.59638307471613
3003.5812,28.87648935722831
3004.6404,21.504351665506704
3005.6989,20.02965403664041
3006.7567,14.652080292675038
3007.8139,8.971314055359784
3008.8705,13.687038799922988
3009.9264,9.298937911880046
3010.9818,3.606694639876025
3012.0364,-0.9400078604333828
3013.0905,2.7085135305406993
3014.1439,-1.2480486769343884
3015.1966,-0.5100019996763763
3016.2487,-6.277641486496776
3017.3002,-3.4012570912874196
3018.3511,-3.4810760543015533
3019.4013,-2.017291637234109
3020.4509,-4.010062325830262
3021.4998,1.8904735469081118
3022.5481,-4.2657822914983115
3023.5958,-4.578928132433475
3024.6428,-4.399019652116323
3025.6892,-1.3760667832738704
3026.735,-0.26003551242695266
3027.7802,0.5991219208106031
3028.8247,1.2514558745796762
3029.8685,0.3470167010300145
3030.9118,3.535854739796889
3031.9544,2.668020327045525
3032.9963,3.9935637635824435
3034.0376,4.262535323534252
3035.0783,4.924985241091974
3036.1184,4.080963707821354
3037.1578,13.180520866038336
3038.1966,8.623706817249186
3039.2348,15.61057153115516
3040.2723,12.591164891220501
3041.3092,15.715536624803718
3042.3455,10.983736333351743
3043.3811,18.445813461156234
3044.4161,17.351817342671552
3045.4505,21.651797127894014
3046.4842,16.895801793301885
3047.5173,20.483880098855565
3048.5498,23.016080635557458
3049.5816,18.242451789571277
3050.6128,23.513041716899963
3051.6434,24.777898391121965
3052.6734,26.837069550685342
3053.7027,24.590602686259132
3054.7314,24.538545020141882
3055.7594,25.130943528725993
3056.7868,29.667844943018636
3057.8136,26.399295742717456
3058.8398,38.125342110841814
3059.8653,36.196029966418166
3060.8902,36.26140484721958
3061.9145,40.47151192905896
3062.9381,37.726396025135244
3063.9612,43.476101543932344
3064.9835,45.47067251667028
3066.0053,42.11015253980817
3067.0264,44.09458475509848
3068.0469,42.27401188319219
3069.0668,51.44847620379451
3070.086,42.71801957387062
3071.1046,49.482683335900944
3072.1226,46.542508405185885
3073.1399,43.79753520219906
3074.1567,42.59780368198898
3075.1727,39.393353361628854
3076.1882,41.28422333221391
3077.203,37.870452290905845
3078.2173,33.75207852202425
3079.2308,32.729139931184136
3080.2438,30.651674086479886
3081.2561,24.819718228714464
3082.2678,24.633309292174218
3083.2789,23.04248396294834
3084.2893,27.247278680792945
3085.2991,24.197729655039325
3086.3083,22.843872822546032
3087.3169,22.485743878194384
3088.3248,19.573378288426937
3089.3321,20.20681129482888
3090.3388,18.586077943251624
3091.3449,15.411213077478507
3092.3503,18.532251355432038
3093.3551,15.599227280922676
3094.3593,20.812175172438387
3095.3629,17.621129192474882
3096.3658,14.626123295406245
3097.3681,14.927191259395315
3098.3698,14.024366716343678
3099.3708,17.0676831488812
3100.3713,11.657173899393996
3101.3711,13.64287213959149
3102.3702,13.924810924611307
3103.3688,16.45302317316242
3104.3667,15.07754166470572
3105.364,14.998399014171838
3106.3607,10.765627685716069
3107.3568,12.029259993509712
3108.3522,13.189328144067886
3109.347,11.34586422361312
3110.3412,13.098900186474708
3111.3348,10.398467873523344
3112.3277,10.894598994640731
3113.32,9.137325155723957
3114.3117,9.876677853724075
3115.3028,9.212688494218966
3116.2932,5.945388384019722
3117.2831,10.974808737810605
3118.2723,7.000980710821963
3119.2608,8.823935348536097
3120.2488,9.143703626425555
3121.2361,13.310316431723479
3122.2229,9.223804560226036
3123.209,9.434198674626217
3124.1944,6.141529345379055
3125.1793,6.495827048597633
3126.1635,5.947122198979756
3127.1471,5.39544514626499
3128.1301,8.84082618072172
3129.1125,6.833295538663869
3130.0942,6.22288336799722
3131.0753,5.859619748294584
3132.0558,9.5935346969
3133.0357,6.924658172561308
3134.015,4.153020038091029
3134.9936,7.17865008705509
3135.9716,6.401578071489276
3136.949,9.22183367164287
3137.9258,3.1394465037494186
3138.902,6.104446091824215
3139.8775,6.166861928488039
3140.8524,9.276723445317252
3141.8267,8.484060012219615
3142.8004,7.488900906335715
3143.7735,8.641275319965544
3144.7459,12.691212370520134
3145.7178,7.988741088997742
3146.689,9.083890379484536
3147.6596,7.1766890661793
3148.6295,5.767165882441972
3149.5989,9.805349489865591
3150.5676,9.191268492371563
3151.5357,10.824951395827817
3152.5032,9.056426614189597
3153.4701,10.035722453162649
3154.4364,9.3628671278885
3155.402,7.287888753151449
3156.367,11.010815350107194
3157.3315,10.581674867032518
3158.2952,9.200495142096116
3159.2584,8.96730390764992
3160.221,11.182128804040943
3161.1829,10.794997381943183
3162.1442,7.955937080209317
3163.105,9.464975229742066
3164.065,12.772139081884802
3165.0245,14.377455793331194
3165.9834,12.480952393053542
3166.9416,11.582655766249616
3167.8993,14.732592673307664
3168.8563,14.130789758789419
3169.8127,16.427273519930665
3170.7684,12.97207031265934
3171.7236,11.165206328630653
3172.6782,14.006707629779108
3173.6321,11.24660016638719
3174.5854,11.08490974867031
3175.5381,14.571662074377901
3176.4902,15.256882730410286
3177.4417,17.040597157951193
3178.3926,13.222830645615513
3179.3428,16.703608311612204
3180.2924,13.332955141921904
3181.2415,16.760895955489175
3182.1899,14.987455437929047
3183.1377,11.162658107247594
3184.0848,15.58652833157634
3185.0314,14.859090367420254
3185.9773,18.93036831541902
3186.9227,15.250386127621454
3187.8674,14.819167566772677
3188.8115,18.586736243113986
3189.755,19.203115618694998
3190.6979,14.56832896969797
3191.6402,16.032399380274015
3192.5818,17.395349788890954
3193.5229,17.45720297369263
3194.4633,15.367981538869376
3195.4031,14.027707914039532
3196.3423,16.186404375141624
3197.2809,17.19409305783711
3198.2189,16.90079593592344
3199.1563,20.1565348112571
3200.0931,18.26133131668664
3201.0292,17.565206883495218
3201.9648,17.06818276035275
3202.8997,19.62028002027706
3203.834,19.57151956560417
3204.7677,18.621922102467295
3205.7008,17.471508141284488
3206.6333,22.470298006254566
3207.5652,19.768311846861288
3208.4964,20.965569587885398
3209.4271,22.112090956424552
3210.3571,23.357895469920713
3211.2865,20.9530024246949
3212.2154,22.44743088348921
3213.1436,21.89119969951568
3214.0712,21.63432750151204
3214.9982,22.32683269930402
3215.9246,20.418733486374112
3216.8503,22.96004783293646
3217.7755,22.350793505017876
3218.7001,24.740988039044733
3219.624,26.180648747935447
3220.5473,23.61979269719858
3221.4701,24.408436690536213
3222.3922,25.64659729545251
3223.3137,25.33429083536729
3224.2346,22.77153337723442
3225.1549,23.458340734664844
3226.0746,23.694728493554205
3226.9937,26.380712005214725
3227.9121,25.366306384011327
3228.83,25.001526480501802
3229.7473,26.286386891580875
3230.6639,27.22090196412802
3231.5799,28.70508578215883
3232.4954,25.83895215747987
3233.4102,29.27251461484687
3234.3244,23.705786420626048
3235.238,27.588780548458455
3236.151,25.62150973492732
3237.0634,30.403986440728037
3237.9752,27.486222870340928
3238.8864,25.218230924206416
3239.797,28.20002222790274
3240.7069,26.53160815482582
3241.6163,27.912999796371345
3242.5251,28.344207978618943
3243.4332,27.47524324851822
3244.3408,27.00611586957669
3245.2477,29.48683583054945
3246.154,26.767412850130462
3247.0598,30.5978563521453
3247.9649,30.67817549274542
3248.8694,32.308379122103695
3249.7733,32.98847578361124
3250.6766,32.368473697575354
3251.5793,32.74838075441859
3252.4814,32.17820452087876
3253.3829,31.30795223620987
3254.2838,33.43763081788387
3255.1841,32.91724687029322
3256.0838,31.59680666345401
3256.9829,31.576316138209883
3257.8814,33.90578091943641
3258.7792,34.58520631624597
3259.6765,32.51459729869316
3260.5731,34.39395849098045
3261.4692,33.92329419216441
3262.3647,30.85260835736198
3263.2595,36.63190460245717
3264.1538,32.711186234807904
3265.0474,31.74045619545306
3265.9404,34.41971709831965
3266.8329,31.548971239930083
3267.7247,34.42822057260961
3268.616,35.807466733193735
3269.5066,30.73671101423576
3270.3966,30.915954350214292
3271.286,31.795197368240856
