RamanShift,CorrectedData
30.1047,1148.5511078956272
32.3739,1067.554268379549
34.6426,983.4574173779594
36.9109,900.210532729805
39.1787,821.2635824394573
41.4461,740.3165255091828
43.7131,659.1193127286119
45.9796,574.571887484209
48.2456,493.6741865712451
50.5112,413.8761410392717
52.7764,329.9276770010986
55.0411,250.77871643077376
57.3054,168.6291780030684
59.5692,90.72897788496638
61.8326,10.378030557159818
64.0955,-67.42375040694905
66.3579,-145.4264515377382
68.6199,-212.47948580231906
70.8815,-272.68081335755244
73.1426,-281.4262716902362
75.4032,-173.3089742058429
77.6634,218.98077713860914
79.9231,1255.6544117427534
82.1824,3616.223356816415
84.4412,7880.599027012876
86.6995,13781.942800823188
88.9574,19539.415977932407
91.2148,23475.229720206164
93.4717,25231.244994115936
95.7282,25395.972531380896
97.9842,25162.87281140777
100.2398,24435.656059643563
102.4949,23695.28224990655
104.7495,22806.811111658448
107.0036,21865.002137408148
109.2573,20966.66459159643
111.5105,20129.307520014056
113.7632,19314.73975878515
116.0154,18616.76994274075
118.2672,18063.906513564503
120.5185,17525.857726772363
122.7693,17096.331657241208
125.0197,16677.536204589345
127.2696,16303.479097471776
129.519,16046.817897768127
131.7679,15711.210004323242
134.0163,15419.512655513789
136.2642,15090.782932604328
138.5117,14725.87776266431
140.7587,14361.203921855347
143.0052,14004.968039080277
145.2512,13666.126599629904
147.4967,13330.235948745349
149.7417,13060.552295006468
151.9863,12852.481713690753
154.2304,12715.930149470189
156.4739,12457.953418491932
158.717,12239.85720974385
160.9596,12031.34708763427
163.2017,11690.278494172953
165.4433,11338.656751056189
167.6844,10927.487063077482
169.925,10532.024521643772
172.1651,10084.124108887136
174.4047,9710.890701619392
176.6439,9376.47907581113
178.8825,9022.893910324034
181.1206,8818.939790254994
183.3582,8557.471210471971
185.5954,8401.59257765352
187.832,8229.55821290349
190.0681,8113.522353309806
192.3037,8025.839153664809
194.5388,7923.862687625629
196.7734,7904.3969485909965
199.0075,7886.245850721019
201.2411,7955.963229131842
203.4742,7921.752840077147
205.7068,8004.218360250991
207.9389,8031.763387129907
210.1704,8127.491438148243
212.4015,8171.455950422718
214.632,8286.110279795133
216.862,8387.25770039274
219.0915,8461.201403481686
221.3205,8571.694496455544
223.549,8716.340002095872
225.777,8866.740857467292
228.0044,9073.099912471029
230.2314,9386.019928340887
232.4578,9689.703575579691
234.6837,9881.003430830056
236.909,10018.771973837567
239.1339,9891.711585537785
241.3582,9641.67454667855
243.582,9317.113039090591
245.8053,8987.22914818789
248.0281,8677.374866213308
250.2503,8439.05209553741
252.472,8247.312651757024
254.6932,8210.858266078454
256.9139,8126.3405872348885
259.134,8130.161181850936
261.3536,8124.2715352878
263.5727,8192.273051605078
265.7912,8205.517053619647
268.0092,8252.304782225661
270.2267,8234.487396262106
272.4436,8169.365972044915
274.6601,8044.641503545163
276.8759,7898.714903040258
279.0913,7776.5870023612015
281.3061,7632.708554351845
283.5204,7597.580234090185
285.7341,7572.902640327128
287.9473,7633.576295837781
290.16,7736.901647668231
292.3721,7957.629066528811
294.5837,8265.308845760834
296.7947,8552.241199129332
299.0052,8705.476257746246
301.2152,8552.964067201114
303.4246,8205.1545860287
305.6334,7640.897687234147
307.8418,7089.393161771052
310.0495,6623.890724184042
312.2568,6249.690018123814
314.4635,5914.690621002166
316.6696,5721.792047733994
318.8752,5583.743754087302
321.0802,5543.395138612164
323.2847,5566.745544021238
325.4887,5565.394257593216
327.692,5498.540510939345
329.8949,5370.833480016934
332.0972,5052.122285797883
334.2989,4732.5059955457655
336.5001,4422.88362600294
338.7007,4167.004146586705
340.9008,4014.2164824855154
343.1003,3852.2695172178082
345.2992,3717.962094159846
347.4976,3620.743018165207
349.6955,3570.511056907846
351.8927,3579.5649418542926
354.0895,3492.703368765977
356.2856,3486.974997608673
358.4812,3408.2284534211376
360.6763,3408.712326372375
362.8707,3340.8251725491136
365.0646,3346.0155139509643
367.258,3335.1818391692977
369.4508,3326.0726033353258
371.643,3420.436228228453
373.8346,3402.1211023673513
376.0257,3386.9255800663395
378.2162,3281.397981618522
380.4062,3185.736593447753
382.5956,3002.539669163909
384.7844,2854.3054305195146
386.9726,2698.632069241701
389.1603,2613.36774851456
391.3474,2567.2606045358552
393.5339,2548.608747369677
395.7199,2457.3102614075215
397.9052,2425.2632055547892
400.09,2415.5656141437867
402.2743,2473.815497254189
404.4579,2561.8108408100234
406.641,2739.4496059971625
408.8235,2888.9797283833705
411.0054,3152.6991161419173
413.1868,3480.705648556288
415.3675,3720.6471733829712
417.5477,3828.271503571412
419.7273,3825.3264148645794
421.9064,3698.0596447227344
424.0848,3570.918892352882
426.2627,3326.551819981427
428.4399,3070.156054125593
430.6166,2667.0291880370933
432.7928,2293.8687842660875
434.9683,1944.9723786924533
437.1432,1725.937484257387
439.3176,1539.9615944523503
441.4914,1389.6921855094497
443.6645,1338.8767182611664
445.8371,1280.512639643066
448.0091,1214.2473832019496
450.1806,1145.7783696794977
452.3514,1106.8530076749194
454.5216,1094.6186943296416
456.6913,1032.2228157165628
458.8603,1051.862746962399
461.0288,1087.0358528716351
463.1967,1091.339487730138
465.3639,1164.9709949534172
467.5306,1222.5777070435852
469.6967,1301.8569448530543
471.8622,1441.1060170084675
474.0271,1514.4722191179026
476.1914,1550.302832378391
478.3551,1546.395122842232
480.5182,1513.7463410587134
482.6807,1527.3537221131774
484.8426,1677.5144859535012
487.0039,1942.675837254037
489.1647,2310.2349639139957
491.3248,2698.289034405836
493.4843,2854.285194099675
495.6432,2831.6705613827453
497.8015,2689.0922260994266
499.9592,2634.797249777408
502.1163,2523.43266705345
504.2728,2285.795486216355
506.4287,1976.1326903205936
508.5839,1576.7912395626936
510.7386,1269.1680743778597
512.8927,1098.660119433389
515.0461,1005.0642867048955
517.199,1001.2774771814056
519.3512,1029.59658180129
521.5029,1154.318481490156
523.6539,1301.3400468776545
525.8043,1319.9081370502427
527.9541,1327.5195980809913
530.1033,1239.071262843885
532.2519,1183.9099509377265
534.3999,1283.482469570612
536.5472,1484.535614111548
538.694,1855.2161670947116
540.8401,2371.1708962089324
542.9856,2770.2465505908876
545.1305,2880.73985566555
547.2748,2778.647509155433
549.4185,2430.916179975653
551.5615,2166.942509254861
553.704,2059.123113812546
555.8458,2014.0045887987762
557.987,2102.8335087723917
560.1276,2158.706428152196
562.2675,2305.169880328658
564.4069,2457.8703771051933
566.5456,2624.554407233516
568.6837,2610.668434886653
570.8212,2287.208897992088
572.958,1820.5722083706223
575.0942,1432.004754970978
577.2299,1158.9029085361672
579.3648,1081.3130254891475
581.4992,1114.4814506638559
583.6329,1290.7045180811037
585.766,1518.9285506168944
587.8985,1645.4498582401848
590.0304,1668.4147357306447
592.1616,1623.3194614134554
594.2922,1524.6602969296528
596.4222,1332.0834876870758
598.5515,1158.8352638469714
600.6802,982.1118422497493
602.8083,818.7094281474765
604.9358,773.5742169711048
607.0626,739.0523959644925
609.1888,736.8901446357722
611.3144,784.8336351025482
613.4393,746.3790321135366
615.5636,719.1224925691295
617.6873,653.8601659059295
619.8103,597.538194369321
621.9327,472.0527136660985
624.0544,370.6998535276707
626.1756,296.27573896492686
628.2961,221.6264912817678
630.4159,169.79822881933978
632.5351,141.13706770252975
634.6537,111.78912235824464
636.7716,92.80050580202442
638.8889,112.76732993151927
641.0056,151.18570571636883
643.1216,150.15174299855244
645.237,141.91155010819784
647.3518,109.56123387391744
649.4659,145.59689970521686
651.5793,101.51465191600619
653.6922,112.81059336423095
655.8043,109.98082589268961
657.9159,82.52145021608521
660.0268,19.028565949309268
662.137,-18.801728117947277
664.2466,-20.523333386272498
666.3556,-40.839963426991744
668.4639,-61.45512678333398
670.5716,-18.971924007293637
672.6786,49.10715828583852
674.785,74.02982301029442
676.8907,118.74377258922868
678.9958,180.7967087055058
681.1002,143.986331854554
683.204,120.110340723837
685.3072,120.96643256096286
687.4097,60.352303412435504
689.5115,57.4156481150967
691.6127,30.20416090227809
693.7132,-31.484464566834504
695.8131,-46.652534935104995
697.9123,-51.5020423155911
700.0109,-76.0345127625369
702.1089,-58.80095782479111
704.2061,0.348370533569323
706.3028,46.263807770030326
708.3987,55.49568586186069
710.4941,128.29433632369182
712.5887,298.51009011520364
714.6827,521.5432769131367
716.7761,810.5942234091326
718.8688,1086.4132510794097
720.9608,1301.3506732942406
723.0522,1386.006792559776
725.1429,1287.7318983686491
727.233,1129.5262663534359
729.3224,974.090159269399
731.4112,772.9738285765379
733.4993,591.2275159939691
735.5867,414.00145551107744
737.6735,315.2458752049788
739.7596,211.36099901277703
741.845,117.04704771912657
743.9298,85.75423999507984
746.014,87.33279334122562
748.0974,103.38292440061923
750.1802,109.80484894300025
752.2624,148.798781704274
754.3439,176.86493632231213
756.4247,272.653524946998
758.5048,424.4647579595785
760.5843,688.948843014763
762.6631,1027.8559835226224
764.7413,1539.8863760037402
766.8188,2175.390206700142
768.8956,2657.3176464549997
770.9718,2985.5688443575873
773.0473,2900.9939229240026
775.1221,2588.9429748146704
777.1962,2231.966063680069
779.2697,2059.213227281254
781.3426,2089.1344810596365
783.4147,2346.829819864488
785.4862,2586.5492176537555
787.557,2563.0426249170814
789.6271,2184.6599662786375
791.6966,1621.3011407321574
793.7654,1083.0660254247887
795.8335,754.8544812906712
797.901,530.2163584332811
799.9678,424.7514994075682
802.0339,404.2097414663185
804.0993,404.7909176148096
806.1641,409.44485681622064
808.2282,352.7713839858279
810.2916,269.2203199444648
812.3544,208.39148198524708
814.4164,140.73468470909938
816.4778,174.3497406330298
818.5385,186.0864608667107
820.5986,305.4446547763164
822.658,443.6741298671641
824.7166,666.824690590136
826.7747,968.8961369593799
828.832,1263.9882623207905
830.8886,1498.6008503313242
832.9446,1633.2336720080493
834.9999,1619.9864833820284
837.0545,1526.459024151989
839.1085,1460.9010178168064
841.1618,1319.462172610767
843.2143,1247.4421821591532
845.2662,1147.8407268926367
847.3175,1062.9574747674706
849.368,934.8920822615073
851.4179,855.694195223019
853.467,728.7134501513665
855.5155,659.2994749889622
857.5633,574.2518903910914
859.6105,502.07031042004564
861.6569,445.15434339560306
863.7027,376.4035926168435
865.7478,345.167656931304
867.7922,363.3461314224951
869.8359,376.1886077222589
871.8789,503.5946738289749
873.9212,611.4639139791452
875.9629,762.4459073733269
878.0039,936.3402270974475
880.0441,1060.2964386129788
882.0837,1076.8140980179996
884.1226,1030.2927508076318
886.1609,1013.7319317088604
888.1984,975.831165145757
890.2352,1004.1399654050729
892.2714,994.657837015242
894.3069,958.9842744633152
896.3416,875.1687622897607
898.3757,817.4607754452045
900.4091,822.4097801285952
902.4418,831.3152343642741
904.4739,830.1765879524919
906.5052,838.7432823803429
908.5358,790.7647508331702
910.5658,675.5404181088816
912.595,493.06970109774556
914.6236,361.50200993463295
916.6515,258.1867498237207
918.6786,240.82332235417562
920.7051,292.01112653330347
922.7309,372.1995589601793
924.756,429.78801331377326
926.7804,542.025879551069
928.8041,525.6625433311692
930.8272,573.5973848929316
932.8495,563.6797792185753
934.8711,528.1090955543568
936.892,387.6346975097367
938.9123,316.00594341308715
940.9318,236.97218771643566
942.9506,195.88278171174534
944.9688,122.43707432127121
946.9862,73.78441250844844
949.003,-22.72585798764885
951.019,-48.09439216578903
953.0344,-35.52161799341593
955.0491,-15.657482974997038
957.063,81.44842024596073
959.0763,159.39665544420677
961.0888,227.3877855800074
963.1007,332.9723720196653
965.1119,393.7509738556164
967.1223,428.3241468505803
969.1321,423.4424428297698
971.1412,422.0064093351648
973.1495,437.36658967432595
975.1572,480.87352293476215
977.1641,528.4277438303088
979.1704,508.1297822660799
981.1759,481.5301628629004
983.1808,593.9794051603076
985.1849,612.9780238825406
987.1884,752.126527814049
989.1911,922.1254196094997
991.1932,1035.925194402298
993.1945,1109.4763381045977
995.1951,1076.7793262693085
997.1951,1053.834623354578
999.1943,984.6426830507589
1001.1928,957.4039485098729
1003.1906,977.3188530375155
1005.1877,1072.9878203652515
1007.1841,1140.761264451452
1009.1798,1073.2895885246253
1011.1748,955.6731844056649
1013.1691,769.8624331825686
1015.1627,559.6077063866123
1017.1556,364.6593678504523
1019.1477,279.3677758106696
1021.1392,212.93328485725215
1023.1299,183.85624678651766
1025.12,222.33701126545748
1027.1093,320.67592612250155
1029.0979,422.82333696271235
1031.0859,496.1295861844046
1033.0731,503.0950119576537
1035.0596,438.7699474912588
1037.0454,324.55472096307676
1039.0304,239.79965616327172
1041.0148,157.70507363646902
1042.9985,32.071291529295195
1044.9814,16.19862641133477
1046.9636,-19.462605468546826
1048.9452,-1.5620880234619108
1050.926,26.250689264908942
1052.9061,19.626252520134585
1054.8855,46.01512760328478
1056.8642,98.41784017916325
1058.8421,150.8849154524287
1060.8194,184.01687764356393
1062.7959,226.36424946420084
1064.7717,302.1275517858048
1066.7469,323.1573032162105
1068.7213,379.6540193419678
1070.695,386.96821251806614
1072.6679,364.2003913029512
1074.6402,347.7510603853898
1076.6117,315.77072081214465
1078.5826,269.3098701524832
1080.5527,263.5190028179586
1082.5221,323.99861052703636
1084.4908,439.1491823629949
1086.4587,594.1712041691299
1088.426,683.0151573972598
1090.3925,704.2815175574851
1092.3584,696.1707533297667
1094.3235,621.0833263512504
1096.2879,622.3696912973792
1098.2515,651.9802966327734
1100.2145,769.4655845983525
1102.1767,909.1759909152461
1104.1382,1113.6619436099336
1106.099,1332.6738616171297
1108.0591,1550.662152734949
1110.0185,1712.0772114347565
1111.9771,1773.9194166813159
1113.9351,1587.039130318617
1115.8923,1371.2866964514542
1117.8488,1124.3124433142366
1119.8045,918.2666854285144
1121.7596,782.8997260727119
1123.7139,703.0618593425897
1125.6675,729.90337150491
1127.6204,771.374541795818
1129.5726,758.3256421524347
1131.524,752.5069367981359
1133.4748,683.318682373043
1135.4248,627.6611279922163
1137.3741,591.5845159375294
1139.3226,521.8390822142592
1141.2705,486.6750569118358
1143.2176,395.8426649012981
1145.164,414.0921261869353
1147.1097,434.37365681462506
1149.0546,390.7374686893181
1150.9989,309.13376937224166
1152.9424,189.41276251723866
1154.8852,59.17464868683419
1156.8272,-8.88037345057819
1158.7686,-32.80210581834217
1160.7092,-42.49026162488008
1162.6491,-33.44422638557808
1164.5883,89.33703886188232
1166.5267,210.2549071876365
1168.4644,353.6107507684592
1170.4014,529.3059396785757
1172.3377,781.5918404561089
1174.2732,1039.019814346124
1176.2081,1351.1412147777755
1178.1421,1698.1073847900243
1180.0755,2001.0196539104236
1182.0082,2228.579334685457
1183.9401,2312.137719651417
1185.8713,2187.896079058806
1187.8017,1945.7556600367552
1189.7315,1696.5176878354305
1191.6605,1382.4333682474517
1193.5888,1144.3538901002594
1195.5163,1044.4304283969705
1197.4432,974.2141466971552
1199.3693,937.3561981160947
1201.2947,900.1577260269169
1203.2193,897.7198644292002
1205.1432,914.3437383209457
1207.0664,927.380463722955
1208.9889,965.0311475125891
1210.9106,1004.0968872934154
1212.8316,1044.6287710186934
1214.7519,1084.0278766007195
1216.6715,1122.8452715055028
1218.5903,1187.182012358784
1220.5084,1213.2391445578614
1222.4257,1246.6677016282138
1224.3424,1239.5187049629349
1226.2583,1302.2931634884408
1228.1735,1436.7420737359607
1230.0879,1575.7664192137963
1232.0016,1696.3671690628216
1233.9146,1746.5452766662675
1235.8269,1726.90167844369
1237.7384,1623.1372933492094
1239.6492,1484.5030230679167
1241.5592,1410.7497530535493
1243.4686,1380.4283539148164
1245.3772,1449.1396821529343
1247.285,1473.8845804648427
1249.1922,1514.9138770560876
1251.0986,1576.57838539337
1253.0042,1595.3289037942595
1254.9092,1651.3662148105414
1256.8134,1755.0910850407126
1258.7169,1929.9542645696183
1260.6196,2084.156485931191
1262.5216,2337.0984623598306
1264.4229,2542.0808862483755
1266.3234,2716.554426618697
1268.2232,2799.96972707185
1270.1223,2861.227404043342
1272.0207,2867.9780459689973
1273.9183,2826.3222126723613
1275.8151,2798.610435297207
1277.7113,2739.1932167240902
1279.6067,2722.6710318474597
1281.5014,2723.744328169845
1283.3953,2838.0635259670653
1285.2885,3028.2790182775025
1287.181,3209.3411697589054
1289.0727,3420.7503147862353
1290.9637,3561.456755641043
1292.854,3753.8607603973715
1294.7435,3848.5625615147037
1296.6323,3960.4123539139164
1298.5204,4081.3602940302635
1300.4077,4176.506498694873
1302.2943,4238.351043925278
1304.1802,4209.243963973941
1306.0653,3946.1852507098292
1307.9497,3703.824853909463
1309.8333,3469.1626838875172
1311.7162,3345.9986139204193
1313.5984,3294.582482592975
1315.4798,3280.314095030004
1317.3605,3320.8432234105067
1319.2405,3379.169607110336
1321.1197,3260.192952296922
1322.9982,3122.712931346001
1324.876,3001.8791840313834
1326.753,2868.1413188997594
1328.6293,2829.7489144790343
1330.5048,2799.9515206156984
1332.3796,2697.3486588587593
1334.2537,2648.3398227577136
1336.127,2629.9744788885682
1337.9996,2640.402067343948
1339.8714,2647.8720019167304
1341.7426,2620.5836699957754
1343.6129,2644.986432491236
1345.4826,2610.429624107427
1347.3515,2643.912553098805
1349.2196,2599.7345016155277
1351.087,2663.64472536863
1352.9537,2735.642454071808
1354.8197,2863.2268908023143
1356.6849,3013.147211280985
1358.5493,3173.102562596393
1360.4131,3268.34206170564
1362.276,3315.8147938348084
1364.1383,3252.969811526559
1365.9998,3035.3561341654104
1367.8606,2727.922748606192
1369.7206,2433.9186113501673
1371.5799,2138.442651619378
1373.4384,1986.3437742966853
1375.2962,1826.0208628805276
1377.1533,1574.4727810059103
1379.0096,1266.448374047639
1380.8652,978.8464716357857
1382.7201,714.0658907359493
1384.5742,497.05543852525807
1386.4275,342.6139150401923
1388.2802,258.1401153466786
1390.132,155.18283108451124
1391.9832,112.19085131208976
1393.8336,41.21296353598336
1395.6832,22.847954140859656
1397.5322,20.444609099256013
1399.3803,20.951714155236914
1401.2278,-3.0819451515808396
1403.0745,17.69241650890399
1404.9204,36.42361525542674
1406.7656,79.76046702980693
1408.6101,123.45178740963183
1410.4538,164.0963911748895
1412.2968,235.49309187104882
1414.139,295.0407014026232
1415.9805,407.2380293191991
1417.8213,485.63388221995956
1419.6613,625.4770626317113
1421.5006,794.8163682249296
1423.3391,1049.7005904153211
1425.1769,1374.628512670436
1427.0139,1856.5489079608205
1428.8502,2447.560535510731
1430.6858,3006.1621359789406
1432.5206,3446.852425548622
1434.3547,3713.180090341333
1436.188,3776.493782010105
1438.0206,3663.8921150761707
1439.8524,3544.873666295831
1441.6835,3446.586975786463
1443.5139,3357.9805482167158
1445.3435,3323.2528537893677
1447.1724,3299.0023291273965
1449.0005,3247.0773776212527
1450.8279,3179.0263696713655
1452.6545,3191.5476432073992
1454.4804,3203.9395043687537
1456.3056,3245.200227379357
1458.13,3179.628054423748
1459.9536,2998.421195234463
1461.7766,2709.3278277477693
1463.5987,2373.44609991572
1465.4202,2034.074132597103
1467.2409,1679.310022916241
1469.0608,1420.7518476567257
1470.88,1175.1476668090427
1472.6984,967.3955261561696
1474.5161,775.8934597296047
1476.3331,640.2394918868968
1478.1493,554.8816392266635
1479.9648,491.3679119451308
1481.7795,407.0963146897084
1483.5935,366.46484719413
1485.4067,322.9715051211715
1487.2192,301.76428046896126
1489.031,260.6911620059218
1490.842,254.30013548283478
1492.6522,204.58918404357246
1494.4618,210.05628828901263
1496.2705,216.34942677414165
1498.0785,181.16657595338438
1499.8858,177.95571011767152
1501.6924,177.26480174626522
1503.4981,140.44182153887414
1505.3032,142.83473842256262
1507.1075,121.69151991998115
1508.911,134.41013212544112
1510.7138,113.33853991633805
1512.5159,68.77470682597232
1514.3172,58.0165952542593
1516.1178,3.162166913373767
1517.9176,20.909382935321446
1519.7166,3.456204420488575
1521.515,-4.399407739826529
1523.3126,-24.009492688887804
1525.1094,-26.576045619876822
1526.9055,-32.95082187114531
1528.7008,-18.735311286351134
1530.4954,-45.58067453044714
1532.2893,-31.087885102632754
1534.0824,-43.30746115117472
1535.8747,-31.189610256371452
1537.6663,-18.034107356990717
1539.4572,-9.990415807594218
1541.2473,5.492181197986611
1543.0367,23.564500270167628
1544.8253,27.02735796444631
1546.6132,71.38157060067442
1548.4003,80.17795422843665
1550.1867,143.2173241835062
1551.9723,216.9004949998798
1553.7572,283.97827977938505
1555.5414,361.2514894548449
1557.3247,449.92093211930387
1559.1074,591.4874122532929
1560.8893,710.8517298381375
1562.6705,802.1146789402883
1564.4509,932.8770465176776
1566.2305,998.5396115070989
1568.0094,1082.0531435165713
1569.7876,1136.7684021687182
1571.565,1130.236136265632
1573.3417,1159.8570832417263
1575.1176,1145.481969229053
1576.8928,1132.5615087610959
1578.6672,1106.6464049165206
1580.4409,1068.4873494483836
1582.2138,1019.1850230432783
1583.986,970.2400957029286
1585.7575,966.303227237212
1587.5282,963.9250677536038
1589.2981,1009.5062576965565
1591.0673,1029.697427871266
1592.8358,1078.849198987873
1594.6035,1149.4121814595437
1596.3704,1198.036974910955
1598.1366,1290.8741674726598
1599.9021,1354.2243352948435
1601.6668,1471.1880416189533
1603.4308,1584.4158361441923
1605.194,1720.1582538578878
1606.9564,1906.4658139032072
1608.7182,2105.139018221743
1610.4791,2335.9283496904254
1612.2394,2544.784270134801
1613.9988,2771.657218021135
1615.7576,3029.5476063678434
1617.5156,3239.905820476778
1619.2728,3414.4322153543117
1621.0293,3461.677113607767
1622.785,3438.5908037001427
1624.54,3311.47353947767
1626.2942,3092.5755404006723
1628.0477,2869.49699281474
1629.8005,2613.5380521397146
1631.5525,2419.24884510047
1633.3037,2212.729472286501
1635.0542,2108.330010094818
1636.804,1984.6005127951394
1638.553,1938.4410135738844
1640.3013,1915.4015257714682
1642.0488,1905.1320433438977
1643.7955,1981.2825410931673
1645.5416,2049.6529747699506
1647.2868,2168.9432803121
1649.0313,2289.0033731609346
1650.7751,2467.7331470683466
1652.5181,2628.732472896194
1654.2604,2828.4511968290008
1656.0019,3108.8391387639695
1657.7427,3385.4960903137926
1659.4828,3696.9218120027735
1661.222,3883.866030500256
1662.9606,3871.778435506366
1664.6984,3647.258677882576
1666.4354,3258.5563697725775
1668.1717,2740.4210868474775
1669.9072,2243.1023721928223
1671.642,1796.799741489951
1673.3761,1450.4626879891803
1675.1094,1169.340686972827
1676.8419,935.9831992185846
1678.5737,806.8396738107404
1680.3048,675.5095504737519
1682.0351,556.8422608636838
1683.7646,475.9372298815033
1685.4934,429.59387685976253
1687.2215,366.11161637164423
1688.9488,344.8398586943922
1690.6754,300.52801044413627
1692.4012,281.575474788614
1694.1263,256.83165189028387
1695.8506,231.495939095852
1697.5742,223.0177311837133
1699.297,190.09642061730392
1701.0191,181.23139762988558
1702.7404,145.9220505537569
1704.461,126.41776590890731
1706.1808,117.46792875610936
1707.8999,100.87192289196082
1709.6182,94.57913093838215
1711.3358,89.48893450857395
1713.0527,105.65071426995291
1714.7688,74.5138499950449
1716.4841,63.32772039987276
1718.1987,58.14170345532193
1719.9126,59.205176499003755
1721.6257,49.96751628711763
1723.338,52.32809898381083
1725.0496,45.53630025355915
1726.7605,50.541495237562685
1728.4706,48.19305862165811
1730.18,36.04036458627161
1731.8886,30.232786829901215
1733.5964,30.619698690643872
1735.3036,40.25047320427075
1737.0099,56.524483100356065
1738.7156,37.591100705973986
1740.4204,15.049697782957082
1742.1246,26.79964571723076
1743.8279,4.4403157442279735
1745.5306,-0.328921168616489
1747.2325,-7.2586940982673696
1748.9336,-2.9996288357665435
1750.634,-31.102278657805982
1752.3336,-18.5171668747862
1754.0325,-5.194506085345893
1755.7307,-12.584323901629432
1757.4281,3.9134039573323207
1759.1247,-0.701172510096967
1760.8206,-4.477903344688002
1762.5158,8.533368417502516
1764.2102,-1.017155525330054
1765.9039,7.570726439674672
1767.5968,12.947226086759656
1769.289,1.1125551144609744
1770.9804,14.416925091842586
1772.6711,-8.389452423152761
1774.361,-2.3563660167505986
1776.0502,33.56647953545189
1777.7386,9.479402997953002
1779.4263,27.48272279959201
1781.1132,34.026757274413285
1782.7994,38.711824481636995
1784.4849,41.088242140213424
1786.1696,39.70632758197871
1787.8535,49.16639772788767
1789.5367,38.66876910183419
1791.2192,48.61375773604732
1792.9009,25.70167927607099
1794.5818,53.432848881315294
1796.2621,56.257581454174215
1797.9415,45.87619136272042
1799.6202,49.838992412443986
1801.2982,43.34629795008141
1802.9755,52.99842082397754
1804.6519,54.34567344901825
1806.3277,62.388367710105285
1808.0027,57.27681494868557
1809.6769,52.96132588232558
1811.3504,47.39221065582251
1813.0231,64.3697788843624
1814.6951,69.99433970921154
1816.3664,79.21620162794034
1818.0369,68.63567243817761
1819.7067,71.70305914538949
1821.3757,68.0186680686893
1823.044,76.6328048101609
1824.7115,71.4457742917034
1826.3783,75.25788066888799
1828.0443,66.31942738283033
1829.7096,77.68071712206984
1831.3741,82.89205191195333
1833.0379,94.85373300102037
1834.701,97.41606080889187
1836.3633,101.62933480665333
1838.0248,108.34385349123295
1839.6856,110.15991434326543
1841.3457,108.527813759953
1843.005,129.0978470368973
1844.6636,120.27030838442579
1846.3214,105.69549072188829
1847.9785,128.67368576593253
1849.6349,119.40518417625344
1851.2904,130.34027532580694
1852.9453,142.27924739349874
1854.5994,133.3223872548324
1856.2528,145.21998036252126
1857.9054,144.2723108360542
1859.5572,148.37966134272347
1861.2083,147.3423131071013
1862.8587,153.61054586996397
1864.5084,152.93463789866337
1866.1572,148.6148659244477
1867.8054,148.0015051492196
1869.4528,166.4448292887364
1871.0994,161.24511057874042
1872.7453,158.10261959052514
1874.3905,158.8176252829362
1876.0349,161.89039503379354
1877.6786,156.52119463273993
1879.3215,192.8102882505159
1880.9637,169.20793849265146
1882.6051,174.1144060365741
1884.2458,163.82994986763515
1885.8858,163.7548272300428
1887.525,182.63929372970642
1889.1634,161.78360333498676
1890.8011,176.6880081878544
1892.4381,179.35275881244434
1894.0743,179.1781039660127
1895.7098,180.06429061229164
1897.3446,166.51156392323037
1898.9786,170.17016727013652
1900.6118,184.44034235920435
1902.2443,187.27232919492735
1903.8761,177.81636593739586
1905.5071,157.12268887398022
1907.1374,164.44153251388843
1908.7669,191.32312979510152
1910.3957,180.51771201118754
1912.0237,142.3755085424841
1913.651,175.54674696415168
1915.2776,169.23165342760012
1916.9034,154.7804523287714
1918.5285,150.24336637129227
1920.1528,144.670616710986
1921.7764,155.8124230012445
1923.3992,154.96900344875257
1925.0213,157.0905747020738
1926.6427,138.2273518600814
1928.2633,106.779548450746
1929.8832,180.84737661976578
1931.5023,151.58104744504362
1933.1207,139.0807701960107
1934.7383,150.94675262628698
1936.3552,128.429201098686
1937.9714,141.7283204665573
1939.5868,135.89431429895603
1941.2015,146.62738474765501
1942.8154,127.22773260548638
1944.4286,130.79555719900964
1946.041,125.08105658250861
1947.6528,119.38442750231434
1949.2637,139.40586545394808
1950.8739,113.94556473909006
1952.4834,118.25371826536048
1954.0921,123.53051780092801
1955.7001,126.62615393142414
1957.3074,111.99081600717545
1958.9139,112.1746921122508
1960.5197,115.17796921081163
1962.1247,110.35083314527492
1963.729,105.84346860627647
1965.3325,82.25605918094834
1966.9353,105.43878739798447
1968.5374,117.64183496352234
1970.1387,101.81538252931159
1971.7393,101.65960957068592
1973.3392,80.62469454482425
1974.9383,96.31081489230974
1976.5366,88.36814724748183
1978.1342,95.99686728157212
1979.7311,108.29714978213315
1981.3273,104.31916857674969
1982.9227,85.01309641003627
1984.5173,94.0291049834168
1986.1112,96.06736514818704
1987.7044,96.87804681535135
1989.2968,90.01131893524189
1990.8885,74.91734948941257
1992.4795,96.29630555930407
1994.0697,83.49835347718863
1995.6592,78.02365861237422
1997.2479,83.42238549918602
1998.8359,86.3946978917138
2000.4232,84.54075870982342
2002.0097,80.41073000943743
2003.5955,63.00477300106877
2005.1805,97.97304809112575
2006.7648,96.36571505596885
2008.3484,87.78293269223104
2009.9312,94.82485883288837
2011.5133,86.14165043308958
2013.0946,85.03346349973299
2014.6752,78.70045317830409
2016.2551,93.04277376395476
2017.8342,82.16057876483364
2019.4126,82.45402075866286
2020.9902,87.4232515015583
2022.5672,78.76842192509821
2024.1433,77.03968208662855
2025.7188,84.18718125581199
2027.2935,82.26106793191684
2028.8674,84.31148977234079
2030.4406,79.93859361187015
2032.0131,73.14252544217698
2033.5849,74.6734304555498
2035.1559,81.03145311285243
2036.7261,79.36673712821539
2038.2957,93.629425405456
2039.8645,93.96966005472495
2041.4325,87.4375822498796
2042.9998,81.43333222508136
2044.5664,72.60704934011619
2046.1323,82.30887214043787
2047.6974,95.138938445431
2049.2617,80.34738525139164
2050.8254,89.0343486032275
2052.3883,107.39996374237398
2053.9504,93.09436501992195
2055.5118,81.16768571296643
2057.0725,89.37005816765713
2058.6325,86.75161391846905
2060.1917,85.11248360617901
2061.7502,89.50279700404644
2063.3079,101.6226830342066
2064.8649,73.47226972376939
2066.4212,86.0516840836176
2067.9767,72.41105238991258
2069.5315,89.7505000583003
2071.0856,71.57015178031952
2072.6389,74.82013135000352
2074.1915,71.50056184568757
2075.7433,65.76156559750734
2077.2945,68.8532642205937
2078.8448,71.7257786724631
2080.3945,74.77922922210087
2081.9434,70.06373542123401
2083.4916,76.07941607379735
2085.039,62.17638928308884
2086.5857,65.10477239161492
2088.1317,70.16468212011841
2089.677,65.9062345382963
2091.2215,69.52954501419663
2092.7652,67.18472825680692
2094.3083,58.771898279819425
2095.8506,65.24116842508124
2097.3921,55.992651446720856
2098.933,59.07645944645651
2100.4731,67.59270396608008
2102.0124,65.94149595662088
2103.5511,75.12294569318101
2105.089,79.9871627914481
2106.6261,84.834256115882
2108.1626,73.26433373107034
2109.6983,66.97750285326015
2111.2332,83.62386996605574
2112.7675,75.30354088328772
2114.301,66.51662058254965
2115.8337,74.21321328840168
2117.3657,71.69342256023674
2118.897,81.25735121531852
2120.4276,78.45510135397649
2121.9575,71.28677426396894
2123.4866,83.95247044850248
2125.0149,79.4522896979156
2126.5426,62.636330963023966
2128.0695,72.9046924001209
2129.5956,74.65747153913662
2131.1211,71.39476518095535
2132.6458,81.66666937988589
2134.1698,67.8732794762916
2135.693,74.86468999386875
2137.2155,77.69099477758209
2138.7373,76.50228692375003
2140.2584,80.99865875178193
2141.7787,63.53020181606371
2143.2983,75.09700686099677
2144.8171,71.14916399568096
2146.3353,71.28676257824532
2147.8527,71.05989125532892
2149.3693,82.61863796070247
2150.8853,78.76308991753854
2152.4005,66.99333352282383
2153.9149,74.10945438591693
2155.4287,71.16153744624262
2156.9417,77.79966690213223
2158.454,71.7739262403029
2159.9655,78.28439816947616
2161.4764,77.33116468063486
2162.9865,70.56430698191934
2164.4958,74.73390550815748
2166.0045,65.99003998853618
2167.5124,75.38278940490204
2169.0195,75.7122320792032
2170.526,75.1284455795601
2172.0317,88.18150671697094
2173.5367,85.27149155115058
2175.0409,85.74847526000008
2176.5445,82.81253216870596
2178.0473,84.1137357449702
2179.5494,69.60215862837185
2181.0507,66.27787261735375
2182.5513,66.34094881433862
2184.0512,68.6914576589711
2185.5504,86.57946892748737
2187.0488,62.755051709209965
2188.5465,65.9182742276671
2190.0435,71.21920407883908
2191.5397,61.057908199522444
2193.0353,67.8844528143236
2194.5301,65.04890353726842
2196.0241,60.501325303540625
2197.5175,78.34178239783682
2199.0101,48.42033849984068
2200.502,58.88705650582074
2201.9931,60.1419988278426
2203.4835,52.83522728910225
2204.9733,58.966803111376066
2206.4622,54.93678698808981
2207.9505,60.045239023001386
2209.438,58.94221877050313
2210.9248,49.52778518453465
2212.4109,37.101996629614405
2213.8962,55.01491097498388
2215.3809,52.56658571886487
2216.8648,59.9570778093298
2218.3479,53.08644366878593
2219.8304,47.404739120071326
2221.3121,34.012019455159816
2222.7931,55.15833949197781
2224.2733,48.643753708331815
2225.7529,49.96831603044643
2227.2317,50.032079898109714
2228.7098,47.6850982514286
2230.1872,47.67742353018912
2231.6638,56.009107697327636
2233.1397,45.580202239007576
2234.6149,46.44075808130151
2236.0894,44.090825694481964
2237.5632,38.130455084414734
2239.0362,45.55969581605791
2240.5085,37.97859707306429
2241.9801,35.537207583491636
2243.4509,43.035575695612806
2244.921,43.423749402328895
2246.3904,34.65177626618629
2247.8591,36.06970341549368
2249.3271,43.12757763204195
2250.7943,34.87544533692653
2252.2608,29.213352519967202
2253.7266,30.341344822230667
2255.1917,29.3094675926493
2256.656,37.81776587674358
2258.1197,33.11628442694064
2259.5826,33.105067617489794
2261.0447,33.83415949147661
2262.5062,36.85360376093672
2263.9669,28.963443799565766
2265.4269,30.863722612524043
2266.8862,40.65448291533926
2268.3448,26.73576711490182
2269.8026,35.95761721155918
2271.2598,27.570074938302014
2272.7162,53.4231816685442
2274.1719,33.46697849999987
2275.6268,42.60150599615213
2277.0811,43.87680438581515
2278.5346,45.8929134717896
2279.9874,51.09987261810966
2281.4395,53.097720729881075
2282.8908,47.586496201212185
2284.3414,45.666236895233396
2285.7914,32.78698019921103
2287.2406,40.09876304374984
2288.689,43.55162203158761
2290.1368,46.04559336447369
2291.5838,38.03071280864174
2293.0302,41.557015669872044
2294.4758,48.1245368736395
2295.9206,37.6333109298489
2297.3648,52.58337186716108
2298.8082,49.924753337904576
2300.251,42.70748846857532
2301.693,40.83160988642203
2303.1343,48.8971497916184
2304.5748,45.80413997602318
2306.0147,52.50261174252364
2307.4538,35.292595935963845
2308.8922,52.674122876162755
2310.3299,47.99722253001278
2311.7669,33.36192433766564
2313.2031,48.168257259302436
2314.6387,38.66624992148331
2316.0735,29.405930469087934
2317.5076,41.73732666033402
2318.941,41.61046595937978
2320.3737,41.02537541300967
2321.8056,28.282081651903127
2323.2369,38.88061089648704
2324.6674,41.470989084366465
2326.0972,39.403241764342056
2327.5263,42.37739407050549
2328.9547,40.99347074291563
2330.3823,44.15149609785681
2331.8092,49.251494041678825
2333.2355,39.393488039217345
2334.661,42.97750106279432
2336.0858,49.253555690797384
2337.5098,46.02167407184061
2338.9332,50.58187786200165
2340.3558,48.984188257142705
2341.7778,39.728625947306455
2343.199,47.21521113269637
2344.6195,55.493963616229166
2346.0393,50.51490272866954
2347.4583,47.92804724584266
2348.8767,47.23341543842571
2350.2943,60.83102509781429
2351.7113,60.12089354307045
2353.1275,59.20303748494939
2354.543,57.02747303299611
2355.9578,53.39421570472814
2357.3718,57.60328044738844
2358.7852,58.204681674277936
2360.1978,47.44843322266479
2361.6098,49.284548347769714
2363.021,54.813039830330354
2364.4315,58.58391995823763
2365.8413,52.29720047125397
2367.2504,57.552892523302944
2368.6587,54.15100674533733
2370.0664,53.84155319278261
2371.4733,44.174541379554285
2372.8795,57.799980281153694
2374.285,49.41787843133807
2375.6899,52.37824378586333
2377.0939,45.0810838063087
2378.4973,44.27640543047096
2379.9,51.86421514533504
2381.3019,46.294518995120825
2382.7032,48.51732250540863
2384.1037,48.28263073883386
2385.5035,43.64044827285875
2386.9027,53.34077920212212
2388.3011,51.58362718485637
2389.6987,52.9689953458867
2391.0957,44.34688629420316
2392.492,43.06730210910723
2393.8876,33.33024442643432
2395.2824,38.73571445134576
2396.6765,40.53371305570158
2398.07,39.32424072400477
2399.4627,43.45729753542105
2400.8547,48.182883175875986
2402.246,34.100996896722336
2403.6366,36.51163746748671
2405.0265,33.21480331668499
2406.4156,44.01049250771962
2407.8041,41.948702771843045
2409.1918,43.02943140020375
2410.5789,33.95267526446423
2411.9652,41.96843080599251
2413.3508,40.37669412663104
2414.7358,42.02746090853657
2416.12,46.42072643010033
2417.5035,38.95648554943841
2418.8863,30.284732660460918
2420.2684,44.45546176751327
2421.6497,41.46866657209523
2423.0304,41.074340331151916
2424.4104,36.92247588694272
2425.7896,43.76306567098425
2427.1682,47.546101745568876
2428.546,45.2215757353581
2429.9232,42.38947878955332
2431.2996,41.79980160514003
2432.6753,47.052534455209866
2434.0503,52.247667194856035
2435.4246,42.58518920864719
2436.7982,49.26508935867548
2438.1711,40.63735608118111
2439.5433,45.75197731975379
2440.9148,48.558940611610865
2442.2856,40.50823303644984
2443.6557,46.149841188379355
2445.025,37.78375125642606
2446.3937,43.35994896811815
2447.7617,46.228419673147414
2449.1289,46.73914828760621
2450.4955,42.89211926530322
2451.8613,48.13731659265659
2453.2265,45.02472382716405
2454.5909,49.55432404495036
2455.9546,52.026099871894075
2457.3177,55.24003343833192
2458.68,58.14610635433928
2460.0416,57.74429967759295
2461.4025,48.28459388430838
2462.7627,52.116968873258315
2464.1222,47.14140406036995
2465.4811,52.45787834040152
2466.8392,48.516370136697105
2468.1966,63.316857348022154
2469.5533,60.70931738797867
2470.9093,61.093727037000576
2472.2645,61.570062468429114
2473.6191,62.53829924466879
2474.973,59.998412312423056
2476.3262,51.150375993012744
2477.6787,57.744164007775
2479.0305,61.37974956654318
2480.3816,59.20710530170993
2481.7319,63.426203231870886
2483.0816,63.83701478355022
2484.4306,68.38951074901092
2485.7789,59.88366128214648
2487.1264,64.11943585295512
2488.4733,49.24680333259869
2489.8195,61.11573195104506
2491.165,57.57618944579383
2492.5097,61.12814294318832
2493.8538,53.42155899381021
2495.1972,50.356403536960215
2496.5398,53.632641977724234
2497.8818,49.95023921762436
2499.2231,51.009159621856156
2500.5637,57.3593670561138
2501.9035,53.350824876000274
2503.2427,54.733495863524695
2504.5812,56.35734226718864
2505.919,57.6723257881589
2507.256,59.9284075640295
2508.5924,52.92554815567098
2509.9281,61.413707524670144
2511.2631,59.892845103359036
2512.5974,56.01291970993293
2513.9309,49.62388956365896
2515.2638,59.2757123236762
2516.596,67.56834515288494
2517.9275,63.85174462142902
2519.2583,61.92586662376857
2520.5884,64.04066641584689
2521.9178,68.346098634349
2523.2465,64.14211727555357
2524.5745,60.078675652279344
2525.9018,67.3057264359245
2527.2284,60.02322169710067
2528.5543,59.03111283336307
2529.8796,59.17935064203482
2531.2041,65.86788533012805
2532.5279,66.2966665128614
2533.851,66.01564314677535
2535.1735,72.124763525444
2536.4952,62.77397528228482
2537.8163,71.86322532946849
2539.1366,75.29245995142583
2540.4562,63.71162471395667
2541.7752,67.57066442993641
2543.0935,86.31952327512488
2544.411,73.60814474957533
2545.7279,75.98647149014676
2547.0441,70.90444539761643
2548.3596,68.9120076128977
2549.6744,76.20909856785909
2550.9885,71.99565800525
2552.3019,75.32162490572875
2553.6146,79.03693752999766
2554.9266,72.19153338554247
2556.2379,76.58534918947998
2557.5485,73.26832093701216
2558.8585,78.6903838574874
2560.1677,76.90147244757122
2561.4762,74.1515204170264
2562.7841,83.14046070660106
2564.0913,80.61822551552814
2565.3977,76.78474621163627
2566.7035,86.78995335657237
2568.0086,94.53377674413605
2569.313,80.81614530022807
2570.6167,87.03698700541213
2571.9197,77.24622903209081
2573.222,91.09379768229746
2574.5236,79.37961848560292
2575.8246,91.05361606064025
2577.1248,98.31571423224693
2578.4244,91.51583591472468
2579.7232,89.60390303921827
2581.0214,87.37983662171393
2582.3189,103.74355678215966
2583.6157,102.34498276670502
2584.9118,94.53403278406404
2586.2072,101.71062401950178
2587.5019,106.72467271294329
2588.7959,101.97609408720734
2590.0893,102.06480229786621
2591.3819,108.29071048073115
2592.6739,102.65373075096602
2593.9652,103.20377414082759
2595.2557,120.94075065603579
2596.5456,117.76456927027289
2597.8348,114.02513774781426
2599.1234,124.72236267528979
2600.4112,126.20614949907838
2601.6983,128.92640241833521
2602.9848,117.98302437015423
2604.2705,122.32591700236549
2605.5556,123.05498078296955
2606.84,123.72011495670836
2608.1237,124.17121753777383
2609.4067,121.10818530315669
2610.689,125.3809137881359
2611.9707,116.98929731690896
2613.2516,121.53322895986412
2614.5319,123.11260061749658
2615.8115,123.6273029749699
2617.0903,112.22722548632157
2618.3685,119.5622563693164
2619.6461,123.1322827194474
2620.9229,122.53719043658452
2622.199,120.82686418927597
2623.4745,120.60118742069824
2624.7493,118.91004236575918
2626.0234,118.8033100533554
2627.2968,114.0308703232837
2628.5695,111.0926018273077
2629.8415,118.5383820768833
2631.1128,118.16808747254049
2632.3835,123.43159322942529
2633.6535,119.22877338100375
2634.9228,120.25950072642593
2636.1914,119.67364687255417
2637.4593,126.77108222365689
2638.7265,126.85167598726537
2639.9931,121.76529610320108
2641.259,117.81180924276873
2642.5242,122.59108085962009
2643.7887,110.70297522928956
2645.0525,116.39735540140055
2646.3156,118.57408331854742
2647.5781,115.23301975935101
2648.8398,115.07402431669186
2650.1009,114.4469554311205
2651.3613,113.15167039244761
2652.6211,113.73802534601384
2653.8801,111.65587530564392
2655.1385,122.15507414778199
2656.3961,113.78547463231439
2657.6531,117.99692829757657
2658.9094,115.93928554405
2660.1651,128.96239559224705
2661.42,126.71610650328705
2662.6743,125.70026504866655
2663.9279,122.21471673272094
2665.1808,125.70930580278332
2666.433,134.53387528403925
2667.6846,135.5882669445814
2668.9354,133.12232120716453
2670.1856,138.1358771386607
2671.4351,139.42877247471972
2672.6839,141.80084356963243
2673.9321,144.25192538340195
2675.1795,146.98185145802313
2676.4263,154.9904538929719
2677.6724,160.07756331790597
2678.9179,153.59300881257843
2680.1626,146.88661785596685
2681.4067,145.9082163911196
2682.6501,148.9576288922184
2683.8928,153.83467837436365
2685.1348,149.8891863630796
2686.3761,147.37097284554386
2687.6168,141.37985631004267
2688.8568,140.96565377115257
2690.0961,129.22818082965148
2691.3348,129.46725167666125
2692.5727,129.7826792110218
2693.81,123.17427503690135
2695.0466,122.39184946064177
2696.2826,129.88521155684236
2697.5178,124.40416917618461
2698.7524,129.89852887049744
2699.9863,132.16809594756887
2701.2195,129.01267441620166
2702.452,136.58206696351817
2703.6839,141.12607498651414
2704.9151,140.29449851636502
2706.1456,148.6871361729858
2707.3755,155.05378517334645
2708.6046,161.79424124754564
2709.8331,175.70829857514502
2711.0609,179.04574971776412
2712.2881,182.30638547994033
2713.5145,185.5899948757534
2714.7403,199.2463650962195
2715.9654,214.47528147645505
2717.1899,212.42652735911338
2718.4136,230.59988394209518
2719.6367,242.19513029903635
2720.8591,247.51204319757414
2722.0809,255.7003969833945
2723.3019,261.3599635270632
2724.5223,277.34051214214196
2725.7421,279.6418095285934
2726.9611,280.4136196129756
2728.1795,281.45570352542825
2729.3972,280.3178195919554
2730.6142,256.7997233240044
2731.8306,250.35116742984394
2733.0462,231.42190204974656
2734.2612,210.5116748204731
2735.4756,188.97023106456572
2736.6892,183.24731399944994
2737.9022,167.89266495284915
2739.1145,158.40602342001364
2740.3262,141.83712721726738
2741.5372,132.3857125768742
2742.7475,119.15151431272727
2743.9571,106.53426591486243
2745.1661,96.08369968180114
2746.3744,87.0995468467222
2747.582,75.33153768196803
2748.7889,67.32940158888505
2749.9952,58.99286721550504
2751.2008,58.371662536566305
2752.4057,50.51551493687839
2753.61,49.32415121753479
2754.8136,43.69729767447416
2756.0165,38.98468011039358
2757.2188,45.28602389101786
2758.4204,35.451053992224956
2759.6213,33.929494937032814
2760.8215,39.27107089394906
2762.0211,36.625505692186834
2763.22,29.44252276824875
2764.4182,25.67184519238276
2765.6158,20.86319574041181
2766.8127,22.066296931441116
2768.009,17.8808710759439
2769.2045,5.306640263730742
2770.3994,4.593326405803737
2771.5936,-2.009348639901191
2772.7872,-4.001663061380896
2773.9801,-8.283874973239563
2775.1723,-13.906202513467633
2776.3639,-9.818781064145014
2777.5548,-14.271607084388393
2778.745,-7.564578943691231
2779.9346,-16.547452438193204
2781.1235,-15.46990779389023
2782.3117,-18.8314599277287
2783.4992,-11.48146921227658
2784.6861,-15.919107893817113
2785.8723,-13.043433518756274
2787.0579,-1.3533446016127755
2788.2428,-1.1476093530045546
2789.427,-4.4249824636373205
2790.6106,7.015792840400536
2791.7935,18.17601753859526
2792.9757,18.456992540274882
2794.1573,26.660018573007278
2795.3382,45.2863961797907
2796.5184,51.73742563702251
2797.698,54.664406768236404
2798.8769,63.51863887959223
2800.0551,76.40142073060565
2801.2327,88.71405044560652
2802.4096,102.00782538490944
2803.5859,119.9840420216891
2804.7615,137.64399580904194
2805.9364,158.0389810002241
2807.1106,184.42029047205222
2808.2842,203.8392155209532
2809.4572,227.5470455991515
2810.6294,262.94506812047973
2811.801,293.8345682233006
2812.972,340.26682841652587
2814.1423,376.89312827072206
2815.3119,420.6147439537872
2816.4808,455.9329478646886
2817.6491,504.44900819624604
2818.8167,557.1641885819503
2819.9837,602.5297476108022
2821.15,637.5969383001609
2822.3157,693.0670076420881
2823.4807,739.6411962526768
2824.645,789.2207378173506
2825.8086,827.6068586251208
2826.9716,874.7507770727921
2828.134,931.5037032811002
2829.2957,956.516838623274
2830.4567,995.4913751575052
2831.617,1010.4784953768176
2832.7767,1019.4293718193215
2833.9358,1012.2451669183428
2835.0941,1008.0270329129136
2836.2519,995.926111919615
2837.4089,973.043535974758
2838.5653,975.3804271553921
2839.7211,965.9878978081323
2840.8761,959.7170505257895
2842.0306,974.2189782412964
2843.1843,1004.5447642904156
2844.3374,1048.49548226672
2845.4899,1099.8221957183355
2846.6417,1162.825957708434
2847.7928,1235.9078103019665
2848.9433,1294.8687839356226
2850.0931,1378.009896687016
2851.2422,1435.2821536850724
2852.3907,1492.436546278618
2853.5385,1550.4240514636585
2854.6857,1595.3956313118347
2855.8323,1640.0522323905466
2856.9781,1696.1447853132388
2858.1233,1739.6242042928336
2859.2679,1783.3913865808058
2860.4118,1822.547212032389
2861.555,1872.9425426689027
2862.6976,1907.8782222861953
2863.8395,1943.20507595069
2864.9808,1949.9239096500273
2866.1214,1976.5355099397982
2867.2614,2003.6906438763544
2868.4007,1999.7900587506938
2869.5393,2005.6844818169066
2870.6773,2030.824620331185
2871.8146,2038.461161492875
2872.9513,2042.3947721930776
2874.0874,2019.3260989382818
2875.2227,2037.05576781103
2876.3574,1996.9343847006037
2877.4915,1980.6125351257274
2878.6249,1957.8907846357818
2879.7577,1937.7196789740228
2880.8898,1914.6997443047987
2882.0212,1898.0314874152612
2883.152,1891.165395945565
2884.2821,1879.5019385555493
2885.4116,1857.0915649934007
2886.5405,1864.234706212286
2887.6686,1869.6817745944568
2888.7962,1877.2331638798164
2889.923,1887.039249111453
2891.0493,1894.0503865601222
2892.1748,1896.9669136261869
2893.2997,1926.1391487695078
2894.424,1930.6673914802757
2895.5476,1941.3019219872917
2896.6706,1973.7430012126815
2897.7929,1989.9408706655536
2898.9145,2021.0957521175849
2900.0355,2063.657847441045
2901.1559,2081.0273382972464
2902.2756,2110.2543857109235
2903.3946,2155.289129896537
2904.513,2190.831689966006
2905.6308,2207.2321634783566
2906.7479,2222.3406260842994
2907.8643,2266.4571313622246
2908.9801,2266.681710667114
2910.0953,2291.7643726893807
2911.2098,2291.1551034526187
2912.3236,2260.15386606278
2913.4368,2270.7606007142654
2914.5494,2229.025224999937
2915.6613,2206.6976338050526
2916.7725,2187.177699724615
2917.8831,2165.0652732866547
2918.9931,2133.8101831474223
2920.1024,2108.712236312517
2921.211,2075.9712184494374
2922.319,2073.03689413856
2923.4264,2048.5090072005496
2924.5331,2033.9872807257016
2925.6391,2024.8214173192227
2926.7445,2036.0610992464474
2927.8493,2031.105988524495
2928.9534,2036.455726809876
2930.0569,2031.3099354480396
2931.1597,2021.1682154198807
2932.2619,2027.830147393192
2933.3634,2026.895291824087
2934.4643,2017.4631888903775
2935.5645,2004.933358500922
2936.6641,1979.6053003899476
2937.763,1939.728494242348
2938.8613,1891.702399946965
2939.959,1846.5264579953537
2941.056,1785.9000899620485
2942.1523,1696.122698956317
2943.248,1620.7936702284264
2944.3431,1534.4123720674183
2945.4375,1455.5281565543974
2946.5313,1351.990360426346
2947.6244,1260.8983058649637
2948.7169,1154.5513015320482
2949.8087,1072.4486434804141
2950.8999,979.4896162173624
2951.9904,898.7734935257089
2953.0803,821.5995393933729
2954.1696,771.06700882054
2955.2582,739.2751485914
2956.3462,683.7731977794734
2957.4335,656.0603880655295
2958.5202,611.9359442926058
2959.6062,594.4990847431372
2960.6916,575.0490215801985
2961.7764,563.534961021875
2962.8605,538.506103535761
2963.9439,530.5616439541018
2965.0267,526.2007717240817
2966.1089,513.9726709872693
2967.1905,515.5265206232255
2968.2714,517.7614943717856
2969.3516,516.5767608175194
2970.4312,520.321483367382
2971.5102,533.5948202625614
2972.5885,532.9959245410303
2973.6662,535.5239439048139
2974.7432,538.4780207259779
2975.8196,531.3572920213492
2976.8954,530.1608894229739
2977.9705,534.8879392493263
2979.045,516.7375625172715
2980.1188,507.80887489479574
2981.192,483.35098688250946
2982.2645,468.263003902935
2983.3364,461.7940265450859
2984.4077,431.8431507153449
2985.4783,413.1094677021556
2986.5483,387.79206447552974
2987.6177,360.5400238743846
2988.6864,318.5524248597169
2989.7545,287.4283427871236
2990.8219,260.0668498266775
2991.8887,232.6670152741682
2992.9548,210.5779058247167
2994.0204,176.99858584677406
2995.0852,153.97811760301238
2996.1495,139.16556158611763
2997.2131,114.00997674899503
2998.276,98.06042065289483
2999.3383,78.31594971896743
3000.4,67.47561938775982
3001.4611,47.4384843166597
3002.5215,46.703598488298724
3003.5812,31.12001541092394
3004.6404,20.886788125746705
3005.6989,10.002969362778344
3006.7567,5.367611643162775
3007.8139,-3.0202326119862732
3008.8705,-11.111511035230478
3009.9264,-3.857141087008074
3010.9818,-12.007929223762176
3012.0364,-5.514643369096518
3013.0905,-9.927931487402304
3014.1439,-5.9983864517838015
3015.1966,-7.876501955310118
3016.2487,-4.2127117671702194
3017.3002,-11.907370970298473
3018.3511,-8.56079256263888
3019.4013,1.7768294124998079
3020.4509,-0.29461356587330556
3021.4998,5.724769963482572
3022.5481,5.184874404997288
3023.5958,7.785594105853136
3024.6428,8.176823361384152
3025.6892,19.308456389068624
3026.735,20.930387324616447
3027.7802,23.792510110653325
3028.8247,32.24471848050115
3029.8685,38.036905929557236
3030.9118,46.56896563077163
3031.9544,48.990790376726125
3032.9963,61.202272494313036
3034.0376,65.95330382051657
3035.0783,67.44377558029868
3036.1184,76.02357833908832
3037.1578,76.94260198787686
3038.1966,81.15073565742011
3039.2348,92.2478677090478
3040.2723,93.33388569258295
3041.3092,102.5086762353701
3042.3455,103.6221250314149
3043.3811,102.02411674963668
3044.4161,101.8145350227336
3045.4505,105.7932624631631
3046.4842,99.91018066523742
3047.5173,96.51517016533614
3048.5498,103.7581105007373
3049.5816,93.93888024356721
3050.6128,97.95735692837115
3051.6434,92.81341715030607
3052.6734,91.55693652495518
3053.7027,92.43778973976742
3054.7314,92.00585056662283
3055.7594,86.41099185302335
3056.7868,91.25308552641258
3057.8136,92.58200265012454
3058.8398,78.19761337496232
3059.8653,90.54978692590907
3060.8902,84.43839174597184
3061.9145,85.01329537266002
3062.9381,80.22436449909924
3063.9612,79.92146496828241
3064.9835,82.65446182095889
3066.0053,79.12321929866329
3067.0264,72.22760081638597
3068.0469,77.71746899788485
3069.0668,72.49268574464224
3070.086,71.90311218096554
3071.1046,68.04860870623571
3072.1226,66.42903500080251
3073.1399,56.04425006452976
3074.1567,54.79411223299098
3075.1727,43.428479281317095
3076.1882,38.29720843669807
3077.203,38.15015649203946
3078.2173,36.53717985727468
3079.2308,26.60813456083605
3080.2438,29.712876265783876
3081.2561,23.45126036909744
3082.2678,18.02314197062728
3083.2789,17.178375935711557
3084.2893,11.566816949457206
3085.2991,9.838319525187558
3086.3083,6.792738060557866
3087.3169,9.629926854840363
3088.3248,5.849740139379833
3089.3321,-0.04796795077808724
3090.3388,-0.4133433390851451
3091.3449,-4.596531469793263
3092.3503,-3.4476736578546934
3093.3551,1.8831347011276875
3094.3593,2.745832653810794
3095.3629,1.3403592280203611
3096.3658,-2.883346575876004
3097.3681,0.974654229085786
3098.3698,-6.585670565497935
3099.3708,-3.8143531777772637
3100.3713,-1.4613600350533602
3101.3711,-2.176619459239191
3102.3702,-2.160045173260926
3103.3688,2.088470844383636
3104.3667,0.5190581940477728
3105.364,1.1318464552001615
3106.3607,0.07696002191812568
3107.3568,-2.6454767230394225
3108.3522,3.414659834255758
3109.347,1.907519736044435
3110.3412,4.08325299042076
3111.3348,1.2920095864037364
3112.3277,5.833939472179878
3113.32,5.909192583015624
3114.3117,9.16791879583809
3115.3028,7.860267928482472
3116.2932,8.086389707104786
3117.2831,9.346433779258518
3118.2723,16.090549711633344
3119.2608,10.918886977454633
3120.2488,10.481594889042242
3121.2361,14.078822649527282
3122.2229,11.510719357225028
3123.209,14.327433969662465
3124.1944,15.429115329259531
3125.1793,17.415912135161804
3126.1635,17.537972932223894
3127.1471,23.19544609114108
3128.1301,21.538479807229095
3129.1125,21.717222043849475
3130.0942,21.481820548978817
3131.0753,24.43242285342157
3132.0558,27.169176273164183
3133.0357,20.892227879868784
3134.015,25.151724473505823
3134.9936,24.99781264512343
3135.9716,29.430638734252554
3136.949,26.700348830446018
3137.9258,28.007088728950322
3138.902,32.75100395800847
3139.8775,32.282239765792596
3140.8524,36.30094107296489
3141.8267,32.25725247736514
3142.8004,38.60131821382379
3143.7735,33.58328219459875
3144.7459,36.40328794593481
3145.7178,38.51147865824399
3146.689,40.45799715790548
3147.6596,41.592985886183655
3148.6295,39.516586879763025
3149.5989,45.12894175939823
3150.5676,48.33019175067804
3151.5357,44.07047762790188
3152.5032,48.34993968206724
3153.4701,49.118717763466904
3154.4364,44.52695123889425
3155.402,48.974778983955474
3156.367,48.51233942898734
3157.3315,48.58977051457881
3158.2952,49.407209696195494
3159.2584,52.21479394340524
3160.221,52.36265973170384
3161.1829,54.20094301443923
3162.1442,57.37977922133267
3163.105,56.34930324009604
3164.065,58.50964938464349
3165.0245,55.860951405396165
3165.9834,57.45334246767868
3166.9416,59.18695517820618
3167.8993,63.311921569160404
3168.8563,63.62837308085352
3169.8127,60.58644052047852
3170.7684,65.48625405894468
3171.7236,60.0279432612969
3172.6782,66.51163703771752
3173.6321,67.83746369810953
3174.5854,70.4555508872595
3175.5381,66.56602557157944
3176.4902,71.01901401292584
3177.4417,69.26464180749488
3178.3926,74.85303384129269
3179.3428,71.83431430767897
3180.2924,71.80860665148306
3181.2415,76.47603359919123
3182.1899,77.78671715920359
3183.1377,78.94077857516001
3184.0848,82.98833831283316
3185.0314,77.22951604858793
3185.9773,80.46443062890582
3186.9227,81.19320012797316
3187.8674,84.115941815332
3188.8115,80.18277214859239
3189.755,82.34380674420497
3190.6979,81.94916041679262
3191.6402,86.59894715754021
3192.5818,89.24328013814095
3193.5229,89.88227166429859
3194.4633,90.1660331492841
3195.4031,90.69467510754573
3196.3423,88.31830715187137
3197.2809,89.58703798810215
3198.2189,92.30097543889619
3199.1563,92.86022643104116
3200.0931,96.31489696831495
3201.0292,97.41509212589324
3201.9648,96.9109160158027
3202.8997,101.65247177591905
3203.834,98.98986157500886
3204.7677,95.82318656531402
3205.7008,102.2025469091777
3206.6333,102.17804181071126
3207.5652,105.59976945200057
3208.4964,102.46782699335105
3209.4271,104.23231053907043
3210.3571,105.34331516878811
3211.2865,106.95093491981044
3212.2154,109.6052627760105
3213.1436,103.75639065175204
3214.0712,113.40440936534617
3214.9982,114.84940869753999
3215.9246,109.94147729503656
3216.8503,112.38070265604478
3217.7755,115.21717117935874
3218.7001,114.1509681399655
3219.624,122.18217766068037
3220.5473,117.01088272280887
3221.4701,122.23716508583489
3222.3922,115.21110533913331
3223.3137,121.63278284970744
3224.2346,120.10227583244946
3225.1549,122.51966128592375
3226.0746,122.88501500767185
3226.9937,123.94841157003877
3227.9121,125.15992431651925
3228.83,127.71962535112391
3229.7473,128.5775855262641
3230.6639,125.53387441715486
3231.5799,130.58856031323538
3232.4954,129.89171024860605
3233.4102,129.59338995148158
3234.3244,130.54366385115964
3235.238,133.19259508100384
3236.151,134.24024546894123
3237.0634,136.33667551097273
3237.9752,134.78194436069685
3238.8864,137.62610980834538
3239.797,139.46922829633047
3240.7069,141.0113548908032
3241.6163,139.95254326322245
3242.5251,143.24284567493345
3243.4332,139.68231298775603
3244.3408,143.07099463108142
3245.2477,145.15893863747777
3246.154,143.79619160880316
3247.0598,146.93279869532626
3247.9649,144.86880360935376
3248.8694,148.30424859386432
3249.7733,152.23917444314847
3250.6766,146.42362046845432
3251.5793,151.90762445863797
3252.4814,150.19122273831948
3253.3829,150.2244501130425
3254.2838,152.90733988643848
3255.1841,152.7399238598944
3256.0838,156.97223230572365
3256.9829,156.1042939688404
3257.8814,155.53613602443653
3258.7792,154.96778408666088
3259.6765,157.149262214301
3260.5731,159.18059291646637
3261.4692,158.76179713077397
3262.3647,157.69289420303468
3263.2595,158.57390189144147
3264.1538,158.2548363772583
3265.0474,162.13571225601012
3265.9404,163.61654254067338
3266.8329,162.89733862286727
3267.7247,161.32811025804568
3268.616,162.10886557268896
3269.5066,161.5396110799964
3270.3966,163.82035167207852
3271.286,163.85109062564976
