RamanShift,CorrectedData
30.1047,2061.7810317500716
32.3739,1922.2737664841154
34.6426,1780.7164806003486
36.9109,1642.7591342582234
39.1787,1506.9516698100265
41.4461,1363.0440131804526
43.7131,1228.93607522468
45.9796,1091.077753167446
48.2456,959.1689319441258
50.5112,817.5094855793161
52.7764,681.0492785059243
55.0411,539.7881669817629
57.3054,409.3260004541504
59.5692,272.16262297252416
61.8326,137.64787449306135
64.0955,1.5815922503126956
66.3579,-124.33638789764976
68.6199,-253.60623010856978
70.8815,-368.37685641967613
73.1426,-427.1446553419589
75.4032,-350.6023353016134
77.6634,32.56166245027168
79.9231,1167.8623991799373
82.1824,3786.6649358280083
84.4412,8653.434321656487
86.6995,15430.885568060725
88.9574,22069.233599901734
91.2148,26658.593187731676
93.4717,28704.878881410365
95.7282,29134.3049642117
97.9842,28970.785432360786
100.2398,28377.48399073968
102.4949,27656.714054522577
104.7495,26800.138755108856
107.0036,25920.07094733073
109.2573,25004.473218019044
111.5105,24207.05789480394
113.7632,23351.887055270814
116.0154,22639.822534934494
118.2672,22074.125935790933
120.5185,21510.90863343787
122.7693,20994.331782731773
125.0197,20623.55632342003
127.2696,20195.34298530672
129.519,19957.702291960344
131.7679,19625.244564995985
134.0163,19381.479926451706
136.2642,19045.26830211312
138.5117,18734.81942395105
140.7587,18365.542833483636
143.0052,18033.247884880824
145.2512,17700.293748657146
147.4967,17342.08941499464
149.7417,17074.343697072425
151.9863,16834.71523464872
154.2304,16611.36249673831
156.4739,16353.893784008831
158.717,16160.567231014302
160.9596,15881.940808769792
163.2017,15551.672326684711
165.4433,15151.819435349062
167.6844,14681.03962983612
169.925,14304.740253700975
172.1651,13811.27850368831
174.4047,13389.411433495432
176.6439,13009.195958706832
178.8825,12661.98886101292
181.1206,12415.696792012128
183.3582,12120.32627668301
185.5954,11913.233715847153
187.832,11707.325389122874
190.0681,11608.95745699617
192.3037,11502.83596287977
194.5388,11364.316834096837
196.7734,11316.555882942179
199.0075,11289.55880806744
201.2411,11330.581194958702
203.4742,11275.578516206457
205.7068,11315.156131095391
207.9389,11321.219286154406
210.1704,11423.92311476084
212.4015,11424.422637079842
214.632,11537.322759037344
216.862,11615.828272315037
219.0915,11627.593853221402
221.3205,11753.72406190664
223.549,11904.32334224501
225.777,12102.046020573534
228.0044,12376.546304186015
230.2314,12697.82827935579
232.4578,13010.045908590733
234.6837,13285.953027420452
236.909,13375.35334127408
239.1339,13297.650422721234
241.3582,12993.697710578
243.582,12508.898510683975
245.8053,12075.90599894178
248.0281,11675.573226165061
250.2503,11365.653122408397
252.472,11146.648500970647
254.6932,10963.81206149415
256.9139,10843.84639215476
259.134,10764.803971490228
261.3536,10691.387169599842
263.5727,10660.248248934862
265.7912,10512.839365032673
268.0092,10469.56256682819
270.2267,10357.219798127926
272.4436,10208.412898042783
274.6601,10074.04360211147
276.8759,9926.16354378857
279.0913,9810.574255788231
281.3061,9683.877171562974
283.5204,9675.273626459573
285.7341,9692.614858986044
287.9473,9730.05201089767
290.16,9882.286127023592
292.3721,10121.668154892428
294.5837,10464.898943209942
296.7947,10682.72923946523
299.0052,10804.809686498393
301.2152,10606.090820322244
303.4246,10221.273068901502
305.6334,9593.456754139988
307.8418,8979.192095728795
310.0495,8520.779217424446
312.2568,8165.068153191558
314.4635,7843.308851786956
316.6696,7658.801180316796
318.8752,7498.244927454147
321.0802,7476.389805284072
323.2847,7547.185450909194
325.4887,7466.7814266682435
327.692,7324.527219428082
329.8949,7210.472241387777
332.0972,6866.065831501124
334.2989,6560.557256617216
336.5001,6220.945714924494
338.7007,5924.080339005826
340.9008,5735.310199234646
343.1003,5584.934306743569
345.2992,5490.00161531214
347.4976,5371.011022870553
349.6955,5301.861372448999
351.8927,5319.651453367565
354.0895,5236.580001927747
356.2856,5240.595701234519
358.4812,5126.397182027071
360.6763,5122.383022638634
362.8707,5057.201750138469
365.0646,5040.151840372015
367.258,4961.831718612686
369.4508,4911.939759732393
371.643,4970.174288984721
373.8346,4897.383582503866
376.0257,4791.065866722285
378.2162,4665.369319098609
380.4062,4501.842069180813
382.5956,4333.08219986318
384.7844,4140.737749021595
386.9726,3992.3567112011187
389.1603,3948.0370395394457
391.3474,3843.52664725071
393.5339,3782.2234080686612
395.7199,3643.0251572917987
397.9052,3632.5296923963906
400.09,3566.2347744284707
402.2743,3633.3381281087786
404.4579,3646.2874424957226
406.641,3789.2303703143443
408.8235,4005.2645278268137
411.0054,4196.887493403028
413.1868,4589.646805360229
415.3675,4841.089960046807
417.5477,4985.064407914691
419.7273,4965.817551004919
421.9064,4851.7967415079
424.0848,4670.749281955883
426.2627,4416.02242636315
428.4399,4068.013382036501
430.6166,3691.8693121225115
432.7928,3239.637339087629
434.9683,2887.6145484796216
437.1432,2664.697993449863
439.3176,2442.184698273617
441.4914,2297.5716605791567
443.6645,2227.7058535729157
445.8371,2127.1342274856324
448.0091,1985.0537102709895
450.1806,1941.7612086113368
452.3514,1857.3036093385126
454.5216,1800.3277798667514
456.6913,1682.2805690372588
458.8603,1718.6088076879641
461.0288,1734.40930983402
463.1967,1698.9288723044774
465.3639,1761.1142745843208
467.5306,1866.2622791692484
469.6967,1965.619630943842
471.8622,2059.183056130056
474.0271,2135.749261293662
476.1914,2227.4649324086204
478.3551,2189.0767340913844
480.5182,2170.8813086837727
482.6807,2138.075276636824
484.8426,2209.705236692793
487.0039,2483.2677662131828
489.1647,2816.00942046244
491.3248,3253.1267298723433
493.4843,3455.5161967145905
495.6432,3411.0742907296117
497.8015,3283.197447102677
499.9592,3256.6320669083216
502.1163,3206.8245183891086
504.2728,2936.571137221272
506.4287,2606.1182270128265
508.5839,2142.762062006059
510.7386,1825.1988903820966
512.8927,1616.3749388944561
515.0461,1497.1364160446574
517.199,1441.4295141705006
519.3512,1423.400410638409
521.5029,1495.0452684005177
523.6539,1556.6102361749872
525.8043,1620.4414477295322
527.9541,1619.1350212657526
530.1033,1554.3870587808706
532.2519,1561.193646080752
534.3999,1666.5508534274122
536.5472,1921.754735470946
538.694,2360.651330195953
540.8401,2945.286656369488
542.9856,3406.6567091520883
545.1305,3527.20745425146
547.2748,3394.734823308754
549.4185,3034.934712693055
551.5615,2692.2029848261045
553.704,2521.4854717803173
555.8458,2449.3279787060783
557.987,2498.8762855389214
560.1276,2464.076147721109
562.2675,2506.57329570617
564.4069,2554.5634353068635
566.5456,2524.992247270249
568.6837,2444.6553867977345
570.8212,2136.848483840826
572.958,1825.367143904492
575.0942,1505.2569511252113
577.2299,1312.6634713858148
579.3648,1229.6322555165716
581.4992,1271.6088412211466
583.6329,1449.5887539068863
585.766,1653.0675062650844
587.8985,1796.2905964911515
590.0304,1787.7535062498428
592.1616,1674.4016992430115
594.2922,1578.9806212949952
596.4222,1420.6357014861096
598.5515,1247.012353106882
600.6802,1086.2059752414934
602.8083,880.611954503991
604.9358,820.5256666463865
607.0626,762.9424786145719
609.1888,744.0577491491895
611.3144,722.2168293614814
613.4393,606.1150629221083
615.5636,465.54778627957785
617.6873,416.110329821262
619.8103,410.3980192790659
621.9327,274.10617622383506
624.0544,263.580118122416
626.1756,233.26515970062246
628.2961,189.60661304847235
630.4159,94.39978792335023
632.5351,89.58999218658573
634.6537,27.07253275552648
636.7716,31.642715651621984
638.8889,27.795576441709272
641.0056,92.0258345818911
643.1216,37.82793185045011
645.237,119.39630910541746
647.3518,112.3754068265589
649.4659,142.85966429969267
651.5793,105.29351968690389
653.6922,92.77140972169582
655.8043,95.38777008463148
657.9159,91.58703552858788
660.0268,12.3636398525814
662.137,-52.387984060234885
664.2466,-47.32352683949648
666.3556,-39.64815575887769
668.4639,-96.96656533004352
670.5716,-14.88305397957447
672.6786,45.749048561916425
674.785,80.07656124551431
676.8907,148.9463025648147
678.9958,248.30509021267062
681.1002,223.999740392479
683.204,165.6270668246034
685.3072,155.73388098939904
687.4097,112.4669927109644
689.5115,74.32321025606143
691.6127,33.99934076680074
693.7132,-5.507809357928636
695.8131,-62.85143405921917
697.9123,-41.9846722551556
700.0109,-103.06003497801066
702.1089,-63.52961383321235
704.2061,-71.44447085644788
706.3028,-31.855033422572888
708.3987,47.68898482381337
710.4941,130.9881884698989
712.5887,305.89318162598283
714.6827,578.8045670924876
716.7761,920.0729446109435
718.8688,1307.448908134833
720.9608,1479.8830424169355
723.0522,1603.07591913555
725.1429,1392.3780951701447
727.233,1135.8401113694454
729.3224,903.562494658403
731.4112,641.2457606035714
733.4993,453.04041573588984
735.5867,294.0469601738296
737.6735,208.01588950547375
739.7596,129.59769637843783
741.845,126.99287136018029
743.9298,55.60190372221405
746.014,94.32528146611003
748.0974,115.36349203744976
750.1802,84.01702193858364
752.2624,103.83635651824079
754.3439,120.42198028498751
756.4247,195.62437670905274
758.5048,280.9940280564333
760.5843,556.6814146368961
762.6631,852.2370139502818
764.7413,1247.7112979295998
766.8188,1873.5547299855098
768.8956,2276.817761051563
770.9718,2662.6508233257555
773.0473,2492.4543262379375
775.1221,2192.8286525914446
777.1962,1768.1741602650836
779.2697,1620.9411852093835
781.3426,1625.8800456931167
783.4147,1876.9910437756698
785.4862,2180.5744652576504
787.557,2243.980577169754
789.6271,1916.7596247369474
791.6966,1346.0118307444027
793.7654,841.5373988096835
795.8335,572.9865190902565
797.901,372.9593733282127
799.9678,325.00613753579455
802.0339,367.47698399564615
804.0993,388.2220817403613
806.1641,354.84159612776057
808.2282,317.2356886334783
810.2916,226.9545171847276
812.3544,169.49823653640487
814.4164,82.3169991738796
816.4778,129.81095588753305
818.5385,99.83025664461093
820.5986,221.3250501142502
822.658,377.24548396730097
824.7166,430.8917036613675
826.7747,731.613850881622
828.832,917.9120630043217
830.8886,1036.9864700896069
832.9446,1219.9871930185218
834.9999,1253.2643423022528
837.0545,1256.7180162521217
839.1085,1304.9983006468137
841.1618,1229.4052686978503
843.2143,1185.6389805667932
845.2662,1057.7994841211512
847.3175,1037.836815372044
849.368,931.5509997526096
851.4179,857.3420523176173
853.467,680.0099788063344
855.5155,643.7547763846123
857.5633,593.3764354182022
859.6105,422.2749398353153
861.6569,392.9002676304008
863.7027,355.9523925751637
865.7478,360.28128451233715
867.7922,402.93690972512195
869.8359,455.16923089394186
871.8789,603.5782066698521
873.9212,779.063791152239
875.9629,876.5759324047067
878.0039,1082.7145707002383
880.0441,1203.9296375460763
882.0837,1245.3710536223189
884.1226,1150.2887275697867
886.1609,1047.3825555755902
888.1984,1031.8024223239627
890.2352,1090.4982020253228
892.2714,1058.819758572081
894.3069,1079.5169449516616
896.3416,974.0396035633057
898.3757,972.8375660110687
900.4091,1005.4106541586298
902.4418,1039.2086801413025
904.4739,1057.0814460402871
906.5052,1038.8287435447273
908.5358,967.8503537729448
910.5658,830.4960474549953
912.595,659.7155856424324
914.6236,526.608721081866
916.6515,540.6251999227497
918.6786,490.31476304845637
920.7051,617.5771459361094
922.7309,742.3620791597023
924.756,778.8192871174797
926.7804,915.1984867840729
928.8041,825.7493873459425
930.8272,888.2716888375908
932.8495,802.2650830360253
934.8711,784.029252835553
936.892,632.6638731078492
938.9123,476.4686108842652
940.9318,380.0431268695429
942.9506,303.4870770037378
944.9688,229.70011342649377
946.9862,150.78188524260622
949.003,106.03203925988782
951.019,81.50022077835092
953.0344,132.38607403770584
955.0491,159.4892424626596
957.063,297.6593681540762
959.0763,438.94609161792687
961.0888,474.44905038360594
963.1007,593.5678775910455
965.1119,668.6022016357056
967.1223,703.6516449773553
969.1321,692.2658233897673
971.1412,794.244345610201
973.1495,776.5368134532873
975.1572,852.6928207911951
977.1641,924.1619537307524
979.1704,867.4437898518809
981.1759,880.037897492879
983.1808,943.0938363176392
985.1849,1055.1611571896792
987.1884,1161.7894015415623
989.1911,1410.678100254263
991.1932,1512.7267725908896
993.1945,1550.6849237077658
995.1951,1471.1520436339706
997.1951,1465.6776068917316
999.1943,1419.3110732917812
1001.1928,1384.2518879880845
1003.1906,1365.149481941513
1005.1877,1418.8532722704404
1007.1841,1393.8126624417346
1009.1798,1308.4770417337459
1011.1748,1123.9457854867069
1013.1691,973.9182559560868
1015.1627,737.0938041578956
1017.1556,497.47177136899336
1019.1477,465.25149149528806
1021.1392,350.3322934679745
1023.1299,355.5635015657317
1025.12,353.2944365639196
1027.1093,405.62441568227587
1029.0979,511.05275260760027
1031.0859,551.3787569704837
1033.0731,577.901733290968
1035.0596,506.27098057534386
1037.0454,302.2857920508686
1039.0304,273.8454558821395
1041.0148,133.59925721087347
1042.9985,16.346478440369538
1044.9814,29.186400637940096
1046.9636,-48.13169529256629
1048.9452,-66.05852873915865
1050.926,-27.9943382542333
1052.9061,-5.7887024654846755
1054.8855,-15.24092033717534
1056.8642,83.94976699556719
1058.8421,111.03427065439246
1060.8194,144.06350092148205
1062.7959,199.53836696866347
1064.7717,225.9597765271501
1066.7469,282.12863533275595
1068.7213,273.69584686172675
1070.695,280.56231176905203
1072.6679,225.92892797277455
1074.6402,209.1465905853256
1076.6117,246.21619245985858
1078.5826,228.93862435805568
1080.5527,222.16477457943984
1082.5221,324.19552913417647
1084.4908,504.981771810777
1086.4587,708.7743831558219
1088.426,860.5242386660902
1090.3925,832.1822067506364
1092.3584,804.4991472132715
1094.3235,673.2759115360204
1096.2879,598.5633431559181
1098.2515,663.8622787772438
1100.2145,734.8735491186344
1102.1767,818.4979782601004
1104.1382,1040.0863829329646
1106.099,1224.6895716835534
1108.0591,1424.558342657343
1110.0185,1566.2434817529283
1111.9771,1656.5957606233242
1113.9351,1401.665935259116
1115.8923,1147.754745084938
1117.8488,887.6129155087801
1119.8045,634.5911604610919
1121.7596,488.990184996208
1123.7139,443.26068782258517
1125.6675,462.15336275876325
1127.6204,561.9188991906994
1129.5726,566.257981882809
1131.524,522.0212899803482
1133.4748,577.8594969659753
1135.4248,547.7732711021636
1137.3741,521.1632748728043
1139.3226,502.53016528406806
1141.2705,501.274594130482
1143.2176,388.14720818130445
1145.164,411.6986491930511
1147.1097,458.0795550408002
1149.0546,496.8405594826472
1150.9989,446.88229169590704
1152.9424,331.7053758894872
1154.8852,140.36043180349225
1156.8272,54.64807586097595
1158.7686,53.118923081412504
1160.7092,38.87358793779276
1162.6491,6.362684371932119
1164.5883,115.0368259369352
1166.5267,190.14662612230313
1168.4644,323.84269726715866
1170.4014,567.1756498091709
1172.3377,835.9960909476067
1174.2732,1098.1546222099896
1176.2081,1393.8018367638906
1178.1421,1588.5883167953507
1180.0755,1865.91463055239
1182.0082,1935.1313303971801
1183.9401,2017.8389500327612
1185.8713,1857.8380038108662
1187.8017,1655.8789859048447
1189.7315,1402.8623719096613
1191.6605,1147.0386208615273
1193.5888,934.4581777680214
1195.5163,853.0714761663585
1197.4432,777.7789402491617
1199.3693,753.830985678349
1201.2947,671.6780203380586
1203.2193,654.9704445741227
1205.1432,702.9586520156081
1207.0664,725.7930297418898
1208.9889,772.6239578027671
1210.9106,803.7018089901139
1212.8316,887.8269483695804
1214.7519,957.5997329698039
1216.6715,921.9705109411734
1218.5903,975.4896208580831
1220.5084,949.6573920752307
1222.4257,1011.1741441924278
1224.3424,898.94018731291
1226.2583,979.3058214281846
1228.1735,1102.1213375403604
1230.0879,1199.4370168585083
1232.0016,1342.2031295704874
1233.9146,1390.369933869788
1235.8269,1288.9376745278714
1237.7384,1212.5565824125333
1239.6492,1027.5268755021607
1241.5592,946.0487596496059
1243.4686,872.2724304324693
1245.3772,858.3980739678591
1247.285,909.5758676501791
1249.1922,885.8559802898599
1251.0986,902.7385716015779
1253.0042,881.023792441476
1254.9092,951.0117846383109
1256.8134,1027.9026812106094
1258.7169,1240.1466056668105
1260.6196,1403.693671236335
1262.5216,1622.5439787471478
1264.4229,1802.9476149902948
1266.3234,1987.3546505313861
1268.2232,2075.615137906567
1270.1223,2077.1791097784444
1272.0207,2110.1465780534927
1273.9183,2087.1175338663925
1275.8151,1995.8419472503665
1277.7113,1950.4197673674898
1279.6067,1876.8009234214114
1281.5014,1812.2853251116103
1283.3953,1836.0228633695442
1285.2885,1864.263411003827
1287.181,1967.8568224628762
1289.0727,2092.202933552453
1290.9637,2197.001560399789
1292.854,2379.60249821009
1294.7435,2465.855520218567
1296.6323,2643.4103758644123
1298.5204,2872.266789928275
1300.4077,3134.024460756704
1302.2943,3304.8830579735913
1304.1802,3355.3422198625994
1306.0653,3193.551551658562
1307.9497,3001.3106250429155
1309.8333,2873.4689797615756
1311.7162,2775.076125547377
1313.5984,2806.3815433984637
1315.4798,2859.3846865622254
1317.3605,2937.5849802222474
1319.2405,3045.331820968273
1321.1197,3040.2745760142097
1322.9982,2912.6625821206617
1324.876,2837.845145645486
1326.753,2752.8215438199295
1328.6293,2752.5410254967937
1330.5048,2790.6028120006667
1332.3796,2739.8560971307525
1334.2537,2756.50004678022
1336.127,2693.43379944369
1337.9996,2688.906466050794
1339.8714,2734.7171305968404
1341.7426,2691.1148501880816
1343.6129,2673.4486545836044
1345.4826,2650.6675466313463
1347.3515,2664.470502444761
1349.2196,2629.856471630628
1351.087,2677.3243771510606
1352.9537,2773.273115669588
1354.8197,2887.051557076513
1356.6849,3107.7085435293884
1358.5493,3215.9928883152643
1360.4131,3264.603373644124
1362.276,3256.738749566004
1364.1383,3142.2477334849464
1365.9998,2912.779010237595
1367.8606,2587.1312332381276
1369.7206,2335.2030267729533
1371.5799,2157.592989257195
1373.4384,1969.6496957539202
1375.2962,1863.1716997503027
1377.1533,1579.157535037004
1379.0096,1254.1057167729741
1380.8652,1048.76474432561
1382.7201,800.8331045212617
1384.5742,573.6592736986604
1386.4275,408.19172018820245
1388.2802,287.57890658369433
1390.132,188.3692913970517
1391.9832,170.71133026438838
1393.8336,80.95347693814983
1395.6832,51.494183463655645
1397.5322,34.98190107670598
1399.3803,5.015080498160387
1401.2278,-23.15782790090816
1403.0745,-15.738373799598776
1404.9204,-5.627875530310121
1406.7656,63.27250580089458
1408.6101,31.911665310419266
1410.4538,56.83849748195462
1412.2968,121.45189648009
1414.139,165.00075590104098
1415.9805,280.5839681265061
1417.8213,343.7504238881829
1419.6613,474.69901111195395
1421.5006,701.778614286186
1423.3391,930.8881131522794
1425.1769,1249.5763804338385
1427.0139,1729.8422795456063
1428.8502,2356.434661406578
1430.6858,2941.002359637321
1432.5206,3289.894184294075
1434.3547,3572.25891602306
1436.188,3635.645302571578
1438.0206,3607.302055964332
1439.8524,3442.077851869597
1441.6835,3352.621329882648
1443.5139,3297.0310951779884
1445.3435,3208.805719403923
1447.1724,3230.9437412384395
1449.0005,3190.2936672714895
1450.8279,3091.2039717835796
1452.6545,3115.4730971522986
1454.4804,3171.4494548431903
1456.3056,3218.731425167083
1458.13,3144.0173567203183
1459.9536,2939.0055659119244
1461.7766,2635.344337710756
1463.5987,2254.781927695629
1465.4202,1895.366565091923
1467.2409,1587.146456577204
1469.0608,1365.3197898753642
1470.88,1119.034736838852
1472.6984,900.5894556669064
1474.5161,712.3320933684518
1476.3331,603.1607879465137
1478.1493,489.223670280795
1479.9648,438.1188652194123
1481.7795,335.4444927182467
1483.5935,287.2986683519921
1485.4067,248.62950434091363
1487.2192,249.3351100322907
1489.031,244.56359228712608
1490.842,233.21305547306838
1492.6522,187.78160151212978
1494.4618,209.36732999419655
1496.2705,238.91833863135435
1498.0785,225.43272304201855
1499.8858,176.70857645542674
1501.6924,191.2439898465036
1503.4981,216.48705242309188
1505.3032,184.48585148060556
1507.1075,182.9384721495935
1508.911,190.64299771574952
1510.7138,174.6975096353999
1512.5159,117.45008745843188
1514.3172,102.24880898777519
1516.1178,50.69175085186362
1517.9176,77.17698865664534
1519.7166,94.25259750115947
1521.515,56.31665171266832
1523.3126,55.91722467591717
1525.1094,41.40238921249875
1526.9055,24.820217584836428
1528.7008,-4.481218358660044
1530.4954,-47.00384701777875
1532.2893,-15.94955202494748
1534.0824,-35.91974744415711
1535.8747,-23.665688003382456
1537.6663,-15.438269592315919
1539.4572,-25.53815168044457
1541.2473,-3.3158395089303667
1543.0367,11.028416807175745
1544.8253,1.494400278048488
1546.6132,63.13189380357653
1548.4003,44.49068026871828
1550.1867,95.77054192710966
1551.9723,136.87126058748618
1553.7572,227.84261710088504
1555.5414,261.43439094963287
1557.3247,348.54635933763893
1559.1074,413.42829685447214
1560.8893,509.87997460423503
1562.6705,585.6511595567481
1564.4509,682.2416135830372
1566.2305,775.2010926976254
1568.0094,888.8293460926179
1569.7876,956.9261152081235
1571.565,973.3911325959562
1573.3417,1016.2241212386798
1575.1176,1033.6747943849514
1576.8928,1030.0428551211917
1578.6672,955.8279961970875
1580.4409,896.9799000619078
1582.2138,782.5482396066363
1583.986,721.8826787524722
1585.7575,687.2828735951334
1587.5282,652.9984730115139
1589.2981,640.7791190056905
1591.0673,616.9244470517606
1592.8358,675.7840862160319
1594.6035,725.707659395579
1596.3704,727.8447827296404
1598.1366,766.6950651003899
1599.9021,868.858108111559
1601.6668,932.2835056999338
1603.4308,1001.7708431137289
1605.194,1138.269696278332
1606.9564,1291.179631101435
1608.7182,1437.1002021080403
1610.4791,1641.930950911361
1612.2394,1835.0714047536094
1613.9988,2013.7710744576943
1615.7576,2285.229452495816
1617.5156,2467.546011202481
1619.2728,2692.7702000598983
1621.0293,2816.401443874831
1622.785,2852.939140526345
1624.54,2757.032659729499
1626.2942,2619.1813426699664
1628.0477,2383.234502963107
1629.8005,2179.9414280324672
1631.5525,1999.8513814692578
1633.3037,1825.6136050652804
1635.0542,1718.02732061383
1636.804,1636.0417316520707
1638.553,1553.0560245368997
1640.3013,1547.6193692648067
1642.0488,1564.5809203017288
1643.7955,1614.489816637415
1645.5416,1691.5451816158056
1647.2868,1787.9961224359504
1649.0313,1902.2417293814615
1650.7751,2085.8810748559863
1652.5181,2228.6632122407664
1654.2604,2429.037174058243
1656.0019,2739.051970544224
1657.7427,3039.5565876441524
1659.4828,3359.7499839129596
1661.222,3587.7810875100167
1662.9606,3608.248792997196
1664.6984,3406.501959058567
1666.4354,3004.9894082957253
1668.1717,2559.259929245258
1669.9072,2103.0122803938593
1671.642,1695.195194635644
1673.3761,1373.5573838346063
1675.1094,1102.7475429027963
1676.8419,908.0143530166933
1678.5737,725.4564843253029
1680.3048,619.5725978974951
1682.0351,509.7113475475726
1683.7646,417.07138089412547
1685.4934,395.1013404586338
1687.2215,334.2998645918633
1688.9488,293.76558769357143
1690.6754,237.1971408205227
1692.4012,250.9431520918297
1694.1263,228.00224725464068
1695.8506,203.92304954667088
1697.5742,207.7541799256196
1699.297,184.74425730996518
1701.0191,129.34189854064243
1702.7404,131.54571861115073
1704.461,102.2543312215621
1706.1808,67.0663487565107
1707.8999,76.1803825780753
1709.6182,85.19504337768558
1711.3358,56.10894108496359
1713.0527,49.37068477759385
1714.7688,36.7788829721776
1716.4841,10.832143691613965
1718.1987,26.229074591024983
1719.9126,29.118283217205317
1721.6257,11.748376854668095
1723.338,34.71796249674844
1725.0496,16.075647019302778
1726.7605,5.770036951013026
1728.4706,-3.0002613401884446
1730.18,-35.68664154406724
1731.8886,11.70953262221883
1733.5964,-11.462746048950066
1735.3036,-7.704484882267934
1737.0099,4.4334233103836596
1738.7156,-24.49983731507018
1740.4204,-2.5050826470396714
1742.1246,16.667116179429286
1743.8279,-2.383786944936219
1745.5306,7.841661703931095
1747.2325,8.692939664124424
1748.9336,-17.73047560467421
1750.634,-47.979106729702835
1752.3336,-28.253299210766272
1754.0325,-2.3529192363912443
1755.7307,-14.87755074465531
1757.4281,23.573245832028988
1759.1247,18.550058687971614
1760.8206,29.703475781754605
1762.5158,44.88408488646746
1764.2102,35.74247347817254
1765.9039,23.979228584092198
1767.5968,30.39493687403592
1769.289,40.340184778024195
1770.9804,26.765558422132017
1772.6711,42.77164352903492
1774.361,48.8090255537536
1776.0502,61.77828952359414
1777.7386,78.93001997778265
1779.4263,69.2648008377655
1781.1132,91.48321523569575
1782.7994,81.93584561108764
1784.4849,83.17327348862818
1786.1696,98.19607957365042
1787.8535,88.75484373975269
1789.5367,76.25014487858789
1791.2192,133.63256099426144
1792.9009,82.95266932837876
1794.5818,119.4610457862218
1796.2621,127.95826544354168
1797.9415,116.2449021814864
1799.6202,98.7215286016035
1801.2982,136.03871614300806
1802.9755,141.1470352575816
1804.6519,138.64705503683945
1806.3277,115.73934316082523
1808.0027,104.67446592311899
1809.6769,126.6529884599122
1811.3504,144.62547486065978
1813.0231,150.69248794829036
1814.6951,141.30458909947356
1816.3664,185.56233818395594
1818.0369,188.9162936584462
1819.7067,175.7170121240315
1821.3757,190.96504829264813
1823.044,191.66095511906315
1824.7115,206.15528364839975
1826.3783,176.7985830091784
1828.0443,180.29140026837467
1829.7096,183.43428072498227
1831.3741,196.87776787508483
1833.0379,202.6224033804274
1834.701,187.06872693398236
1836.3633,205.5672762025033
1838.0248,216.76858698205615
1839.6856,220.8231930130387
1841.3457,227.13162586816543
1843.005,234.94441491191992
1844.6636,265.3120872374757
1846.3214,257.1351675885644
1847.9785,284.71417805579676
1849.6349,276.79963815843985
1851.2904,267.7920645686172
1852.9453,271.3919711904591
1854.5994,267.74986925017856
1856.2528,286.66626726007144
1857.9054,288.09167105493725
1859.5572,328.37658360291243
1861.2083,296.2215049912202
1862.8587,313.6269320233205
1864.5084,329.84335854046367
1866.1572,347.37127524763673
1867.8054,314.46116955139587
1869.4528,303.5635253845976
1871.0994,325.178823535487
1872.7453,334.45754175667844
1874.3905,350.2001545490011
1876.0349,340.2071330687113
1877.6786,353.2789449700713
1879.3215,342.91605450527186
1880.9637,355.1689223937192
1882.6051,361.3380059256551
1884.2458,372.77375883964123
1885.8858,372.5766312608557
1887.525,340.1970695867394
1889.1634,342.8355164889708
1890.8011,357.6424112372615
1892.4381,354.01818967297277
1894.0743,376.21328406104294
1895.7098,375.17812312623573
1897.3446,377.9131318311829
1898.9786,371.06873138673745
1900.6118,373.6453392246294
1902.2443,355.5933690658958
1903.8761,374.3632308951301
1905.5071,357.00533114098835
1907.1374,339.1700724885004
1908.7669,347.55785405264214
1910.3957,362.6190715566927
1912.0237,343.85411724835194
1913.651,326.8133797491364
1915.2776,358.0472442420196
1916.9034,313.10609264184404
1918.5285,317.34030328298377
1920.1528,309.2002513687539
1921.7764,318.58630892906604
1923.3992,328.84884490183595
1925.0213,290.9882250391229
1926.6427,279.7048118045004
1928.2633,267.14896475166006
1929.8832,310.47104063724964
1931.5023,278.8713935464284
1933.1207,263.6003744596519
1934.7383,286.4583315686641
1936.3552,269.34561042920814
1937.9714,266.61255373244694
1939.5868,265.2595014760882
1941.2015,254.58679099171422
1942.8154,244.89475695831788
1944.4286,234.58373150902753
1946.041,224.2540443280268
1947.6528,215.25602275366327
1949.2637,224.0899918817522
1950.8739,219.00627465555044
1952.4834,235.45519177741426
1954.0921,224.38706175964853
1955.7001,221.75220076000278
1957.3074,223.6009226923652
1958.9139,193.2835392531042
1960.5197,212.7003599025811
1962.1247,197.601692168324
1963.729,176.78784145085956
1965.3325,175.9591111746995
1966.9353,173.3658029964845
1968.5374,162.25821681326124
1970.1387,153.93665078842514
1971.7393,163.75140146279045
1973.3392,163.3527638378091
1974.9383,145.29103127742292
1976.5366,145.41649551204864
1978.1342,141.2794468191987
1979.7311,146.2301740222183
1981.3273,167.36896453166355
1982.9227,159.04610429579225
1984.5173,147.41187758917386
1986.1112,131.36656709591625
1987.7044,144.1104540260112
1989.2968,140.9938182757851
1990.8885,145.21693830046115
1992.4795,158.68009114532833
1994.0697,128.2835524035081
1995.6592,120.6775960813211
1997.2479,131.7124949022582
1998.8359,148.88852038303594
2000.4232,134.6059427232458
2002.0097,139.31503063360287
2003.5955,109.76605147876398
2005.1805,112.65927123023903
2006.7648,124.14495476187494
2008.3484,120.52336582092994
2009.9312,158.94476691321142
2011.5133,111.35941933929371
2013.0946,124.26758281030197
2014.6752,127.26951592377009
2016.2551,129.46547603456202
2017.8342,130.60571922484814
2019.4126,119.94050028214497
2020.9902,115.47007268792004
2022.5672,133.0446887242333
2024.1433,112.01459951844845
2025.7188,116.53005486748316
2027.2935,113.04130344810983
2028.8674,105.2485927718053
2030.4406,123.35216921963729
2032.0131,96.45227812018948
2033.5849,108.79916356852391
2035.1559,118.79306869518405
2036.7261,105.88423554272322
2038.2957,107.57290496576752
2039.8645,115.00931676010441
2041.4325,143.0437096457963
2042.9998,115.67632119281188
2044.5664,140.10738754069007
2046.1323,118.53714367220255
2047.6974,127.11582316905242
2049.2617,110.84365842757416
2050.8254,122.97088057294786
2052.3883,138.9477196219168
2053.9504,129.97440436152283
2055.5118,129.45116218932526
2057.0725,109.22821920314618
2058.6325,136.15580020629295
2060.1917,111.1841289097938
2061.7502,140.01342766312155
2063.3079,122.89391770391103
2064.8649,130.67581886966036
2066.4212,116.25934976893677
2067.9767,124.24472770354532
2069.5315,123.4821688127031
2071.0856,99.17188799318046
2072.6389,78.01409890692867
2074.1915,97.10901422418192
2075.7433,77.20684583503407
2077.2945,83.20780465849293
2078.8448,85.6621008414977
2080.3945,91.36994369891272
2081.9434,102.43154168898218
2083.4916,80.94710235625189
2085.039,89.51683222095471
2086.5857,82.69093699385485
2088.1317,70.21962149055253
2089.677,90.55308969973976
2091.2215,86.69154490791061
2092.7652,83.83518949603695
2094.3083,86.63422497817464
2095.8506,91.43885203002992
2097.3921,107.19927046096745
2098.933,92.36567916596687
2100.4731,96.68827596801384
2102.0124,102.9672577664387
2103.5511,104.95282049369052
2105.089,109.59515905254375
2106.6261,110.04446729624942
2108.1626,118.65093798210273
2109.6983,110.81476276696048
2111.2332,132.08613212116688
2112.7675,127.36523540692451
2114.301,118.15226066557352
2115.8337,118.04739466480441
2117.3657,123.35082299079022
2118.897,109.06273004922969
2120.4276,100.88329901231918
2121.9575,103.81271196162379
2123.4866,137.2011499698856
2125.0149,124.14879307171213
2126.5426,113.30581992971202
2128.0695,84.62240796500737
2129.5956,132.19873346566237
2131.1211,129.3349718735226
2132.6458,122.1812973084443
2134.1698,126.18788259693702
2135.693,139.45489934369834
2137.2155,138.83251789155292
2138.7373,116.47090718877917
2140.2584,117.87023479532945
2141.7787,131.33066710645107
2143.2983,119.5523693386931
2144.8171,101.28550539529897
2146.3353,104.33023798399336
2147.8527,101.98672879964852
2149.3693,125.75513849383697
2150.8853,98.38562669826388
2152.4005,81.82835178708865
2153.9149,103.93347115061624
2155.4287,111.90114136086959
2156.9417,127.08151795054027
2158.454,118.27475533330653
2159.9655,116.3310066520371
2161.4764,130.60042386685018
2162.9865,106.13315777455955
2164.4958,115.47935786597372
2166.0045,123.23917257057565
2167.5124,117.0127491630551
2169.0195,121.05023368570937
2170.526,117.90177101071458
2172.0317,115.81750479974289
2173.5367,118.24757753545146
2175.0409,113.54213054232332
2176.5445,135.65130396236827
2178.0473,124.42523680217664
2179.5494,124.41406671182767
2181.0507,120.86793009714984
2182.5513,112.48696211983452
2184.0512,126.12129673289337
2185.5504,108.92106676447247
2187.0488,108.88640378150512
2188.5465,110.51743826171878
2190.0435,108.56429959397974
2191.5397,103.32711606198245
2193.0353,102.00601486377946
2194.5301,94.55112216415637
2196.0241,109.7625631078381
2197.5175,99.29046189404335
2199.0101,90.88494162436518
2200.502,82.64612440749534
2201.9931,80.72413144327902
2203.4835,100.21908310510071
2204.9733,72.83109895910411
2206.4622,79.71029756924327
2207.9505,66.10679677116286
2209.438,78.52071360340551
2210.9248,87.40216444344924
2212.4109,69.351264883569
2213.8962,70.46812964201808
2215.3809,74.20287274353996
2216.8648,76.15560750820032
2218.3479,68.87644651403707
2219.8304,80.96550157753518
2221.3121,59.72288382641818
2222.7931,70.5487035787578
2224.2733,60.293070555399936
2225.7529,70.85609377170385
2227.2317,63.63788164009975
2228.7098,74.68854186445878
2230.1872,65.25818151227486
2231.6638,71.14690690415819
2233.1397,58.65482370813743
2234.6149,67.6320368807742
2236.0894,60.82865079208432
2237.5632,59.244769135762
2239.0362,49.58049499721983
2240.5085,61.085930869422555
2241.9801,41.46117874953097
2243.4509,45.656340023847406
2244.921,44.87151566406419
2246.3904,40.70680618531151
2247.8591,40.26231165400941
2249.3271,36.23813172950895
2250.7943,51.33436566853925
2252.2608,36.00111236545126
2253.7266,42.23847020125231
2255.1917,42.64653719694479
2256.656,36.72541095114775
2258.1197,26.275188636016537
2259.5826,43.94596705645472
2261.0447,34.93784275461667
2262.5062,37.650911833197824
2263.9669,59.585270045516154
2265.4269,55.991012768383825
2266.8862,60.61823478276028
2268.3448,50.71703030969729
2269.8026,56.13749296406377
2271.2598,51.67971585355872
2272.7162,66.9937915245082
2274.1719,52.37981200644117
2275.6268,60.28786865895063
2277.0811,75.76805231783374
2278.5346,52.47045321600899
2279.9874,56.64516082871614
2281.4395,56.19226410649253
2282.8908,80.96185143342655
2284.3414,71.80401063168392
2285.7914,62.96882871381422
2287.2406,56.256391974328835
2288.689,61.466786078054156
2290.1368,45.550096127252345
2291.5838,59.15640660952113
2293.0302,65.43580155696054
2294.4758,51.88836441010699
2295.9206,52.81417795513971
2297.3648,74.11332445935932
2298.8082,70.78588566192366
2300.251,65.53194256085953
2301.693,79.90157544633439
2303.1343,63.94486395319882
2304.5748,82.81188691728812
2306.0147,57.85272253498897
2307.4538,70.76744817456711
2308.8922,56.70614062576715
2310.3299,69.76887597065797
2311.7669,64.10572972425052
2313.2031,81.11677670386689
2314.6387,58.6020910857751
2316.0735,53.81174623507377
2317.5076,77.69581493084524
2318.941,56.95436941405569
2320.3737,61.23748114871614
2321.8056,62.595221029298045
2323.2369,71.02765933789533
2324.6674,76.08486573065329
2326.0972,64.36690915343888
2327.5263,49.52385779127144
2328.9547,58.70577918550225
2330.3823,60.312740382245465
2331.8092,73.99480784055913
2333.2355,47.5520474163759
2334.661,66.03452422568353
2336.0858,70.1423029089483
2337.5098,65.87544744629349
2338.9332,91.78402111642026
2340.3558,63.06808653927601
2341.7778,71.2777054169701
2343.199,71.8629388209306
2344.6195,71.6738471098115
2346.0393,80.3604899236384
2347.4583,82.67292618570309
2348.8767,79.66121401569762
2350.2943,86.42541070658535
2351.7113,90.41557275471996
2353.1275,97.68175579220087
2354.543,85.32401454697356
2355.9578,86.14240277016688
2357.3718,73.43697335966726
2358.7852,87.3577783519363
2360.1978,78.6548690490672
2361.6098,74.42829587958067
2363.021,63.82810848544932
2364.4315,83.80435576436321
2365.8413,81.20708597573503
2367.2504,82.78634654093503
2368.6587,80.79218406926702
2370.0664,66.02464434217245
2371.4733,78.73377233317387
2372.8795,65.81961235554854
2374.285,64.48220793523842
2375.6899,58.67160193999052
2377.0939,67.23783659272976
2378.4973,58.78095352966466
2379.9,60.05099371462893
2381.3019,77.29799752364806
2382.7032,69.2220047322362
2384.1037,66.57305434292857
2385.5035,60.5011846660409
2386.9027,68.20643334615943
2388.3011,49.68883742285834
2389.6987,71.39843325365246
2391.0957,60.435256699166985
2392.492,54.599342906040874
2393.8876,57.24072641656721
2395.2824,64.45944122704714
2396.6765,51.755520761375465
2398.07,44.528997798856835
2399.4627,46.02990460124056
2400.8547,48.008272984990526
2402.246,43.61413430627408
2403.6366,42.04751944117561
2405.0265,41.70845882964113
2406.4156,34.04698249114699
2407.8041,39.66312002808354
2409.1918,37.656900702371786
2410.5789,36.62835337930164
2411.9652,42.92750654759311
2413.3508,37.30438832968639
2414.7358,18.70902641874727
2416.12,34.49144813489829
2417.5035,40.65168061117629
2418.8863,37.739750635702876
2420.2684,48.70568459008837
2421.6497,48.39950847854561
2423.0304,30.571247818232678
2424.4104,36.22092764232002
2425.7896,35.29857267826537
2427.1682,40.8042072913172
2428.546,43.13785549373915
2429.9232,33.59954088975519
2431.2996,44.03928665221292
2432.6753,36.1571156179657
2434.0503,44.20305018347426
2435.4246,43.07711238362799
2436.7982,49.42932381128685
2438.1711,44.80970562854145
2439.5433,40.068278503188594
2440.9148,27.95506265493077
2442.2856,31.97007790278667
2443.6557,30.863343786226324
2445.025,33.18487952502028
2446.3937,30.134704030307603
2447.7617,31.862835881380306
2449.1289,39.51929335618388
2450.4955,44.65409441403881
2451.8613,47.917256619073214
2453.2265,47.008797088875326
2454.5909,53.32873246186273
2455.9546,45.42707890636348
2457.3177,53.35385205742
2458.68,57.10906709580331
2460.0416,53.74273866874887
2461.4025,57.30488085240245
2462.7627,49.84550718548462
2464.1222,51.06463063366891
2465.4811,61.262263664173815
2466.8392,52.038418233572656
2468.1966,61.243105685816545
2469.5533,70.52633684447233
2470.9093,63.83812192067717
2472.2645,59.97847042030617
2473.6191,69.84739121085363
2474.973,62.84489256002985
2476.3262,70.92098203707133
2477.6787,58.92566658276496
2479.0305,64.40895242868942
2480.3816,59.320845217165925
2481.7319,65.76134994642825
2483.0816,58.43047102150172
2484.4306,63.12821218979843
2485.7789,62.1545766144277
2487.1264,48.85956682721712
2488.4733,51.943184738450555
2489.8195,58.25543176981569
2491.165,54.696308823570234
2492.5097,43.91581621941759
2493.8538,54.113953730098046
2495.1972,40.94072068919559
2496.5398,34.99611588915559
2497.8818,48.730137713015665
2499.2231,48.49278419385519
2500.5637,45.18405287745259
2501.9035,52.60394082466041
2503.2427,43.80244464449038
2504.5812,51.97956041991574
2505.919,53.63528379588524
2507.256,50.66960989755307
2508.5924,55.782533313719114
2509.9281,44.72404812649006
2511.2631,58.64414786014822
2512.5974,54.292825591735664
2513.9309,51.62007381185413
2515.2638,49.92588446817717
2516.596,56.41024899218041
2517.9275,43.32315831608071
2519.2583,30.864602807993833
2520.5884,48.08457240280495
2521.9178,43.9830567267536
2523.2465,60.41004492523507
2524.5745,59.81552570381473
2525.9018,41.49948716395943
2527.2284,41.86191680898082
2528.5543,61.15280172719599
2529.8796,53.722128588303804
2531.2041,58.61988345047553
2532.5279,67.79605183466151
2533.851,54.45061867561344
2535.1735,66.93356823012527
2536.4952,79.19488421048482
2537.8163,72.73454965964561
2539.1366,62.50254682861487
2540.4562,57.09885724105379
2541.7752,64.92346179559922
2543.0935,70.77634081990095
2544.411,84.35747399237516
2545.7279,70.6668402836749
2547.0441,79.05441782087973
2548.3596,86.27018402440171
2549.6744,76.3641155241096
2550.9885,79.33618808717165
2552.3019,81.98637671711504
2553.6146,77.11465562410649
2554.9266,76.37099819845002
2556.2379,79.2053770593036
2557.5485,79.86776406211652
2558.8585,86.65813027028503
2560.1677,81.87644594852873
2561.4762,88.47268049498621
2562.7841,84.94680248903182
2564.0913,78.24877962531423
2565.3977,92.42857874901506
2566.7035,95.3361659228276
2568.0086,95.97150628516101
2569.313,97.23456402106194
2570.6167,103.67530235586264
2571.9197,100.69368354255062
2573.222,104.28966879735935
2574.5236,108.56321832958861
2575.8246,106.81429130563993
2577.1248,111.49284580628364
2578.4244,117.19883884414912
2579.7232,117.53222631693734
2581.0214,104.24296295036265
2582.3189,126.53100229481743
2583.6157,116.04629685826421
2584.9118,130.38879788335635
2586.2072,130.20845545228417
2587.5019,123.75521834335177
2588.7959,130.82903403277828
2590.0893,135.57984875923148
2591.3819,133.2576074530905
2592.6739,129.81225368893593
2593.9652,140.64372970877344
2595.2557,143.75197645648677
2596.5456,144.73693346952314
2597.8348,143.14853884780996
2599.1234,141.63672924390653
2600.4112,140.7014398788874
2601.6983,143.04260455746044
2602.9848,151.06015567732015
2604.2705,142.55402420573614
2605.5556,155.37413959937612
2606.84,152.77042988936887
2608.1237,144.84282155310189
2609.4067,133.09123954025836
2610.689,142.36560735209378
2611.9707,145.36584715895242
2613.2516,139.69187970752273
2614.5319,136.69362429083571
2615.8115,136.47099880500355
2617.0903,128.1739197792033
2618.3685,125.30230237790238
2619.6461,131.55606048383038
2620.9229,131.6351067266944
2622.199,145.33935242064263
2623.4745,146.06870756347234
2624.7493,131.2730806995885
2626.0234,141.80237891270895
2627.2968,133.65650797382204
2628.5695,141.83537223589133
2629.8415,141.53887471531698
2631.1128,141.71691701014515
2632.3835,132.1693993030351
2633.6535,134.94622035947714
2634.9228,138.74727762326825
2636.1914,138.92246718874458
2637.4593,138.22168376276932
2638.7265,140.84482066298187
2639.9931,143.54176982480567
2641.259,136.7124217752164
2642.5242,130.15666560577301
2643.7887,136.22438904091018
2645.0525,139.96547850349725
2646.3156,133.82981905416068
2647.5781,141.5672943538716
2648.8398,134.3777867253043
2650.1009,119.46117707546068
2651.3613,129.56734496756462
2652.6211,131.84616877022927
2653.8801,114.39752555639484
2655.1385,126.07129108053914
2656.3961,129.0173399531659
2657.6531,135.8855455240655
2658.9094,128.17577985285652
2660.1651,138.03791364030144
2661.42,154.4218163054063
2662.6743,145.57735588679725
2663.9279,144.4543988788837
2665.1808,145.4028103203018
2666.433,151.0724538051452
2667.6846,142.26319147347817
2668.9354,154.82488395464316
2670.1856,149.75739045535056
2671.4351,160.86056863406293
2672.6839,154.53427465166874
2673.9321,161.82836306045147
2675.1795,165.3926868673525
2676.4263,165.17709746103083
2677.6724,161.7814445762192
2678.9179,173.65557629587988
2680.1626,167.39933908516105
2681.4067,174.11257767265624
2682.6501,164.54513511296568
2683.8928,174.09685271956414
2685.1348,168.96757016047582
2686.3761,150.70712536275664
2687.6168,165.2653545637877
2688.8568,148.24209249387945
2690.0961,150.98717223068888
2691.3348,153.9004253694534
2692.5727,143.78168199553693
2693.81,145.8807706553016
2695.0466,139.9975184572918
2696.2826,149.18175105124465
2697.5178,141.28329268692232
2698.7524,150.85196612227128
2699.9863,145.03759270240516
2701.2195,147.18999226391816
2702.452,138.5089831930286
2703.6839,153.7443824040563
2704.9151,151.9960054262308
2706.1456,158.4136662513397
2707.3755,167.54717735120994
2708.6046,178.0463496135328
2709.8331,183.06099225052867
2711.0609,194.89091269395453
2712.2881,200.2359165449575
2713.5145,198.3958074557761
2714.7403,209.57038707629022
2715.9654,213.2094550724221
2717.1899,227.21280901438945
2718.4136,236.9302443403169
2719.6367,247.16155421620147
2720.8591,266.80652943873815
2722.0809,274.41495833300723
2723.3019,277.08662655602393
2724.5223,282.92131702065524
2725.7421,295.5688098689021
2726.9611,295.27888241355186
2728.1795,291.301309011704
2729.3972,279.28586106767034
2730.6142,269.43230707274915
2731.8306,243.44041272538107
2733.0462,238.60994102968334
2734.2612,231.04065255537103
2735.4756,203.1323054860594
2736.6892,188.03465569495768
2737.9022,171.2474570239524
2739.1145,156.920461434584
2740.3262,153.8534191759187
2741.5372,133.74607892781978
2742.7475,116.04818783161625
2743.9571,106.80949169117707
2745.1661,96.57973514988964
2746.3744,100.05866178304768
2747.582,90.9960142001479
2748.7889,79.79153401010183
2749.9952,69.94496191186022
2751.2008,57.85603780646022
2752.4057,60.77450089548904
2753.61,47.70008980197338
2754.8136,45.33254254119606
2756.0165,47.17159665144004
2757.2188,39.41698921766306
2758.4204,51.26845685310673
2759.6213,42.37573577684316
2760.8215,42.23856169525982
2762.0211,34.75666989098772
2763.22,39.979795224272266
2764.4182,25.35767220779269
2765.6158,20.590034954430507
2766.8127,34.07661732349152
2768.009,14.417152968380378
2769.2045,22.911375201736973
2770.3994,-1.8909828079705449
2771.5936,5.359811878613073
2772.7872,-6.586488908239744
2773.9801,-8.33013339185436
2775.1723,-15.521303996532083
2776.3639,-13.660099928542195
2777.5548,-8.946465336327947
2778.745,-17.38020790393398
2779.9346,-14.011045940216718
2781.1235,-11.688524125756203
2782.3117,-21.26204717078383
2783.4992,-12.83090301717607
2784.6861,-17.49416719895862
2785.8723,-1.850787069436592
2787.0579,-9.949535215185279
2788.2428,-0.08916573341832645
2789.427,3.1816666745078237
2790.6106,11.364307308129014
2791.7935,18.260101435164756
2792.9757,44.37039420969154
2794.1573,25.24653060318508
2795.3382,37.48985514341712
2796.5184,60.801712105693014
2797.698,58.53344539042132
2798.8769,79.63639828999408
2800.0551,81.51191351146986
2801.2327,102.66133296554324
2802.4096,120.4359977477909
2803.5859,136.43724792718047
2804.7615,152.31642236831897
2805.9364,181.12485857144213
2807.1106,193.31389251362214
2808.2842,224.4348583606827
2809.4572,248.78908834531023
2810.6294,285.0779124558427
2811.801,318.15265819272645
2812.972,358.01465020563023
2814.1423,393.21520996269555
2815.3119,427.7556553519181
2816.4808,488.037300329142
2817.6491,525.311454572655
2818.8167,579.8294228803715
2819.9837,628.2425047970926
2821.15,660.6519940693249
2822.3157,713.959178161151
2823.4807,766.315337930134
2824.645,796.2717470942454
2825.8086,841.8796717083039
2826.9716,884.0903698644112
2828.134,933.9550912358724
2829.2957,959.9750766550886
2830.4567,990.2015576149109
2831.617,1020.5357560084394
2832.7767,1020.4288838267591
2833.9358,1027.2321428555983
2835.0941,1012.3467246763965
2836.2519,1004.4738105982727
2837.4089,974.9145718068795
2838.5653,977.1701694431308
2839.7211,981.1917548987956
2840.8761,976.9804697939421
2842.0306,996.3374459367208
2843.1843,1026.8638053654786
2844.3374,1071.110660155188
2845.4899,1123.0791121121845
2846.6417,1203.7202523316973
2847.7928,1265.9851606781656
2848.9433,1345.924904978826
2850.0931,1403.1405404010632
2851.2422,1484.9331086530142
2852.3907,1546.9036374114103
2853.5385,1621.3531395036525
2854.6857,1665.332612288106
2855.8323,1709.443036909604
2856.9781,1752.0853778596547
2858.1233,1803.2605825353362
2859.2679,1853.5195808128738
2860.4118,1902.0632845358887
2861.555,1920.4425870128057
2862.6976,1982.4083625314177
2863.8395,2005.611466175092
2864.9808,2018.2527332031132
2866.1214,2033.1829788186515
2867.2614,2051.25299804235
2868.4007,2066.5135655630233
2869.5393,2073.2154355569546
2870.6773,2084.9093415352927
2871.8146,2102.495996277032
2872.9513,2107.3760917120735
2874.0874,2094.7002987453584
2875.2227,2089.0692672080686
2876.3574,2057.983625984381
2877.4915,2034.1439830677818
2878.6249,1988.5009258719228
2879.7577,1977.855021469014
2880.8898,1960.706817046259
2882.0212,1941.2068400123105
2883.152,1936.505598168755
2884.2821,1929.803579905108
2885.4116,1902.6512542458333
2886.5405,1919.0990709173561
2887.6686,1917.5974606195896
2888.7962,1928.8968348614585
2889.923,1930.5475859759133
2891.0493,1940.8000870069359
2892.1748,1959.2546916930328
2893.2997,1957.6117343647118
2894.424,1979.421529759933
2895.5476,1992.7843730405402
2896.6706,2020.7505395741618
2897.7929,2044.8702848005828
2898.9145,2073.4438439520836
2900.0355,2107.171431812243
2901.1559,2150.4532424301997
2902.2756,2171.0394487833814
2903.3946,2212.5802023446804
2904.513,2231.175632876597
2905.6308,2252.0258480158286
2906.7479,2260.7809330873183
2907.8643,2317.9909508957508
2908.9801,2315.2559416380022
2910.0953,2321.42592233104
2911.2098,2329.850886839273
2912.3236,2328.1808058128504
2913.4368,2309.665626603415
2914.5494,2299.5052732808
2915.6613,2264.149646818183
2916.7725,2242.4986251936903
2917.8831,2218.7020637439514
2918.9931,2178.7597953806103
2920.1024,2154.0716308282904
2921.211,2153.4873590240186
2922.319,2116.9067473641044
2923.4264,2105.5295417099856
2924.5331,2091.8054667540323
2925.6391,2081.63422613332
2926.7445,2079.9155025668697
2927.8493,2084.1989579573597
2928.9534,2075.084233408315
2930.0569,2055.72094918127
2931.1597,2049.7087047869195
2932.2619,2064.6970791787476
2933.3634,2058.1856308131523
2934.4643,2042.2238974995616
2935.5645,2035.9613964655473
2936.6641,2010.9476245164421
2937.763,1965.782058097966
2938.8613,1926.7641535463626
2939.959,1864.4933475400553
2941.056,1799.3190574898272
2942.1523,1727.940682161528
2943.248,1640.0576023278168
2944.3431,1555.6191814819458
2945.4375,1444.7747667165931
2946.5313,1345.2236895682438
2947.6244,1248.9652671256363
2948.7169,1154.848803025272
2949.8087,1067.973588413999
2950.8999,975.588902890179
2951.9904,909.7940153724372
2953.0803,836.9381850235098
2954.1696,780.8206619081942
2955.2582,730.9906877219055
2956.3462,684.2474963518531
2957.4335,632.2903143753397
2958.5202,616.2183615271936
2959.6062,593.0808512193403
2960.6916,568.2769907015227
2961.7764,551.905981292675
2962.8605,541.2170186289629
2963.9439,534.7592928274921
2965.0267,516.9319885931984
2966.1089,513.9842852834247
2967.1905,513.6653570861945
2968.2714,518.3743730496882
2969.3516,524.8604970854328
2970.4312,523.5728879212122
2971.5102,531.7106990362046
2972.5885,530.8230786738598
2973.6662,535.4091697605211
2974.7432,546.868109914301
2975.8196,536.749031399222
2976.8954,520.0510610106251
2977.9705,520.1233201763623
2979.045,512.4149251237747
2980.1188,502.97498687897087
2981.192,471.2026113439101
2982.2645,464.34689939080226
2983.3364,450.4569471798311
2984.4077,414.1318462277111
2985.4783,397.7206835465885
2986.5483,372.0225420072909
2987.6177,333.536500503439
2988.6864,307.5616342084297
2989.7545,278.1470149602942
2990.8219,249.69171152144816
2991.8887,218.5947898728375
2992.9548,204.8053134984915
2994.0204,164.1223436964915
2995.0852,145.5449397168661
2996.1495,136.272159168421
2997.2131,103.05305820451258
2998.276,83.18669161577634
2999.3383,60.97211316231733
3000.4,63.858375772374075
3001.4611,48.29453176446418
3002.5215,31.129632818521372
3003.5812,21.912730131534886
3004.6404,10.992874589197868
3005.6989,8.669116858076563
3006.7567,-0.6094925051909286
3007.8139,-5.743903030657179
3008.8705,-8.285058159544633
3009.9264,-13.483843951484914
3010.9818,-8.04106369837848
3012.0364,-16.707385988525402
3013.0905,-8.383399079999435
3014.1439,-7.8195243240888885
3015.1966,-1.9160993219252305
3016.2487,-2.623383557591751
3017.3002,-1.2416173733402047
3018.3511,-8.2710149038204
3019.4013,-1.0617778799244206
3020.4509,7.835974594894537
3021.4998,16.972134024343404
3022.5481,13.69659183376973
3023.5958,17.75923927879967
3024.6428,18.209967478093745
3025.6892,29.798667372719706
3026.735,33.92522972164727
3027.7802,34.989544985859084
3028.8247,45.791503287086584
3029.8685,43.93099439716491
3030.9118,56.55790763001369
3031.9544,63.97213186024305
3032.9963,73.27355539688415
3034.0376,85.86206590924712
3035.0783,80.18755033390698
3036.1184,86.49989474881772
3037.1578,94.34898443005886
3038.1966,99.08470378871135
3039.2348,111.25693629236594
3040.2723,107.31556441776729
3041.3092,118.16046952909079
3042.3455,117.94153191735637
3043.3811,118.75863069197965
3044.4161,121.96164378296106
3045.4505,114.70044793271472
3046.4842,115.17491866403867
3047.5173,114.53493035272692
3048.5498,113.23035622282441
3049.5816,105.71106835302697
3050.6128,113.32693768972734
3051.6434,103.62783412220733
3052.6734,108.76362640647966
3053.7027,99.43418226227897
3054.7314,97.63936832170356
3055.7594,107.6290502225105
3056.7868,104.45309262606304
3057.8136,101.41135911743453
3058.8398,95.60371223716749
3059.8653,97.18001351169124
3060.8902,91.79012351139812
3061.9145,99.63390183488059
3062.9381,91.51120716283009
3063.9612,88.17189717959974
3064.9835,91.51582865443055
3066.0053,86.99285747484521
3067.0264,80.15283861320813
3068.0469,73.94562617195538
3069.0668,80.02107345199505
3070.086,71.27903301477926
3071.1046,74.36935662154946
3072.1226,62.391895320757385
3073.1399,58.74649941716126
3074.1567,52.483018591600626
3075.1727,48.151301937450285
3076.1882,46.50119802325497
3077.203,34.882554936046404
3078.2173,35.24522029784475
3079.2308,32.08904138184465
3080.2438,25.663865108789025
3081.2561,20.969538078530604
3082.2678,19.1059066342836
3083.2789,12.322816909567166
3084.2893,16.4201148468415
3085.2991,7.997646265338972
3086.3083,10.005256820090722
3087.3169,10.392792086152099
3088.3248,8.210097538525758
3089.3321,7.507018548286396
3090.3388,0.13340040440817802
3091.3449,-5.0609116792047075
3092.3503,-0.5760738213181753
3093.3551,-2.8121915821905077
3094.3593,4.380635232897475
3095.3629,-1.1976650875415658
3096.3658,-0.04716429880085116
3097.3681,-4.767922191499451
3098.3698,-3.10999808508501
3099.3708,-7.5734036674628555
3100.3713,0.6918804423426081
3101.3711,-6.864050716390636
3102.3702,3.2588909837295432
3103.3688,7.4108622419618655
3104.3667,-1.7079802750234876
3105.364,2.1525200253349226
3106.3607,2.142536798321487
3107.3568,4.112243677695801
3108.3522,2.011814275792119
3109.347,6.841422163822301
3110.3412,7.351240892880298
3111.3348,4.191443945645972
3112.3277,7.61220473128688
3113.32,7.56369661705628
3114.3117,13.646092894085228
3115.3028,8.759566777868173
3116.2932,8.304291347438635
3117.2831,8.880439594234588
3118.2723,9.988184426651088
3119.2608,14.177698664279063
3120.2488,17.8991550268276
3121.2361,15.252726092228954
3122.2229,14.638584259423965
3123.209,19.356901774826326
3124.1944,24.307850738464055
3125.1793,25.591603056796203
3126.1635,24.758330393203465
3127.1471,21.708204155150497
3128.1301,23.291395502518697
3129.1125,29.70807537810728
3130.0942,28.408414491801636
3131.0753,30.092583256406158
3132.0558,32.46075180064119
3133.0357,32.113089952301436
3134.015,26.399767214574013
3134.9936,32.27095276951522
3135.9716,34.67681553518361
3136.949,32.31752410692815
3137.9258,34.9932467333299
3138.902,31.304151339794515
3139.8775,34.90040550179543
3140.8524,38.13217648176459
3141.8267,39.299631193129784
3142.8004,41.65293616799724
3143.7735,42.89225754547664
3144.7459,43.96776104814862
3145.7178,43.22961196967128
3146.689,50.77797516402521
3147.6596,47.113015052894724
3148.6295,50.784895550184615
3149.5989,46.69378009866941
3150.5676,46.289831633274844
3151.5357,48.5732126219888
3152.5032,57.24408506990085
3153.4701,56.502610496368604
3154.4364,57.39894984830879
3155.402,55.48326350761211
3156.367,57.75571128217986
3157.3315,58.41645242508076
3158.2952,62.96564561182646
3159.2584,61.10344893376411
3160.221,55.7800198525845
3161.1829,62.79551521894399
3162.1442,62.75009132569875
3163.105,62.14390383774976
3164.065,64.57710779249732
3165.0245,66.79985760590263
3165.9834,67.61230704815601
3166.9416,68.11460922144924
3167.8993,66.30691655185106
3168.8563,69.0393807842842
3169.8127,70.61215300060226
3170.7684,74.425383592265
3171.7236,76.22922224461075
3172.6782,69.82381789872396
3173.6321,77.55931873339694
3174.5854,79.73587222918385
3175.5381,84.60362509104564
3176.4902,79.36272322658462
3177.4417,79.06331169736681
3178.3926,84.60553477133108
3179.3428,87.38953592578315
3180.2924,90.1654577919734
3181.2415,84.88344212725693
3182.1899,89.84362978733427
3183.1377,86.94616077907145
3184.0848,86.24117421089834
3185.0314,93.57880832178313
3185.9773,95.6092004882823
3186.9227,92.23248715116422
3187.8674,94.64880379510531
3188.8115,96.90828498245706
3189.755,96.66106432908299
3190.6979,100.35727448176372
3191.6402,99.74704712066935
3192.5818,99.48051292239715
3193.5229,98.90780156607404
3194.4633,102.22904173602184
3195.4031,101.59436112748428
3196.3423,104.65388641341482
3197.2809,105.30774325082321
3198.2189,103.8060562501804
3199.1563,106.89894896887986
3200.0931,111.13654392625465
3201.0292,111.31896257264822
3201.9648,116.99632524703863
3202.8997,111.66875117521434
3203.834,112.58635841300055
3204.7677,113.849263899535
3205.7008,116.90758344809183
3206.6333,114.81143173345254
3207.5652,119.31092226132279
3208.4964,122.206167389294
3209.4271,121.59727828184828
3210.3571,122.18436488140615
3211.2865,122.26753591441532
3212.2154,122.89689888547983
3213.1436,120.67256007652837
3214.0712,126.14462454052062
3214.9982,127.5631961236907
3215.9246,127.57837741082642
3216.8503,133.29026971108362
3217.7755,134.59897305783443
3218.7001,132.10458615154818
3219.624,134.35720634670452
3220.5473,134.00692967673726
3221.4701,132.10385083150808
3222.3922,137.74806316080944
3223.3137,139.4396586933952
3224.2346,140.3287280805386
3225.1549,144.26536057911636
3226.0746,145.4496440427178
3226.9937,145.03166488227868
3227.9121,145.5615080542383
3228.83,151.83925706471922
3229.7473,146.86499396422897
3230.6639,152.18879928488252
3231.5799,146.71075209014484
3232.4954,149.68092992159285
3233.4102,147.149408853696
3234.3244,155.01626346411445
3235.238,160.48156685901404
3236.151,160.7453905943982
3237.0634,157.9578046214545
3237.9752,156.66887728391663
3238.8864,156.72867534594016
3239.797,161.637264004992
3240.7069,159.74470689125224
3241.6163,161.85106601852823
3242.5251,169.6564018031803
3243.4332,161.61077304305812
3244.3408,167.51423683944725
3245.2477,165.51684867752556
3246.154,168.01866236732837
3247.0598,169.21973006372264
3247.9649,164.7701022413886
3248.8694,172.71982768280913
3249.7733,170.51895352276614
3250.6766,172.9675251688431
3251.5793,173.36558632343403
3252.4814,174.76317895925757
3253.3829,177.6603433153765
3254.2838,172.85711788322175
3255.1841,178.80353937762072
3256.0838,178.44964278482968
3256.9829,179.8954613030693
3257.8814,179.09102634606393
3258.7792,182.4363675285832
3259.6765,179.83151267448648
3260.5731,184.4264877832694
3261.4692,181.92131705611246
3262.3647,187.26602284993112
3263.2595,182.86062570242774
3264.1538,187.00514427864442
3265.0474,185.94959541501683
3265.9404,186.39399407792916
3266.8329,188.03835337426955
3267.7247,184.6326845469862
3268.616,190.42699695864374
3269.5066,187.12129812547988
3270.3966,184.86559365946232
3271.286,189.2098873013459
