RamanShift,CorrectedData
30.1047,1107.4856379018063
32.3739,1028.3739014799662
34.6426,945.4621539832698
36.9109,867.1003740531214
39.1787,786.2385308763041
41.4461,707.7765849685966
43.7131,627.1144889833923
45.9796,550.0021884963186
48.2456,468.63962281185695
50.5112,386.976725734467
52.7764,313.5134263822117
55.0411,234.74965000338693
57.3054,156.0853187111539
59.5692,77.62035227117737
61.8326,1.704668888268884
64.0955,-71.2118140089636
66.3579,-146.12917900895877
68.6199,-219.1467972941334
70.8815,-269.6625802164062
73.1426,-277.122249851191
75.4032,-165.3688343447256
77.6634,260.20740660802835
79.9231,1358.3678653467637
82.1824,3825.773931609099
84.4412,8279.136981548976
86.6995,14460.618353062595
88.9574,20376.47930125479
91.2148,24373.880936624206
93.4717,26104.73416590471
95.7282,26242.399652091342
97.9842,25799.287797131812
100.2398,24972.95874054983
102.4949,24075.822363876236
104.7495,23073.488298912278
107.0036,21990.515936700973
109.2573,21099.91443755047
111.5105,20269.842741863748
113.7632,19451.859579044652
116.0154,18773.523475798596
118.2672,18283.242764312396
120.5185,17772.37558903764
122.7693,17358.329911593493
125.0197,16980.81351587535
127.2696,16599.084012195326
129.519,16288.198841057387
131.7679,15926.765276974671
134.0163,15582.690431578329
136.2642,15174.431257231847
138.5117,14745.694550471828
140.7587,14333.086956090552
143.0052,13912.914971423357
145.2512,13495.23495047472
147.4967,13115.403108119957
149.7417,12806.675524282042
151.9863,12528.008147729919
154.2304,12357.256799165776
156.4739,12098.377174011726
158.717,11913.474844117314
160.9596,11638.755260348313
163.2017,11313.323754435749
165.4433,10906.385541723103
167.6844,10510.795724420612
169.925,10132.959295674658
172.1651,9672.381143523678
174.4047,9349.416054676505
176.6439,9013.818719118168
178.8825,8727.593733339536
181.1206,8481.295603693296
183.3582,8244.978749256192
185.5954,8079.197504292022
187.832,7927.506120614791
190.0681,7814.208769246532
192.3037,7729.659541934224
194.5388,7638.712452282755
196.7734,7605.321436600421
199.0075,7614.4903548083985
201.2411,7666.572990774646
203.4742,7664.873052222222
205.7068,7735.644170208462
207.9389,7827.839899141971
210.1704,7901.563716074917
212.4015,7919.019019781063
214.632,8030.309130018548
216.862,8089.937287355316
219.0915,8151.256652056221
221.3205,8202.420303486753
223.549,8250.231239499833
225.777,8333.292375924186
228.0044,8379.556546086214
230.2314,8561.026499979413
232.4578,8666.804903801707
234.6837,8774.094338140752
236.909,8788.94729691617
239.1339,8704.416186306637
241.3582,8535.80332460136
243.582,8320.560943045391
245.8053,8132.741187525745
248.0281,7960.096120723833
250.2503,7862.52772399366
252.472,7826.237899088269
254.6932,7863.078469135431
256.9139,7876.951179000544
259.134,7961.407694918227
261.3536,8100.599604353591
263.5727,8324.578415157664
265.7912,8483.195554175487
268.0092,8682.102365006316
270.2267,8748.150106417452
272.4436,8819.289950355183
274.6601,8744.972981284287
276.8759,8587.550195476653
279.0913,8476.172501754443
281.3061,8263.29072306432
283.5204,8192.955597591228
285.7341,8111.467780887207
287.9473,8110.977846574742
290.16,8148.936287161647
292.3721,8254.193514045961
294.5837,8449.749857136363
296.7947,8627.605563799603
299.0052,8778.06079690494
301.2152,8634.265633045561
303.4246,8415.770061034065
305.6334,7946.923983340389
307.8418,7497.977218276785
310.0495,7029.479504686265
312.2568,6554.43050643207
314.4635,6162.329817082656
316.6696,5866.82696466217
318.8752,5625.621415571477
321.0802,5528.212577543165
323.2847,5502.849802053622
325.4887,5484.0823852971025
327.692,5384.259568439373
329.8949,5282.330537805374
332.0972,5069.89442587745
334.2989,4792.200312314653
336.5001,4508.547226077093
338.7007,4244.484148202875
340.9008,4053.310014644636
343.1003,3866.273718910177
345.2992,3715.2241139742055
347.4976,3590.21001414869
349.6955,3508.080196593366
351.8927,3485.783402565865
354.0895,3345.11833824303
356.2856,3291.833674943873
358.4812,3217.928050536224
360.6763,3205.400069969579
362.8707,3152.498306014162
365.0646,3172.021299386206
367.258,3181.2175592769654
369.4508,3201.0355631574876
371.643,3289.2737566866417
373.8346,3313.4805535129453
376.0257,3316.8043343921854
378.2162,3284.2434469453365
380.4062,3241.946205625338
382.5956,3102.410892042697
384.7844,2981.635755388468
386.9726,2813.269013829613
389.1603,2710.20885571673
391.3474,2610.453441267735
393.5339,2584.4509035984593
395.7199,2476.949349720202
397.9052,2501.1968607997514
400.09,2561.041493234412
402.2743,2660.881278409519
404.4579,2785.114222099999
406.641,2955.8383034719664
408.8235,3120.051473840391
411.0054,3272.351654961869
413.1868,3471.0367373924873
415.3675,3574.6545789648135
417.5477,3567.253002801057
419.7273,3504.9297962768833
421.9064,3423.6827110954328
424.0848,3321.4094639105497
426.2627,3144.8577371392603
428.4399,2882.6251799844886
430.6166,2549.6594102005965
432.7928,2178.1580167157026
434.9683,1869.7685629613388
437.1432,1614.988590587458
439.3176,1414.81562254633
441.4914,1283.7971656403406
443.6645,1232.330712523726
445.8371,1162.9137430127485
448.0091,1088.7937246003676
450.1806,1034.1681131504101
452.3514,1021.8343536387674
454.5216,1037.7898806996564
456.6913,996.6321187489448
458.8603,1022.558481824608
461.0288,1072.5663739983029
463.1967,1047.153189116103
465.3639,1054.6163102984228
467.5306,1068.4031101941437
469.6967,1099.8109509059923
471.8622,1129.837183852671
474.0271,1172.2291494547771
476.1914,1194.584176834549
478.3551,1168.7995833919267
480.5182,1235.2226745810185
482.6807,1309.6507441679514
484.8426,1459.2810735666171
487.0039,1762.4109310944095
489.1647,2139.0375704759226
491.3248,2462.1082278116464
493.4843,2621.6701178116964
495.6432,2540.770430565117
497.8015,2416.706329944249
499.9592,2288.8249544137434
502.1163,2119.573418271182
504.2728,1810.248812925909
506.4287,1550.6982085915351
508.5839,1209.8186573791882
510.7386,979.0071958930184
512.8927,822.5608486389974
515.0461,769.2266303330216
517.199,839.0015474653846
519.3512,958.6825988341134
521.5029,1192.0167748472304
523.6539,1394.8510563259224
525.8043,1497.9824121712227
527.9541,1448.7077973356572
530.1033,1295.1241517919207
532.2519,1156.7284010256462
534.3999,1137.1174575712394
536.5472,1212.3382223958124
538.694,1487.2375850953176
540.8401,1803.8124231423208
542.9856,2047.7095991370243
545.1305,2114.1259576415177
547.2748,2027.6083227407908
549.4185,1767.4034973785783
551.5615,1610.4582642225396
553.704,1597.3693882663028
555.8458,1627.3836183989206
557.987,1811.9976875357424
560.1276,1982.458312318302
562.2675,2325.812191268147
564.4069,2728.706003082263
566.5456,3128.036403199507
568.6837,3239.700019771688
570.8212,2864.893449670253
572.958,2269.813257369655
575.0942,1673.4059786954185
577.2299,1285.3181267749478
579.3648,1119.59619800158
581.4992,1074.3866759154826
583.6329,1190.2360328608593
585.766,1364.6907304380566
587.8985,1505.8472183450576
590.0304,1504.851932632946
592.1616,1480.201294294331
594.2922,1364.2917092733078
596.4222,1201.8695687119598
598.5515,1001.131250109458
600.6802,831.0731189462804
602.8083,678.9915306916027
604.9358,651.9328325038678
607.0626,673.3933647516114
609.1888,739.6194612840463
611.3144,856.2074492164575
613.4393,936.7036482679378
615.5636,1022.0543695955257
617.6873,1034.3559149892226
619.8103,943.2045760184938
621.9327,778.996633909248
624.0544,637.0283604553551
626.1756,478.89601966072223
628.2961,355.34586915897853
630.4159,280.9741617948039
632.5351,247.87714685941683
634.6537,228.35107083430012
636.7716,218.39217772216944
638.8889,244.49670924222846
641.0056,271.26090492975527
643.1216,253.9810018750759
645.237,226.9032344559073
647.3518,193.32383451016176
649.4659,139.38903160672635
651.5793,83.69505338126328
653.6922,104.48812607555556
655.8043,88.56447509443024
657.9159,73.72032479784502
660.0268,58.20189866010878
662.137,58.20541941834017
664.2466,67.47710922764418
666.3556,44.813189661084834
668.4639,3.3098816169494967
670.5716,24.413405545403293
672.6786,-2.6300181364840682
674.785,-17.82416925578036
676.8907,-21.72280136567315
678.9958,-8.729489955905592
681.1002,-16.897593505442273
683.204,-30.430383285656717
685.3072,-12.03096176096551
687.4097,-38.45212739625822
689.5115,-31.04655846712558
691.6127,-28.166549112411303
693.7132,-67.86408331584425
695.8131,-57.74086367734162
697.9123,-50.447914834629046
700.0109,-31.935684594216582
702.1089,23.19588321205265
704.2061,61.84716378981284
706.3028,128.96853211275084
708.3987,199.26036253608254
710.4941,231.02302812534617
712.5887,296.65689995347566
714.6827,424.21234678318797
716.7761,605.239734410643
718.8688,827.389424389874
720.9608,984.5617722225306
723.0522,1102.0571251363635
725.1429,1149.8258205135207
727.233,1174.7681847155764
729.3224,1187.0345326058468
731.4112,1081.7751672999657
733.4993,931.5403800432377
735.5867,735.1804512632061
737.6735,548.9456520720269
739.7596,394.53624623005453
741.845,260.55249200820435
743.9298,191.69464373203664
746.014,167.91295312158218
748.0974,141.70766997993815
750.1802,151.02904243106605
752.2624,171.52731718185896
754.3439,262.052739428922
756.4247,369.2555526535871
758.5048,564.4859977166725
760.5843,843.794311786447
762.6631,1251.080726386317
764.7413,1827.5954646017472
766.8188,2490.5387370074004
768.8956,3079.060735901987
770.9718,3433.5116286788398
773.0473,3395.091551940677
775.1221,3156.050607955116
777.1962,2854.388865038858
779.2697,2765.756359948111
781.3426,2822.153100895186
783.4147,2962.579068434845
785.4862,3064.83421490032
787.557,2901.118462999055
789.6271,2485.1817047901623
791.6966,1906.2238033215672
793.7654,1314.544596789383
795.8335,917.9939043274826
797.901,655.8215319242972
799.9678,488.5772763883251
802.0339,434.01092796985176
804.0993,394.22227203339935
806.1641,355.4610896033846
808.2282,312.92715776200384
810.2916,205.42025003685194
812.3544,165.59013682624573
814.4164,112.83658647431184
816.4778,153.15936566927667
818.5385,186.80823997101288
820.5986,348.0829734077961
822.658,572.1333281398292
824.7166,864.1090628464826
826.7747,1357.40993048579
828.832,1821.635675374704
830.8886,2208.7360282560767
832.9446,2384.0107016564125
834.9999,2281.4593860148616
837.0545,2072.3817479304653
839.1085,1776.477431187679
841.1618,1504.546058847145
843.2143,1299.2372362047408
845.2662,1119.7005535108892
847.3175,1033.885588023646
849.368,917.3919058040683
851.4179,822.4690625743569
853.467,730.7166048828076
855.5155,657.3840710530221
857.5633,578.8209921014459
859.6105,470.4268924706903
861.6569,405.75129081517116
863.7027,380.44370108503244
865.7478,338.70363317291776
867.7922,327.83059316703293
869.8359,328.9740837685531
871.8789,403.38360440035285
873.9212,459.65865119556656
875.9629,572.2487162535035
878.0039,729.1532870768933
880.0441,822.7718454459882
882.0837,896.3038658495061
884.1226,910.0988145484571
886.1609,922.2061488408108
888.1984,1028.9253169235508
890.2352,1115.4557577715987
892.2714,1160.8469000706373
894.3069,1130.4481613517855
896.3416,1000.3089475377001
898.3757,874.1286532465656
900.4091,787.6066630934747
902.4418,798.092352952237
904.4739,843.1350908206023
906.5052,894.1842367153968
908.5358,878.7391422221099
910.5658,734.4491499843934
912.595,540.213593858507
914.6236,347.8318003562308
916.6515,226.95309058720886
918.6786,169.72678218277179
920.7051,182.80219050472442
922.7309,252.2786292176097
924.756,278.90541015795316
926.7804,363.1818426395039
928.8041,397.85723318696
930.8272,449.4808846932028
932.8495,433.40209607255747
934.8711,441.1701617445342
936.892,374.28437179463435
938.9123,361.89401189666023
940.9318,347.29836398157204
942.9506,342.54670636139053
944.9688,291.1383138751644
946.9862,231.47245793648472
949.003,103.19840704756461
951.019,37.115427395896404
953.0344,25.12278413699096
955.0491,16.969742055214738
957.063,31.955565683703753
959.0763,155.32951938589758
961.0888,181.59086720569212
963.1007,239.33887163368854
965.1119,293.27279334458217
967.1223,308.8418906196912
969.1321,289.6454188076041
971.1412,291.73263016849523
973.1495,306.60277406608475
975.1572,320.7050969467746
977.1641,370.3388421909367
979.1704,337.05324997189746
981.1759,366.04755675959314
983.1808,374.87099565343306
985.1849,401.1727960923581
987.1884,504.4021837666005
989.1911,606.958380354672
991.1932,723.8906024910648
993.1945,758.4980607406887
995.1951,717.6799584295586
997.1951,690.1354912987026
999.1943,641.413847912354
1001.1928,678.7142099333942
1003.1906,707.5857526105756
1005.1877,806.6276444055075
1007.1841,894.4390467039466
1009.1798,948.3191128253729
1011.1748,852.0169871448797
1013.1691,693.8318045543747
1015.1627,485.1626914256067
1017.1556,333.30876719201115
1019.1477,204.01914643540476
1021.1392,122.6429404045175
1023.1299,99.7792583078899
1025.12,103.32720812763728
1027.1093,180.3358968480934
1029.0979,312.10443042031875
1031.0859,391.43191299202226
1033.0731,435.9174455898665
1035.0596,377.91012532620334
1037.0454,292.85904495421346
1039.0304,206.6132934479865
1041.0148,70.8719568530305
1042.9985,23.834119148723403
1044.9814,-31.101136394274363
1046.9636,-71.28472674364275
1048.9452,-66.36725816671242
1050.926,-27.348624796395598
1052.9061,-1.7280577566998545
1054.8855,26.04548504113336
1056.8642,47.62306294915106
1058.8421,132.90573505894827
1060.8194,155.8445599858951
1062.7959,238.240595016312
1064.7717,315.54489587807075
1066.7469,379.0585159166458
1068.7213,429.9325053220564
1070.695,528.3179104937517
1072.6679,533.0157735318517
1074.6402,555.8771312533136
1076.6117,531.253015144941
1078.5826,470.8944511347672
1080.5527,358.20245983830137
1082.5221,295.2780571621024
1084.4908,318.97225543072454
1086.4587,375.8860640159364
1088.426,405.2704890997884
1090.3925,423.37653310547466
1092.3584,469.20519440349926
1094.3235,473.8074671305967
1096.2879,531.534340731454
1098.2515,646.5867999126804
1100.2145,825.1658240655543
1102.1767,993.4223861154805
1104.1382,1194.307450736209
1106.099,1477.4719726672756
1108.0591,1679.0668947051345
1110.0185,1860.293144871528
1111.9771,1942.3016343975214
1113.9351,1854.3432559112553
1115.8923,1697.0688826178593
1117.8488,1533.1293691790306
1119.8045,1338.275553285781
1121.7596,1238.658257297836
1123.7139,1112.0782901921757
1125.6675,1077.8864485591948
1127.6204,1119.2335178685098
1129.5726,1078.620272810882
1131.524,1028.4974768847414
1133.4748,889.7158828023139
1135.4248,743.4262329908579
1137.3741,633.029260980471
1139.3226,535.0256928669951
1141.2705,476.3662484159822
1143.2176,410.2516420427328
1145.164,384.5825833988929
1147.1097,335.5097780335982
1149.0546,247.98392765015615
1150.9989,153.60573059678336
1152.9424,84.37588274185691
1154.8852,-7.854921582294082
1156.8272,-50.58598888709821
1158.7686,-51.466547213319245
1160.7092,-40.39531924769835
1162.6491,6.729486473829638
1164.5883,100.51006496456648
1166.5267,200.24861117052296
1168.4644,393.7473190326191
1170.4014,580.5083804892911
1172.3377,855.8339835415018
1174.2732,1137.5763103851405
1176.2081,1549.237534657752
1178.1421,2049.7198186211226
1180.0755,2535.9253090446673
1182.0082,2869.306132200608
1183.9401,3042.014389001911
1185.8713,2939.5021516684947
1187.8017,2630.9214620001276
1189.7315,2280.574332401562
1191.6605,1914.6627489683424
1193.5888,1636.188674990267
1195.5163,1488.95405461052
1197.4432,1393.0608156103954
1199.3693,1342.5608708816499
1201.2947,1335.2561193854408
1203.2193,1316.5484466573153
1205.1432,1328.7897248802647
1207.0664,1299.7818130717988
1208.9889,1281.17655696153
1210.9106,1304.3257892812599
1212.8316,1307.5313299510208
1214.7519,1339.9949858475984
1216.6715,1376.9185507724624
1218.5903,1475.2538051271358
1220.5084,1540.302515543961
1222.4257,1619.3664339027364
1224.3424,1673.6972966802487
1226.2583,1785.9968241596125
1228.1735,1931.5167198869876
1230.0879,2075.6586695485594
1232.0016,2264.324339515352
1233.9146,2371.665375401809
1235.8269,2398.483400179128
1237.7384,2356.480013101863
1239.6492,2247.956789439737
1241.5592,2203.4152808976705
1243.4686,2249.4570167010224
1245.3772,2423.9335040409997
1247.285,2576.9462276142403
1249.1922,2774.4466478780487
1251.0986,2922.5861995202695
1253.0042,2973.6662894842857
1254.9092,3079.888295487617
1256.8134,3180.30356551113
1258.7169,3341.863416736808
1260.6196,3535.1691345436084
1262.5216,3761.1219708918516
1264.4229,3974.3231423901734
1266.3234,4163.973828035996
1268.2232,4320.425167083511
1270.1223,4380.678257147176
1272.0207,4430.584152637202
1273.9183,4409.34386415703
1275.8151,4354.20835800425
1277.7113,4378.77855638302
1279.6067,4424.35533795542
1281.5014,4626.739537595737
1283.3953,4965.981945934715
1285.2885,5434.633307335704
1287.181,5874.094316502233
1289.0727,6340.815613791507
1290.9637,6629.947780819788
1292.854,6859.141335795182
1294.7435,6886.2467306263225
1296.6323,6840.664348630428
1298.5204,6727.494504262249
1300.4077,6615.737443569904
1302.2943,6400.343345326556
1304.1802,6174.012322148009
1306.0653,5776.344422646634
1307.9497,5365.539633694682
1309.8333,4969.5478844009685
1311.7162,4704.36905021891
1313.5984,4553.902956906448
1315.4798,4427.449383177833
1317.3605,4358.758062208285
1319.2405,4285.578682898543
1321.1197,4036.9608905617606
1322.9982,3785.80428765531
1324.876,3553.108436266959
1326.753,3326.1228606264394
1328.6293,3114.1470494324003
1330.5048,3000.930458122264
1332.3796,2866.422510991986
1334.2537,2771.6226023282243
1336.127,2718.130097753411
1337.9996,2714.2443351737575
1339.8714,2724.214625314181
1341.7426,2716.5402517571565
1343.6129,2759.620470843025
1345.4826,2776.304511746721
1347.3515,2797.741576046984
1349.2196,2802.280837559505
1351.087,2827.371442122567
1352.9537,2915.662507551653
1354.8197,3024.6531233885325
1356.6849,3227.742350018354
1358.5493,3365.6792175797364
1360.4131,3546.0627239338746
1362.276,3660.5918332851797
1364.1383,3691.6654743774325
1365.9998,3513.532539348509
1367.8606,3197.1418834196247
1369.7206,2856.792326676683
1371.5799,2557.082657234162
1373.4384,2325.3116346386287
1375.2962,2105.327992865813
1377.1533,1781.430442638335
1379.0096,1457.017673625538
1380.8652,1144.0383576824643
1382.7201,880.291152093987
1384.5742,646.6247027046047
1386.4275,477.53764655590476
1388.2802,358.32861422323276
1390.132,234.84623150655898
1391.9832,211.4391206225646
1393.8336,126.20590143947265
1395.6832,95.74519171111115
1397.5322,68.50560792925535
1399.3803,38.635765628228
1401.2278,42.28427965730316
1403.0745,57.699764479396435
1404.9204,54.83083413458826
1406.7656,92.47610208596325
1408.6101,135.4841812482946
1410.4538,172.65368361160654
1412.2968,237.73321981107892
1414.139,311.92139875535577
1415.9805,426.5668269757498
1417.8213,482.9681078843605
1419.6613,605.1738406276245
1421.5006,770.2326195222986
1423.3391,1011.4430328334038
1425.1769,1302.753661123642
1427.0139,1758.7130748412837
1428.8502,2317.5698314070714
1430.6858,2875.7724706546196
1432.5206,3292.7695092418453
1434.3547,3519.109435068942
1436.188,3568.390703108412
1438.0206,3494.161733141671
1439.8524,3369.3709092662266
1441.6835,3278.6165806379777
1443.5139,3218.0470627191135
1445.3435,3157.8606381856625
1447.1724,3144.655557533183
1449.0005,3132.6300396786346
1450.8279,3060.332272092417
1452.6545,3074.2604109186314
1454.4804,3089.2125816980633
1456.3056,3129.336879228892
1458.13,3074.48136741718
1459.9536,2931.5940788756197
1461.7766,2672.523015472094
1463.5987,2350.116149758547
1465.4202,2046.9714275617007
1467.2409,1705.4867712071045
1469.0608,1477.3600825506091
1470.88,1192.7892463931912
1472.6984,1009.9221327622381
1474.5161,821.6065997572414
1476.3331,716.0404953784773
1478.1493,586.2716594101594
1479.9648,504.94792447609507
1481.7795,473.71711733738084
1483.5935,410.3270597056362
1485.4067,391.0755685553131
1487.2192,343.81045675759833
1489.031,332.8795332729178
1490.842,330.6306036236001
1492.6522,296.3114700031829
1494.4618,272.31993129889815
1496.2705,278.10378343487173
1498.0785,249.36081961203217
1499.8858,238.58883025026898
1501.6924,211.98560327586802
1503.4981,187.39892422923276
1505.3032,166.57657653091246
1507.1075,146.3663417274729
1508.911,124.41599969971139
1510.7138,97.12332886476815
1512.5159,85.53610639562521
1514.3172,64.35210849403938
1516.1178,39.9191105064092
1517.9176,33.43488713561328
1519.7166,17.64721268534413
1521.515,-3.196138875052384
1523.3126,-15.897393752703465
1525.1094,-30.50874622531137
1526.9055,-26.182231755620705
1528.7008,-47.969581024001855
1530.4954,-47.022263150335675
1532.2893,-47.991268038386806
1534.0824,-63.477115839517865
1535.8747,-19.029847272321604
1537.6663,-17.49886891900951
1539.4572,-18.533397253618205
1541.2473,25.667526063513833
1543.0367,45.70504452068417
1544.8253,46.73030134951841
1546.6132,100.6944393245958
1548.4003,128.79860075319175
1550.1867,217.54392693564387
1551.9723,294.83155788430577
1553.7572,394.1126314360936
1555.5414,508.6882824796139
1557.3247,679.0096419623469
1559.1074,862.8778357448937
1560.8893,1044.0939828977616
1562.6705,1177.7091938626772
1564.4509,1312.5745686404362
1566.2305,1410.8411954547391
1568.0094,1494.5101494035453
1569.7876,1469.3824914764018
1571.565,1496.25926771776
1573.3417,1491.1915094782416
1575.1176,1488.0302331458815
1576.8928,1514.2764401968034
1578.6672,1510.5311172268284
1580.4409,1526.695235689016
1582.2138,1567.5197519311141
1583.986,1615.155607033923
1585.7575,1685.5037264030452
1587.5282,1744.3150192925268
1589.2981,1884.0903781013822
1591.0673,1970.9806777854728
1592.8358,2070.4367744597603
1594.6035,2203.7595045294074
1596.3704,2301.549683695207
1598.1366,2421.3581056203657
1599.9021,2506.6855409525942
1601.6668,2612.9827361260213
1603.4308,2777.250412507924
1605.194,2966.739265335753
1606.9564,3217.499962074463
1608.7182,3458.28314052162
1610.4791,3754.539406299794
1612.2394,4061.319330448725
1613.9988,4370.673446462757
1615.7576,4669.702247223052
1617.5156,4880.356181904028
1619.2728,4974.085652983092
1621.0293,4947.49101413409
1622.785,4786.422569290013
1624.54,4494.630572908948
1626.2942,4159.215231584757
1628.0477,3793.626706964994
1629.8005,3474.2151191050652
1631.5525,3189.7305501241035
1633.3037,2918.0230473990987
1635.0542,2727.692626409732
1636.804,2565.33927345546
1638.553,2458.562947558815
1640.3013,2444.163582088938
1642.0488,2390.8410858293455
1643.7955,2456.6953431219245
1645.5416,2535.076214400149
1647.2868,2667.533535530546
1649.0313,2755.067117028878
1650.7751,2912.826742735572
1652.5181,3100.6121689403917
1654.2604,3256.9731228048277
1656.0019,3516.859300484255
1657.7427,3802.17036556432
1659.4828,4097.555946462076
1661.222,4265.365633572873
1662.9606,4231.048976316508
1664.6984,3995.50548145912
1666.4354,3607.0346134563615
1668.1717,3076.7857968088347
1669.9072,2526.2084199467986
1671.642,2063.2018405326544
1673.3761,1726.0153909667201
1675.1094,1396.798383017298
1676.8419,1160.8001111925387
1678.5737,974.4198560326108
1680.3048,812.3068864696806
1682.0351,698.5104616917229
1683.7646,603.8298327636435
1685.4934,529.7642437652471
1687.2215,486.3629327380386
1688.9488,418.82513242588357
1690.6754,366.0000707090153
1692.4012,336.08697127942287
1694.1263,296.78505416909775
1695.8506,271.6435360491623
1697.5742,262.31163062289124
1699.297,219.2385488771274
1701.0191,182.92349917559613
1702.7404,173.26568768964125
1704.461,139.56431876137003
1706.1808,147.1685950002343
1707.8999,119.4777176200464
1709.6182,122.49088636293118
1711.3358,114.75729977623723
1713.0527,89.77615518240782
1714.7688,74.59664875631643
1716.4841,75.71797577507505
1718.1987,70.93933076983149
1719.9126,77.70990751455793
1721.6257,61.228899073831144
1723.338,65.9954977351349
1725.0496,67.95889517366459
1726.7605,57.018282404664205
1728.4706,49.67284976379233
1730.18,37.02178701652156
1731.8886,58.96428343159914
1733.5964,50.44952790755724
1735.3036,47.176708753285766
1737.0099,57.74501377318256
1738.7156,31.353630299877295
1740.4204,9.451745088552343
1742.1246,7.488544580855432
1743.8279,5.063215123917416
1745.5306,10.424942989988267
1747.2325,-10.777085599313523
1748.9336,-5.0936845266137425
1750.634,-24.175560011456582
1752.3336,-16.82336738747881
1754.0325,-19.03752047447324
1755.7307,-11.018265026795234
1757.4281,-5.8656566139729875
1759.1247,2.8203592669333375
1760.8206,0.28989571676902415
1762.5158,17.89306580818038
1764.2102,-1.670017389084478
1765.9039,-11.699240984205062
1767.5968,-7.1444754028902935
1769.289,12.944525804567093
1770.9804,-3.781919538818329
1772.6711,-0.6234937394747249
1774.361,6.820158677542167
1776.0502,22.59939941587936
1777.7386,19.214590110986137
1779.4263,14.166092172317803
1781.1132,23.204266817184816
1782.7994,16.32947512123883
1784.4849,15.792077928089384
1786.1696,15.892435918053252
1787.8535,44.630909613526455
1789.5367,35.45785937798337
1791.2192,47.42364512859103
1792.9009,26.728626427939616
1794.5818,42.37316236438164
1796.2621,30.85761175898506
1797.9415,37.932333009088325
1799.6202,31.997684203454355
1801.2982,54.204023051529475
1802.9755,56.001706942785404
1804.6519,66.84109272465776
1806.3277,60.17253668456851
1808.0027,43.146394441535904
1809.6769,56.91302101285601
1811.3504,57.37277098436334
1813.0231,52.57599837276621
1814.6951,62.62305662104609
1816.3664,75.7642986464275
1818.0369,80.90007673990476
1819.7067,84.28074243482979
1821.3757,71.40664645555444
1823.044,94.32813868362564
1824.7115,88.9955682865234
1826.3783,91.00928348845127
1828.0443,88.96963162365637
1829.7096,103.92695911629608
1831.3741,96.4816115008316
1833.0379,105.58393327245722
1834.701,102.33426796155209
1836.3633,110.13295804265908
1838.0248,101.83034496697655
1839.6856,114.3767690843788
1841.3457,115.4225697264369
1843.005,121.46808508095683
1844.6636,129.0636521815186
1846.3214,137.50960684702432
1847.9785,125.70628360574074
1849.6349,129.45401561083918
1851.2904,144.80313475842922
1852.9453,150.90397165008426
1854.5994,139.20685543934587
1856.2528,152.9121137707175
1857.9054,144.97007289663588
1859.5572,155.1810575404179
1861.2083,158.94539097568259
1862.8587,159.06339492423876
1864.5084,162.83538951844412
1866.1572,160.51169330002267
1867.8054,166.4426231823477
1869.4528,158.1784944736769
1871.0994,162.81962081784286
1872.7453,168.866314276896
1874.3905,172.06888528469108
1876.0349,178.27764258641992
1877.6786,165.64289320658918
1879.3215,178.2649423869293
1880.9637,183.8940937127427
1882.6051,182.28064898668526
1884.2458,185.4249081724697
1885.8858,176.92716941100616
1887.525,183.9877289889555
1889.1634,179.2568814237079
1890.8011,176.43491939277646
1892.4381,172.77213378110673
1894.0743,176.46881370929714
1895.7098,169.17524657022568
1897.3446,171.84171799208252
1898.9786,177.61851191130927
1900.6118,185.50591054592996
1902.2443,176.35419433778725
1903.8761,187.81364187366353
1905.5071,177.58452997680206
1907.1374,192.76713359231144
1908.7669,175.51172588945565
1910.3957,192.76857810982847
1912.0237,179.78795973990782
1913.651,176.42013833848796
1915.2776,192.3153796664842
1916.9034,171.57394772061025
1918.5285,176.14610457442768
1920.1528,164.4821105857577
1921.7764,182.98222435096295
1923.3992,183.2967028215853
1925.0213,158.57580111934612
1926.6427,176.369772532998
1928.2633,169.97886876553684
1929.8832,181.80333975626036
1931.5023,169.34343374467926
1933.1207,164.64939715227183
1934.7383,173.22147470708524
1936.3552,161.35990949067218
1937.9714,154.31494285237204
1939.5868,160.23681452792562
1941.2015,161.77576270992677
1942.8154,146.5320239886023
1944.4286,157.4558333364198
1946.041,144.39742426052817
1947.6528,151.95702869352044
1949.2637,149.93487712401338
1950.8739,142.2811985210542
1952.4834,147.69622035434259
1954.0921,143.03016867076758
1955.7001,136.23326804025692
1957.3074,153.2057416024354
1958.9139,138.09781113459894
1960.5197,134.60969688198475
1962.1247,146.2416177088544
1963.729,117.64379113337418
1965.3325,129.21643321129432
1966.9353,132.95975882193034
1968.5374,126.77398155243282
1970.1387,137.15931366035556
1971.7393,129.71596613551355
1973.3392,123.6441485961318
1974.9383,113.74406936327523
1976.5366,110.51593552156737
1978.1342,121.50995301819194
1979.7311,121.77632669517425
1981.3273,131.01526017944298
1982.9227,123.9769558801645
1984.5173,118.11161489635379
1986.1112,113.8194370872584
1987.7044,111.10062113101094
1989.2968,107.60536456755062
1990.8885,122.88386382580984
1992.4795,122.78631425866888
1994.0697,118.41290999017065
1995.6592,112.71384391649303
1997.2479,105.43930774968703
1998.8359,122.0894920746664
2000.4232,116.71458642195284
2002.0097,111.61477910117424
2003.5955,112.2902572548137
2005.1805,125.04120690920854
2006.7648,118.01781296779654
2008.3484,122.67025908360142
2009.9312,118.5487277294717
2011.5133,120.30340015155298
2013.0946,110.88445641050362
2014.6752,112.29207536395006
2016.2551,116.6264347606741
2017.8342,114.68771122653766
2019.4126,115.37608022114023
2020.9902,114.59171605720235
2022.5672,106.13479189368695
2024.1433,113.55547974363844
2025.7188,98.10395055875551
2027.2935,113.63037415518215
2028.8674,112.63491936802325
2030.4406,103.46775389608206
2032.0131,105.47904431181314
2033.5849,107.36895615299454
2035.1559,122.78765390261447
2036.7261,108.38530096997306
2038.2957,108.31205953649555
2039.8645,100.06809069975452
2041.4325,123.90355447420484
2042.9998,107.51860987362079
2044.5664,115.4134146727431
2046.1323,114.63812557112783
2047.6974,109.9428981141973
2049.2617,116.0278867009938
2050.8254,111.09324463112989
2052.3883,106.28912404394168
2053.9504,125.26567596783275
2055.5118,103.72305036831517
2057.0725,103.1113959582467
2058.6325,102.93086041325432
2060.1917,102.78159037785326
2061.7502,117.86373146725032
2063.3079,117.77742826883741
2064.8649,119.12282419136977
2066.4212,109.20006146582796
2067.9767,100.25928113196687
2069.5315,103.70062313754192
2071.0856,94.72422642771767
2072.6389,95.83022891065298
2074.1915,100.86876754726427
2075.7433,87.13997834016686
2077.2945,96.7439962832882
2078.8448,87.43095549915665
2080.3945,89.35098914286118
2081.9434,94.65422949518188
2083.4916,91.24080794338988
2085.039,91.11085492821394
2086.5857,85.51449997797636
2088.1317,90.30187170989234
2089.677,89.32309788603266
2091.2215,96.62830536545039
2092.7652,81.76762011396863
2094.3083,94.4411671311284
2095.8506,90.39907059879442
2097.3921,98.14145375442013
2098.933,86.01843893146997
2100.4731,90.68014748199266
2102.0124,91.07669989785404
2103.5511,104.20821576411822
2105.089,95.92481375508464
2106.6261,97.32661150297122
2108.1626,96.3137256807479
2109.6983,94.73627198811914
2111.2332,103.0443651616531
2112.7675,98.13811899055531
2114.301,95.567646233588
2115.8337,90.6330586681338
2117.3657,98.08446711590113
2118.897,91.57198149226747
2120.4276,97.44571073176712
2121.9575,88.90576285321436
2123.4866,100.25224490096775
2125.0149,91.73526303032759
2126.5426,99.65492239407376
2128.0695,83.56132722763391
2129.5956,88.05458076988725
2131.1211,84.0347854241013
2132.6458,93.05204271299749
2134.1698,97.1564533189503
2135.693,94.14811699381517
2137.2155,85.977132517884
2138.7373,81.24359772996877
2140.2584,96.7976096091104
2141.7787,84.23926432191479
2143.2983,91.46865706701237
2144.8171,81.63588220064116
2146.3353,85.94103316435371
2147.8527,96.3342025833449
2149.3693,97.46548222339857
2150.8853,86.73496288695765
2152.4005,85.89273440181091
2153.9149,77.5888857283976
2155.4287,92.02350496823124
2156.9417,85.89667944693565
2158.454,93.1584955699011
2159.9655,92.00903888355106
2161.4764,79.64839400272376
2162.9865,75.27664462216785
2164.4958,78.19387364014801
2166.0045,74.55016320216305
2167.5124,83.59559467177337
2169.0195,75.83024866703818
2170.526,87.40420497006153
2172.0317,93.06754260464663
2173.5367,82.97033972055397
2175.0409,82.46267353687085
2176.5445,85.14462044298148
2178.0473,78.9162560036441
2179.5494,64.72765493217162
2181.0507,79.7288911527146
2182.5513,81.02003794214761
2184.0512,74.45116778005831
2185.5504,86.32235233583356
2187.0488,75.13366253434947
2188.5465,70.33516843725783
2190.0435,70.07693935487487
2191.5397,78.95904389416546
2193.0353,81.9315499613258
2194.5301,68.0445246729621
2196.0241,72.6480343263654
2197.5175,77.84214453838172
2199.0101,76.3269201993769
2200.502,78.35242542129595
2201.9931,79.61872355281594
2203.4835,77.17587715909076
2204.9733,62.12394800908737
2206.4622,69.66299710001363
2207.9505,68.6430848078387
2209.438,65.76427081190127
2210.9248,71.52661410511041
2212.4109,63.28017302273247
2213.8962,65.82500518476968
2215.3809,50.26116757842237
2216.8648,68.23871653264132
2218.3479,62.75770787376655
2219.8304,60.01819674575154
2221.3121,56.87023766497168
2222.7931,60.01388454762218
2224.2733,63.39919074119621
2225.7529,55.426208993048476
2227.2317,54.99499141654405
2228.7098,67.4055895707852
2230.1872,60.45805446492659
2231.6638,53.25243643406816
2233.1397,42.93878520872886
2234.6149,48.017149986904315
2236.0894,58.787579537202646
2237.5632,54.7501221480602
2239.0362,48.7548255200395
2240.5085,60.30173680620146
2241.9801,54.04090267205902
2243.4509,41.12236918010831
2244.921,56.14618185243785
2246.3904,37.262385799913545
2247.8591,43.521025571940754
2249.3271,45.82214534530249
2250.7943,40.865788861571446
2252.2608,39.10199940409939
2253.7266,29.38081984758037
2255.1917,45.05229267569007
2256.656,35.41646007829695
2258.1197,34.573363794745774
2259.5826,38.42304521021697
2261.0447,37.96554536415829
2262.5062,41.20090491178712
2263.9669,37.779164128665116
2265.4269,49.60036287834782
2266.8862,38.11454064659938
2268.3448,34.521736423181665
2269.8026,38.37198881671088
2271.2598,39.31533609058715
2272.7162,48.301816124492234
2274.1719,39.33146640495488
2275.6268,43.80432393548631
2277.0811,37.770425326283885
2278.5346,48.079806749502495
2279.9874,43.0325039995912
2281.4395,41.37855239020223
2282.8908,49.86798680466177
2284.3414,46.4508417125121
2285.7914,46.127151084616116
2287.2406,39.49694842732947
2288.689,42.210266785737986
2290.1368,47.717138809958215
2291.5838,43.01759672800608
2293.0302,55.26167229072621
2294.4758,42.599396818787454
2295.9206,46.780801080241645
2297.3648,35.3059154171483
2298.8082,52.32476970375819
2300.251,49.137393461263855
2301.693,35.74381568761078
2303.1343,47.99406488937143
2304.5748,44.288169215680455
2306.0147,50.07615633573232
2307.4538,52.50805347583969
2308.8922,48.78388736155512
2310.3299,48.803684193351046
2311.7669,43.717469683861964
2313.2031,45.975269057685864
2314.6387,44.92710710224719
2316.0735,41.923008145217864
2317.5076,50.312996064999425
2318.941,46.497094320762926
2320.3737,40.62532586855082
2321.8056,49.4477131994347
2323.2369,41.26427839823327
2324.6674,50.62504305528887
2326.0972,46.53002834830113
2327.5263,46.77925494871943
2328.9547,41.72274306269355
2330.3823,48.11051242858116
2331.8092,39.69258236751193
2333.2355,32.4689717195115
2334.661,48.589698927679365
2336.0858,41.00478211042491
2337.5098,55.26423890026217
2338.9332,50.5180865196578
2340.3558,42.41634163843605
2341.7778,56.60902042123962
2343.199,50.69613860854747
2344.6195,53.17771137475074
2346.0393,45.20375338727763
2347.4583,48.72427878178178
2348.8767,34.089301241879184
2350.2943,53.79883396394371
2351.7113,50.55288980345699
2353.1275,58.85148107791201
2354.543,60.79461959927448
2355.9578,68.38231659099574
2357.3718,56.91458266858149
2358.7852,49.391427763715
2360.1978,50.412861238934966
2361.6098,51.27889196286651
2363.021,58.93952830000501
2364.4315,51.39477810205835
2365.8413,51.844648631339396
2367.2504,60.23914663621372
2368.6587,49.42827834659943
2370.0664,53.762049390024
2371.4733,47.09046489973264
2372.8795,58.11352947134981
2374.285,46.981247229595624
2375.6899,57.49362171805558
2377.0939,51.20065601050169
2378.4973,39.252352605770284
2379.9,45.098713490692035
2381.3019,44.289740259575865
2382.7032,57.07543405574438
2384.1037,50.10579557962342
2385.5035,52.580824960884
2386.9027,45.60052182814184
2388.3011,49.114885284203865
2389.6987,46.87391397587248
2391.0957,43.87760605880146
2392.492,42.725959219906144
2393.8876,26.768970707326957
2395.2824,46.35663734194577
2396.6765,44.788955676955766
2398.07,37.11592180198352
2399.4627,37.887531358768
2400.8547,42.45377961788779
2402.246,47.41466147104779
2403.6366,39.47017138541571
2405.0265,43.47030335401473
2406.4156,40.96505097516706
2407.8041,38.304407412490946
2409.1918,44.78836541995554
2410.5789,39.516917368484656
2411.9652,33.49005518111858
2413.3508,42.40777038572844
2414.7358,39.670054175283894
2416.12,45.776897318675765
2417.5035,45.97829018809159
2418.8863,39.324222697950404
2420.2684,44.26468430288901
2421.6497,45.29966406430242
2423.0304,44.52915060093915
2424.4104,39.60313207855131
2425.7896,38.62159621760111
2427.1682,33.53453034251936
2428.546,44.591921391521396
2429.9232,34.54375596747718
2431.2996,38.49002022733805
2432.6753,40.93069998261785
2434.0503,40.76578065993044
2435.4246,45.395247276582495
2436.7982,38.069084442223584
2438.1711,48.387276312551194
2439.5433,48.24980666257284
2440.9148,39.80665878342302
2442.2856,38.95781548373884
2443.6557,30.403259174090635
2445.025,41.44297187547136
2446.3937,37.22693530484128
2447.7617,29.605130764731484
2449.1289,46.72753918540366
2450.4955,42.844141201068624
2451.8613,42.25491697866198
2453.2265,39.15984625667909
2454.5909,41.80890835106641
2455.9546,49.3520821861722
2457.3177,31.789346268256168
2458.68,43.17067861005705
2460.0416,46.646056906420654
2461.4025,52.46545842048647
2462.7627,45.92885994893345
2464.1222,48.086237763786244
2465.4811,49.88756767778182
2466.8392,50.33282502279417
2468.1966,52.5219846318231
2469.5533,54.25502083454023
2470.9093,55.58190743539808
2472.2645,60.6026176962996
2473.6191,50.41712432332952
2474.973,49.175399416546384
2476.3262,63.17741457183831
2477.6787,48.32314089333954
2479.0305,52.66254885341016
2480.3816,55.645608441179434
2481.7319,60.572289119152174
2483.0816,66.09255979337718
2484.4306,56.30638876418084
2485.7789,53.56374367096396
2487.1264,57.7645915900639
2488.4733,49.65889906218126
2489.8195,51.44663205037125
2491.165,58.42775602110021
2492.5097,51.7522359263686
2493.8538,52.27003613389945
2495.1972,48.33112049389376
2496.5398,52.23545233385232
2497.8818,65.73299449796593
2499.2231,50.22370930807085
2500.5637,44.45755842867425
2501.9035,45.53450302204658
2503.2427,50.40450380588277
2504.5812,46.3675210425331
2505.919,51.67351449030309
2507.256,50.32244344382332
2508.5924,54.264266680989635
2509.9281,55.39894247647362
2511.2631,64.37642856230468
2512.5974,57.246682116523175
2513.9309,56.50965967340494
2515.2638,48.815317194759814
2516.596,54.06361007730095
2517.9275,51.804493229588616
2519.2583,61.73792101954757
2520.5884,47.7138472970571
2521.9178,55.132225294617456
2523.2465,53.59300776759096
2524.5745,57.896146920017486
2525.9018,56.291594420008096
2527.2284,55.9293013567119
2528.5543,60.40921825636258
2529.8796,64.33129508590116
2531.2041,67.09548120817658
2532.5279,64.1017253427251
2533.851,62.94997553812948
2535.1735,65.44017920195438
2536.4952,59.72228311226536
2537.8163,63.59623339272673
2539.1366,64.81197556978009
2540.4562,62.169454533905196
2541.7752,69.01861452746255
2543.0935,70.15939917111905
2544.411,67.19175139535514
2545.7279,74.51561342905848
2547.0441,74.63092682919876
2548.3596,74.03763240758997
2549.6744,68.0356702297371
2550.9885,72.22497962076955
2552.3019,76.85549922546
2553.6146,75.97716696633177
2554.9266,83.7899199973532
2556.2379,71.94369471272114
2557.5485,73.73842666873361
2558.8585,82.57405070225104
2560.1677,79.10050091275036
2561.4762,77.16771057396807
2562.7841,69.92561216863555
2564.0913,79.42413740780796
2565.3977,82.86321730328484
2566.7035,80.94278207262448
2568.0086,80.56276110475346
2569.313,85.07308297917007
2570.6167,92.27367546974585
2571.9197,89.81446549962163
2573.222,79.29537906920143
2574.5236,81.31634128074529
2575.8246,90.12727644355925
2577.1248,88.42810805378656
2578.4244,88.86875870629774
2579.7232,99.19915011168291
2581.0214,88.01920309184425
2582.3189,104.77883747669307
2583.6157,93.12797221594906
2584.9118,98.41652521154322
2586.2072,103.24441343412809
2587.5019,102.61155287019028
2588.7959,97.66785847377355
2590.0893,105.2132441728063
2591.3819,105.94762291853817
2592.6739,104.87090661008745
2593.9652,106.88300608709596
2595.2557,116.73383114049705
2596.5456,112.47329049239465
2597.8348,108.70129169755455
2599.1234,109.31774118601015
2600.4112,114.47254430078192
2601.6983,113.61560529171322
2602.9848,113.39682726392255
2604.2705,119.21611218637258
2605.5556,118.67336089405785
2606.84,126.26847302981241
2608.1237,119.60134704973723
2609.4067,111.5718801472483
2610.689,119.37996831974851
2611.9707,120.5255064489221
2613.2516,113.75838822265393
2614.5319,112.02850612357395
2615.8115,107.78575149672861
2617.0903,105.48001456687962
2618.3685,110.96118448093137
2619.6461,107.12914933098887
2620.9229,105.18379609954582
2622.199,114.37501069780399
2623.4745,110.55267798512864
2624.7493,112.31668167713462
2626.0234,111.31690438391047
2627.2968,118.7532275923785
2628.5695,113.0755316762918
2629.8415,104.53369582187133
2631.1128,113.82759808458275
2632.3835,117.4571154745554
2633.6535,115.52212386364283
2634.9228,107.92249794912789
2636.1914,104.658111273072
2637.4593,113.97883629831176
2638.7265,109.88454444110278
2639.9931,109.52510597791252
2641.259,114.40039008636279
2642.5242,118.56026484882511
2643.7887,112.15459720366698
2645.0525,113.73325290365415
2646.3156,108.29609658000663
2647.5781,109.2929917266124
2648.8398,104.67380075439883
2650.1009,107.83838498136356
2651.3613,117.336604678767
2652.6211,116.01831903948539
2653.8801,113.38338608302945
2655.1385,102.58166266872706
2656.3961,108.16300452207298
2657.6531,105.12726634274566
2658.9094,109.87430174879347
2660.1651,117.20396330699293
2661.42,116.0661024853772
2662.6743,115.86056957994032
2663.9279,119.68721372601556
2665.1808,114.09588290033071
2666.433,121.28642388274193
2667.6846,130.9586823121462
2668.9354,124.46250261457698
2670.1856,134.59772790648134
2671.4351,134.36420005968154
2672.6839,141.3117596000227
2673.9321,130.59024570970826
2675.1795,138.99949615782424
2676.4263,145.93934740755446
2677.6724,149.20963453208788
2678.9179,151.1101911452206
2680.1626,154.49084936865268
2681.4067,141.35143981298222
2682.6501,143.19179154389934
2683.8928,138.5117322135801
2685.1348,140.96108804228254
2686.3761,134.88968386514796
2687.6168,125.44734310770684
2688.8568,131.983887846593
2690.0961,127.8491389039674
2691.3348,134.14291578215216
2692.5727,122.06503670497841
2693.81,124.2153185548479
2695.0466,128.79357699351283
2696.2826,124.84962644057197
2697.5178,117.2332800276888
2698.7524,131.6443496380304
2699.9863,121.03264598243118
2701.2195,128.79797845528236
2702.452,133.14015524064848
2703.6839,133.55898323461474
2704.9151,140.60426800186457
2706.1456,143.77581377149198
2707.3755,148.67342336654804
2708.6046,153.54689817232656
2709.8331,166.4460380873873
2711.0609,166.57064147482117
2712.2881,178.370505033259
2713.5145,180.29542379562565
2714.7403,191.7451910111406
2715.9654,191.61959812606932
2717.1899,196.11843466922545
2718.4136,223.69148825322708
2719.6367,231.93854452950774
2720.8591,243.8093869125866
2722.0809,252.70379649759707
2723.3019,264.9215519415796
2724.5223,267.1624293745364
2725.7421,267.17620227725456
2726.9611,278.51264145889763
2728.1795,266.7215150568667
2729.3972,269.95258842343753
2730.6142,258.4056242436703
2731.8306,238.9803825030997
2733.0462,227.12662060320469
2734.2612,209.2440935556612
2735.4756,190.58255410087907
2736.6892,176.29175288682768
2737.9022,172.9714386556509
2739.1145,147.8213583865753
2740.3262,141.19125732911334
2741.5372,124.48087925456412
2742.7475,124.58996652231451
2743.9571,111.81826024694254
2745.1661,99.71550029712733
2746.3744,96.93142542336523
2747.582,77.06577337899841
2748.7889,67.96828094805488
2749.9952,63.288684143905016
2751.2008,62.57671830023645
2752.4057,52.382118117850496
2753.61,48.50461767178115
2754.8136,53.29395051324161
2756.0165,43.24984970839898
2757.2188,40.122047790481304
2758.4204,43.360276860218335
2759.6213,36.76426861711934
2760.8215,50.683754327091265
2762.0211,34.968464888398444
2763.22,34.86813069246796
2764.4182,30.082481781042702
2765.6158,24.9112478471842
2766.8127,21.254158283129698
2768.009,24.410942232004004
2769.2045,11.881328624390846
2770.3994,3.465046146764962
2771.5936,8.61182336678769
2772.7872,-4.828611182529471
2773.9801,-5.306529054293378
2775.1723,-5.872153563785162
2776.3639,-6.07565501406043
2777.5548,-10.917145045361451
2778.745,-14.796674602136704
2779.9346,-18.56418556655632
2781.1235,-9.86947200201081
2782.3117,-12.362142515677078
2783.4992,-17.941707118706688
2784.6861,-17.40755232444735
2785.8723,-6.608885408593437
2787.0579,-11.794739745391269
2788.2428,-4.26408268632224
2789.427,-4.365763753417582
2790.6106,4.601410129477131
2791.7935,13.688675652497182
2792.9757,14.797269459762674
2794.1573,20.52842805850787
2795.3382,22.883387807994154
2796.5184,28.263384862199473
2797.698,40.21965514626845
2798.8769,45.00343430271221
2800.0551,62.31595757184493
2801.2327,66.55845974394731
2802.4096,82.4821749861402
2803.5859,93.7383367999605
2804.7615,105.77817786212393
2805.9364,129.35292991196275
2807.1106,145.41382363102866
2808.2842,166.362088407344
2809.4572,184.5989521747931
2810.6294,225.17564120364023
2811.801,246.49337991816037
2812.972,286.25339049087233
2814.1423,317.7068926293614
2815.3119,360.65510317867927
2816.4808,394.7492358068091
2817.6491,449.3905005751832
2818.8167,488.2801035977411
2819.9837,547.1192464945182
2821.15,597.7591260027489
2822.3157,653.9509333884752
2823.4807,703.1458539401488
2824.645,756.9450664067112
2825.8086,803.2497425056465
2826.9716,862.7110463849883
2828.134,904.1301341602729
2829.2957,953.7581533199265
2830.4567,980.7962423110749
2831.617,1010.2955300432628
2832.7767,1028.857135618072
2833.9358,1018.9321680341309
2835.0941,998.3217260014958
2836.2519,994.5768980409018
2837.4089,969.8987626898672
2838.5653,962.4883885401425
2839.7211,946.5968344844898
2840.8761,942.4751497907888
2842.0306,941.6743742609499
2843.1843,969.9455382721328
2844.3374,992.9396627847538
2845.4899,1041.2577590597734
2846.6417,1086.1508284287574
2847.7928,1150.1198618106932
2848.9433,1200.3158392630617
2850.0931,1273.339729342144
2851.2422,1319.0924886010644
2852.3907,1375.1250608595494
2853.5385,1437.4383767464014
2854.6857,1473.1833531391726
2855.8323,1528.0108925410307
2856.9781,1579.6718827233108
2858.1233,1617.7671961772403
2859.2679,1676.1976895973257
2860.4118,1724.7642035004035
2861.555,1772.917561641333
2862.6976,1798.7585705273307
2863.8395,1830.5880189364393
2864.9808,1867.5566776591154
2866.1214,1867.2152991799355
2867.2614,1893.714617307911
2868.4007,1917.1053471799
2869.5393,1930.4881849956148
2870.6773,1948.163807783715
2871.8146,1957.2828732679782
2872.9513,1955.0960196905448
2874.0874,1940.1538657207266
2875.2227,1947.6570104768753
2876.3574,1916.3060336758044
2877.4915,1885.9514955577583
2878.6249,1863.5439371999196
2879.7577,1846.1338808199582
2880.8898,1825.9718300001036
2882.0212,1802.158269861248
2883.152,1801.793667264565
2884.2821,1772.8784710496452
2885.4116,1781.363112038143
2886.5405,1772.6480033229286
2887.6686,1766.4835401832418
2888.7962,1780.5201001718417
2889.923,1780.858043176654
2891.0493,1785.9977112804027
2892.1748,1817.1894287572318
2893.2997,1827.883502021307
2894.424,1838.8802193149024
2895.5476,1843.2798506014547
2896.6706,1884.4326474555994
2897.7929,1904.4388430191734
2898.9145,1932.4486515896879
2900.0355,1931.9622684202664
2901.1559,1976.3298694395448
2902.2756,1985.5016112565381
2903.3946,2031.6776307169612
2904.513,2054.8080448115143
2905.6308,2081.392950214121
2906.7479,2101.132423050625
2907.8643,2139.226518632941
2908.9801,2149.0252712616593
2910.0953,2162.128693845106
2911.2098,2164.1367778013564
2912.3236,2150.4494929271973
2913.4368,2139.866787378048
2914.5494,2120.288587804834
2915.6613,2076.6647994598143
2916.7725,2066.2453063923595
2917.8831,2046.0799718851968
2918.9931,2007.2686385585955
2920.1024,1964.3111285720292
2921.211,1959.8072440122828
2922.319,1953.7567673230312
2923.4264,1948.1094613498774
2924.5331,1934.8150694008568
2925.6391,1899.4733153029106
2926.7445,1924.733903534829
2927.8493,1924.3965195806702
2928.9534,1935.4608296771532
2930.0569,1929.9764808170316
2931.1597,1926.743100638452
2932.2619,1940.4602974797963
2933.3634,1939.5776604120151
2934.4643,1940.6447591014578
2935.5645,1928.9611438186953
2936.6641,1928.8263454278522
2937.763,1891.9898755034424
2938.8613,1858.4012263317154
2939.959,1804.1098712790247
2941.056,1771.2652651277085
2942.1523,1686.266844619009
2943.248,1620.764028781514
2944.3431,1540.0062197811453
2945.4375,1457.5928035761838
2946.5313,1358.5731507248483
2947.6244,1251.5466172094305
2948.7169,1156.3125454264905
2949.8087,1075.520265257122
2950.8999,995.2190950192944
2951.9904,911.5083422757734
2953.0803,849.687304637135
2954.1696,783.7552705988716
2955.2582,732.6115201596032
2956.3462,686.705325480397
2957.4335,657.3359513962066
2958.5202,633.9026558749316
2959.6062,606.654690311113
2960.6916,577.9412997602652
2961.7764,554.5117232113566
2962.8605,544.6151938739426
2963.9439,538.2009394124611
2965.0267,533.4681820451995
2966.1089,519.6661386084346
2967.1905,527.9440206037625
2968.2714,527.2510343361181
2969.3516,523.8363808309963
2970.4312,534.4992558413826
2971.5102,535.7388498818981
2972.5885,535.9043481221727
2973.6662,550.144930374447
2974.7432,550.0597710919195
2975.8196,545.1980392263397
2976.8954,539.9088982288595
2977.9705,537.0915060986509
2979.045,526.545015435797
2980.1188,523.7685734694668
2981.192,504.61132216337876
2982.2645,492.8723982435663
2983.3364,479.80093338994993
2984.4077,443.0960543537268
2985.4783,427.3568830880847
2986.5483,406.4825371152516
2987.6177,373.9721296838866
2988.6864,348.62476997782386
2989.7545,317.4395634411768
2990.8219,292.96561203181113
2991.8887,269.00201453319687
2992.9548,230.9478667991482
2994.0204,205.2022619934594
2995.0852,183.86429097044663
2996.1495,158.8330425324031
2997.2131,133.85760364298005
2998.276,116.0370596774984
2999.3383,101.42049467270306
3000.4,82.00699150496837
3001.4611,74.19563203646373
3002.5215,55.03549730928887
3003.5812,40.475667623586844
3004.6404,37.86522272914647
3005.6989,24.153241970999716
3006.7567,22.088804315526772
3007.8139,5.070988487575335
3008.8705,5.498872991105145
3009.9264,1.9715362793663758
3010.9818,-0.7119432493797149
3012.0364,-3.7024872165870306
3013.0905,-11.851010131396777
3014.1439,-7.858389515102999
3015.1966,-2.075384497408322
3016.2487,-7.802675702704562
3017.3002,-10.740923022292804
3018.3511,-10.790708398743675
3019.4013,-11.652506472807033
3020.4509,-3.7266840860562525
3021.4998,-9.513491671525173
3022.5481,-5.013142432673817
3023.5958,-6.8257545331807705
3024.6428,0.7986039445684128
3025.6892,6.209933107475479
3026.735,7.758233054456525
3027.7802,8.743503822328705
3028.8247,11.415745370326874
3029.8685,12.424957570251536
3030.9118,20.421140179745407
3031.9544,27.50429283220211
3032.9963,26.27441495680398
3034.0376,32.28150570769037
3035.0783,40.92556397625657
3036.1184,55.20658833108257
3037.1578,50.7745769314937
3038.1966,57.2795273847492
3039.2348,65.22143679036327
3040.2723,57.95030167505513
3041.3092,70.01611791332977
3042.3455,68.06888080018922
3043.3811,68.4085849304746
3044.4161,72.08522421833851
3045.4505,72.24879189384762
3046.4842,72.19928046621698
3047.5173,74.38668172217342
3048.5498,79.06098672645146
3049.5816,80.87218579991895
3050.6128,77.07026847283379
3051.6434,78.90522346673242
3052.6734,73.52703873244849
3053.7027,76.58570143176365
3054.7314,78.38119799118937
3055.7594,83.56351407138027
3056.7868,78.13263454917887
3057.8136,78.73854346579287
3058.8398,79.0312240811038
3059.8653,70.8606588676077
3060.8902,75.87682950748871
3061.9145,77.42971697432449
3062.9381,78.61930148292436
3063.9612,73.59556247380061
3064.9835,66.90847860127269
3066.0053,76.85802778370447
3067.0264,74.14418727037491
3068.0469,73.76693354198267
3069.0668,68.77624233778482
3070.086,65.37208865936901
3071.1046,59.004446820560446
3072.1226,55.82329048146386
3073.1399,55.678592712139476
3074.1567,47.320326024414896
3075.1727,49.99846237333156
3076.1882,48.762973240727945
3077.203,40.513829608458025
3078.2173,32.40100197074611
3079.2308,36.97446041667823
3080.2438,33.28417471133048
3081.2561,22.58011425003454
3082.2678,21.962248095280245
3083.2789,20.53054508375652
3084.2893,19.834973832529784
3085.2991,16.625502753361275
3086.3083,12.602100059662462
3087.3169,5.914733798590021
3088.3248,10.8133718912797
3089.3321,6.997982199720042
3090.3388,9.66853247776595
3091.3449,2.874990409292508
3092.3503,7.1173235814896145
3093.3551,3.9454995527973438
3094.3593,-1.990514189517313
3095.3629,3.3092498023577264
3096.3658,1.6447788614711953
3097.3681,2.216060287779527
3098.3698,-0.32691863520858533
3099.3708,6.81582935385515
3100.3713,3.544294782235852
3101.3711,-0.4415318909593964
3102.3702,1.4583397579334587
3103.3688,-3.606095436517961
3104.3667,-1.08484265432935
3105.364,1.3721289493768438
3106.3607,-3.1351389429435415
3107.3568,0.4433953374440023
3108.3522,0.6078047793119481
3109.347,2.5081623669990165
3110.3412,-0.2054589212340261
3111.3348,7.367013867792167
3112.3277,-2.6243442602085167
3113.32,3.220541626807858
3114.3117,-0.19822732191582304
3115.3028,0.11945001065802785
3116.2932,4.773676721857839
3117.2831,-1.9354452842935643
3118.2723,9.89218584848976
3119.2608,7.156691311592226
3120.2488,7.2081921974763645
3121.2361,2.9968095270378114
3122.2229,6.322664249090337
3123.209,7.435877282479595
3124.1944,12.186569482824751
3125.1793,8.474861631386318
3126.1635,12.500874387559207
3127.1471,14.764728325989722
3128.1301,9.716543896315486
3129.1125,14.556441400526836
3130.0942,8.134541043448849
3131.0753,14.950962884342147
3132.0558,17.455826901122137
3133.0357,16.29925292219474
3134.015,14.63136060140765
3134.9936,17.102269429616044
3135.9716,19.612098751361657
3136.949,12.810967740163463
3137.9258,20.098995373419427
3138.902,16.376300500417926
3139.8775,18.743001769457635
3140.8524,19.949217665074073
3141.8267,20.595066484372893
3142.8004,23.130666324967592
3143.7735,29.556135078521024
3144.7459,24.37159040538947
3145.7178,26.427149670367854
3146.689,24.222929994535235
3147.6596,27.20904823469924
3148.6295,29.685621005438193
3149.5989,27.40276464923997
3150.5676,27.21059521173636
3151.5357,31.309228464531472
3152.5032,29.198779907123566
3153.4701,32.32936472591862
3154.4364,31.95109781533492
3155.402,33.91409374649706
3156.367,39.51846677101878
3157.3315,33.91433080137287
3158.2952,39.90179935484748
3159.2584,37.930985609587545
3160.221,34.452002344719986
3161.1829,37.11496196006194
3162.1442,40.31997651091051
3163.105,42.06715768141325
3164.065,38.806616752517925
3165.0245,41.33846458450083
3165.9834,45.76281164957204
3166.9416,43.42976800655713
3167.8993,49.6894432566535
3168.8563,47.0919465667609
3169.8127,47.78738660688474
3170.7684,48.17587157611092
3171.7236,47.65750919565158
3172.6782,49.88240670496008
3173.6321,48.550670866914714
3174.5854,51.41240794556976
3175.5381,55.21772371947275
3176.4902,52.81672345304719
3177.4417,54.90951185853936
3178.3926,58.54619312002826
3179.3428,57.97687087249786
3180.2924,59.25164816547017
3181.2415,59.42062746869853
3182.1899,62.68391065941977
3183.1377,61.09159902066452
3184.0848,61.09379320862422
3185.0314,61.29059326857439
3185.9773,61.832098634852635
3186.9227,63.018408128890606
3187.8674,66.499619953799
3188.8115,65.47583168250445
3189.755,67.89714022293735
3190.6979,70.21364182826981
3191.6402,67.47543207270255
3192.5818,65.83260582829985
3193.5229,72.5852572923717
3194.4633,72.88348000390201
3195.4031,73.77736677602215
3196.3423,74.91700969302863
3197.2809,74.80250010144438
3198.2189,75.28392859862217
3199.1563,75.61138503388979
3200.0931,75.18495850373576
3201.0292,76.15473734853472
3201.9648,75.52080915681177
3202.8997,77.1832607555446
3203.834,80.6421782165028
3204.7677,83.14764683962335
3205.7008,84.89975111842149
3206.6333,82.54857471493591
3207.5652,82.64420044220786
3208.4964,87.5367102877928
3209.4271,86.72618541280417
3210.3571,88.86270610298835
3211.2865,88.34635177682983
3212.2154,91.97720096418603
3213.1436,89.05533131145086
3214.0712,87.78081954524617
3214.9982,89.55374150164057
3215.9246,95.27417213889439
3216.8503,92.94218551973051
3217.7755,94.0578547541302
3218.7001,95.27125202265276
3219.624,97.98244856527899
3220.5473,94.74151466927711
3221.4701,98.74851964209091
3222.3922,98.403531843749
3223.3137,103.05661864679475
3224.2346,95.05784643973624
3225.1549,104.40728058051533
3226.0746,104.15498547649548
3226.9937,104.10102449096723
3227.9121,108.89545994567133
3228.83,103.78835312133825
3229.7473,107.52976420974377
3230.6639,107.86975236478024
3231.5799,109.7583756650422
3232.4954,112.39569111042677
3233.4102,112.93175460324719
3234.3244,110.01662092185981
3235.238,111.30034371530341
3236.151,112.88297553245053
3237.0634,116.26456780917029
3237.9752,114.04517085250197
3238.8864,118.17483380683925
3239.797,116.45360467612399
3240.7069,119.78153028254974
3241.6163,117.25865628377399
3242.5251,118.68502713963886
3243.4332,121.86068613739985
3244.3408,122.93567537746218
3245.2477,123.11003574162413
3246.154,121.78380688232727
3247.0598,125.45702722091274
3247.9649,126.77973396088366
3248.8694,123.95196305117281
3249.7733,123.0237491729156
3250.6766,126.19512576772783
3251.5793,125.36612504698772
3252.4814,129.33677796012222
3253.3829,127.95711420289695
3254.2838,129.37716217770975
3255.1841,132.8469490073873
3256.0838,132.26650052098464
3256.9829,130.43584121908714
3257.8814,134.50499427961515
3258.7792,132.87398157613057
3259.6765,133.1428236371453
3260.5731,135.21153966243133
3261.4692,131.98014752033234
3262.3647,136.19866372707662
3263.2595,136.2171034790909
3264.1538,136.68548061081526
3265.0474,135.45380759451865
3265.9404,136.47209553561527
3266.8329,138.79035418498114
3267.7247,140.15859192877133
3268.616,143.52681576523727
3269.5066,137.29503129104452
3270.3966,142.7632426675903
3271.286,136.08145268332157
