RamanShift,CorrectedData
30.1047,1253.4003612205322
32.3739,1166.3082076793028
34.6426,1075.4660416040695
36.9109,985.723838797747
39.1787,897.5815643085887
41.4461,807.8891733276096
43.7131,719.0966120700089
45.9796,634.8038186720936
48.2456,547.3607240792039
50.5112,457.3172528886415
52.7764,368.22332422410045
55.0411,285.02885263610233
57.3054,196.33374899293523
59.5692,109.93792131259863
61.8326,26.691275649754502
64.0955,-59.10628304031454
66.3579,-142.45485006923846
68.6199,-220.80393027687973
70.8815,-280.5516053791489
73.1426,-297.79375126069306
75.4032,-191.92344109562202
77.6634,205.71922690152962
79.9231,1264.0460718314034
82.1824,3642.7189107374484
84.4412,8010.199548022652
86.6995,14076.59975166282
88.9574,19937.98120953175
91.2148,23927.405468737255
93.4717,25707.283877007336
95.7282,25944.327542795927
97.9842,25631.99731748414
100.2398,24956.303793009803
102.4949,24116.90730499078
104.7495,23173.367939481886
107.0036,22238.445541368867
109.2573,21374.0997238038
111.5105,20528.989877554293
113.7632,19740.575179646978
116.0154,19058.21460181856
118.2672,18551.416918400024
120.5185,18008.840713140187
122.7693,17585.594384273714
125.0197,17208.43614994685
127.2696,16826.574052449912
129.519,16529.51596198885
131.7679,16218.31958050387
134.0163,15900.39244464003
136.2642,15533.241928859181
138.5117,15183.275248619273
140.7587,14771.699464045809
143.0052,14429.471483431571
145.2512,14068.14806735233
147.4967,13687.035832089148
149.7417,13429.741253241606
151.9863,13179.020669538928
154.2304,13004.930285412924
156.4739,12781.876173505207
158.717,12592.364276408089
160.9596,12352.900408895115
163.2017,12012.290259816196
165.4433,11633.139394492235
167.6844,11206.153258121236
169.925,10823.68717956981
172.1651,10385.346375643043
174.4047,10014.635954909136
176.6439,9690.560922082837
178.8825,9375.076181732544
181.1206,9135.236541521032
183.3582,8871.64671536033
185.5954,8703.911325810092
187.832,8539.384906713516
190.0681,8435.82190487468
192.3037,8347.42668170382
194.5388,8242.653514252957
196.7734,8234.156596099845
199.0075,8204.290038395704
201.2411,8272.60786995019
203.4742,8251.464037530064
205.7068,8311.612405176005
207.9389,8359.656754414067
210.1704,8424.650783654171
212.4015,8479.598107709677
214.632,8573.102257147439
216.862,8654.61667773833
219.0915,8698.39472952221
221.3205,8808.289685992768
223.549,8932.15473365975
225.777,9062.592970950009
228.0044,9224.80740696885
230.2314,9486.300960195656
232.4578,9735.87645686173
234.6837,9906.836628335372
236.909,9983.93410862612
239.1339,9894.521432675152
241.3582,9708.551035584307
243.582,9390.92525351022
245.8053,9092.896325524005
248.0281,8779.816396787535
250.2503,8599.787521533723
252.472,8465.061666197316
254.6932,8394.040711215202
256.9139,8343.126452373646
259.134,8377.27060151852
261.3536,8414.324787064426
263.5727,8510.890553653273
265.7912,8555.71936178371
268.0092,8620.362586845491
270.2267,8628.071518671177
272.4436,8601.397360889709
274.6601,8531.84123084931
276.8759,8368.954159884237
279.0913,8211.68709401034
281.3061,8061.340895553926
283.5204,7989.866344724444
285.7341,7945.014141117934
287.9473,8014.084904431775
290.16,8046.02917491321
292.3721,8300.347412668638
294.5837,8547.539997344174
296.7947,8794.807225582455
299.0052,8910.949308550738
301.2152,8748.066369468184
303.4246,8435.858442444478
305.6334,7955.37547410865
307.8418,7383.267326731144
310.0495,6889.833783028664
312.2568,6550.0745518852345
314.4635,6186.839273286556
316.6696,5925.377521717579
318.8752,5786.788809794874
321.0802,5731.272590881243
323.2847,5750.678260471597
325.4887,5764.555156748127
327.692,5676.302560386241
329.8949,5545.1196944158
332.0972,5244.3057251036425
334.2989,4958.409763265414
336.5001,4601.280867273712
338.7007,4370.568045917038
340.9008,4217.470261971077
343.1003,4028.486434505854
345.2992,3928.8154404166853
347.4976,3821.356116314035
349.6955,3755.20725952021
351.8927,3758.7676291439584
354.0895,3678.185946741971
356.2856,3630.410896283258
358.4812,3568.3911249549747
360.6763,3569.5252436401806
362.8707,3487.2618275380246
365.0646,3498.6494161524097
367.258,3482.286514114636
369.4508,3495.2715910695115
371.643,3545.9030818389692
373.8346,3509.3293862922437
376.0257,3530.5988688395355
378.2162,3448.6598587977533
380.4062,3343.160650177817
382.5956,3157.4495025040596
384.7844,3026.3246418692124
386.9726,2874.184262791521
389.1603,2799.6765295259975
391.3474,2719.9495775858068
393.5339,2644.301514487357
395.7199,2584.630420547559
397.9052,2578.284349640313
400.09,2612.0113297932185
402.2743,2652.759363251038
404.4579,2739.3264261384247
406.641,2891.460468052437
408.8235,3062.4094111968698
411.0054,3267.4211488609235
413.1868,3571.4435437097036
415.3675,3774.97442573411
417.5477,3865.3115892106125
419.7273,3853.0527906659445
421.9064,3696.7957479737215
424.0848,3582.038140477038
426.2627,3382.277610551033
428.4399,3107.4617647504692
430.6166,2725.588175807343
432.7928,2332.8543853790434
434.9683,2014.1079078670846
437.1432,1765.9962343444367
439.3176,1595.6168357429997
441.4914,1486.1671653347094
443.6645,1405.1946604353398
445.8371,1294.7467434989976
448.0091,1271.070822927837
450.1806,1204.8142941765545
452.3514,1160.1745399891443
454.5216,1150.2989310614612
456.6913,1094.5348264876138
458.8603,1110.3295738587185
461.0288,1167.5805098205528
463.1967,1141.3349599156045
465.3639,1185.6402380105483
467.5306,1231.2936465587227
469.6967,1319.5424761570648
471.8622,1381.4340050895844
474.0271,1456.5654984448756
476.1914,1486.5342074971977
478.3551,1476.287368955158
480.5182,1486.0722046620267
482.6807,1524.5859216982171
484.8426,1627.7257122834144
487.0039,1914.3887533914549
489.1647,2320.4722057189247
491.3248,2663.473210818531
493.4843,2820.3388870382623
495.6432,2785.316326091388
497.8015,2664.802591487787
499.9592,2597.8447188841837
502.1163,2465.3397172892783
504.2728,2190.684569733332
506.4287,1914.4262345932166
508.5839,1522.811648338953
510.7386,1218.4877282963153
512.8927,1046.4013765629643
515.0461,979.3494830516829
517.199,981.0789272112415
519.3512,1033.9365786969247
521.5029,1197.019297353232
523.6539,1340.6739326852949
525.8043,1419.5973222280554
527.9541,1361.4862901097222
530.1033,1255.6376462625358
532.2519,1215.1981870038853
534.3999,1250.2146960947866
536.5472,1426.983945144284
538.694,1786.752693259279
540.8401,2210.7176852768316
542.9856,2597.075648166492
545.1305,2723.6232867906365
547.2748,2611.657280040894
549.4185,2309.4242795726586
551.5615,2029.6209109247611
553.704,1930.6937765417952
555.8458,1927.9894585721504
557.987,2003.0045198572734
560.1276,2101.7855039587284
562.2675,2300.1789344080407
564.4069,2534.38131371889
566.5456,2726.9391214031675
568.6837,2751.5988116289627
570.8212,2395.1068112949742
572.958,1927.3095197839248
575.0942,1481.703312527472
577.2299,1217.2845456841897
579.3648,1099.449560595618
581.4992,1118.244686430453
583.6329,1239.9662413629085
585.766,1487.5105323847492
587.8985,1583.623854088084
590.0304,1603.352486189915
592.1616,1577.2426925710133
594.2922,1448.440721078623
596.4222,1279.4428037875678
598.5515,1080.0451582882688
600.6802,924.5939893767227
602.8083,741.7354910484828
604.9358,712.1658480531642
607.0626,683.2312377230319
609.1888,739.4278302687053
611.3144,781.5517890684914
613.4393,769.2492701064311
615.5636,776.7664215510613
617.6873,688.1993838784292
619.8103,665.3442897969235
621.9327,511.4972651329517
624.0544,431.40442905947384
626.1756,323.66189563448825
628.2961,250.86577460195622
630.4159,193.26217246922897
632.5351,172.8471932350003
634.6537,98.8669389653478
636.7716,121.91750999788019
638.8889,128.5450056815389
641.0056,151.39552414608806
643.1216,148.66516223584586
645.237,136.25001528119355
647.3518,126.39617712585277
649.4659,100.04974025106094
651.5793,69.90679587410887
653.6922,83.7634342117999
655.8043,70.1157447818623
657.9159,56.10981626440662
660.0268,-0.35826336161699146
662.137,-24.542406678345287
664.2466,34.703477311124516
666.3556,14.92572478234979
668.4639,-46.17932843615017
670.5716,-26.215346665099787
672.6786,9.814467106252778
674.785,17.757171779967393
676.8907,66.45972821158102
678.9958,129.3190970790638
681.1002,96.08223839579477
683.204,75.54611088196907
685.3072,57.15767229696394
687.4097,14.063879644707413
689.5115,18.36168935755086
691.6127,-34.40194227278516
693.7132,-77.1800591381998
695.8131,-84.17536145518898
697.9123,-64.88977841146698
700.0109,-40.32439828289171
702.1089,-28.729661096442214
704.2061,-14.4556040383668
706.3028,0.04802271439257311
708.3987,65.23161339637409
710.4941,157.84556176236038
712.5887,290.19026091482374
714.6827,453.3661023777822
716.7761,704.1734747733517
718.8688,1003.0627621900021
720.9608,1169.4843416744552
723.0522,1287.4385802428296
725.1429,1207.775833216383
727.233,1081.146443042002
729.3224,1015.3007400888237
731.4112,868.9390439145209
733.4993,668.1116639237607
735.5867,468.6689008318317
737.6735,320.61104867291215
739.7596,187.03839679449084
741.845,100.50123133796114
743.9298,81.29983657434059
746.014,89.53449576964522
748.0974,99.55549137689559
750.1802,108.61310495378166
752.2624,155.5076170624434
754.3439,192.5893071788978
756.4247,274.3084532240973
758.5048,415.865331193103
760.5843,700.410214337895
762.6631,1060.0433717518026
764.7413,1562.2650655240632
766.8188,2215.025547143483
768.8956,2701.575052476226
770.9718,3013.0637952382094
773.0473,2924.141962129601
775.1221,2625.4597097199294
777.1962,2306.6171653373203
779.2697,2181.614430055308
781.3426,2232.901581881257
783.4147,2405.178677006388
785.4862,2613.6957492929123
787.557,2560.952808551263
789.6271,2194.049838454919
791.6966,1623.8367970678355
793.7654,1053.663620513471
795.8335,724.530228676922
797.901,496.38653090665684
799.9678,397.43242930584347
802.0339,377.1178210138023
804.0993,375.6425991955257
806.1641,378.85665324484944
808.2282,319.2098687991802
810.2916,265.60212770737417
812.3544,157.08330862619368
814.4164,91.10328755637966
816.4778,134.66193892785122
818.5385,173.95913625950016
820.5986,288.89475172359744
822.658,467.16865575283373
824.7166,682.0307158909654
826.7747,1034.5807950100607
828.832,1395.6187491618803
830.8886,1615.294424052392
832.9446,1788.3576514313827
834.9999,1712.5082468956953
837.0545,1598.5460081585989
839.1085,1467.6707158082882
841.1618,1324.2821344475014
843.2143,1214.0300140022755
845.2662,1078.6140911558323
847.3175,1007.134090451098
849.368,919.4897256448603
851.4179,812.430700422572
853.467,690.5067092747868
855.5155,611.5674385677685
857.5633,540.0625677627122
859.6105,447.24177020515526
861.6569,400.0547138400161
863.7027,350.4010621398065
865.7478,357.43047457648754
867.7922,347.09260711801835
869.8359,338.4871121580618
871.8789,440.5636386193564
873.9212,548.6718320397795
875.9629,697.7613335515798
878.0039,869.0317788002958
880.0441,975.0327964538483
882.0837,1024.0640064898525
884.1226,990.1750191355968
886.1609,976.2154343777293
888.1984,976.1848423011488
890.2352,1025.98282322862
892.2714,1000.8589477210517
894.3069,1011.1627760795345
896.3416,906.0938585965814
898.3757,828.0017354530755
900.4091,757.585937768974
902.4418,793.4459883842064
904.4739,824.1814025628446
906.5052,867.2416876345051
908.5358,804.6763426869893
910.5658,671.0348581356957
912.595,497.11671634925915
914.6236,353.7713929859692
916.6515,257.39835873296033
918.6786,216.79708073965776
920.7051,272.3170235815087
922.7309,374.3076496659869
924.756,417.0184186774095
926.7804,530.3987865570252
928.8041,524.2982050758965
930.8272,562.4661207011031
932.8495,518.1019746567436
934.8711,506.05520254226394
936.892,416.625234776091
938.9123,320.46149671611056
940.9318,295.6634095539539
942.9506,250.43039127664088
944.9688,187.56185691456812
946.9862,91.55721899383389
949.003,-7.334111835083604
951.019,-16.762725837272228
953.0344,-20.479140010040283
955.0491,16.266296108928145
957.063,69.92343756856098
959.0763,174.2421392551314
961.0888,206.52225535568323
963.1007,299.0636383148503
965.1119,350.2661385120555
967.1223,368.8796033360941
969.1321,382.65387667309733
971.1412,406.78879872042125
973.1495,434.5842058488797
975.1572,455.1899303614082
977.1641,513.9058002151105
979.1704,501.13163881519176
981.1759,495.36726442780855
983.1808,555.1624903078082
985.1849,601.9171247563718
987.1884,734.5809705230658
989.1911,880.8038243382907
991.1932,994.6854755866461
993.1945,1002.3257048446867
995.1951,987.3242827421291
997.1951,988.7309698854297
999.1943,929.4455170078218
1001.1928,920.3176649552297
1003.1906,935.5971452791364
1005.1877,1030.7336803278613
1007.1841,1080.1769830937483
1009.1798,1046.1267562618104
1011.1748,914.6826917152976
1013.1691,773.5944708761945
1015.1627,535.9117660196607
1017.1556,352.93424168491765
1019.1477,277.111557052076
1021.1392,164.54336777189383
1023.1299,177.6793267240264
1025.12,186.21908514269307
1027.1093,248.712292485332
1029.0979,365.05859634720764
1031.0859,439.1076418364537
1033.0731,458.35907041062273
1035.0596,430.31251913619417
1037.0454,292.81762049606914
1039.0304,201.27400267002486
1041.0148,108.18129090966067
1042.9985,18.1891084538438
1044.9814,5.447077459635693
1046.9636,-51.195180097778575
1048.9452,-54.08804229768066
1050.926,-7.181375779504378
1052.9061,9.075493156848097
1054.8855,25.6833099534324
1056.8642,64.34281996154459
1058.8421,130.95476827565835
1060.8194,178.16989934683443
1062.7959,224.08895631658197
1064.7717,275.0126805447144
1066.7469,337.3418111501578
1068.7213,369.9270845017145
1070.695,401.31923359476605
1072.6679,399.96898772542954
1074.6402,381.077072176633
1076.6117,361.4442082316182
1078.5826,326.3211133628629
1080.5527,284.70850142840754
1082.5221,298.3570830230874
1084.4908,400.3175658946602
1086.4587,506.3406548073235
1088.426,629.527050522107
1090.3925,627.3774487366354
1092.3584,625.8425388532669
1094.3235,571.7230040005979
1096.2879,598.3695210487986
1098.2515,653.5827611508139
1100.2145,794.4633894759008
1102.1767,933.6620646574938
1104.1382,1117.429437384406
1106.099,1333.1661490088318
1108.0591,1553.672829708672
1110.0185,1703.850096330165
1111.9771,1790.9485501828221
1113.9351,1676.118775537654
1115.8923,1427.1613387561956
1117.8488,1211.3767894387965
1119.8045,990.265662914202
1121.7596,874.7784823973889
1123.7139,764.0657612006889
1125.6675,804.2280038886602
1127.6204,861.0157073852006
1129.5726,832.9793605719387
1131.524,774.919443720355
1133.4748,749.6864287721455
1135.4248,652.8307799198265
1137.3741,593.8529538590374
1139.3226,513.6034007571325
1141.2705,480.9325648429349
1143.2176,393.3408852092325
1145.164,400.37879613950645
1147.1097,384.09672798383144
1149.0546,327.0951070884912
1150.9989,261.37435595880925
1152.9424,158.6348938291594
1154.8852,39.97713732018565
1156.8272,-32.29849853382075
1158.7686,-49.09159909832306
1160.7092,-30.001427076796972
1162.6491,-1.7767547476451
1164.5883,85.73394532498423
1166.5267,203.73221832671334
1168.4644,389.2196085858268
1170.4014,570.4476583932919
1172.3377,822.1179061478906
1174.2732,1093.3318845439298
1176.2081,1429.1411180545401
1178.1421,1783.247120219532
1180.0755,2167.851390287313
1182.0082,2366.055409673818
1183.9401,2492.6606381164784
1185.8713,2346.6185116921733
1187.8017,2095.8804415511804
1189.7315,1820.797815377604
1191.6605,1493.6219998967426
1193.5888,1268.2043436259246
1195.5163,1161.0961801462581
1197.4432,1077.7488303568152
1199.3693,1062.313603545701
1201.2947,1035.3417982235405
1203.2193,1013.6847022778238
1205.1432,1039.9435932426277
1207.0664,1041.7197385151867
1208.9889,1045.7143950932968
1210.9106,1079.1788095575757
1212.8316,1128.614218031491
1214.7519,1159.4718458467287
1216.6715,1187.5529070488392
1218.5903,1260.3086040886592
1220.5084,1277.7901275414988
1222.4257,1335.3486553795847
1224.3424,1346.835352797254
1226.2583,1451.251371635355
1228.1735,1536.6978502663878
1230.0879,1687.725912550346
1232.0016,1804.7366669802395
1233.9146,1900.1812051718352
1235.8269,1853.5606006935268
1237.7384,1790.625908111906
1239.6492,1634.8281634579616
1241.5592,1567.3683848564324
1243.4686,1570.1475740837723
1245.3772,1623.8667172427631
1247.285,1711.5267847347059
1249.1922,1774.2787307222425
1251.0986,1862.1234922527492
1253.0042,1878.1619886308144
1254.9092,1955.2951205398003
1256.8134,2053.5237698814526
1258.7169,2220.698799004569
1260.6196,2368.6210497227185
1262.5216,2610.9913416424897
1264.4229,2786.8604706842652
1266.3234,2980.529206658519
1268.2232,3148.8982915071247
1270.1223,3195.06843736667
1272.0207,3199.0403248847633
1273.9183,3151.7146027583203
1275.8151,3124.4918876938646
1277.7113,3118.8227648807733
1279.6067,3059.5077882635014
1281.5014,3142.6974805982845
1283.3953,3300.542334046275
1285.2885,3537.8928093416653
1287.181,3837.39933421322
1289.0727,4029.362301010782
1290.9637,4185.882063710209
1292.854,4372.158935993737
1294.7435,4413.993189684794
1296.6323,4533.885052885222
1298.5204,4592.084709556935
1300.4077,4672.842298323005
1302.2943,4679.257911885656
1304.1802,4596.981596218706
1306.0653,4351.063350503386
1307.9497,4037.5531279511233
1309.8333,3767.8508382627188
1311.7162,3593.9563507634357
1313.5984,3553.4194971000416
1315.4798,3512.74007297973
1317.3605,3516.7178385755124
1319.2405,3535.252518933001
1321.1197,3413.2438039306344
1322.9982,3221.891348094334
1324.876,3114.8447718175776
1326.753,2923.153663274945
1328.6293,2873.167579492563
1330.5048,2805.786048265032
1332.3796,2707.1085686552833
1334.2537,2665.43461166839
1336.127,2647.4636212383502
1337.9996,2622.6950146448125
1339.8714,2688.5781826927905
1341.7426,2652.962489960353
1343.6129,2677.747274139798
1345.4826,2666.4318463937925
1347.3515,2700.515491107544
1349.2196,2650.4474660019405
1351.087,2685.8770017927254
1352.9537,2779.2533026911697
1354.8197,2888.7255460497727
1356.6849,3071.342881428507
1358.5493,3222.8544295000993
1360.4131,3356.3092802238425
1362.276,3401.1564913304974
1364.1383,3345.695086987729
1365.9998,3150.6740573516345
1367.8606,2842.592359121376
1369.7206,2523.4989174893726
1371.5799,2243.742629222126
1373.4384,2050.67236585116
1375.2962,1886.6869764705716
1377.1533,1613.3352896677388
1379.0096,1317.866115163166
1380.8652,1041.0782465440097
1382.7201,748.3204642187666
1384.5742,538.4915381851515
1386.4275,385.8902309576788
1388.2802,264.86529966595117
1390.132,174.46549758067704
1391.9832,142.8395753239056
1393.8336,59.436281773048904
1395.6832,28.354364377120874
1397.5322,25.042569990777338
1399.3803,28.099645185140616
1401.2278,12.274336280911484
1403.0745,23.915389317794506
1404.9204,13.42155021275812
1406.7656,51.84156464361786
1408.6101,115.72417815397785
1410.4538,156.41813576903405
1412.2968,218.2721813567441
1414.139,290.83505722089467
1415.9805,390.3555034825513
1417.8213,461.23225735442884
1419.6613,590.8140521456944
1421.5006,788.7996165531995
1423.3391,1038.387673365658
1425.1769,1343.626937483793
1427.0139,1788.5661134244638
1428.8502,2389.1038922682565
1430.6858,2962.1389472101027
1432.5206,3350.5699275538946
1434.3547,3605.1454529821403
1436.188,3637.1641096716467
1438.0206,3565.5744477477656
1439.8524,3453.624980964216
1441.6835,3354.5141874189703
1443.5139,3260.79051067376
1445.3435,3216.852360745176
1447.1724,3197.7481150419007
1449.0005,3155.4261188041073
1450.8279,3102.7846852944876
1452.6545,3081.772096221476
1454.4804,3136.2866022656663
1456.3056,3147.2264232899342
1458.13,3094.4397477942957
1459.9536,2937.3247328065154
1461.7766,2659.6795044099554
1463.5987,2290.7521593147367
1465.4202,1987.6407676341878
1467.2409,1655.343376574121
1469.0608,1390.8580134639433
1470.88,1134.1826890796347
1472.6984,942.3154002885958
1474.5161,731.3041326164075
1476.3331,633.1968621654987
1478.1493,548.091557725259
1479.9648,496.83618175311676
1481.7795,403.8286912255862
1483.5935,352.7670381508251
1485.4067,319.14917049870655
1487.2192,306.0230327114323
1489.031,277.0865660397176
1490.842,238.33770867404746
1492.6522,228.8743960340489
1494.4618,219.4445611559786
1496.2705,225.0961347873481
1498.0785,197.5770454812282
1499.8858,191.63521953973304
1501.6924,184.16858128920285
1503.4981,172.72505313962847
1505.3032,150.2525556593182
1507.1075,131.5990076893313
1508.911,115.01232656820684
1510.7138,99.7904283184962
1512.5159,73.281227812623
1514.3172,53.23263892511022
1516.1178,0.24257479767311452
1517.9176,7.858948039702227
1519.7166,17.72967125816467
1521.515,0.8526569814403047
1523.3126,11.075817560617907
1525.1094,-10.352934661735162
1526.9055,-19.23568745380453
1528.7008,-24.624425157961014
1530.4954,-57.62093995205669
1532.2893,-35.52677801594109
1534.0824,-68.79290989627043
1535.8747,-20.119951227196907
1537.6663,-35.20783040170227
1539.4572,-17.40627481445972
1541.2473,6.085339866082904
1543.0367,12.91781186015487
1544.8253,39.741939327139335
1546.6132,90.15852029724192
1548.4003,102.96835240325254
1550.1867,141.72223237638173
1551.9723,210.67095591815723
1553.7572,299.9153173128925
1555.5414,401.9061087381933
1557.3247,495.5441193725155
1559.1074,622.0801343752555
1560.8893,768.714933950374
1562.6705,900.1992920810353
1564.4509,1006.4839750632564
1566.2305,1071.8197401910647
1568.0094,1158.3573346936519
1569.7876,1180.497495082016
1571.565,1188.0409462835823
1573.3417,1204.5884014208068
1575.1176,1222.890561735735
1576.8928,1189.9481164245317
1578.6672,1171.2117424544613
1580.4409,1155.3321048932985
1582.2138,1123.159857096708
1583.986,1094.1456408670338
1585.7575,1112.7900867750204
1587.5282,1123.0938144499642
1589.2981,1184.857432393258
1591.0673,1221.6315378753525
1592.8358,1275.2167163181311
1594.6035,1362.8635409271574
1596.3704,1431.2725721558354
1598.1366,1501.5943568289313
1599.9021,1588.3294274584878
1601.6668,1674.7283015406047
1603.4308,1818.6914806880905
1605.194,1978.9694497664732
1606.9564,2158.6626754543686
1608.7182,2358.121604640697
1610.4791,2612.0466626277603
1612.2394,2848.688251136641
1613.9988,3079.5967457679644
1615.7576,3329.5724936354727
1617.5156,3541.415811056947
1619.2728,3705.476981054444
1621.0293,3774.50625123587
1622.785,3692.6538321543585
1624.54,3550.019896617984
1626.2942,3331.80458050829
1628.0477,3039.457984206616
1629.8005,2785.580174776267
1631.5525,2564.921188885962
1633.3037,2375.931035348626
1635.0542,2230.0096973279706
1636.804,2117.5071342283973
1638.553,2067.9232831542186
1640.3013,2039.4580600346726
1642.0488,2013.6113601197685
1643.7955,2105.0330582649412
1645.5416,2140.2230091895126
1647.2868,2278.9810465624732
1649.0313,2396.956982650592
1650.7751,2550.850606930827
1652.5181,2734.661684910572
1654.2604,2929.389956588716
1656.0019,3202.68513461753
1657.7427,3500.0469023553933
1659.4828,3766.07491113383
1661.222,3942.918777283904
1662.9606,3946.1280794759286
1664.6984,3735.502356951032
1666.4354,3317.441109489061
1668.1717,2786.5937995148433
1669.9072,2272.259856278799
1671.642,1862.988681165407
1673.3761,1505.8296528365581
1675.1094,1223.082131324255
1676.8419,1009.5454616022062
1678.5737,829.3689764133014
1680.3048,690.0519984049806
1682.0351,600.5438419309912
1683.7646,528.4438144445649
1685.4934,461.00121739350016
1687.2215,404.2653469411598
1688.9488,339.985494640895
1690.6754,329.36094800340925
1692.4012,296.44099113955053
1694.1263,260.6749048665615
1695.8506,246.61196703727
1697.5742,222.15145289776228
1699.297,184.6926352280043
1701.0191,163.33478458645004
1702.7404,169.1771696846272
1704.461,136.31905760072004
1706.1808,106.75971372114327
1707.8999,127.39840206912413
1709.6182,90.88438560029681
1711.3358,61.26692599630951
1713.0527,74.19528402997275
1714.7688,49.268719861432146
1716.4841,56.93649290887606
1718.1987,60.99786209780996
1719.9126,50.90208578437614
1721.6257,39.848421714737015
1723.338,58.08612712604372
1725.0496,42.214458856961755
1726.7605,44.232673165300184
1728.4706,34.49002588672647
1730.18,7.085772414586245
1731.8886,33.21916779732783
1733.5964,42.18946701254208
1735.3036,42.04592470563057
1737.0099,28.23779510010263
1738.7156,33.56433199901312
1740.4204,6.074788923041524
1742.1246,24.26841905722449
1743.8279,-11.355524474145568
1745.5306,-3.8477887894550804
1747.2325,-15.159007565400316
1748.9336,0.3602239607253068
1750.634,1.559461990116688
1752.3336,-12.911737279632689
1754.0325,-20.353817666524264
1755.7307,-29.61709400030395
1757.4281,-0.9516777760836703
1759.1247,-3.5073846142076945
1760.8206,-0.6840206277611287
1762.5158,-0.28135689105874917
1764.2102,2.4508423549450526
1765.9039,-0.9871843199471186
1767.5968,-0.3451983704435406
1769.289,0.7270486107145189
1770.9804,-10.920191520686785
1772.6711,11.763333083874386
1774.361,16.527983365625005
1776.0502,16.97412014816382
1777.7386,26.502104089812747
1779.4263,25.412295679152976
1781.1132,29.85505513974931
1782.7994,28.830742441043185
1784.4849,21.28971725392921
1786.1696,37.732338960994184
1787.8535,28.658966731930377
1789.5367,17.919959359109725
1791.2192,20.815675348313107
1792.9009,12.596473026123022
1794.5818,29.01271051096728
1796.2621,42.364745795306135
1797.9415,44.35293658147566
1799.6202,58.277640148164664
1801.2982,49.38921333053531
1802.9755,56.68801238097967
1804.6519,58.67439305799644
1806.3277,35.54871055320564
1808.0027,42.51131947148815
1809.6769,53.66257406223667
1811.3504,80.30282814973452
1813.0231,60.73243502163632
1814.6951,68.05174716257443
1816.3664,80.41111644985904
1818.0369,85.7608940802852
1819.7067,82.75143044653805
1821.3757,107.4330750836948
1823.044,105.95617669931926
1824.7115,100.72108292664916
1826.3783,91.17814033935974
1828.0443,89.77769450391861
1829.7096,99.37009007501047
1831.3741,108.45567080954334
1833.0379,115.6847794707287
1834.701,119.05775773722098
1836.3633,117.974946130832
1838.0248,113.73668398279688
1839.6856,114.84330944460135
1841.3457,140.8451595303668
1843.005,136.0925701057795
1844.6636,127.28587562807525
1846.3214,132.42540919356588
1847.9785,140.96150262570563
1849.6349,160.49448642369543
1851.2904,154.4246896771224
1852.9453,154.95243987063077
1854.5994,144.67806294462298
1856.2528,160.80188328997838
1857.9054,161.77422385079763
1859.5572,158.74540596316274
1861.2083,161.66574934541723
1862.8587,171.38557212845262
1864.5084,176.90519082650508
1866.1572,181.974920239958
1867.8054,170.69507340014297
1869.4528,171.26596151864578
1871.0994,175.68789410010504
1872.7453,187.5111789364987
1874.3905,165.93612206292983
1876.0349,182.16302763938984
1877.6786,185.99219816650975
1879.3215,194.52393432329154
1880.9637,197.15853492881752
1882.6051,198.09629685693199
1884.2458,194.9375150098963
1885.8858,199.88248230900945
1887.525,214.281489726196
1889.1634,193.3348262345603
1890.8011,194.84277866438833
1892.4381,180.9056319126239
1894.0743,204.9736689277811
1895.7098,196.39717084932
1897.3446,193.42641676696485
1898.9786,194.91168380647287
1900.6118,206.40324715933684
1902.2443,190.20138006793604
1903.8761,214.25635371061753
1905.5071,185.71843736371557
1907.1374,191.93789816100116
1908.7669,185.31500137906187
1910.3957,192.0500103751092
1912.0237,185.54318665320397
1913.651,193.79478979691066
1915.2776,186.5050775343634
1916.9034,191.2743056557506
1918.5285,180.20272808621075
1920.1528,171.44059683813975
1921.7764,189.7381621219056
1923.3992,189.5456724334722
1925.0213,170.81337437142383
1926.6427,173.44151263888944
1928.2633,131.33033023086364
1929.8832,210.9800684079305
1931.5023,179.99096711736956
1933.1207,188.11326419666193
1934.7383,171.44719568337996
1936.3552,161.89299573396602
1937.9714,172.50089679039183
1939.5868,156.47112967570092
1941.2015,150.90392348792784
1942.8154,151.74950576039828
1944.4286,133.20810251740113
1946.041,150.0299382657313
1947.6528,148.41523618010615
1949.2637,143.51421793494364
1950.8739,133.82710372051133
1952.4834,140.60411229193596
1954.0921,136.94546106607095
1955.7001,149.80136605373127
1957.3074,146.07204189627964
1958.9139,137.40770173706778
1960.5197,134.9085572587269
1962.1247,125.9748187698151
1963.729,120.70669522980643
1965.3325,126.80439433842821
1966.9353,131.76812258834207
1968.5374,115.34808520416573
1970.1387,119.24448609283672
1971.7393,110.75752800781174
1973.3392,120.6374125101056
1974.9383,114.48434005315721
1976.5366,94.49850988403341
1978.1342,100.48012010495768
1979.7311,118.2293678731694
1981.3273,115.34644934110702
1982.9227,108.58155947891555
1984.5173,99.48489210327898
1986.1112,103.45663994506822
1987.7044,101.14699474030613
1989.2968,112.00614719045006
1990.8885,118.98428698548969
1992.4795,118.88160269535365
1994.0697,113.94828170012988
1995.6592,119.93451019109034
1997.2479,96.59047322002425
1998.8359,92.466354639379
2000.4232,101.96233733569852
2002.0097,100.0286032708641
2003.5955,87.51533338713443
2005.1805,89.67270762648468
2006.7648,100.60090505573726
2008.3484,87.6001038449881
2009.9312,106.47048115832604
2011.5133,89.96221328384081
2013.0946,99.47547544491863
2014.6752,104.71044196532512
2016.2551,93.36728617407425
2017.8342,87.79618035307521
2019.4126,101.74729585056548
2020.9902,84.97080313682318
2022.5672,92.66687166465363
2024.1433,92.63567003715707
2025.7188,75.52736593076679
2027.2935,95.19212609555962
2028.8674,94.58011652634241
2030.4406,71.44150226600004
2032.0131,75.12644741161921
2033.5849,74.68511534586878
2035.1559,86.41766870015817
2036.7261,101.37426935904341
2038.2957,101.45507834290538
2039.8645,86.51025565838518
2041.4325,93.83996029757373
2042.9998,94.09435038746233
2044.5664,87.32358311664257
2046.1323,98.87781473276527
2047.6974,79.5572006102434
2049.2617,91.26189513471445
2050.8254,102.3420518962439
2052.3883,108.34782357227914
2053.9504,117.72936181684872
2055.5118,104.18681720050154
2057.0725,102.32033911649705
2058.6325,90.33007591622709
2060.1917,102.36617492788218
2061.7502,101.17878257634948
2063.3079,105.66804426285944
2064.8649,96.48410437685334
2066.4212,114.12710625109548
2067.9767,93.64719225350655
2069.5315,97.59450361073823
2071.0856,91.71918061297038
2072.6389,84.22136257443935
2074.1915,77.00118789219005
2075.7433,65.4087941210546
2077.2945,70.64431804585502
2078.8448,79.45789579732491
2080.3945,83.14966279975715
2081.9434,89.1197536828654
2083.4916,85.41830224486876
2085.039,74.19544139278878
2086.5857,71.00130317946696
2088.1317,77.98601891578801
2089.677,68.64971920262724
2091.2215,78.49253386099917
2092.7652,80.1645920254241
2094.3083,72.06602204549517
2095.8506,75.3469514691642
2097.3921,93.65750712372255
2098.933,87.74781508299202
2100.4731,79.26800048422183
2102.0124,76.16818758718591
2103.5511,82.14849985897672
2105.089,82.009060005008
2106.6261,85.59998990920849
2108.1626,86.2714106354174
2109.6983,83.17344239147451
2111.2332,90.30620452250287
2112.7675,77.26981554189615
2114.301,92.6643930599862
2115.8337,91.09005391440678
2117.3657,87.0969140161501
2118.897,93.135088365309
2120.4276,83.40469109100741
2121.9575,69.55583539101872
2123.4866,87.13863362907159
2125.0149,93.70319747333588
2126.5426,83.64963772059627
2128.0695,90.47806423060501
2129.5956,83.68858602662021
2131.1211,80.98131122712039
2132.6458,86.20634711370076
2134.1698,95.06380015814284
2135.693,99.5537759701665
2137.2155,87.52637920885445
2138.7373,80.68171353775301
2140.2584,72.56988174514754
2141.7787,83.79098581250764
2143.2983,85.9951269956041
2144.8171,75.08240571229862
2146.3353,73.30292152050333
2147.8527,68.20677322730603
2149.3693,82.44405890676603
2150.8853,84.96487595087729
2152.4005,70.2193209271943
2153.9149,79.5574895536231
2155.4287,78.57947684587725
2156.9417,75.03537702409903
2158.454,79.97528352263498
2159.9655,75.4992890254805
2161.4764,85.70748541687817
2162.9865,80.14996382607956
2164.4958,73.07681452526094
2166.0045,87.68812698510101
2167.5124,73.48398994551167
2169.0195,65.9144912695242
2170.526,85.57971808533011
2172.0317,78.52975686197851
2173.5367,88.91469321272007
2175.0409,83.03461196550916
2176.5445,85.08959705915413
2178.0473,84.52973160211604
2179.5494,81.15509785196264
2181.0507,77.66577722096395
2182.5513,81.76185030984107
2184.0512,74.99339694265882
2185.5504,79.86049612586453
2187.0488,84.36322611597211
2188.5465,77.2016643708921
2190.0435,84.22588750490263
2191.5397,74.38597136026556
2193.0353,75.13199093698495
2194.5301,73.31402049120561
2196.0241,71.88213352775279
2197.5175,79.13640281831363
2199.0101,74.82690041575393
2200.502,79.30369758157667
2201.9931,54.116864829016095
2203.4835,56.56647187827093
2204.9733,67.05258790837274
2206.4622,74.02528153269077
2207.9505,59.78462069406919
2209.438,63.63067259510149
2210.9248,54.013503840534895
2212.4109,61.13318039881119
2213.8962,57.68976769823803
2215.3809,58.03333055579105
2216.8648,65.31393321154837
2218.3479,56.88163932525731
2219.8304,60.436511903526025
2221.3121,60.278613384148
2222.7931,46.4580056005525
2224.2733,56.274749783384095
2225.7529,64.32890669870835
2227.2317,49.820536549844746
2228.7098,45.499698896824384
2230.1872,43.01645280147409
2231.6638,60.170856870624675
2233.1397,37.962969280943526
2234.6149,57.09284760738933
2236.0894,52.560549045292646
2237.5632,62.96613021905523
2239.0362,42.10964722747531
2240.5085,44.49115553969091
2241.9801,41.710710203744384
2243.4509,47.01836582276792
2244.921,43.76417658278774
2246.3904,38.44819619964733
2247.8591,27.570477951549265
2249.3271,30.981074732213983
2250.7943,35.53003915965837
2252.2608,27.667423542089637
2253.7266,46.19327983241533
2255.1917,43.30765970686889
2256.656,49.71061437975095
2258.1197,37.152194632285045
2259.5826,37.532450748589326
2261.0447,32.451432641260226
2262.5062,34.05918984757159
2263.9669,39.455771580283226
2265.4269,43.04122671156415
2266.8862,36.6156037190251
2268.3448,37.47895064986665
2269.8026,46.58131518513255
2271.2598,34.422744631077876
2272.7162,44.80328582814491
2274.1719,45.822985272548976
2275.6268,45.58188901247422
2277.0811,41.73004263787516
2278.5346,37.16749128288893
2279.9874,43.7942796643531
2281.4395,52.06045212743152
2282.8908,50.216052579345615
2284.3414,40.91112440671441
2285.7914,50.395710493996376
2287.2406,42.719853316540366
2288.689,47.183594845737616
2290.1368,39.33697662578129
2291.5838,46.78003972903002
2293.0302,58.012824834474486
2294.4758,48.135372153304615
2295.9206,51.34772131658292
2297.3648,49.44991147401811
2298.8082,54.89198126184306
2300.251,52.67396882179196
2301.693,61.09591174668003
2303.1343,49.8078471025824
2304.5748,46.80981134461604
2306.0147,46.55184042982023
2307.4538,47.88396984713631
2308.8922,50.106234619989436
2310.3299,49.16866929296566
2311.7669,33.02130790958881
2313.2031,55.9641840216957
2314.6387,51.09733085091011
2316.0735,40.77078105921464
2317.5076,46.734566797620346
2318.941,35.388719809430995
2320.3737,40.183271370606235
2321.8056,46.368252403219
2323.2369,52.19369342751065
2324.6674,43.709624500040036
2326.0972,47.16607515542887
2327.5263,44.11307449120318
2328.9547,41.15065113323044
2330.3823,38.62883326624751
2331.8092,55.597648663486325
2333.2355,42.80712471189099
2334.661,51.157288242431605
2336.0858,46.1981656580067
2337.5098,41.67978284994365
2338.9332,47.452165247589846
2340.3558,48.015337863493414
2341.7778,54.36932523568157
2343.199,52.56415142202991
2344.6195,53.449839936720764
2346.0393,55.37641376829629
2347.4583,69.79389537080078
2348.8767,58.40230664451656
2350.2943,48.40166879178605
2351.7113,55.792002430929415
2353.1275,55.373327696251636
2354.543,66.69566416413659
2355.9578,55.609030857235666
2357.3718,49.56344613124361
2358.7852,54.60892778576385
2360.1978,57.49549312476688
2361.6098,63.97315890613345
2363.021,63.591941312791505
2364.4315,52.75185588793602
2365.8413,54.25291753884312
2367.2504,50.89514064527202
2368.6587,48.37853904445342
2370.0664,59.80312606466896
2371.4733,62.46891455041873
2372.8795,63.82591674817036
2374.285,53.52414427970507
2375.6899,55.363608128544
2377.0939,51.34431874296911
2378.4973,60.916286017626135
2379.9,44.87951933371846
2381.3019,40.13402746328711
2382.7032,53.729818729580074
2384.1037,55.3669010545043
2385.5035,45.14528182267077
2386.9027,43.214967865021436
2388.3011,42.92596556104786
2389.6987,54.42828085809151
2391.0957,48.221919274235916
2392.492,37.05688578328136
2393.8876,41.63318487681386
2395.2824,36.40082067584967
2396.6765,48.85979688507291
2398.07,46.81011684516079
2399.4627,43.701783408194615
2400.8547,48.53479895815303
2402.246,44.60916544199631
2403.6366,44.22488432133832
2405.0265,41.431956611699206
2406.4156,39.38038288635312
2407.8041,49.670163304254174
2409.1918,42.10129763055443
2410.5789,36.22378513370427
2411.9652,43.68762466114026
2413.3508,39.64281469806156
2414.7358,48.289353292793294
2416.12,41.32723809723029
2417.5035,40.45646628037389
2418.8863,41.82703459795539
2420.2684,54.088939401140806
2421.6497,38.39217662282704
2423.0304,43.63674165502198
2424.4104,37.42262950581221
2425.7896,38.849834746918305
2427.1682,49.71835157583496
2428.546,50.82817380155916
2429.9232,44.87929473590543
2431.2996,41.77170718240768
2432.6753,40.705403495807104
2434.0503,38.13037561312899
2435.4246,30.346615064343723
2436.7982,41.154112998119444
2438.1711,46.502860259658746
2439.5433,49.59284728262401
2440.9148,41.674064035649735
2442.2856,34.246499991442306
2443.6557,32.210144205967936
2445.025,34.764985392729386
2446.3937,46.31101194312782
2447.7617,41.19821190091557
2449.1289,40.076572846733825
2450.4955,36.04608194924299
2451.8613,33.50672597633729
2453.2265,37.05849133545098
2454.5909,52.201364098951444
2455.9546,46.03532996862123
2457.3177,44.36037412423025
2458.68,50.42648128519704
2460.0416,51.78363572733588
2461.4025,52.13182122219803
2462.7627,37.72102102349845
2464.1222,41.65121786363409
2465.4811,47.42239409779222
2466.8392,44.98453166464833
2468.1966,50.137612028653734
2469.5533,70.48161620441476
2470.9093,64.96652470516233
2472.2645,58.9923173393114
2473.6191,55.15897326561367
2474.973,50.816471052897214
2476.3262,65.5147887184014
2477.6787,58.85390377120143
2479.0305,59.98379306522452
2480.3816,60.454432865859644
2481.7319,50.76579883865804
2483.0816,55.567866044627635
2484.4306,49.76060903711891
2485.7789,56.744001813804516
2487.1264,58.31801787475126
2488.4733,59.13263015258701
2489.8195,51.23781099675978
2491.165,49.53353216539256
2492.5097,57.169764904229964
2493.8538,57.146479963682395
2495.1972,48.71364752246291
2496.5398,51.421237187820566
2497.8818,61.16921807986819
2499.2231,49.10755880450711
2500.5637,60.18622735594704
2501.9035,62.70519123732322
2503.2427,61.16441734990883
2504.5812,53.06387196792582
2505.919,60.85352075395224
2507.256,53.833328839927844
2508.5924,59.00326074925829
2509.9281,53.11328046701658
2511.2631,46.913351388243655
2512.5974,53.653436376847935
2513.9309,53.13349782760463
2515.2638,53.703497598754666
2516.596,59.81339701720481
2517.9275,54.21315687282697
2519.2583,53.602737357359274
2520.5884,54.53209812040882
2521.9178,57.4511982755555
2523.2465,57.25999639105885
2524.5745,60.30845046066645
2525.9018,61.546517905526116
2527.2284,57.82415554370152
2528.5543,62.141319577791705
2529.8796,60.897965632155206
2531.2041,73.94404870973733
2532.5279,71.02952320450447
2533.851,61.25434277098259
2535.1735,62.91846035340336
2536.4952,60.621828283455216
2537.8163,62.36439826364244
2539.1366,69.99612139025169
2540.4562,67.96694813592615
2541.7752,72.1768282733484
2543.0935,70.07571089553187
2544.411,59.91354437372274
2545.7279,77.24027637841027
2547.0441,64.80585398094865
2548.3596,74.01022348029005
2549.6744,79.15333052732797
2550.9885,76.98512003285441
2552.3019,84.40553611612768
2553.6146,80.71452212655538
2554.9266,77.51202056948955
2556.2379,73.09797314313778
2557.5485,69.52232077058761
2558.8585,76.13500364394747
2560.1677,79.43596126010334
2561.4762,88.82513235459112
2562.7841,75.60245486858742
2564.0913,81.66786585501802
2565.3977,83.47130161078474
2566.7035,87.1126976161114
2568.0086,85.14198851650883
2569.313,86.9091080863617
2570.6167,81.06398924863493
2571.9197,87.55656405720276
2573.222,90.03676375530006
2574.5236,86.7045187105964
2575.8246,87.65975839039368
2577.1248,90.75241139494926
2578.4244,93.93240544792263
2579.7232,92.89966736544977
2581.0214,94.45412302434318
2582.3189,92.3956973724188
2583.6157,93.12431441295212
2584.9118,104.43989722526146
2586.2072,111.84236795742288
2587.5019,103.28164771311356
2588.7959,107.90765647758724
2590.0893,119.2703132032816
2591.3819,105.31953576355772
2592.6739,115.60524083907421
2593.9652,115.07734405729525
2595.2557,123.18575988963255
2596.5456,113.53040165672508
2597.8348,120.76118144735426
2599.1234,119.72801021499777
2600.4112,125.78079770552188
2601.6983,122.71945246751329
2602.9848,120.34388179175153
2604.2705,120.15399174182198
2605.5556,119.74968717787146
2606.84,124.53087175850692
2608.1237,128.2974479448393
2609.4067,123.29931695267089
2610.689,115.73637871483038
2611.9707,126.8085319311532
2613.2516,131.06567414411177
2614.5319,126.00770162809295
2615.8115,118.68450934682755
2617.0903,117.59599100396917
2618.3685,116.79203911632715
2619.6461,122.12254502475093
2620.9229,119.83739890217043
2622.199,111.0864897002906
2623.4745,125.06970517244235
2624.7493,123.53693196109225
2626.0234,116.73805545800997
2627.2968,115.2229598195961
2628.5695,112.94152803487123
2629.8415,115.54364194062691
2631.1128,120.37918224424004
2632.3835,114.7980284976511
2633.6535,124.35005904900925
2634.9228,126.33515109848418
2636.1914,112.9531806027453
2637.4593,119.05402225511114
2638.7265,121.48754961936879
2639.9931,114.70363506876527
2641.259,125.2521497616724
2642.5242,118.53296370942599
2643.7887,119.39594567084089
2645.0525,115.1909632194023
2646.3156,119.86788273463594
2647.5781,115.02656944415799
2648.8398,112.36688737690599
2650.1009,112.03869941155199
2651.3613,118.99186730309941
2652.6211,121.37625168616523
2653.8801,114.4417120054477
2655.1385,113.6381064918827
2656.3961,116.81529223199016
2657.6531,120.12312517590885
2658.9094,115.76146010562536
2660.1651,119.98015060189505
2661.42,123.1790490878584
2662.6743,122.1080067868553
2663.9279,125.71687369043491
2665.1808,133.65549856906682
2666.433,140.57372893605202
2667.6846,126.82141096813689
2668.9354,129.54838943633024
2670.1856,130.30450784342736
2671.4351,139.38960839673985
2672.6839,146.10353200053453
2673.9321,149.59611816518213
2675.1795,149.61720494001815
2676.4263,151.96662887841728
2677.6724,151.09422503758287
2678.9179,140.94982695505155
2680.1626,153.43326665741859
2681.4067,158.69437476178143
2682.6501,145.78298035090484
2683.8928,145.94891092061005
2685.1348,150.94199250888903
2686.3761,143.91204969424473
2687.6168,133.3089055457607
2688.8568,140.2323816933997
2690.0961,131.48229843403624
2691.3348,137.9584746622213
2692.5727,129.76072795768278
2693.81,120.78887452056392
2695.0466,121.09272925340076
2696.2826,124.87210585084085
2697.5178,125.0768167966047
2698.7524,131.5066733256922
2699.9863,135.61148542233548
2701.2195,130.94106175570028
2702.452,138.4952096388372
2703.6839,138.77373507538698
2704.9151,141.37644268403812
2706.1456,147.40313569574232
2707.3755,156.15361592768693
2708.6046,161.37768372302855
2709.8331,161.3251378633871
2711.0609,170.29577551660634
2712.2881,181.83939223727907
2713.5145,183.1057818770405
2714.7403,189.6947364691323
2715.9654,202.45604621573852
2717.1899,216.23949942209663
2718.4136,220.69488236888367
2719.6367,232.87197917438198
2720.8591,243.0205717499258
2722.0809,260.5404396781299
2723.3019,264.73136011140366
2724.5223,273.8931075967522
2725.7421,277.2754540338673
2726.9611,280.87816858351005
2728.1795,289.201017633687
2729.3972,267.2437647636235
2730.6142,252.45617066053444
2731.8306,243.7379933391976
2733.0462,227.7889882898288
2734.2612,208.20890856526444
2735.4756,192.49750494045122
2736.6892,180.60452610824677
2737.9022,168.12971883653415
2739.1145,147.72282808715102
2740.3262,140.48359714063804
2741.5372,136.11176780030803
2742.7475,112.00708046463774
2743.9571,104.51927417098659
2745.1661,100.59808683664335
2746.3744,90.69325533370409
2747.582,80.20451552828433
2748.7889,75.43160237956715
2749.9952,65.57425004469064
2751.2008,52.832191926478
2752.4057,55.855160772009754
2753.61,46.29288880004481
2754.8136,48.7451076707913
2756.0165,40.21154858152886
2757.2188,40.84194224208636
2758.4204,45.78601896017756
2759.6213,39.14350863509685
2760.8215,39.114140708278796
2762.0211,33.49764422972248
2763.22,30.593747858286406
2764.4182,25.852179917853164
2765.6158,21.92266842636741
2766.8127,24.9049411432527
2768.009,15.6987256087059
2769.2045,11.703749113875006
2770.3994,13.219738792921135
2771.5936,6.596421662967941
2772.7872,-3.6164753910580885
2773.9801,-13.769225550194506
2775.1723,-6.062065866889498
2776.3639,-3.6950958390279993
2777.5548,-14.518354404457568
2778.745,-10.981843587018147
2779.9346,-17.935420372189697
2781.1235,-20.278832036834842
2782.3117,-15.911646682966989
2783.4992,-15.63322982706768
2784.6861,-18.342788028267705
2785.8723,-4.43937166973285
2787.0579,-9.72184789017615
2788.2428,1.7609605210113841
2789.427,4.910327895699766
2790.6106,12.477528548148712
2791.7935,6.413836743515276
2792.9757,20.570526622181546
2794.1573,18.998872260391977
2795.3382,33.10014752868585
2796.5184,45.92562610761513
2797.698,51.07658134673102
2798.8769,61.5542861363291
2800.0551,73.96001285593854
2801.2327,87.54503326954682
2802.4096,102.66061840154214
2803.5859,109.7580384008644
2804.7615,129.1385623898467
2805.9364,152.65345839324198
2807.1106,169.3539931444176
2808.2842,193.2414318502066
2809.4572,221.3170380239028
2810.6294,251.83207324638556
2811.801,284.63779688536397
2812.972,313.78546579022634
2814.1423,350.57633396398376
2815.3119,390.61165227179265
2816.4808,434.89266807304625
2817.6491,482.770624821022
2818.8167,532.2967616200708
2819.9837,578.9223127468366
2821.15,625.3485071549974
2822.3157,670.3265680090079
2823.4807,730.5077122198372
2824.645,773.4431499951896
2825.8086,827.4840842376925
2826.9716,874.0817101155421
2828.134,901.4372145220935
2829.2957,954.601775609886
2830.4567,981.3265625170859
2831.617,1007.562734835843
2832.7767,1011.0614423450418
2833.9358,1008.2238247479388
2835.0941,991.6510116371769
2836.2519,985.9941225231616
2837.4089,959.0542669997882
2838.5653,945.432544801011
2839.7211,942.4300460702422
2840.8761,951.5478514965695
2842.0306,961.6870323447799
2843.1843,984.9986503641823
2844.3374,1032.3337576872148
2845.4899,1068.49339659633
2846.6417,1134.5785990506438
2847.7928,1193.1903863243365
2848.9433,1261.9297683458044
2850.0931,1339.4477431115392
2851.2422,1396.0952959987353
2852.3907,1438.123398990111
2853.5385,1508.8830101074302
2854.6857,1553.0750729912254
2855.8323,1607.5505161931987
2856.9781,1655.5102527343024
2858.1233,1686.805179559984
2859.2679,1741.4861770605878
2860.4118,1791.7541087584084
2861.555,1823.7098207608774
2862.6976,1882.854141257887
2863.8395,1899.8378802022294
2864.9808,1924.8618287181566
2866.1214,1938.7267589315425
2867.2614,1938.1834237196435
2868.4007,1963.4825565724473
2869.5393,1971.1248715981098
2870.6773,1986.06106326996
2871.8146,2005.0918063500792
2872.9513,1998.7677557399384
2874.0874,1989.2395462900909
2875.2227,1988.9577928634112
2876.3574,1965.7730904303805
2877.4915,1942.8360140719014
2878.6249,1920.8971192111458
2879.7577,1888.1069418429256
2880.8898,1862.415998753083
2882.0212,1853.7747878463897
2883.152,1840.3837884034594
2884.2821,1824.4434611671581
2885.4116,1814.8042484765137
2886.5405,1815.0665744261205
2887.6686,1826.8308449625308
2888.7962,1840.4974478816312
2889.923,1849.6167527109997
2891.0493,1842.1891105732423
2892.1748,1860.164854094795
2893.2997,1869.6442974802055
2894.424,1892.5777363323725
2895.5476,1901.515447557752
2896.6706,1928.0076891370227
2897.7929,1950.80470003571
2898.9145,1979.2066999392612
2900.0355,2001.3638890250777
2901.1559,2033.5764476784927
2902.2756,2068.6945362712017
2903.3946,2102.0182948391366
2904.513,2125.597842731284
2905.6308,2140.4332782764477
2906.7479,2174.4246785474543
2907.8643,2202.9720992127973
2908.9801,2213.6755741967245
2910.0953,2219.0351153937618
2911.2098,2231.70071256168
2912.3236,2223.9723332678986
2913.4368,2214.999922762831
2914.5494,2193.533404057166
2915.6613,2156.2726780115954
2916.7725,2141.9676235514767
2917.8831,2110.5680980394413
2918.9931,2078.8239374184445
2920.1024,2064.834956525761
2921.211,2036.5509494104267
2922.319,2020.1716894731278
2923.4264,2005.6469297490426
2924.5331,1994.1764030716317
2925.6391,1976.959822217888
2926.7445,1988.0968800230403
2927.8493,1990.2372495527206
2928.9534,1988.8305839915915
2930.0569,1990.8765166219448
2931.1597,1974.924660837765
2932.2619,1980.5246101242728
2933.3634,1975.7259382174416
2934.4643,1986.1281990479993
2935.5645,1973.780926789414
2936.6641,1946.1836357538737
2937.763,1905.7358205157566
2938.8613,1863.6369561876047
2939.959,1821.8864988246028
2941.056,1764.7338858455655
2942.1523,1679.6785364504444
2943.248,1614.869852191851
2944.3431,1524.157217825611
2945.4375,1425.240001958853
2946.5313,1334.9175579571333
2947.6244,1232.5392249336078
2948.7169,1134.954328652258
2949.8087,1053.4121825516731
2950.8999,978.3120887209003
2951.9904,898.1533387148645
2953.0803,822.4852143053704
2954.1696,774.60698828269
2955.2582,726.4679252122435
2956.3462,667.4172819133814
2957.4335,644.2043079407756
2958.5202,610.3282461749254
2959.6062,593.5383330542868
2960.6916,563.3337989140341
2961.7764,555.8638681539583
2962.8605,530.3777595405134
2963.9439,529.3246862815142
2965.0267,516.4038562809992
2966.1089,519.7644721497593
2967.1905,514.1057313345484
2968.2714,511.07682608447476
2969.3516,516.3269435075904
2970.4312,512.2552656011799
2971.5102,525.4609691992576
2972.5885,528.0932260132868
2973.6662,529.4512025001206
2974.7432,524.7840598356803
2975.8196,533.7909539013747
2976.8954,523.0210353307732
2977.9705,520.9234494195357
2979.045,517.747336233113
2980.1188,500.8918306277201
2981.192,480.5060622821003
2982.2645,465.28915586607866
2983.3364,453.4402312444198
2984.4077,432.2584036289975
2985.4783,405.64278369728356
2986.5483,377.49247780416624
2987.6177,354.70658824810596
2988.6864,324.9842135526386
2989.7545,292.4744486942344
2990.8219,268.1763853995218
2991.8887,233.93911247038477
2992.9548,214.6117160269439
2994.0204,188.5932798499291
2995.0852,164.03288557395342
2996.1495,133.07961294769666
2997.2131,111.23254007951084
2998.276,97.59074374695149
2999.3383,86.45329961524908
3000.4,63.1692823737269
3001.4611,49.83776584717555
3002.5215,43.557823228692826
3003.5812,30.778527212999393
3004.6404,12.198950059237575
3005.6989,14.068163718764936
3006.7567,6.685240020949777
3007.8139,-0.05074934552095556
3008.8705,-4.190732758812658
3009.9264,-2.7356385965829872
3010.9818,-11.586353371069379
3012.0364,-8.993736265480493
3013.0905,-9.308530715354323
3014.1439,-11.531390308804475
3015.1966,-11.912875641722508
3016.2487,-10.103432111411166
3017.3002,-8.553386105545655
3018.3511,-4.962963078514576
3019.4013,0.9176969636204717
3020.4509,1.0885035947983397
3021.4998,3.7993663797809063
3022.5481,-0.8498051275547596
3023.5958,4.690898588674372
3024.6428,9.571395533904479
3025.6892,8.99160366666257
3026.735,17.351440849762014
3027.7802,23.40082485610003
3028.8247,16.839673285059405
3029.8685,27.46790350201462
3030.9118,37.335432703943525
3031.9544,38.99217781314485
3032.9963,45.188055378563206
3034.0376,46.82298155922166
3035.0783,61.04687206226305
3036.1184,68.25964212660085
3037.1578,67.91120638068008
3038.1966,81.05147877034926
3039.2348,73.13037256234526
3040.2723,84.04780021289037
3041.3092,86.75367344690318
3042.3455,89.39790314882441
3043.3811,89.28039933555829
3044.4161,95.30107113003027
3045.4505,97.35982676236199
3046.4842,95.85657350966443
3047.5173,91.59121767545042
3048.5498,88.11366460466735
3049.5816,91.87381872635046
3050.6128,88.32158358839865
3051.6434,86.35686181997261
3052.6734,86.92955516701738
3053.7027,83.58956451190954
3054.7314,82.03678986773008
3055.7594,84.37113041166492
3056.7868,79.7424845005321
3057.8136,84.55074964743858
3058.8398,79.59582256806675
3059.8653,82.87759913259146
3060.8902,77.39597441522949
3061.9145,83.6008426614219
3062.9381,79.29209734264998
3063.9612,77.96963109438684
3064.9835,77.43333575918462
3066.0053,82.73310239989962
3067.0264,78.96882130505492
3068.0469,66.29038193584284
3069.0668,66.79767296376752
3070.086,67.64058239742945
3071.1046,66.56899757745265
3072.1226,60.082805168055415
3073.1399,54.48189116776615
3074.1567,45.41614097428544
3075.1727,45.13543944049479
3076.1882,37.48967096511461
3077.203,37.72871949551097
3078.2173,31.1024686041533
3079.2308,30.01080148622401
3080.2438,28.253601025880982
3081.2561,16.530749807174118
3082.2678,15.942130131617375
3083.2789,13.387624135417525
3084.2893,10.317113795359916
3085.2991,12.730480954353823
3086.3083,2.5776073521373917
3087.3169,5.408374601144033
3088.3248,5.422664288031058
3089.3321,1.8703579453722057
3090.3388,3.451337051514656
3091.3449,-2.3845169338978565
3092.3503,2.2626774142650277
3093.3551,0.39282534245782585
3094.3593,-5.19416792549174
3095.3629,-2.648401090081194
3096.3658,-0.2199209620704039
3097.3681,-1.1087478946926126
3098.3698,0.9850999558293552
3099.3708,-5.438384490336034
3100.3713,3.470791677128858
3101.3711,0.21267569800258457
3102.3702,-1.8126852226440349
3103.3688,3.444753995629469
3104.3667,-4.464943458011078
3105.364,0.9582855711528282
3106.3607,3.7145488426247653
3107.3568,-1.2460458936743066
3108.3522,-1.22339092496901
3109.347,1.632633909514567
3110.3412,-1.0778390077745428
3111.3348,1.3953226892865302
3112.3277,2.7022621344322033
3113.32,5.2931224474437215
3114.3117,2.2180467210799577
3115.3028,11.627177995168495
3116.2932,7.320659287356563
3117.2831,6.748633499019718
3118.2723,9.161243458326823
3119.2608,13.958631925960646
3120.2488,10.19094157099147
3121.2361,11.458314922903384
3122.2229,11.610894409271054
3123.209,10.34882234308617
3124.1944,13.62224092123148
3125.1793,16.631292237101462
3126.1635,16.526118247868453
3127.1471,13.25686074439173
3128.1301,19.62366135226945
3129.1125,17.82666156453118
3130.0942,20.11600267797006
3131.0753,16.69182581111238
3132.0558,15.054271881324581
3133.0357,18.803481639054695
3134.015,22.439595684208257
3134.9936,20.462754428656027
3135.9716,24.97309805987291
3136.949,26.07076656070619
3137.9258,26.755899664272306
3138.902,26.728636842980023
3139.8775,24.239117301679187
3140.8524,28.03747997793326
3141.8267,31.423863566914534
3142.8004,33.64840648342059
3143.7735,35.46124682801042
3144.7459,34.662522364759056
3145.7178,37.35237050312905
3146.689,32.03092830595783
3147.6596,35.54833246255916
3148.6295,39.704719341937604
3149.5989,41.50022495761446
3150.5676,38.434984926063905
3151.5357,41.859134448757885
3152.5032,42.82280834281859
3153.4701,41.7761410067768
3154.4364,42.819266410935256
3155.402,45.202318107835296
3156.367,44.525429221825604
3157.3315,46.88873242523172
3158.2952,47.942359945124906
3159.2584,44.18644353968907
3160.221,46.671114487684584
3161.1829,50.74650362600742
3162.1442,47.762741324842395
3163.105,51.01995744690931
3164.065,51.6682813773006
3165.0245,52.65784199090914
3165.9834,54.63876764594501
3166.9416,55.3611861740399
3167.8993,59.775224860437845
3168.8563,60.33101043677104
3169.8127,57.078669036919415
3170.7684,59.818326191452854
3171.7236,60.85010686015457
3172.6782,64.97413540462452
3173.6321,60.9405355779616
3174.5854,65.09943048352343
3175.5381,65.85094261526227
3176.4902,66.54519381613606
3177.4417,68.98230527059339
3178.3926,66.76239749763084
3179.3428,68.98559032642211
3180.2924,68.10200291851679
3181.2415,70.91175374560868
3182.1899,69.61496059837155
3183.1377,70.41174055836163
3184.0848,73.95221001098548
3185.0314,74.43648463753242
3185.9773,74.76467937976952
3186.9227,77.18690843509908
3187.8674,77.25328525327667
3188.8115,75.61392251218872
3189.755,80.0189321171888
3190.6979,82.41842521749132
3191.6402,81.81251216212134
3192.5818,85.70130247591965
3193.5229,83.98490486560196
3194.4633,86.61342718087096
3195.4031,85.48697643158023
3196.3423,84.35565876144915
3197.2809,89.01957945932732
3198.2189,88.67884297050772
3199.1563,89.83355285008754
3200.0931,91.58381176637562
3201.0292,93.32972148934515
3201.9648,90.37138287313127
3202.8997,95.65889583857188
3203.834,94.59235940279106
3204.7677,98.97187162632395
3205.7008,95.24752962378203
3206.6333,99.61942952005815
3207.5652,100.08766648756978
3208.4964,99.45233470254013
3209.4271,100.86352734031573
3210.3571,103.32133658171975
3211.2865,103.12585359894008
3212.2154,102.12716853095122
3213.1436,107.1253704854691
3214.0712,103.62054754893802
3214.9982,107.81278673654852
3215.9246,107.65217402728561
3216.8503,106.43879432200647
3217.7755,110.02273144504653
3218.7001,114.25406815635321
3219.624,112.28288611564673
3220.5473,111.8592658401065
3221.4701,112.38328672408313
3222.3922,115.95502704333452
3223.3137,114.92456394978569
3224.2346,117.29197343581133
3225.1549,115.05733034454047
3226.0746,120.02070834618243
3226.9937,119.98217996037319
3227.9121,123.44181650654158
3228.83,122.79968810429469
3229.7473,122.90586363882136
3230.6639,125.36041076731357
3231.5799,124.46339591790468
3232.4954,126.66488426512387
3233.4102,126.31493973886637
3234.3244,127.11362500237854
3235.238,128.7110014557573
3236.151,133.70712922796326
3237.0634,129.55206716084706
3237.9752,128.44587275918795
3238.8864,130.43860223224456
3239.797,134.28031050481675
3240.7069,135.47105119731827
3241.6163,135.41087658735972
3242.5251,136.5498375978412
3243.4332,139.18798379755393
3244.3408,138.12536338979075
3245.2477,140.1120231859647
3246.154,141.19800861623506
3247.0598,145.1833637096409
3247.9649,140.66813108324112
3248.8694,142.652351902261
3249.7733,143.2360659252443
3250.6766,145.56931148421137
3251.5793,145.4021254788217
3252.4814,146.4345433530416
3253.3829,149.86659909681623
3254.2838,148.99832523574517
3255.1841,149.3297527967619
3256.0838,149.71091131681663
3256.9829,150.94182883956205
3257.8814,156.07253191154166
3258.7792,152.7030455698806
3259.6765,153.83339329097876
3260.5731,154.26359702420535
3261.4692,153.7936771805958
3262.3647,153.72365262854936
3263.2595,154.5035406985285
3264.1538,156.08335718375898
3265.0474,155.1631163324312
3265.9404,157.44283083190192
3266.8329,158.87251181789662
3267.7247,160.45216885171249
3268.616,157.88180990592147
3269.5066,156.36144134857383
3270.3966,162.89106796890164
3271.286,159.6706929925225
