RamanShift,CorrectedData
30.1047,2175.638307792155
32.3739,2031.002963483705
34.6426,1885.1675974188715
36.9109,1734.5821675312422
39.1787,1591.0466129027277
41.4461,1446.4608552694172
43.7131,1300.2748004569323
45.9796,1153.8383398262863
48.2456,1009.6513517357427
50.5112,867.8137030051811
52.7764,725.1752503579672
55.0411,579.9358418393294
57.3054,437.24531824274317
59.5692,293.5035145623251
61.8326,147.96026141973894
64.0955,11.665386501612915
66.3579,-125.63128398502718
68.6199,-262.57992394980954
70.8815,-377.77945224583505
73.1426,-440.4261645527651
75.4032,-374.0125825335331
77.6634,7.873172006310369
79.9231,1139.7967136469144
82.1824,3826.0236568896967
84.4412,8791.919604838109
86.6995,15727.90012233537
88.9574,22529.380686305496
91.2148,27169.176616393517
93.4717,29305.65300695064
95.7282,29662.77468063633
97.9842,29543.206167053497
100.2398,28990.561699177324
102.4949,28261.80521455093
104.7495,27367.65036081181
107.0036,26457.96050297943
109.2573,25590.698732396726
111.5105,24772.327875827057
113.7632,23962.16050412678
116.0154,23219.308940428986
118.2672,22689.885268245147
120.5185,22108.70133889366
122.7693,21651.41877679407
125.0197,21204.748985278908
127.2696,20807.603151166506
129.519,20546.642249227727
131.7679,20229.527046157385
134.0163,19983.71810318389
136.2642,19625.47577924038
138.5117,19310.91023342281
140.7587,18956.281428572373
143.0052,18622.299134421188
145.2512,18275.472931138538
147.4967,17936.612212670727
149.7417,17634.576190209333
151.9863,17388.523895579812
154.2304,17216.01418426187
156.4739,16907.30573784995
158.717,16708.257065778398
160.9596,16456.47650840846
163.2017,16061.372239018847
165.4433,15696.552266323484
167.6844,15257.174438422591
169.925,14849.996446450856
172.1651,14286.97582897123
174.4047,13895.569976046705
176.6439,13520.436134870508
178.8825,13190.781413680177
181.1206,12939.062785508888
183.3582,12649.037091482001
185.5954,12445.861043334256
187.832,12221.19122631002
190.0681,12106.68410119505
192.3037,11977.44600656319
194.5388,11857.533159921451
196.7734,11796.901659002384
199.0075,11751.307482963217
201.2411,11820.906492992151
203.4742,11754.604432764325
205.7068,11822.7569277458
207.9389,11812.069485856608
210.1704,11879.997496789205
212.4015,11894.646232115354
214.632,11961.970844606856
216.862,12019.676368089044
219.0915,12110.817716767553
221.3205,12201.999684651251
223.549,12341.176944640845
225.777,12546.904047617036
228.0044,12786.685421048764
230.2314,13157.175366935935
232.4578,13430.6780594116
234.6837,13700.247541037064
236.909,13794.287720066837
239.1339,13647.002367752979
241.3582,13374.845117404673
243.582,12932.719465861077
245.8053,12536.278776212925
248.0281,12075.176282223745
250.2503,11799.015092294285
252.472,11580.698194073537
254.6932,11446.228457220348
256.9139,11249.808635586596
259.134,11161.741368561883
261.3536,11100.829183037724
263.5727,11076.724494288237
265.7912,10929.629606579256
268.0092,10889.196713409363
270.2267,10755.52789898085
272.4436,10673.275138604045
274.6601,10500.64030003401
276.8759,10350.425144293062
279.0913,10240.281327397111
281.3061,10085.56040185782
283.5204,10034.463817784042
285.7341,10046.192924429037
287.9473,10119.848970701434
290.16,10300.283105047929
292.3721,10484.046374716741
294.5837,10820.939723953257
296.7947,11070.563992162408
299.0052,11188.219910539738
301.2152,10919.958099575135
303.4246,10521.929067876315
305.6334,9923.333214851402
307.8418,9332.87083468924
310.0495,8846.642122345347
312.2568,8476.897179446536
314.4635,8164.086019153208
316.6696,7954.558569856801
318.8752,7843.264678307891
321.0802,7833.304111711475
323.2847,7834.426558839921
325.4887,7808.981630132555
327.692,7629.268857684434
329.8949,7499.787695500798
332.0972,7155.837521294216
334.2989,6828.367637779389
336.5001,6509.327276112661
338.7007,6255.015599166698
340.9008,6095.981704720905
343.1003,5889.574628004537
345.2992,5781.99334328704
347.4976,5678.936765942122
349.6955,5575.353753523565
351.8927,5605.393106795798
354.0895,5499.953570769721
356.2856,5496.583834402318
358.4812,5422.38253165103
360.6763,5410.598241507469
362.8707,5309.829488739422
365.0646,5262.274744008704
367.258,5227.13242487883
369.4508,5230.4008962905755
371.643,5219.078470913395
373.8346,5135.66340911272
376.0257,5087.603919063233
378.2162,4891.548157582962
380.4062,4783.944230613917
382.5956,4579.440195182633
384.7844,4462.534060476206
386.9726,4267.973789887343
389.1603,4169.457302183411
391.3474,4063.7324734520625
393.5339,4017.347138086352
395.7199,3892.499089842022
397.9052,3848.13608230136
400.09,3833.6058301216653
402.2743,3871.0060094788896
404.4579,3888.9842582129386
406.641,4039.4881754536764
408.8235,4158.96532144113
411.0054,4437.6632160204645
413.1868,4796.129337447201
415.3675,5070.561119600239
417.5477,5189.255948397193
419.7273,5195.211159050072
421.9064,5040.574034878355
424.0848,4850.79180724941
426.2627,4603.76165712488
428.4399,4273.380716958491
430.6166,3852.9460731663567
432.7928,3479.854769430789
434.9683,3077.0038109046473
437.1432,2813.0401679422393
439.3176,2625.6607801278515
441.4914,2442.4625589153657
443.6645,2387.6923895020664
445.8371,2292.8971326606334
448.0091,2135.6736252868104
450.1806,2094.568681347413
452.3514,1966.3790934525132
454.5216,1965.6016332665276
456.6913,1816.7330527900776
458.8603,1829.6700843677827
461.0288,1887.509442176939
463.1967,1820.5478220981604
465.3639,1991.831901136964
467.5306,1975.258338093412
469.6967,2058.7737718492535
471.8622,2178.474821533673
474.0271,2274.7080856881294
476.1914,2317.070141069329
478.3551,2256.5075416869113
480.5182,2288.1668183798065
482.6807,2209.1444794218805
484.8426,2299.0870102053414
487.0039,2612.090874030957
489.1647,2983.802511208625
491.3248,3373.018335927354
493.4843,3544.5847325381146
495.6432,3499.798051661721
497.8015,3360.5546084731286
499.9592,3366.300683149322
502.1163,3250.332522261746
504.2728,2932.4963387188363
506.4287,2686.6883129257076
508.5839,2213.2045959625175
510.7386,1930.1413120425495
512.8927,1759.5945632470575
515.0461,1599.7604323558771
517.199,1570.634984552922
519.3512,1564.4142690244917
521.5029,1614.6943192505496
523.6539,1647.6211530669352
525.8043,1691.140772162562
527.9541,1676.6491617501233
530.1033,1652.5422901309248
532.2519,1628.4161088397886
534.3999,1744.166552886134
536.5472,2016.6895409952303
538.694,2444.6309744507016
540.8401,3024.186734369272
542.9856,3465.002677421362
545.1305,3591.224630035551
547.2748,3462.4483839904096
549.4185,3116.919695152268
551.5615,2740.7342847629952
553.704,2596.237842895258
555.8458,2515.5260322143877
557.987,2588.794489423348
560.1276,2543.888826069855
562.2675,2613.804627813697
564.4069,2625.7874548757827
566.5456,2636.1328413389856
568.6837,2596.236295028313
570.8212,2255.143297407456
572.958,1900.3993039777451
575.0942,1555.2997476890923
577.2299,1349.5900424874308
579.3648,1310.6155867657108
581.4992,1338.5217654210064
583.6329,1521.803950244248
585.766,1759.3574996411844
587.8985,1808.377756799524
590.0304,1823.6600473134386
592.1616,1714.8496786932992
594.2922,1622.4919402129199
596.4222,1471.9321039975912
598.5515,1285.8154259477342
600.6802,1150.6371472444298
602.8083,915.5424962106117
604.9358,884.3766896628658
607.0626,781.534935262338
609.1888,772.7124318264432
611.3144,734.1543703572388
613.4393,582.5059341296801
615.5636,538.7622990771815
617.6873,461.06863530811097
619.8103,401.6701075432502
621.9327,290.81187589270485
624.0544,237.0390964498838
626.1756,210.19692240010409
628.2961,207.18050455829143
630.4159,145.08499163743545
632.5351,110.25553027871501
634.6537,15.687265672480862
636.7716,38.02534190652659
638.8889,38.264746352870134
641.0056,145.2004660032726
643.1216,79.12748746684883
645.237,160.0407959007316
647.3518,101.18537567079329
649.4659,130.15620954251426
651.5793,152.04827926954022
653.6922,135.7565653039601
655.8043,132.02604657739357
657.9159,131.85170066390492
660.0268,24.42850381731114
662.137,-1.6485690270965279
664.2466,-42.184786974798044
666.3556,-11.385402662068373
668.4639,-90.45524729918907
670.5716,-15.249038356283563
672.6786,88.27941034443575
674.785,87.62643731863136
676.8907,148.68838019918257
678.9958,243.66157574272074
681.1002,212.09235921899744
683.204,202.22706346117047
685.3072,136.0620191814778
687.4097,88.34355506991051
689.5115,56.61799845584392
691.6127,41.78167578521243
693.7132,-43.16908706220056
695.8131,-82.08796462444661
697.9123,-43.17820018038765
700.0109,-101.24221695012602
702.1089,-90.03200680357622
704.2061,-95.34855020088071
706.3028,-21.341928182453557
708.3987,29.58873074332223
710.4941,133.8445112738882
712.5887,350.37620251526096
714.6827,609.134592235001
716.7761,920.7204646969185
718.8688,1285.4345980734834
720.9608,1493.9777613299702
723.0522,1550.350710577306
725.1429,1366.3041869866647
727.233,1113.6889162256994
729.3224,935.4556102990464
731.4112,641.9049700744472
733.4993,451.9876870650987
735.5867,269.35444636514876
737.6735,205.1059285488882
739.7596,126.49281149707895
741.845,109.0657710394189
743.9298,37.22548174070471
746.014,99.67261707508078
748.0974,49.10747863413417
750.1802,73.78036701273231
752.2624,94.29158231468318
754.3439,105.09142390601119
756.4247,177.53019020983265
758.5048,295.80817859837043
760.5843,541.6756846685676
762.6631,776.3830010592719
764.7413,1275.380414992611
766.8188,1861.518205926859
768.8956,2318.5466405665065
770.9718,2634.6159670008637
773.0473,2447.5764101337845
775.1221,2145.578168522974
777.1962,1800.6214162503784
779.2697,1620.6063059421685
781.3426,1611.2329722183204
783.4147,1877.8515334927433
785.4862,2178.562092067041
787.557,2181.8647314643204
789.6271,1893.8095134220748
791.6966,1355.096477859177
793.7654,799.2256457564254
795.8335,527.8970245436576
797.901,324.6106136584858
799.9678,246.76640725955076
802.0339,270.41439625940984
804.0993,363.8045691029547
806.1641,325.48691153095206
808.2282,266.5114056461571
810.2916,212.67803029644347
812.3544,167.6867616645868
814.4164,62.387573806598084
816.4778,111.53043910162523
818.5385,102.96532930497779
820.5986,202.092215056633
822.658,322.31106596695827
824.7166,433.17184962542524
826.7747,742.0245303984047
828.832,970.5190683205583
830.8886,1034.7054160063053
832.9446,1249.033516364907
834.9999,1240.6033019585666
837.0545,1280.6646928591763
839.1085,1262.767596732585
841.1618,1196.811908438016
843.2143,1146.1975102070137
845.2662,1054.074272303027
847.3175,1028.9920535275414
849.368,916.9007021412908
851.4179,831.1500561151188
853.467,668.7899442508569
855.5155,616.2201870388526
857.5633,506.34059828156023
859.6105,390.20098561923805
861.6569,376.25115162875954
863.7027,339.1908949849894
865.7478,389.6200106003125
867.7922,381.93828999518155
869.8359,406.49552079388377
871.8789,551.8414868013497
873.9212,752.3259677575661
875.9629,905.4987378841179
878.0039,1061.2595638793427
880.0441,1217.0082033866202
882.0837,1216.9944034367363
884.1226,1170.0178988904008
886.1609,1091.0284124384125
888.1984,1035.1756550713799
890.2352,1084.5593268696393
892.2714,1089.2791175617785
894.3069,1095.8847060307999
896.3416,980.8757602669357
898.3757,948.5519373015632
900.4091,976.8628843573206
902.4418,1017.0582391713433
904.4739,1018.8876297121351
906.5052,1039.0006737776457
908.5358,916.4969789769275
910.5658,840.9761425290526
912.595,661.7877524881114
914.6236,535.0813884984491
916.6515,538.0066235865379
918.6786,486.16302542803896
920.7051,587.4501563185695
922.7309,712.2675736921119
924.756,759.5148291081641
926.7804,908.991467003576
928.8041,836.4970242200288
930.8272,883.881028509335
932.8495,781.2429992583129
934.8711,741.132447015003
936.892,638.9488745150156
938.9123,493.39177708264833
940.9318,420.81064365274506
942.9506,273.20495822622615
944.9688,204.72420059593787
946.9862,182.0178478226626
949.003,61.53537491994939
951.019,73.02625508119672
953.0344,127.98996088443528
955.0491,171.1259641774559
957.063,251.78373552814082
959.0763,384.6127437931391
961.0888,467.0124553112619
963.1007,576.032332575207
965.1119,627.3718334075456
967.1223,683.0804098705448
969.1321,735.3075077527683
971.1412,749.9525660119871
973.1495,779.4650162529142
975.1572,824.5442825807368
977.1641,898.8897813060103
979.1704,898.5009204938578
981.1759,913.8270992205034
983.1808,974.0177075771862
985.1849,1033.422126516878
987.1884,1195.6897272523747
989.1911,1348.8698706622417
991.1932,1514.7119056681586
993.1945,1537.4151677030932
995.1951,1445.2789770529125
997.1951,1457.502638629343
999.1943,1368.585442891319
1001.1928,1332.1766657227745
1003.1906,1354.8755693217936
1005.1877,1423.7314025646883
1007.1841,1339.243400779029
1009.1798,1323.2607850550594
1011.1748,1145.2327630906184
1013.1691,959.1585293509379
1015.1627,729.6372668489312
1017.1556,529.6181490059134
1019.1477,446.7503419468485
1021.1392,295.4830065005299
1023.1299,296.06529902823604
1025.12,326.1463729364441
1027.1093,364.7253786709807
1029.0979,469.0014634162253
1031.0859,528.6237707093169
1033.0731,550.3414393973944
1035.0596,455.1536030413845
1037.0454,278.5093896988037
1039.0304,215.95792287565564
1041.0148,96.648323292844
1042.9985,-10.870290488306637
1044.9814,24.201199127073778
1046.9636,-49.5379816719651
1048.9452,-46.48860693838651
1050.926,-40.050955840721144
1052.9061,-32.07484312633824
1054.8855,-4.009683433549071
1056.8642,19.99542902698522
1058.8421,77.39144010132077
1060.8194,89.82929543556747
1062.7959,148.00993990193092
1064.7717,195.28431747435752
1066.7469,237.053370646674
1068.7213,250.9180399598954
1070.695,269.1792635845086
1072.6679,188.43797718182032
1074.6402,205.24511372136476
1076.6117,202.05160428831005
1078.5826,246.0083779153574
1080.5527,267.5163616147256
1082.5221,323.8764799385608
1084.4908,490.0896547638731
1086.4587,670.4068047289111
1088.426,836.4788435710434
1090.3925,816.9066783235794
1092.3584,776.2912076550456
1094.3235,665.6333220648921
1096.2879,611.1339042896798
1098.2515,643.5438304096497
1100.2145,731.8139703936977
1102.1767,822.5951877752959
1104.1382,996.0383387697802
1106.099,1184.9942713665732
1108.0591,1394.2638235947015
1110.0185,1550.497821633282
1111.9771,1612.7970777187948
1113.9351,1396.062388582748
1115.8923,1136.7445348287001
1117.8488,853.1942830995904
1119.8045,603.4123886709313
1121.7596,531.4495982862754
1123.7139,441.85665265507487
1125.6675,479.3842871722991
1127.6204,576.8332328143479
1129.5726,537.2042157637952
1131.524,534.1479564349102
1133.4748,570.1151698699141
1135.4248,506.95656576956753
1137.3741,515.6228481334801
1139.3226,490.26471589172434
1141.2705,480.03286281815963
1143.2176,353.42797778399836
1145.164,407.4007448601442
1147.1097,391.0518445832313
1149.0546,425.731953415896
1150.9989,410.8917439102588
1152.9424,296.5818843611196
1154.8852,146.70303895436882
1156.8272,55.85586891010462
1158.7686,44.2410339813905
1160.7092,18.3591933627431
1162.6491,16.811005806277535
1164.5883,120.19712988054016
1166.5267,182.16822398597287
1168.4644,326.774945321049
1170.4014,535.2679492625648
1172.3377,815.897887919582
1174.2732,1072.0654080484965
1176.2081,1353.3711482467406
1178.1421,1583.6657363911108
1180.0755,1898.3997868246915
1182.0082,1960.573898053939
1183.9401,2020.7386496013132
1185.8713,1894.1446013835703
1187.8017,1681.2422931100737
1189.7315,1485.0822455487469
1191.6605,1157.4149626551043
1193.5888,940.7909335338445
1195.5163,885.8106357155266
1197.4432,796.7745373228026
1199.3693,726.6330976202407
1201.2947,670.2367679046583
1203.2193,672.4359922065669
1205.1432,706.5812078541094
1207.0664,800.32284545109
1208.9889,790.9113285355088
1210.9106,780.0970726421365
1212.8316,811.080485396651
1214.7519,898.3119666237835
1216.6715,919.3919080374508
1218.5903,981.6206923684877
1220.5084,978.9486931538231
1222.4257,1005.2762741141778
1224.3424,941.9037891808148
1226.2583,1027.381582232225
1228.1735,1122.7099877278888
1230.0879,1183.639329853475
1232.0016,1317.0699215675631
1233.9146,1362.2520639923532
1235.8269,1307.7360450793312
1237.7384,1201.9221391575047
1239.6492,1049.7606074785217
1241.5592,991.1016992748227
1243.4686,916.0456532812532
1245.3772,932.2926983216457
1247.285,900.6430540593901
1249.1922,860.0969308349522
1251.0986,898.0045299823796
1253.0042,896.3660442347646
1254.9092,964.6816573451833
1256.8134,1065.6515441030388
1258.7169,1266.6258696509394
1260.6196,1454.2047884749845
1262.5216,1663.6884423950396
1264.4229,1831.1269586888993
1266.3234,2028.1704479975015
1268.2232,2116.569002650529
1270.1223,2135.222694695971
1272.0207,2136.9815750161324
1273.9183,2082.495673141082
1275.8151,2029.2149972310945
1277.7113,1975.0895346214966
1279.6067,1903.8192523554571
1281.5014,1847.2040977252764
1283.3953,1875.6439989850514
1285.2885,1935.9888659168537
1287.181,2016.3885895463136
1289.0727,2196.5430415391966
1290.9637,2264.252073397376
1292.854,2477.3155146573263
1294.7435,2518.233172213
1296.6323,2729.704828185215
1298.5204,2942.03023951246
1300.4077,3179.8091358362
1302.2943,3353.741217377592
1304.1802,3415.6261525597183
1306.0653,3260.4135762682563
1307.9497,3068.40308923263
1309.8333,2912.8442595781344
1311.7162,2811.186624746053
1313.5984,2872.479693049234
1315.4798,2878.472944688656
1317.3605,2932.865831140505
1319.2405,3057.9577750962635
1321.1197,2983.19816991876
1322.9982,2894.336378391268
1324.876,2894.521733465055
1326.753,2782.6035391480436
1328.6293,2774.581070502947
1330.5048,2772.2035747664486
1332.3796,2738.370271429427
1334.2537,2736.080352260753
1336.127,2703.232981645586
1337.9996,2714.327296608306
1339.8714,2721.912407140975
1341.7426,2644.2373960923833
1343.6129,2660.5013190922073
1345.4826,2703.7532053277646
1347.3515,2687.7420573813724
1349.2196,2605.316850797819
1351.087,2678.326534244494
1352.9537,2775.020030335607
1354.8197,2932.196234902116
1356.6849,3129.7540160247663
1358.5493,3192.2922124623547
1360.4131,3282.1596316761534
1362.276,3249.455049204509
1364.1383,3157.427207764169
1365.9998,2928.724817577353
1367.8606,2589.7465572920155
1369.7206,2364.2910762688734
1371.5799,2158.0069979711952
1373.4384,2012.192922219343
1375.2962,1876.547427253623
1377.1533,1618.7190711924122
1379.0096,1297.7563933886304
1380.8652,1023.1079170080193
1382.7201,797.8221522387539
1384.5742,556.1975990379469
1386.4275,423.33274938449176
1388.2802,284.7260896953303
1390.132,191.42610215406967
1391.9832,179.08126609708415
1393.8336,69.39005894648653
1395.6832,29.050956333572685
1397.5322,44.86243319575078
1399.3803,37.27296417992329
1401.2278,-34.56897651560939
1403.0745,8.635084934721817
1404.9204,-2.4160322994357557
1406.7656,13.026490865224332
1408.6101,42.76149764816
1410.4538,52.23783113858735
1412.2968,115.65433399811081
1414.139,143.70984836597927
1415.9805,257.2032152248976
1417.8213,354.48327412048457
1419.6613,465.94886202632915
1421.5006,663.9488123711853
1423.3391,929.6319539243232
1425.1769,1237.247108815529
1427.0139,1730.543089878287
1428.8502,2326.86869757362
1430.6858,2914.5227150571227
1432.5206,3287.703902215708
1434.3547,3568.81098979108
1436.188,3613.1426756478977
1438.0206,3562.897621962711
1439.8524,3418.824454780668
1441.6835,3328.5717645179284
1443.5139,3258.738107402416
1445.3435,3264.422006376346
1447.1724,3189.921951794582
1449.0005,3148.6364013677667
1450.8279,3096.3637809073316
1452.6545,3086.152484738359
1454.4804,3171.8008762222926
1456.3056,3183.507287859071
1458.13,3121.720020430612
1459.9536,2961.037342883781
1461.7766,2631.7574929482507
1463.5987,2248.928678743334
1465.4202,1921.3990820707695
1467.2409,1569.3168622430312
1469.0608,1335.2801593585991
1470.88,1111.48709782279
1472.6984,937.3357886881258
1474.5161,690.0243318922785
1476.3331,583.5008179995602
1478.1493,476.6133306740521
1479.9648,408.9599477448355
1481.7795,314.3387422748656
1483.5935,293.49778323750616
1485.4067,234.73513646274114
1487.2192,256.048864845583
1489.031,233.837028933689
1490.842,223.84768671425263
1492.6522,220.62889383608854
1494.4618,195.97870370956116
1496.2705,203.2451675387365
1498.0785,218.0263345679159
1499.8858,228.67025200894932
1501.6924,198.67496489344376
1503.4981,193.18851596629975
1505.3032,202.55894598568375
1507.1075,175.2842937778787
1508.911,177.21259614358132
1510.7138,162.44188813065557
1512.5159,141.62020301485973
1514.3172,117.59557244753705
1516.1178,83.36602666383988
1517.9176,52.77959472296607
1519.7166,40.88430485047138
1521.515,59.72818474410633
1523.3126,22.459261692794826
1525.1094,31.175562388183607
1526.9055,20.12511329732115
1528.7008,35.85594057550952
1530.4954,-51.13392982318692
1532.2893,-39.896472303254995
1534.0824,-38.88315044122646
1535.8747,24.704970752100053
1537.6663,-20.332785291382606
1539.4572,-19.797095386844376
1541.2473,45.7615667750797
1543.0367,37.89292527672478
1544.8253,25.146703742824684
1546.6132,47.872625419195174
1548.4003,41.72041330018874
1550.1867,101.78978990144424
1551.9723,151.23047732140003
1553.7572,198.44219664061166
1555.5414,249.32466742733232
1557.3247,339.97760726540946
1559.1074,445.8007312454538
1560.8893,508.59375105830986
1562.6705,601.3063739368154
1564.4509,701.4883020278739
1566.2305,796.0892314653374
1568.0094,905.4088513681891
1569.7876,977.9468428945147
1571.565,1000.902878148323
1573.3417,1015.3766194541513
1575.1176,1057.8677191275274
1576.8928,1011.8758193302147
1578.6672,968.600551645317
1580.4409,877.6915375371846
1582.2138,805.1483887841769
1583.986,747.8207083877369
1585.7575,713.5080912978319
1587.5282,693.710124986228
1589.2981,699.3263897896122
1591.0673,663.7564591075716
1592.8358,719.9498993464367
1594.6035,748.7562702749601
1596.3704,773.6751244624138
1598.1366,827.9560069904965
1599.9021,872.6984552041831
1601.6668,947.7019981688827
1603.4308,1037.3161562230289
1605.194,1188.9404402280306
1606.9564,1331.5243506721436
1608.7182,1480.317376154233
1610.4791,1684.4689919579196
1612.2394,1837.7786585636677
1613.9988,2042.945819607252
1615.7576,2300.8699003466754
1617.5156,2535.1503056104866
1619.2728,2726.936417218534
1621.0293,2869.7775916391784
1622.785,2907.7731580714153
1624.54,2777.622417016466
1626.2942,2682.174639897832
1628.0477,2432.8290703627863
1629.8005,2210.084925236868
1631.5525,2024.3913970173253
1633.3037,1862.0476561005598
1635.0542,1738.6528526390703
1636.804,1665.0561181648773
1638.553,1620.8065668234813
1640.3013,1613.8032961098288
1642.0488,1606.8453873108028
1643.7955,1660.381905575261
1645.5416,1768.3618999836199
1647.2868,1850.0844030124754
1649.0313,1926.2984294548114
1650.7751,2131.3529756027656
1652.5181,2311.597018485505
1654.2604,2498.079513818664
1656.0019,2764.849394201912
1657.7427,3090.0055672541275
1659.4828,3403.696912945701
1661.222,3587.2722803469696
1662.9606,3595.0304844913044
1664.6984,3444.320304539364
1666.4354,3039.6904837015063
1668.1717,2553.9897307448973
1669.9072,2080.866724039797
1671.642,1689.6701164165643
1673.3761,1391.998539896911
1675.1094,1115.950609605843
1676.8419,909.6249267483963
1678.5737,729.9700813701002
1680.3048,618.3846544202443
1682.0351,516.8172195484167
1683.7646,461.0163442203666
1685.4934,391.18059073369295
1687.2215,332.9585167758305
1688.9488,313.2986761224238
1690.6754,269.24961921953945
1692.4012,274.0098933802601
1694.1263,224.62804322518423
1695.8506,207.05261063482249
1697.5742,209.53213524340754
1699.297,191.1651546146495
1701.0191,118.25020421693262
1702.7404,124.48581760700836
1704.461,85.87052715911523
1706.1808,85.40286400264631
1707.8999,76.38135840828727
1709.6182,72.70453979270496
1711.3358,85.37093680875114
1713.0527,62.02907738224167
1714.7688,51.52748858528503
1716.4841,27.764696869704494
1718.1987,28.43922817206112
1719.9126,-0.750391848732761
1721.6257,8.744362181851102
1723.338,11.122023134752453
1725.0496,-16.668876206540517
1726.7605,2.120196830246641
1728.4706,23.6879414394607
1730.18,-30.36694320575407
1731.8886,-37.14575816912475
1733.5964,-10.049501148623676
1735.3036,7.821201243896212
1737.0099,10.065822791097162
1738.7156,16.83383719743324
1740.4204,-13.375281933298538
1742.1246,-15.162061165625346
1743.8279,13.373106554987316
1745.5306,20.12997975205326
1747.2325,-3.6416831846327113
1748.9336,-22.992124066568067
1750.634,-20.321548324845935
1752.3336,-15.029931699244116
1754.0325,-5.717046917277912
1755.7307,-16.832516557449708
1757.4281,31.324093915027333
1759.1247,22.953387191777438
1760.8206,45.00596565118212
1762.5158,55.53243144210319
1764.2102,37.33338626334262
1765.9039,30.15943125837839
1767.5968,41.811167197354735
1769.289,44.43919454883326
1770.9804,50.39411336325793
1772.6711,62.476523246688885
1774.361,50.937023301259615
1776.0502,49.32621200433459
1777.7386,56.49468732391688
1779.4263,56.593046734749805
1781.1132,95.9718871466448
1782.7994,77.68180490347368
1784.4849,86.17339538939632
1786.1696,81.29725321176011
1787.8535,105.5039721161811
1789.5367,83.19414503530243
1791.2192,94.76836384674243
1792.9009,86.22721959618138
1794.5818,96.87130238161626
1796.2621,97.20120143877466
1797.9415,127.61750503468102
1799.6202,134.0708004643493
1801.2982,159.21167374661673
1802.9755,136.44070955961615
1804.6519,151.0084909893685
1806.3277,125.56559975749042
1808.0027,109.46261607551787
1809.6769,109.65011889933703
1811.3504,133.82868609020443
1813.0231,144.79889441289015
1814.6951,142.6113192938683
1816.3664,179.36653471163118
1818.0369,169.71511321855724
1819.7067,190.60762557334965
1821.3757,193.59464083756393
1823.044,185.57672616668424
1824.7115,214.25444678025087
1826.3783,199.7283660420435
1828.0443,193.74904517329742
1829.7096,205.56704339797034
1831.3741,201.8829180025332
1833.0379,215.79722421779115
1834.701,221.91051525571856
1836.3633,249.82334217031894
1838.0248,226.73625379650457
1839.6856,211.99979647094642
1841.3457,245.5645142629537
1843.005,257.6809491218455
1844.6636,245.8496405413016
1846.3214,238.72112543818548
1847.9785,282.5959382708734
1849.6349,271.02461111053526
1851.2904,295.50767320238447
1852.9453,274.44565108139614
1854.5994,269.73906832747343
1856.2528,302.0884457760603
1857.9054,302.99430156521885
1859.5572,322.3571508121295
1861.2083,315.9275056040369
1862.8587,336.1058748046189
1864.5084,354.74276411828396
1866.1572,353.5886758883871
1867.8054,315.4941089108597
1869.4528,315.4595584457529
1871.0994,333.2355165981753
1872.7453,348.0724723186431
1874.3905,351.8209112253244
1876.0349,332.7313154556705
1877.6786,362.954163628925
1879.3215,356.1399310370216
1880.9637,373.38908934236133
1882.6051,373.6021066459489
1884.2458,380.72944731490315
1885.8858,357.27157198032455
1887.525,394.4289374660202
1889.1634,364.20199702308855
1890.8011,377.79119995833935
1892.4381,363.89699193657
1894.0743,376.56981484466996
1895.7098,376.06010693056305
1897.3446,378.4183026764813
1898.9786,381.29483280405657
1900.6118,368.6401242507427
1902.2443,388.0546001410494
1903.8761,382.9386799130898
1905.5071,356.14277912442776
1907.1374,357.9173095032429
1908.7669,356.6126792162886
1910.3957,369.62929285114933
1912.0237,349.7675514292887
1913.651,354.6278522758812
1915.2776,357.8605892184314
1916.9034,333.9161525381669
1918.5285,318.19492893771167
1920.1528,331.6473017805283
1921.7764,337.92365124813296
1923.3992,313.7243542055785
1925.0213,295.3497841386852
1926.6427,284.350311396036
1928.2633,284.32630337271894
1929.8832,313.1281246203225
1931.5023,286.90613684717755
1933.1207,285.9606986303397
1934.7383,283.39216567780295
1936.3552,285.9008908379592
1937.9714,292.3872241252793
1939.5868,271.0515126952296
1941.2015,271.3941007794083
1942.8154,254.31532989890366
1944.4286,249.8155388608684
1946.041,226.6950639293018
1947.6528,199.75423887005218
1949.2637,238.99339518201577
1950.8739,231.36286236654723
1952.4834,231.41296753507413
1954.0921,247.09403548539194
1955.7001,217.55638870117582
1957.3074,229.45034719516116
1958.9139,239.77622880451963
1960.5197,221.73434907192677
1962.1247,205.22502114229428
1963.729,174.4985559431916
1965.3325,165.9552623499403
1966.9353,179.49544749287452
1968.5374,196.9694168427859
1970.1387,173.87747407550887
1971.7393,171.76992089718897
1973.3392,150.94705727519977
1974.9383,179.4091814592166
1976.5366,163.2565901894559
1978.1342,173.93957841204247
1979.7311,160.95843944054104
1981.3273,161.113464849117
1982.9227,168.15494460236096
1984.5173,159.73316705373054
1986.1112,136.89841887514103
1987.7044,141.25098514117872
1989.2968,137.59114955745372
1990.8885,146.21919441706996
1992.4795,149.78540063722176
1994.0697,138.64004767292045
1995.6592,143.38341348131962
1997.2479,137.61577463317826
1998.8359,140.7374062654244
2000.4232,142.3985821388269
2002.0097,144.84957460678743
2003.5955,111.54065459872436
2005.1805,129.17209159556478
2006.7648,140.14415396283493
2008.3484,115.0571087743374
2009.9312,151.56122170243725
2011.5133,134.65675726893005
2013.0946,140.6939784799988
2014.6752,140.7731469952705
2016.2551,144.0445230674277
2017.8342,121.00836554142825
2019.4126,125.31493182178656
2020.9902,125.9644781029383
2022.5672,127.60725932617424
2024.1433,137.6435291731359
2025.7188,129.27354004940025
2027.2935,116.94754298410953
2028.8674,125.2657877136744
2030.4406,120.12852280503375
2032.0131,117.63599557247016
2033.5849,126.18845212898577
2035.1559,110.3861374112239
2036.7261,108.07929509394125
2038.2957,132.86816774804083
2039.8645,133.00299686362905
2041.4325,123.73402260213697
2042.9998,136.91148379496644
2044.5664,146.08561803617977
2046.1323,141.1566615507345
2047.6974,122.62484910273452
2049.2617,125.09041404471918
2050.8254,127.95358850298089
2052.3883,136.46460335290885
2053.9504,151.12368819035873
2055.5118,128.78107124654161
2057.0725,117.53697924143216
2058.6325,128.24163760719694
2060.1917,128.54527060063447
2061.7502,117.99810119613176
2063.3079,146.15035108262327
2064.8649,109.95224076906652
2066.4212,114.35398930291376
2067.9767,126.85581463210019
2069.5315,120.0079335610244
2071.0856,84.81056162552522
2072.6389,91.46391316136942
2074.1915,91.61820165621612
2075.7433,78.92363968308928
2077.2945,95.68043889883211
2078.8448,87.73881017105123
2080.3945,74.89896341055373
2081.9434,92.461107650759
2083.4916,88.0754511760997
2085.039,66.04220134639581
2086.5857,80.56156464071682
2088.1317,96.08374687771811
2089.677,77.95895307043793
2091.2215,86.93738727108212
2092.7652,80.26925275226859
2094.3083,92.20475191724381
2095.8506,81.04408636656262
2097.3921,103.23745677873012
2098.933,98.43506302181777
2100.4731,99.93710393152196
2102.0124,101.24377735919188
2103.5511,114.00528015680993
2105.089,96.22180816391847
2106.6261,109.69355608001479
2108.1626,121.07071764237662
2109.6983,97.60348549135233
2111.2332,102.69205105658602
2112.7675,113.28660479168411
2114.301,111.98733612333945
2115.8337,124.29443334538064
2117.3657,124.05808363176766
2118.897,130.62847291351773
2120.4276,120.0557858810671
2121.9575,115.74020591856788
2123.4866,116.28191520962082
2125.0149,129.88109478042588
2126.5426,91.53792449436605
2128.0695,105.50258291601676
2129.5956,109.87524769457468
2131.1211,113.45609542421516
2132.6458,146.99530160036102
2134.1698,124.09304058387988
2135.693,112.29948526568478
2137.2155,133.46480729575978
2138.7373,119.73917720109694
2140.2584,138.222764174041
2141.7787,118.5657362095526
2143.2983,112.96825992036247
2144.8171,104.38050073354952
2146.3353,102.00262294651202
2147.8527,96.03478981284024
2149.3693,112.62716356610599
2150.8853,114.82990547953432
2152.4005,92.24317570007952
2153.9149,117.96713322639971
2155.4287,109.75193613472857
2156.9417,115.24774132162838
2158.454,111.30470458614673
2159.9655,122.27298057485496
2161.4764,128.30272282127953
2162.9865,123.44408363621369
2164.4958,125.7972140474294
2166.0045,115.16226384825768
2167.5124,116.43938157405864
2169.0195,136.72871460857277
2170.526,118.73040917114668
2172.0317,119.64461011384083
2173.5367,128.8714611014184
2175.0409,134.41110460219625
2176.5445,149.41368179577967
2178.0473,120.97933251766153
2179.5494,119.6581951092021
2181.0507,108.60040670197122
2182.5513,123.35610323095716
2184.0512,125.2754195451489
2185.5504,115.55848925997543
2187.0488,117.15544473811497
2188.5465,94.96641718665978
2190.0435,104.29153664114983
2191.5397,95.13093218746326
2193.0353,116.48473186856609
2194.5301,92.15306277611671
2196.0241,92.28605083693174
2197.5175,98.63382105629353
2199.0101,101.0464975166301
2200.502,83.32420331402909
2201.9931,83.5670605341138
2203.4835,89.6751904292687
2204.9733,68.49871341620837
2206.4622,106.83774901489869
2207.9505,71.24241606031728
2209.438,96.16283231906391
2210.9248,75.79911484531658
2212.4109,65.75137973162691
2213.8962,66.56974231256072
2215.3809,61.85431726517072
2216.8648,66.0552186008158
2218.3479,98.2725597123167
2219.8304,72.40645333194107
2221.3121,61.60701120923659
2222.7931,62.22434436968615
2224.2733,51.058563222700286
2225.7529,54.05977755544882
2227.2317,63.57809664451497
2228.7098,69.01362922588623
2230.1872,62.11648339977364
2231.6638,80.68676657625247
2233.1397,71.67458554423774
2234.6149,67.63004628577573
2236.0894,53.45325406616985
2237.5632,66.39431347442496
2239.0362,53.40332856501482
2240.5085,58.83040272847211
2241.9801,55.675638821298435
2243.4509,49.489139111693476
2244.921,38.221005311103454
2246.3904,27.77133863608651
2247.8591,42.64023992099237
2249.3271,58.87780972246492
2250.7943,59.33414817074254
2252.2608,40.45935480729213
2253.7266,37.55352858023707
2255.1917,35.71676803311175
2256.656,32.64917133391782
2258.1197,44.10083629348992
2259.5826,44.42186039617036
2261.0447,50.56234068529557
2262.5062,39.02237375998584
2263.9669,56.70205571374072
2265.4269,47.60148224983959
2266.8862,50.97074850454055
2268.3448,57.20994913808863
2269.8026,59.01917830102275
2271.2598,56.44852957178409
2272.7162,47.44809593862374
2274.1719,49.11796982530859
2275.6268,63.30824318112627
2277.0811,45.46900746418714
2278.5346,51.90035349952268
2279.9874,54.15237165747567
2281.4395,61.37515178938884
2282.8908,54.76878320508331
2284.3414,62.633354600628536
2285.7914,60.61895412440845
2287.2406,60.07566929847508
2288.689,71.15358703869197
2290.1368,60.50279366016957
2291.5838,64.1233747664869
2293.0302,69.31541535619272
2294.4758,62.828999786607255
2295.9206,73.31421172189675
2297.3648,66.8211341979395
2298.8082,65.79984951747156
2300.251,67.90043931501759
2301.693,66.2229845671086
2303.1343,81.31756557127301
2304.5748,84.03426196281089
2306.0147,76.72315256384809
2307.4538,68.23431535616783
2308.8922,72.56782755432414
2310.3299,62.27376569052649
2311.7669,63.95220557130688
2313.2031,68.8032223804621
2314.6387,49.17689066226694
2316.0735,54.17328427296479
2317.5076,65.992476577032
2318.941,59.28454039721237
2320.3737,66.04954789632757
2321.8056,68.73757064435722
2323.2369,47.298679550787256
2324.6674,68.23294483773043
2326.0972,70.94043625431459
2327.5263,76.87122286734075
2328.9547,52.625373034207314
2330.3823,61.35295434360023
2331.8092,71.10403385795371
2333.2355,54.378678026174384
2334.661,64.22695258612839
2336.0858,75.44892273189726
2337.5098,62.494653015295626
2338.9332,69.414207233649
2340.3558,78.9576485593393
2341.7778,74.82503947060968
2343.199,63.766441656128336
2344.6195,76.78191605631355
2346.0393,72.37152297392231
2347.4583,74.935321943894
2348.8767,77.4733717774534
2350.2943,81.63573053647542
2351.7113,102.97245550810248
2353.1275,80.23360316311891
2354.543,79.71922894258523
2355.9578,82.62938748522856
2357.3718,70.76413263258519
2358.7852,66.07351739989599
2360.1978,83.10759409476259
2361.6098,92.26641436405271
2363.021,70.85002902355973
2364.4315,73.25848796641412
2365.8413,82.29184037724781
2367.2504,82.35013470810782
2368.6587,81.43341858812164
2370.0664,66.74173882291734
2371.4733,81.32514140378998
2372.8795,58.58367165461641
2374.285,59.01737408602503
2375.6899,63.07629262280943
2377.0939,52.81047059959246
2378.4973,56.719950720231736
2379.9,56.75477516048204
2381.3019,46.71498552889625
2382.7032,58.65062286648026
2384.1037,55.61172774708848
2385.5035,68.99834015806891
2386.9027,61.31049953065212
2388.3011,71.89824460608543
2389.6987,66.11161351251576
2391.0957,58.75064365910339
2392.492,54.06537179389943
2393.8876,32.75583407744625
2395.2824,42.72206612963146
2396.6765,41.86410324278722
2398.07,39.48198028202796
2399.4627,49.72573169382758
2400.8547,41.79539152984353
2402.246,43.74099334447692
2403.6366,41.96257027417778
2405.0265,42.860155017990564
2406.4156,44.68377985533425
2407.8041,39.43347663703162
2409.1918,45.25927676706624
2410.5789,48.96121125508944
2411.9652,28.439310658162867
2413.3508,40.34360504373444
2414.7358,31.124124194859633
2416.12,42.63089749115716
2417.5035,25.41395400100646
2418.8863,38.173322366477805
2420.2684,26.209030975504902
2421.6497,30.021107834291797
2423.0304,28.459580686953814
2424.4104,23.774476977394443
2425.7896,46.01582386491964
2427.1682,37.98364827109208
2428.546,42.127976657317504
2429.9232,30.148835105165745
2431.2996,35.84624927493087
2432.6753,43.720244525419275
2434.0503,31.220845856973938
2435.4246,29.798077832738272
2436.7982,30.90196470364799
2438.1711,43.73253042266015
2439.5433,41.83979863371269
2440.9148,34.22379254341922
2442.2856,31.734534939997502
2443.6557,35.37204826943071
2445.025,45.886354660353845
2446.3937,50.27747588768534
2447.7617,36.04543326748035
2449.1289,32.24024761302098
2450.4955,40.061939377136696
2451.8613,46.06052869025598
2453.2265,57.73603528218973
2454.5909,49.938478422144726
2455.9546,55.91787680196876
2457.3177,40.724248614127646
2458.68,46.357611491908756
2460.0416,50.96798266135875
2461.4025,52.755378884950915
2462.7627,40.519816415477635
2464.1222,49.011310978179154
2465.4811,50.979877893099456
2466.8392,50.82553199016911
2468.1966,66.69828758952372
2469.5533,57.94815850304258
2470.9093,68.07515787562443
2472.2645,53.52929827268508
2473.6191,60.96059157888976
2474.973,61.119049143611846
2476.3262,63.55468170662016
2477.6787,55.91749939649253
2479.0305,65.45751170626295
2480.3816,55.674727569792594
2481.7319,57.61915526636676
2483.0816,54.890802518525334
2484.4306,45.28967647261811
2485.7789,47.36578372608733
2487.1264,47.269130423479965
2488.4733,56.549722235685294
2489.8195,53.80756436090314
2491.165,49.59266143183618
2492.5097,57.70501754311249
2493.8538,49.19463629343477
2495.1972,47.51152070445687
2496.5398,49.50567330588683
2497.8818,43.92709615231797
2499.2231,35.02579080328837
2500.5637,47.00175837906636
2501.9035,40.054999649663614
2503.2427,47.98551491507487
2504.5812,46.09330407474499
2505.919,50.07836654826497
2507.256,46.79070129429283
2508.5924,49.130306770704465
2509.9281,40.34718096746997
2511.2631,50.84132138325617
2512.5974,57.262725113259194
2513.9309,49.11138874426251
2515.2638,48.98730829042188
2516.596,56.64047927478032
2517.9275,48.87089673050832
2519.2583,56.178555124373815
2520.5884,53.06344843443708
2521.9178,55.37557007697342
2523.2465,51.714912937624604
2524.5745,56.981469348277415
2525.9018,53.125231123671256
2527.2284,55.746189508731504
2528.5543,53.54433521713304
2529.8796,48.91965840509033
2531.2041,52.822148693375766
2532.5279,57.15179521356504
2533.851,57.80858656901364
2535.1735,56.69251079156038
2536.4952,53.953555334959674
2537.8163,69.69170708604179
2539.1366,62.456952392101584
2540.4562,73.49927690351956
2541.7752,76.31866564610732
2543.0935,73.0151029106828
2544.411,67.43857222488032
2545.7279,65.6890563861823
2547.0441,80.66653751768627
2548.3596,77.32099708559986
2549.6744,87.25241574946722
2550.9885,73.41077339562207
2552.3019,76.89604903787381
2553.6146,74.05822095592498
2554.9266,70.24726666051879
2556.2379,72.16316292181682
2557.5485,85.75588580750832
2558.8585,79.22541066365102
2560.1677,86.87171197874522
2561.4762,85.64476344903869
2562.7841,80.09453790206226
2564.0913,87.57100730890193
2565.3977,93.77414283969802
2566.7035,90.20391478888087
2568.0086,81.91029251314171
2569.313,90.39324446713363
2570.6167,95.70273828640575
2571.9197,100.78874070257484
2573.222,99.55121749023101
2574.5236,101.94013341607774
2575.8246,101.905452251307
2577.1248,112.79713674771028
2578.4244,109.96514863802486
2579.7232,106.7594485270165
2581.0214,107.47999591980101
2582.3189,115.62674925389933
2583.6157,112.24966589203427
2584.9118,127.99870204066087
2586.2072,125.62381278373823
2587.5019,120.97495192523866
2588.7959,127.4020720128965
2590.0893,126.85512438469709
2591.3819,131.9840591046045
2592.6739,127.38882496803353
2593.9652,123.01936945055832
2595.2557,137.8756387538656
2596.5456,136.40757784945004
2597.8348,135.5151303300504
2599.1234,145.7482384243308
2600.4112,136.15684300580483
2601.6983,133.34088349050353
2602.9848,135.85029793289027
2604.2705,137.63502305402085
2605.5556,144.34499421644728
2606.84,139.73014540637269
2608.1237,143.39040916654926
2609.4067,149.5757166424296
2610.689,144.9859975455613
2611.9707,136.3711800917372
2613.2516,128.2811910468895
2614.5319,134.61595581323922
2615.8115,138.92539851019683
2617.0903,133.10944191101453
2618.3685,140.7180073996915
2619.6461,132.0510150291327
2620.9229,127.80838344506469
2622.199,131.09002997270363
2623.4745,131.44587065918427
2624.7493,135.67582024074068
2626.0234,137.27979213914932
2627.2968,130.35769841942897
2628.5695,130.40944977380082
2629.8415,128.88495559090825
2631.1128,129.5841239553008
2632.3835,129.406861662678
2633.6535,135.65307421289936
2634.9228,139.1226658117555
2636.1914,135.81553930850782
2637.4593,129.08159616119224
2638.7265,127.97073646969011
2639.9931,133.38285904306758
2641.259,140.56786141068346
2642.5242,134.87563976806905
2643.7887,131.85608890507729
2645.0525,134.90910226280562
2646.3156,131.88457196379113
2647.5781,129.73238878148118
2648.8398,121.6024421704783
2650.1009,121.39462028806156
2651.3613,134.70881007548633
2652.6211,128.19489726006145
2653.8801,125.60276622200922
2655.1385,134.33230005960445
2656.3961,130.68338061509507
2657.6531,131.05588838740687
2658.9094,131.4497025686319
2660.1651,134.36470104030332
2661.42,145.80076036945638
2662.6743,143.0577557794811
2663.9279,134.98556103576016
2665.1808,137.33404847309862
2666.433,143.953089076447
2667.6846,140.64255245741424
2668.9354,138.85230678808057
2670.1856,144.03221883410038
2671.4351,158.38215397260456
2672.6839,159.00197614040394
2673.9321,146.34154769048723
2675.1795,158.35072938582448
2676.4263,163.27938052597028
2677.6724,168.12735882697234
2678.9179,174.64452037208412
2680.1626,178.98071956328545
2681.4067,172.78580905611125
2682.6501,168.00963971628994
2683.8928,154.20206068169227
2685.1348,168.1129194100929
2686.3761,147.29206181724612
2687.6168,153.8893321377784
2688.8568,152.4545731333958
2690.0961,154.8876260269119
2691.3348,146.88833051659526
2692.5727,136.70652475183806
2693.81,140.9920454131493
2695.0466,138.14472781397376
2696.2826,145.56440585783616
2697.5178,136.60091206681614
2698.7524,139.7040775073492
2699.9863,141.77373187986132
2701.2195,133.60970348774003
2702.452,157.21181921663492
2703.6839,164.57990461610075
2704.9151,158.56378366357376
2706.1456,155.21327869069296
2707.3755,172.87821044345924
2708.6046,170.75839811574087
2709.8331,186.2536591726248
2711.0609,180.46380937161462
2712.2881,192.13866260767804
2713.5145,203.72803097114547
2714.7403,207.33172463096162
2715.9654,221.69955171879087
2717.1899,218.18131829298136
2718.4136,239.1268281948869
2719.6367,240.73588308404874
2720.8591,255.85828222873965
2722.0809,260.74382248987445
2723.3019,267.2422981697855
2724.5223,278.15350096336647
2725.7421,291.0772198930897
2726.9611,279.31324119989245
2728.1795,278.4613482139405
2729.3972,271.6213214722677
2730.6142,268.49293872729504
2731.8306,249.87597501523146
2733.0462,237.0702026873571
2734.2612,207.67539159619287
2735.4756,202.39130922355866
2736.6892,185.96772097451912
2737.9022,169.30439023022836
2739.1145,160.70107851216198
2740.3262,132.60754564875197
2741.5372,131.0735498614206
2742.7475,115.79884804551443
2743.9571,104.5831957856442
2745.1661,87.72634750843395
2746.3744,89.67805659467604
2747.582,76.53807554789978
2748.7889,68.85615597485526
2749.9952,63.28204871691105
2751.2008,59.415503926876454
2752.4057,60.40627112473999
2753.61,43.00409923633629
2754.8136,51.408736583436394
2756.0165,55.369931057771964
2757.2188,48.43743003698728
2758.4204,37.66098034502761
2759.6213,36.59032832146545
2760.8215,44.57521992926331
2762.0211,32.765400765482354
2763.22,21.260615981430647
2764.4182,28.46061040076347
2765.6158,19.665128634529538
2766.8127,14.773915009172242
2768.009,11.286713654484174
2769.2045,2.3032685525186025
2770.3994,1.6233235724623682
2771.5936,0.7466225604689498
2772.7872,3.02290934646021
2773.9801,-13.348072247108803
2775.1723,-12.316578428010985
2776.3639,-10.882732056778082
2777.5548,-13.79653295132357
2778.745,-8.507872211067934
2779.9346,-12.266503108068491
2781.1235,-15.022093920739508
2782.3117,-24.724190385129987
2783.4992,-21.322188166571095
2784.6861,-12.71523593573238
2785.8723,-1.6522693546244227
2787.0579,-12.132097060050683
2788.2428,-1.503511182644388
2789.427,4.534817346609543
2790.6106,8.68423261680232
2791.7935,11.996078671677651
2792.9757,24.27169946813683
2794.1573,23.062438843121754
2795.3382,46.86964039085797
2796.5184,49.544647474947396
2797.698,67.58880299029556
2798.8769,65.60344933636247
2800.0551,89.48992823671847
2801.2327,95.79958075890022
2802.4096,111.18374707554653
2803.5859,123.29376640130067
2804.7615,134.28097683897204
2805.9364,173.44671525843205
2807.1106,193.2923171867435
2808.2842,216.21911641650217
2809.4572,248.1284448073809
2810.6294,285.07163205686084
2811.801,311.60000538114036
2812.972,350.9648891457007
2814.1423,392.66760460002524
2815.3119,431.05946948394785
2816.4808,477.4917976106274
2817.6491,529.3658984826286
2818.8167,567.1330768275982
2819.9837,624.0446320795254
2821.15,659.3018580010676
2822.3157,696.4060421144372
2823.4807,745.1084653488281
2824.645,793.9104016693732
2825.8086,846.9131175901225
2826.9716,888.717871686021
2828.134,922.2259140628828
2829.2957,962.5384859393444
2830.4567,998.8568193117833
2831.617,1002.3821365511926
2832.7767,1013.4656500399988
2833.9358,1017.4085621368081
2835.0941,1006.0620650655701
2836.2519,993.8773408761504
2837.4089,977.2555615577946
2838.5653,980.7978891609757
2839.7211,978.5554759636125
2840.8761,987.8294644356436
2842.0306,994.3209872614545
2843.1843,1026.6811672471374
2844.3374,1070.461117255574
2845.4899,1118.7619398828365
2846.6417,1181.1847270203857
2847.7928,1259.5305593720645
2848.9433,1332.700505829868
2850.0931,1417.6956226904879
2851.2422,1478.9669529236098
2852.3907,1536.4155253219653
2853.5385,1593.8923538886156
2854.6857,1644.7984372624667
2855.8323,1715.4347581435022
2856.9781,1763.9022827837214
2858.1233,1799.201960280777
2859.2679,1847.3847220932994
2860.4118,1896.3514816878978
2861.555,1924.0031340573362
2862.6976,1968.9405552308629
2863.8395,1981.5646019976966
2864.9808,2007.2761114576504
2866.1214,2027.6259008948919
2867.2614,2046.814767520828
2868.4007,2060.843488270606
2869.5393,2080.412819611228
2870.6773,2076.97349740126
2871.8146,2096.0762366951417
2872.9513,2080.4217317775783
2874.0874,2078.610655972512
2875.2227,2082.6436617996696
2876.3574,2065.121380992671
2877.4915,2041.2444244586995
2878.6249,2003.013382453725
2879.7577,1983.1788248212733
2880.8898,1953.4913013747387
2882.0212,1943.9013420957256
2883.152,1928.6094574309277
2884.2821,1913.516138388024
2885.4116,1912.4718566886008
2886.5405,1922.527064919083
2887.6686,1915.7821965411774
2888.7962,1906.1376657913206
2889.923,1922.0938677481286
2891.0493,1940.7511784288397
2892.1748,1950.7099546297554
2893.2997,1961.7705337396644
2894.424,1977.7332336402567
2895.5476,1989.9983525955179
2896.6706,2013.5661690921004
2897.7929,2043.836941716675
2898.9145,2077.2609089202515
2900.0355,2093.0882887154703
2901.1559,2142.0192783423636
2902.2756,2172.00405411008
2903.3946,2190.542770907578
2904.513,2216.4855619037753
2905.6308,2253.1325383621624
2906.7479,2260.633789381374
2907.8643,2307.0893815287204
2908.9801,2305.5993587651747
2910.0953,2331.413741980815
2911.2098,2320.632529009729
2912.3236,2327.355694371864
2913.4368,2318.833189380847
2914.5494,2296.314942076745
2915.6613,2268.9508573112953
2916.7725,2241.0908169730874
2917.8831,2228.8846802612006
2918.9931,2187.4822839638073
2920.1024,2151.3334425802336
2921.211,2132.7379487349835
2922.319,2107.5455735392243
2923.4264,2101.8560667767474
2924.5331,2091.519157155887
2925.6391,2083.3845523664186
2926.7445,2081.051939182926
2927.8493,2066.420983546147
2928.9534,2066.1413305863007
2930.0569,2062.7626047693984
2931.1597,2056.4344099000355
2932.2619,2058.406329155185
2933.3634,2072.9279251474745
2934.4643,2029.0987399054682
2935.5645,2025.868294728451
2936.6641,1995.086090624721
2937.763,1959.3516083438942
2938.8613,1929.3143086847244
2939.959,1869.7236328524507
2941.056,1800.129002759169
2942.1523,1714.8798216197397
2943.248,1637.3754746477334
2944.3431,1536.8653299079224
2945.4375,1451.4487390913253
2946.5313,1343.9750385203076
2947.6244,1256.6435500027487
2948.7169,1151.653581906776
2949.8087,1070.7544300340824
2950.8999,988.5453786698263
2951.9904,895.5257013916215
2953.0803,828.6446618916286
2954.1696,766.2015149067527
2955.2582,734.245506887451
2956.3462,670.0258766221673
2957.4335,651.19185555689
2958.5202,604.39266843735
2959.6062,592.4775334973586
2960.6916,574.0956629268017
2961.7764,556.2462629907902
2962.8605,539.7285342134787
2963.9439,530.4916715565591
2965.0267,525.7348645844388
2966.1089,525.2072975566089
2967.1905,521.7081494752117
2968.2714,516.1865940903177
2969.3516,523.391799934915
2970.4312,509.27293038012704
2971.5102,522.4791435631594
2972.5885,526.409592528488
2973.6662,533.1634250957993
2974.7432,529.7397838206832
2975.8196,543.3378059270958
2976.8954,527.3566233415961
2977.9705,515.0453625573653
2979.045,509.903144794019
2980.1188,502.1790861207197
2981.192,481.27229750759795
2982.2645,468.28188490299476
2983.3364,443.45694944252773
2984.4077,424.9965875789959
2985.4783,394.3498913306297
2986.5483,367.4659484656936
2987.6177,349.2938428089542
2988.6864,307.9826545105186
2989.7545,275.38146022755564
2990.8219,244.78933353740854
2991.8887,215.4553452636053
2992.9548,192.77856378178183
2994.0204,164.70805531302085
2995.0852,141.19288415061988
2996.1495,123.88211294079633
2997.2131,106.52480291783877
2998.276,85.07001407721543
2999.3383,65.3168053491471
3000.4,58.964234813154576
3001.4611,41.91135989559132
3002.5215,29.407237433168234
3003.5812,15.85092384348411
3004.6404,13.641475250065014
3005.6989,1.7779476179285894
3006.7567,0.3093967756777829
3007.8139,-5.515121465863331
3008.8705,-5.296551298964914
3009.9264,-8.485781819834074
3010.9818,-8.633649212130763
3012.0364,-8.740904886554745
3013.0905,-6.408214003650869
3014.1439,-11.7861544023242
3015.1966,-9.025239903422403
3016.2487,-10.125866584111236
3017.3002,-7.138340359409199
3018.3511,-3.0128659869290004
3019.4013,-0.04957691226275074
3020.4509,5.45142351752861
3021.4998,12.740031955880227
3022.5481,11.366145001713107
3023.5958,13.829659126547767
3024.6428,20.530470688243668
3025.6892,21.71847590636446
3026.735,34.593570795168944
3027.7802,35.455651151731445
3028.8247,39.55461242719116
3029.8685,50.240349718130346
3030.9118,60.41275772558515
3031.9544,57.97173064818912
3032.9963,63.61716208044902
3034.0376,73.74894503715439
3035.0783,77.01697189692322
3036.1184,81.97113430088496
3037.1578,97.11132311999961
3038.1966,104.63742840551595
3039.2348,112.4493392375706
3040.2723,108.64694364992556
3041.3092,102.23012855185038
3042.3455,117.74877976614493
3043.3811,118.85278209330824
3044.4161,110.14201915635158
3045.4505,104.9163733897584
3046.4842,112.02572612659151
3047.5173,105.56995765075044
3048.5498,114.84894712587754
3049.5816,102.96257265991596
3050.6128,110.51071121231979
3051.6434,105.29323871291734
3052.6734,97.81002998643044
3053.7027,104.71095880464878
3054.7314,94.44589796126195
3055.7594,96.21471920285057
3056.7868,96.4672933315365
3057.8136,90.70349018729456
3058.8398,94.77317864542687
3059.8653,96.9762266742012
3060.8902,94.9125012941534
3061.9145,87.48186855605735
3062.9381,91.73419356156205
3063.9612,91.51934053749778
3064.9835,84.08717279335349
3066.0053,84.28755272342488
3067.0264,80.4203418811361
3068.0469,70.78540097703598
3069.0668,73.78258991747032
3070.086,68.56176790093065
3071.1046,69.52279338808285
3072.1226,59.31552415397539
3073.1399,57.03981727842881
3074.1567,48.99552924810928
3075.1727,43.88251597928479
3076.1882,38.100632898268145
3077.203,36.199734992547235
3078.2173,32.47967686860352
3079.2308,36.24031277092138
3080.2438,20.831496619188442
3081.2561,16.353081970689516
3082.2678,23.204922174394426
3083.2789,12.836870415742283
3084.2893,5.6487796481234795
3085.2991,7.4405026965599745
3086.3083,9.211892329585908
3087.3169,9.612801241330715
3088.3248,0.3430820338048761
3089.3321,4.20258721289099
3090.3388,0.39116585708205776
3091.3449,-7.391332997154564
3092.3503,1.3049357789012674
3093.3551,7.229891153386518
3094.3593,-2.9165479186111156
3095.3629,3.2155374456974073
3096.3658,-9.123904734585494
3097.3681,-2.884926472512518
3098.3698,-1.7174886333281165
3099.3708,-7.7715232618617165
3100.3713,4.05305475476888
3101.3711,0.006408166962955875
3102.3702,3.638699684589426
3103.3688,-1.949908046500525
3104.3667,0.19074758315753115
3105.364,0.8108486626094304
3106.3607,2.060575375332405
3107.3568,2.290099804425438
3108.3522,9.49959401238226
3109.347,4.089230038795733
3110.3412,5.359179828263109
3111.3348,5.309615284489155
3112.3277,5.140708257587278
3113.32,7.152630544574663
3114.3117,7.295553891061445
3115.3028,10.369649971131707
3116.2932,4.125090385913836
3117.2831,11.512046632840054
3118.2723,11.180690168091587
3119.2608,9.831192332729415
3120.2488,20.71372435600773
3121.2361,19.928457368868976
3122.2229,18.975562295118323
3123.209,16.3552098592765
3124.1944,12.717570596108658
3125.1793,18.06281487682793
3126.1635,21.391112945471832
3127.1471,20.652634865449784
3128.1301,26.19755048626024
3129.1125,27.376029450875592
3130.0942,23.538241140292683
3131.0753,22.43435466174887
3132.0558,28.114538887098803
3133.0357,29.128962463853696
3134.015,31.277793758379488
3134.9936,28.86120084575259
3135.9716,36.12935148827185
3136.949,37.582413159624025
3137.9258,36.57055297220242
3138.902,37.9939376625764
3139.8775,38.452733601609765
3140.8524,39.04710678022727
3141.8267,40.527222804826465
3142.8004,41.99324689133397
3143.7735,39.54534385040441
3144.7459,45.13367807275995
3145.7178,46.80841355366954
3146.689,45.26971383706538
3147.6596,44.267741998795714
3148.6295,51.402660662011556
3149.5989,46.47463200718673
3150.5676,51.33381770076838
3151.5357,50.48037894445761
3152.5032,49.814476426617205
3153.4701,51.08627033080617
3154.4364,50.945920342438825
3155.402,55.543585636066894
3156.367,52.32942487678292
3157.3315,62.7035961742437
3158.2952,57.21625711481184
3159.2584,58.967564657813995
3160.221,58.60767519041433
3161.1829,56.23674451010136
3162.1442,62.70492782828707
3163.105,62.76237979401593
3164.065,65.80925442928324
3165.0245,67.99570512846059
3165.9834,69.82188462782705
3166.9416,68.53794498370479
3167.8993,72.09403755419712
3168.8563,70.34031301202805
3169.8127,68.77692130898123
3170.7684,70.55401169343715
3171.7236,72.47173272600718
3172.6782,75.13023226176257
3173.6321,73.47965743105736
3174.5854,73.37015461294322
3175.5381,78.15186945167537
3176.4902,79.77494685780738
3177.4417,78.68953096037436
3178.3926,81.89576509066194
3179.3428,77.9937917930605
3180.2924,83.53375279300279
3181.2415,83.96578903598363
3182.1899,89.79004063216044
3183.1377,83.45664685203258
3184.0848,85.61574606819921
3185.0314,84.567475818693
3185.9773,87.9119727853892
3186.9227,92.34937280448835
3187.8674,89.4798108330714
3188.8115,93.25342090472543
3189.755,97.6703361582396
3190.6979,100.03068879986878
3191.6402,94.78461005916462
3192.5818,96.03223016537174
3193.5229,98.7736783998888
3194.4633,100.75908308379209
3195.4031,99.18857155042114
3196.3423,102.16227012552466
3197.2809,102.33030414296569
3198.2189,105.99279791498452
3199.1563,109.04987473051848
3200.0931,109.00165681857695
3201.0292,110.09826531767051
3201.9648,111.68982027629323
3202.8997,109.67644064195656
3203.834,112.95824424527372
3204.7677,113.48534782009352
3205.7008,114.55786697068245
3206.6333,112.82591616645348
3207.5652,120.18960873124084
3208.4964,117.74905686061967
3209.4271,119.30437154826907
3210.3571,120.60566261037755
3211.2865,121.65303867008993
3212.2154,123.94660714449431
3213.1436,125.73647423414855
3214.0712,127.02274490014439
3214.9982,125.80552284620887
3215.9246,126.2849105058416
3216.8503,129.4610090544869
3217.7755,132.88391840474003
3218.7001,132.05373717458622
3219.624,134.37056265317142
3220.5473,138.78449080910428
3221.4701,137.4956162672878
3222.3922,136.6040322647801
3223.3137,139.50983066368312
3224.2346,139.81310196005845
3225.1549,141.6639352548694
3226.0746,142.91241825094824
3226.9937,146.10863723448787
3227.9121,143.852677062557
3228.83,146.44462113113804
3229.7473,146.9345513976865
3230.6639,148.47254835521176
3231.5799,147.7086910273776
3232.4954,148.89305695312243
3233.4102,151.6257221942976
3234.3244,151.35676132382392
3235.238,157.48624739836498
3236.151,154.61425196101675
3237.0634,155.69084498001266
3237.9752,157.41609487744364
3238.8864,161.9900685184922
3239.797,161.31283119417967
3240.7069,160.08444657562683
3241.6163,159.95497672082607
3242.5251,164.27448208692527
3243.4332,162.8930215315225
3244.3408,166.76065226947094
3245.2477,163.87742988669356
3246.154,167.04340830150676
3247.0598,167.75863979345263
3247.9649,172.62317497163912
3248.8694,168.13706276758782
3249.7733,171.0503503865885
3250.6766,174.01308335256024
3251.5793,175.37530547891862
3252.4814,169.3870588389483
3253.3829,176.4483837521809
3254.2838,177.1093188442773
3255.1841,180.66990097641474
3256.0838,180.43016523867698
3256.9829,183.4401449144488
3257.8814,176.09987148281346
3258.7792,184.80937458845244
3259.6765,182.06868211504874
3260.5731,186.2278200981915
3261.4692,187.98681275278292
3262.3647,186.24568243144705
3263.2595,189.40444960693972
3264.1538,183.0131328895598
3265.0474,185.57174899556173
3265.9404,186.48031281106842
3266.8329,182.63883736648535
3267.7247,185.89733382741466
3268.616,185.05581153307014
3269.5066,186.56427796369215
3270.3966,188.27273874896287
3271.286,188.1311976529216
