RamanShift,CorrectedData
30.1047,1148.5991359605166
32.3739,1066.997866970775
34.6426,984.7965864950421
36.9109,901.0452723773476
39.1787,816.4938926137556
41.4461,736.842406189877
43.7131,647.8907639263833
45.9796,570.4389092755223
48.2456,487.48677921063285
50.5112,404.58430500066464
52.7764,320.63141303969945
55.0411,240.5280256759758
57.3054,165.67406205141793
59.5692,86.06943890266979
61.8326,4.014071309634602
64.0955,-74.64212650847875
66.3579,-151.89924037260207
68.6199,-221.80661042882352
70.8815,-280.91205934981997
73.1426,-284.96119396023033
75.4032,-164.24681477322088
77.6634,257.99112446037
79.9231,1370.7143108153823
82.1824,3871.0844287867453
84.4412,8391.963149162246
86.6995,14591.062104018827
88.9574,20524.942841513803
91.2148,24516.96676389386
93.4717,26210.895068156264
95.7282,26317.538706128616
97.9842,25900.15836752956
100.2398,25039.01447890235
102.4949,24132.46720778867
104.7495,23079.97647134006
107.0036,22039.601945383372
109.2573,21155.603074945706
111.5105,20328.639084658145
113.7632,19569.968987595737
116.0154,18932.901593547143
118.2672,18477.04551660133
120.5185,17971.75918151826
122.7693,17607.050828287433
125.0197,17269.278517180755
127.2696,16935.65013239964
129.519,16645.37338545271
131.7679,16293.85581849208
134.0163,15917.304807216142
136.2642,15487.727564384726
138.5117,15026.98114358462
140.7587,14567.172443525338
143.0052,14165.30821264658
145.2512,13709.095053716332
147.4967,13300.189427849487
149.7417,12964.847659069996
151.9863,12729.82593839991
154.2304,12509.280327212813
156.4739,12267.866759584029
158.717,12083.991044496079
160.9596,11829.508868252822
163.2017,11490.575796318204
165.4433,11106.597275861088
167.6844,10679.528639144573
169.925,10340.175107365794
172.1651,9905.491794926598
174.4047,9576.983712827081
176.6439,9276.605773012427
178.8825,8987.962791657976
181.1206,8746.509492173023
183.3582,8533.550508087232
185.5954,8410.54038546517
187.832,8247.333585035905
190.0681,8148.1344834230995
192.3037,8069.297374777085
194.5388,7982.526471766852
196.7734,7961.275906368417
199.0075,7934.049730732531
201.2411,7974.601917397193
203.4742,8002.736359559902
205.7068,8070.056870672141
207.9389,8098.517184158038
210.1704,8191.120952741152
212.4015,8255.82174815987
214.632,8316.323060241368
216.862,8392.22829625462
219.0915,8398.140780305359
221.3205,8438.863752577043
223.549,8433.800369271725
225.777,8444.45370220282
228.0044,8465.826738845744
230.2314,8518.472382231375
232.4578,8542.093450732327
234.6837,8560.092677536493
236.909,8539.972710410831
239.1339,8454.536111521385
241.3582,8354.135357634466
243.582,8170.272840971038
245.8053,8053.000870210699
248.0281,7934.021672330335
250.2503,7891.937393776817
252.472,7915.950101656809
254.6932,7998.561784157604
256.9139,8029.374350306997
259.134,8157.689629147175
261.3536,8357.809369426579
263.5727,8622.885238316754
265.7912,8832.11881941116
268.0092,9078.061610074401
270.2267,9253.915019349895
272.4436,9290.830365500451
274.6601,9282.258874249728
276.8759,9161.101678413079
279.0913,8988.359817983284
281.3061,8797.034241342106
283.5204,8698.575806987705
285.7341,8611.785285447917
287.9473,8573.313360264812
290.16,8590.46062886262
292.3721,8597.52760293243
294.5837,8709.664708260747
296.7947,8862.27228465879
299.0052,9012.650584841136
301.2152,8916.849772899643
303.4246,8731.119922799659
305.6334,8354.111019338048
307.8418,7919.922960000476
310.0495,7480.005558731513
312.2568,7002.858550276487
314.4635,6542.831594580688
316.6696,6178.724281560822
318.8752,5902.886135705281
321.0802,5776.166619715219
323.2847,5746.365137262937
325.4887,5704.431034259069
327.692,5650.263599150596
329.8949,5576.962063340194
332.0972,5380.875601727908
334.2989,5139.803333444164
336.5001,4856.244323810644
338.7007,4608.247586750989
340.9008,4394.062087626402
343.1003,4192.58674571562
345.2992,4057.5704363567584
347.4976,3918.711992962073
349.6955,3784.710208368111
351.8927,3728.413836224312
354.0895,3597.921592333012
356.2856,3525.18215521242
358.4812,3436.494167401528
360.6763,3392.35623618751
362.8707,3339.2169344926133
365.0646,3325.9248013155193
367.258,3349.3283422627574
369.4508,3370.8760296816035
371.643,3495.5663024260593
373.8346,3509.2475656413626
376.0257,3592.168189517097
378.2162,3573.9265091503657
380.4062,3538.6208237165956
382.5956,3411.149396651954
384.7844,3264.4104560064097
386.9726,3117.5021957184435
389.1603,3007.2727770824404
391.3474,2898.1703302177666
393.5339,2835.7929551710604
395.7199,2777.788723007263
397.9052,2813.6556764333836
400.09,2860.891830378554
402.2743,3006.2951716353473
404.4579,3127.0636583874293
406.641,3309.245218755508
408.8235,3431.0377495896573
411.0054,3572.1891146475064
413.1868,3656.3971433763127
415.3675,3669.759629501441
417.5477,3638.8743301842896
419.7273,3570.938965888674
421.9064,3459.6012206896576
424.0848,3383.2587429529267
426.2627,3208.6591464481535
428.4399,2963.7500111124264
430.6166,2635.9788847962536
432.7928,2282.593285712652
434.9683,1962.6907057148546
437.1432,1728.4686138301677
439.3176,1547.5244594589876
441.4914,1424.7556747170347
443.6645,1363.1096762447796
445.8371,1303.383866435146
448.0091,1212.3756340499585
450.1806,1222.1323548172077
452.3514,1198.8513923411338
454.5216,1196.4300980046573
456.6913,1178.565811202181
458.8603,1184.5558593638107
461.0288,1235.6475581339982
463.1967,1193.5882113116386
465.3639,1183.125110339157
467.5306,1134.2555347230918
469.6967,1126.4267521387428
471.8622,1144.3360189188606
474.0271,1160.1805801319315
476.1914,1181.5576694030951
478.3551,1177.3645087556797
480.5182,1227.848308397448
482.6807,1315.1062667625265
484.8426,1473.5855700065567
487.0039,1741.1333911341299
489.1647,2146.2968884139827
491.3248,2417.223202703528
493.4843,2539.3594533972137
495.6432,2463.4027357172654
497.8015,2301.5001194923134
499.9592,2189.498649916968
502.1163,1981.5453491708395
504.2728,1688.0372175385673
506.4287,1421.671235489328
508.5839,1103.294366611939
510.7386,893.4035602785079
512.8927,781.6957548282062
515.0461,803.6178796661661
517.199,860.4168563805706
519.3512,1036.5395985234227
521.5029,1302.0830110425613
523.6539,1548.6939885204356
525.8043,1652.1194125186612
527.9541,1606.0561491119242
530.1033,1395.6010478537155
532.2519,1248.2009422369756
534.3999,1152.852651798643
536.5472,1170.20298359365
538.694,1357.4487331484088
540.8401,1591.5866842873002
542.9856,1760.4136072602323
545.1305,1789.4262564012497
547.2748,1696.5713684402654
549.4185,1565.1956622129383
551.5615,1451.74583958921
553.704,1484.4685867870776
555.8458,1549.3105755070792
557.987,1712.2684626050686
560.1276,1939.688889443807
562.2675,2364.7684802633685
564.4069,2890.0538399069465
566.5456,3367.2915495700563
568.6837,3524.178161547681
570.8212,3139.3601944618913
572.958,2450.784131692986
575.0942,1797.3964252276637
577.2299,1360.3435025447925
579.3648,1110.2217731492801
581.4992,1074.5776329425953
583.6329,1150.4074667240002
585.766,1305.307648546981
587.8985,1447.774540960956
590.0304,1480.804493462263
592.1616,1495.5938410695053
594.2922,1361.0389039932306
596.4222,1159.1359874880673
598.5515,973.8813831982461
600.6802,782.0713711766493
602.8083,615.5022217373498
604.9358,616.7201973737101
607.0626,669.3715544240695
609.1888,763.0025430595815
611.3144,943.0594067576894
613.4393,1090.53838136581
615.5636,1206.185693300782
617.6873,1242.9975580740665
619.8103,1184.6701791352752
621.9327,984.4497475040444
624.0544,803.9324423533199
626.1756,603.164433011545
628.2961,456.3418807678554
630.4159,378.3609408797438
632.5351,346.01776404129123
634.6537,352.90849716296725
636.7716,380.1792836950681
638.8889,389.1762635588111
641.0056,400.2455728736113
643.1216,403.6333438671354
645.237,362.9357047646008
647.3518,269.5487797548867
649.4659,245.46868939753585
651.5793,174.54155155660737
653.6922,111.8634816414833
655.8043,144.5805933161355
657.9159,158.53899912589986
660.0268,107.48481017031372
662.137,132.11413596353123
664.2466,163.6730849448668
666.3556,156.10776423250172
668.4639,127.06427930788777
670.5716,87.88873409140433
672.6786,60.427231232799386
674.785,-13.624127497081645
676.8907,-25.31924093165071
678.9958,-6.211871799285291
681.1002,-43.45552988915733
683.204,-21.053662933840315
685.3072,-78.15928454517962
687.4097,-58.47519800891678
689.5115,-33.95342579954922
691.6127,-58.19540622435488
693.7132,-53.102238395895256
695.8131,-18.874440054622028
697.9123,26.838001550364424
700.0109,53.03528772562095
702.1089,96.31761950932378
704.2061,157.98519740929623
706.3028,227.28822097019656
708.3987,282.3268881568365
710.4941,326.6013946611529
712.5887,393.26193335181597
714.6827,429.5086938314944
716.7761,544.5418617702453
718.8688,691.3116185430299
720.9608,850.2181400794125
723.0522,1009.361595395847
725.1429,1100.9921450066104
727.233,1211.259939332358
729.3224,1286.9151177838448
731.4112,1208.2078076592097
733.4993,1084.4881233874457
735.5867,872.1561673154574
737.6735,666.6120309452708
739.7596,470.4057970573558
741.845,341.237541766066
743.9298,280.6073364817039
746.014,234.3152492022018
748.0974,254.31134511942764
750.1802,230.195687082105
752.2624,280.41833539583604
754.3439,341.67934806428093
756.4247,418.0287802869243
758.5048,605.9166838464698
760.5843,890.893106345331
762.6631,1334.6080893267608
764.7413,1885.211665425095
766.8188,2621.4038539285866
768.8956,3206.9846552733798
770.9718,3605.4040436815885
773.0473,3525.8119613054732
775.1221,3326.308314243266
777.1962,3091.192973335086
779.2697,3006.765776157976
781.3426,3057.7265293770597
783.4147,3199.8750095898067
785.4862,3259.310962816422
787.557,3064.6841030783708
789.6271,2596.394111804
791.6966,1947.9406397748298
793.7654,1400.0733118084336
795.8335,998.5417332429897
797.901,679.045495415945
799.9678,526.2341796793371
802.0339,460.55736059474475
804.0993,423.964607461412
806.1641,354.70548497301024
808.2282,301.62955358357794
810.2916,221.73637020009664
812.3544,181.6754887132538
814.4164,120.79646079638223
816.4778,157.49883630605473
818.5385,246.28216389088266
820.5986,382.0959906244898
822.658,657.9898611176868
824.7166,994.3633161603302
826.7747,1545.3158899623777
828.832,2097.2471067901643
830.8886,2556.8564754568724
832.9446,2728.043483803227
834.9999,2563.70759410139
837.0545,2257.1482413430895
839.1085,1912.4148348829858
841.1618,1573.8567615042502
843.2143,1333.9233888659219
845.2662,1109.1640688884672
847.3175,995.4781401531236
849.368,866.7149301495047
851.4179,802.0237564124345
853.467,735.8039278096003
855.5155,681.504745188453
857.5633,594.8755020384142
859.6105,536.9154850338637
861.6569,474.97397490043295
863.7027,424.60024699460155
865.7478,369.39357192312127
867.7922,345.303216046741
869.8359,332.02844203227687
871.8789,375.16850909351706
873.9212,417.4226731239669
875.9629,514.9401862654558
878.0039,638.4202964855867
880.0441,745.2622466025714
882.0837,819.3152730504116
884.1226,861.378604810503
886.1609,960.4514626710879
888.1984,1056.6830588066314
890.2352,1198.4725957870814
892.2714,1258.6192656155745
894.3069,1227.1722483105095
896.3416,1056.230711304117
898.3757,913.7938097568986
900.4091,837.1606882670512
902.4418,845.5304822948456
904.4739,886.2523189289423
906.5052,929.5253168027139
908.5358,906.1985856869996
910.5658,809.0212260574026
912.595,607.4923293275315
914.6236,413.2609788207974
916.6515,279.9762517856907
918.6786,195.03722133810334
920.7051,199.49295779416752
922.7309,274.29252951964554
924.756,274.8350028853765
926.7804,353.7694415192818
928.8041,327.9449063009397
930.8272,421.01045457223336
932.8495,430.71514039560134
934.8711,429.4580136233817
936.892,418.7881198007599
938.9123,418.85450017834773
940.9318,459.10619181887705
942.9506,460.3922275965415
944.9688,409.21163579447057
946.9862,328.11344009188906
949.003,213.5466600758973
951.019,121.11031205247127
953.0344,54.953410192123556
955.0491,47.57496745426579
957.063,105.0739962487769
959.0763,184.09950850979112
961.0888,199.05051512070168
963.1007,285.2260251239222
965.1119,305.6750455713609
967.1223,336.59658066267
969.1321,270.43963154075755
971.1412,286.65319598256974
973.1495,296.0862690606573
975.1572,292.23784298104874
977.1641,319.60690698890176
979.1704,308.8424474070125
981.1759,308.69344736210223
983.1808,308.2588868924795
985.1849,327.8377429495231
987.1884,395.0289894020261
989.1911,497.0315968404102
991.1932,556.8445319048169
993.1945,584.7667562650731
995.1951,535.3472260225608
997.1951,553.8848914310001
999.1943,528.0786973906415
1001.1928,511.8275832628915
1003.1906,584.7304831283709
1005.1877,728.0863259494308
1007.1841,838.3440348411186
1009.1798,862.6025256376288
1011.1748,822.0607057897105
1013.1691,712.8674741221002
1015.1627,474.0217212389234
1017.1556,313.272330615644
1019.1477,189.31818098750227
1021.1392,90.55814795702827
1023.1299,73.29110523357303
1025.12,86.46592562090518
1027.1093,172.13148118989375
1029.0979,294.08664314675116
1031.0859,353.0802809763809
1033.0731,421.6112612228135
1035.0596,383.4784468992875
1037.0454,283.68069680291956
1039.0304,187.96686589605451
1041.0148,93.13580630422803
1042.9985,25.386368273313565
1044.9814,-35.6825988821638
1046.9636,-85.07224610153753
1048.9452,-81.83336785497522
1050.926,-23.26590874091562
1052.9061,20.931004157549978
1054.8855,45.10847618374828
1056.8642,101.41761247170507
1058.8421,141.20951770436113
1060.8194,163.88529555048808
1062.7959,239.99604826676114
1064.7717,313.8428764710043
1066.7469,396.82687838108177
1068.7213,472.6991490764376
1070.695,594.8107796682434
1072.6679,642.3128565406878
1074.6402,651.8064601298574
1076.6117,621.9426644487139
1078.5826,548.5725369921602
1080.5527,387.39713903568554
1082.5221,291.5175263690562
1084.4908,240.78475090807478
1086.4587,272.6998616533692
1088.426,296.6639051977254
1090.3925,321.0279254069337
1092.3584,340.2429631801442
1094.3235,394.01005620623255
1096.2879,507.0302387716529
1098.2515,619.9545412227635
1100.2145,817.4839888356237
1102.1767,1017.7196006867471
1104.1382,1269.4123876778212
1106.099,1509.2633505333397
1108.0591,1745.6234772836706
1110.0185,1895.8937408665624
1111.9771,1994.2250967635155
1113.9351,1922.1184814971066
1115.8923,1788.4248116476565
1117.8488,1712.0449845743024
1119.8045,1533.4798797519488
1121.7596,1398.1303595350546
1123.7139,1262.3472709432845
1125.6675,1207.6314470150073
1127.6204,1225.2837081651205
1129.5726,1205.6548627322163
1131.524,1110.6457068020509
1133.4748,997.6570244038439
1135.4248,788.7895884603595
1137.3741,637.4441619177951
1139.3226,536.4714998344552
1141.2705,485.1723508942023
1143.2176,401.3974584161879
1145.164,382.6975608678431
1147.1097,294.07339270263583
1149.0546,192.52568454706307
1150.9989,117.45516408688763
1152.9424,16.612557082620697
1154.8852,-55.90141187977406
1156.8272,-68.83601838045433
1158.7686,-50.5899795444775
1160.7092,-8.911324825079646
1162.6491,17.252421718395453
1164.5883,164.10382505073267
1166.5267,300.34544996419663
1168.4644,424.82985961001305
1170.4014,616.109614135953
1172.3377,901.8372694415029
1174.2732,1220.0653752650487
1176.2081,1635.2464723266148
1178.1421,2184.0330891455706
1180.0755,2744.477737888825
1182.0082,3128.2829088829594
1183.9401,3302.2510650097784
1185.8713,3191.434637868262
1187.8017,2840.486026034888
1189.7315,2443.3075961717823
1191.6605,2022.3516865362271
1193.5888,1721.6706109524266
1195.5163,1560.6666630210766
1197.4432,1483.5921191261705
1199.3693,1444.0992400450286
1201.2947,1394.7902717190627
1203.2193,1368.8674456486888
1205.1432,1368.2329793864292
1207.0664,1329.7890767961344
1208.9889,1329.63792805933
1210.9106,1300.3317100596569
1212.8316,1305.6225863843774
1214.7519,1326.812707617446
1216.6715,1383.0542112865896
1218.5903,1483.4492216514109
1220.5084,1601.5498491409771
1222.4257,1706.5581893498638
1224.3424,1765.1263218571485
1226.2583,1891.5563091763388
1228.1735,2053.4001961696795
1230.0879,2224.760008783858
1232.0016,2421.7877524315627
1233.9146,2590.7354102778836
1235.8269,2635.554941270032
1237.7384,2635.798278447872
1239.6492,2528.5673284957193
1241.5592,2524.7139717399104
1243.4686,2602.7400632211093
1245.3772,2809.197432732846
1247.285,3062.6878840412546
1249.1922,3305.063192820493
1251.0986,3485.125104117851
1253.0042,3598.3253299299877
1254.9092,3731.8155474023097
1256.8134,3834.4473976969775
1258.7169,3996.8224846580015
1260.6196,4146.892373784915
1262.5216,4358.558590609036
1264.4229,4570.4726191927675
1266.3234,4786.235900012924
1268.2232,4959.849827841595
1270.1223,5042.415749588521
1272.0207,5070.934962564937
1273.9183,5081.008713657926
1275.8151,5031.388199045216
1277.7113,5050.974564094455
1279.6067,5125.21890385941
1281.5014,5421.922262884107
1283.3953,5911.085634460392
1285.2885,6528.009957660887
1287.181,7105.5961124473615
1289.0727,7735.294913501488
1290.9637,8127.457104448993
1292.854,8328.383351562647
1294.7435,8314.72423984066
1296.6323,8200.43027099741
1298.5204,7963.701863600045
1300.4077,7689.039354211409
1302.2943,7422.442999757329
1304.1802,7038.86298027324
1306.0653,6567.249401570144
1307.9497,6031.802299070419
1309.8333,5588.57164252395
1311.7162,5229.057341362595
1313.5984,4998.959249132503
1315.4798,4850.327167089247
1317.3605,4733.710846498819
1319.2405,4628.30999012394
1321.1197,4378.124253390224
1322.9982,4067.853245440192
1324.876,3755.0465316351183
1326.753,3432.1036366577573
1328.6293,3226.9240476403993
1330.5048,3016.6072173942985
1332.3796,2840.0025664614723
1334.2537,2751.159485217867
1336.127,2665.377335639405
1337.9996,2626.65545219042
1339.8714,2646.9431426814735
1341.7426,2648.2396886565766
1343.6129,2680.9943451903137
1345.4826,2724.2563408748765
1347.3515,2734.424877492521
1349.2196,2702.0991295829463
1351.087,2761.4782443416007
1352.9537,2809.361341942951
1354.8197,2925.54751494668
1356.6849,3112.8858278188636
1358.5493,3277.7253157701043
1360.4131,3507.714982882154
1362.276,3705.103800459505
1364.1383,3751.8407047295077
1365.9998,3583.574594868478
1367.8606,3277.754332534326
1369.7206,2940.1787435492242
1371.5799,2629.596620957799
1373.4384,2377.3567284029014
1375.2962,2145.607803231418
1377.1533,1847.3485590166765
1379.0096,1475.0276878759278
1380.8652,1193.6938634529452
1382.7201,893.0957446412285
1384.5742,656.2819783973391
1386.4275,509.8012027468858
1388.2802,360.5020491526566
1390.132,273.53314397942995
1391.9832,209.49310998696637
1393.8336,156.83056719969863
1395.6832,126.24413354713306
1397.5322,89.73242539046441
1399.3803,91.79405782845788
1401.2278,80.52764506255517
1403.0745,67.23180037626116
1404.9204,70.55513624780724
1406.7656,94.64626448310901
1408.6101,89.8037961825321
1410.4538,158.6263414999812
1412.2968,213.71250969132234
1414.139,267.0609084261687
1415.9805,381.7201432370057
1417.8213,457.33881698571895
1419.6613,561.4155287169933
1421.5006,718.2988729021272
1423.3391,917.4374383982658
1425.1769,1209.6298068795659
1427.0139,1635.3745508458196
1428.8502,2181.2202307005227
1430.6858,2692.3153904934306
1432.5206,3076.9585524621043
1434.3547,3316.5482119209555
1436.188,3353.982833414805
1438.0206,3293.8108483230026
1439.8524,3140.130654485066
1441.6835,3061.9906168024127
1443.5139,2960.1390687751536
1445.3435,2941.1243132834898
1447.1724,2943.844623606241
1449.0005,2885.998243610986
1450.8279,2836.583387726858
1452.6545,2885.79824152302
1454.4804,2925.290962202793
1456.3056,2927.8096781115173
1458.13,2889.602488341621
1459.9536,2761.317462707445
1461.7766,2523.4026421272965
1463.5987,2254.006039906316
1465.4202,1960.5256441156116
1467.2409,1645.2094202862354
1469.0608,1405.3053143439884
1470.88,1181.861255762573
1472.6984,965.4251599626414
1474.5161,792.6449305462347
1476.3331,673.2184614611397
1478.1493,568.5936387286974
1479.9648,516.61834163807
1481.7795,445.4404437924877
1483.5935,413.2078136289974
1485.4067,388.4683151302461
1487.2192,368.21980814680956
1489.031,355.0601486445812
1490.842,325.8871889072634
1492.6522,327.1987776679571
1494.4618,304.94276040089335
1496.2705,291.56697930831433
1498.0785,274.2192735430426
1499.8858,241.49747934222887
1501.6924,225.54943020083465
1503.4981,185.32295719885315
1505.3032,180.86588916078017
1507.1075,151.27605305789166
1508.911,138.10127405280946
1510.7138,98.23937579540143
1512.5159,70.43818055452357
1514.3172,44.495509616644995
1516.1178,14.109183563853549
1517.9176,6.477022533282252
1519.7166,-9.603153479019966
1521.515,-1.4835245417734768
1523.3126,-15.416174788201715
1525.1094,-32.053173531116954
1526.9055,-44.99643607575126
1528.7008,-39.7475575161352
1530.4954,-39.30768343190539
1532.2893,-38.87756232460197
1534.0824,-46.107550012013235
1535.8747,-30.247613925082987
1537.6663,-25.097260880329486
1539.4572,-10.355695520614972
1541.2473,19.228128232832205
1543.0367,55.00535991217748
1544.8253,60.577148857305474
1546.6132,109.1446438580515
1548.4003,165.10899309848264
1550.1867,227.27134367122017
1551.9723,334.4328410178023
1553.7572,445.99462830705306
1555.5414,591.8078453634753
1557.3247,753.9236275516178
1559.1074,915.0431043179569
1560.8893,1123.717397569737
1562.6705,1305.247620063773
1564.4509,1471.884873319712
1566.2305,1564.530245804729
1568.0094,1639.1848112671487
1569.7876,1639.04962781
1571.565,1619.325737144468
1573.3417,1632.0141645912354
1575.1176,1632.6659192777333
1576.8928,1653.8319940112506
1578.6672,1692.8633652724166
1580.4409,1747.2109930035513
1582.2138,1813.5258202183386
1583.986,1898.4087724583496
1585.7575,2020.3607571299053
1587.5282,2165.482662655235
1589.2981,2303.0753572529684
1591.0673,2434.7896874869075
1592.8358,2577.6264768901
1594.6035,2688.486524647703
1596.3704,2819.5706041686108
1598.1366,2895.7794619768583
1599.9021,3031.4638164007793
1601.6668,3144.9743568109125
1603.4308,3318.011742263161
1605.194,3486.1766003636885
1606.9564,3715.5195255385315
1608.7182,3987.041077351969
1610.4791,4340.591778213084
1612.2394,4681.222110660545
1613.9988,4990.632513827113
1615.7576,5342.573380033326
1617.5156,5550.745051693397
1619.2728,5635.547817795812
1621.0293,5511.531911821607
1622.785,5287.047510896344
1624.54,4935.994737030267
1626.2942,4537.473659363152
1628.0477,4088.434297674831
1629.8005,3724.6266263703983
1631.5525,3375.700578970608
1633.3037,3077.556051749949
1635.0542,2857.092907225906
1636.804,2681.3609771404035
1638.553,2535.960064664444
1640.3013,2478.489946155416
1642.0488,2445.7503726111136
1643.7955,2471.191070244433
1645.5416,2518.661740810764
1647.2868,2629.4120613535943
1649.0313,2750.741683729787
1650.7751,2894.7502335020936
1652.5181,3040.7373087258484
1654.2604,3241.552478508884
1656.0019,3475.4952815516613
1657.7427,3736.0152241391174
1659.4828,4001.9617778012394
1661.222,4138.334376707868
1662.9606,4139.132415009222
1664.6984,3944.155245472184
1666.4354,3552.6021794723115
1668.1717,3040.272488943613
1669.9072,2483.265410294073
1671.642,2053.3301495289525
1673.3761,1686.4658878208602
1675.1094,1408.5217858091064
1676.8419,1161.7469872683428
1678.5737,957.7406218880069
1680.3048,822.5518077400666
1682.0351,705.0796533190855
1683.7646,609.523258894109
1685.4934,529.3317176833898
1687.2215,475.7541168099492
1688.9488,418.63953810349585
1690.6754,379.43705863619743
1692.4012,338.1957512938311
1694.1263,316.1646851678065
1695.8506,272.04292596757887
1697.5742,246.62953624095735
1699.297,221.87357581532297
1701.0191,200.97410205176448
1702.7404,172.63017009263604
1704.461,145.1908330705537
1706.1808,126.55514239183321
1707.8999,123.22214801088376
1709.6182,105.44089861656403
1711.3358,96.01044166551446
1713.0527,86.77982355996664
1714.7688,73.39808974205107
1716.4841,47.21428478610051
1718.1987,63.32745253247049
1719.9126,50.03663634937493
1721.6257,47.39087897175932
1723.338,55.33922263420163
1725.0496,36.7807090973738
1726.7605,54.46437956855789
1728.4706,70.33927488722793
1730.18,43.604435348217066
1731.8886,40.45890054296888
1733.5964,34.9517096268828
1735.3036,60.831901350772114
1737.0099,39.39851411593372
1738.7156,33.550585715349825
1740.4204,38.087153548018705
1742.1246,26.057254677434685
1743.8279,12.209925786220538
1745.5306,5.994203296429532
1747.2325,-10.340876491984545
1748.9336,-25.496277339007975
1750.634,-32.7228596992727
1752.3336,-7.971229319602571
1754.0325,-14.341665045455102
1755.7307,-13.884366089707328
1757.4281,-4.999388392002857
1759.1247,-11.886649187168132
1760.8206,-5.096015766139772
1762.5158,5.922763327769189
1764.2102,-1.530009539558705
1765.9039,-5.904032061466751
1767.5968,7.301013353494909
1769.289,11.635503278053875
1770.9804,-1.9501857880732132
1772.6711,13.39432253847599
1774.361,9.119424123418867
1776.0502,24.725514698530333
1777.7386,30.812989904391998
1779.4263,16.032245134332243
1781.1132,26.783675473549465
1782.7994,30.517675846919246
1784.4849,36.73464091148435
1786.1696,34.93496501910977
1787.8535,44.46904215431687
1789.5367,37.23726595227663
1791.2192,53.440029603472794
1792.9009,26.877725926016865
1794.5818,39.40074720362327
1796.2621,46.55948545123147
1797.9415,55.05433228977381
1799.6202,40.08567887459276
1801.2982,58.10391581048725
1802.9755,67.80943330140599
1804.6519,65.35262097025816
1806.3277,65.88386776186144
1808.0027,59.05356196750654
1809.6769,75.1120912196493
1811.3504,67.20984256020984
1813.0231,80.14720227999123
1814.6951,82.67455599769983
1816.3664,71.39228853057102
1818.0369,83.60078386909754
1819.7067,97.10042528984786
1821.3757,85.59159523338622
1823.044,88.07467516927136
1824.7115,110.50004571114732
1826.3783,107.01808659191101
1828.0443,100.32917643946257
1829.7096,92.83369281152409
1831.3741,110.78201226252804
1833.0379,104.72451041856993
1834.701,111.91156179792642
1836.3633,119.74353987163113
1838.0248,116.77081699160499
1839.6856,133.29376431233504
1841.3457,137.96275182060253
1843.005,140.82814817024973
1844.6636,148.19032063549548
1846.3214,133.84963508227793
1847.9785,164.50645589463375
1849.6349,153.4111461181069
1851.2904,147.31406715317507
1852.9453,159.51557886620685
1854.5994,175.41603965043169
1856.2528,178.41580630392582
1857.9054,158.71523387060506
1859.5572,160.76467561022946
1861.2083,169.26448319540668
1862.8587,177.06500669109755
1864.5084,183.0165944696205
1866.1572,164.31959313264497
1867.8054,178.97434745167538
1869.4528,182.58120055502195
1871.0994,193.49049378125346
1872.7453,180.40256664312483
1874.3905,172.4677567184881
1876.0349,189.38639978116817
1877.6786,189.70882988031326
1879.3215,193.13537917121266
1880.9637,197.91637791206722
1882.6051,203.5021544297265
1884.2458,198.84303507187906
1885.8858,192.9893441511931
1887.525,213.8414039919071
1889.1634,206.09953498836649
1890.8011,204.2140553965046
1892.4381,194.63528141126244
1894.0743,200.7135271854413
1895.7098,209.24910492548997
1897.3446,211.4923248307241
1898.9786,211.44349500797125
1900.6118,201.90292144913792
1902.2443,194.77090803169676
1903.8761,198.74775661409103
1905.5071,196.43376710705752
1907.1374,194.62923743385636
1908.7669,206.58446355341175
1910.3957,199.39973947835597
1912.0237,201.22535715547974
1913.651,194.96160653757534
1915.2776,196.00877556518753
1916.9034,200.36715022924182
1918.5285,184.6370145605788
1920.1528,192.06865058636822
1921.7764,185.46233848741167
1923.3992,193.66835652382633
1925.0213,188.38698110110954
1926.6427,176.61848668807352
1928.2633,166.0631458696639
1929.8832,187.42122946464315
1931.5023,182.04300663114327
1933.1207,174.57874465308578
1934.7383,172.32870899396357
1936.3552,179.6931633714812
1937.9714,177.5223697800593
1939.5868,167.06658841718536
1941.2015,155.07607770512732
1942.8154,161.3510943954875
1944.4286,169.69189368910975
1946.041,149.19872917332896
1947.6528,149.72185273856257
1949.2637,165.6115147832379
1950.8739,161.11796420856672
1952.4834,160.44144825964668
1954.0921,150.53221257039604
1955.7001,166.5905011703212
1957.3074,166.81655658360614
1958.9139,163.31061966853304
1960.5197,170.27292961522016
1962.1247,152.25372398067884
1963.729,152.5532386191935
1965.3325,146.42170786251245
1966.9353,136.30936451685193
1968.5374,144.2164399242115
1970.1387,139.39316406349735
1971.7393,139.73976547145367
1973.3392,135.55647129089266
1974.9383,130.24350726722923
1976.5366,135.9010977903149
1978.1342,141.07946594756868
1979.7311,128.57883346739663
1981.3273,141.6494206674122
1982.9227,140.2414465794443
1984.5173,132.05512881882623
1986.1112,138.79068359847952
1987.7044,119.79832581077608
1989.2968,134.62826896018055
1990.8885,142.43072535317742
1992.4795,138.7059059499693
1994.0697,129.85402028645285
1995.6592,140.9252765114668
1997.2479,132.81988147531047
1998.8359,125.13804061903284
2000.4232,126.57995805548217
2002.0097,126.09583664612774
2003.5955,116.58587798663939
2005.1805,140.8502824117304
2006.7648,119.88924909025673
2008.3484,116.20297578257373
2009.9312,127.09165905014493
2011.5133,138.75549429240596
2013.0946,130.44467563787634
2014.6752,138.4093958275223
2016.2551,130.64984629786454
2017.8342,125.76621710133077
2019.4126,130.9586969838524
2020.9902,118.12747343369824
2022.5672,116.07273262955005
2024.1433,123.29465956881631
2025.7188,124.14343808817853
2027.2935,119.719250791371
2028.8674,117.87227904069505
2030.4406,126.00270300125908
2032.0131,110.51070165945225
2033.5849,120.39645274163695
2035.1559,121.7601328690696
2036.7261,112.55191745904335
2038.2957,112.6719807112504
2039.8645,112.12049569986539
2041.4325,123.49763437234378
2042.9998,115.75356755493613
2044.5664,120.03846483891652
2046.1323,123.05249465802376
2047.6974,116.74582424561345
2049.2617,124.61861960451643
2050.8254,126.17104557010748
2052.3883,141.90326573157336
2053.9504,120.96544241639253
2055.5118,121.50773653300962
2057.0725,112.88030778021812
2058.6325,119.33331464173398
2060.1917,119.51691447247094
2061.7502,118.58126343401
2063.3079,119.87651649276472
2064.8649,112.8028274293356
2066.4212,110.76034882555882
2067.9767,111.44923213524658
2069.5315,103.16962770460532
2071.0856,105.42168476535085
2072.6389,103.50555151750359
2074.1915,106.22137510686821
2075.7433,100.26930164419514
2077.2945,96.14947617802113
2078.8448,104.01204275419036
2080.3945,93.10714445705207
2081.9434,105.38492333083673
2083.4916,99.89552048870428
2085.039,91.38907598996661
2086.5857,89.21572889497975
2088.1317,101.87561735021063
2089.677,91.31887860996972
2091.2215,95.3456489098121
2092.7652,100.5560635721049
2094.3083,95.30025696575854
2095.8506,107.12836245412404
2097.3921,99.7405124475506
2098.933,78.03683828510475
2100.4731,98.71747030845017
2102.0124,108.73253807888341
2103.5511,112.98217017052639
2105.089,111.61649407017717
2106.6261,107.73563613481201
2108.1626,114.98972160524272
2109.6983,109.07887464492501
2111.2332,104.25321826741856
2112.7675,99.26287439549424
2114.301,104.80796390939145
2115.8337,101.93860669672131
2117.3657,104.20492159701712
2118.897,111.80702643042582
2120.4276,102.44503797504808
2121.9575,98.21907189091417
2123.4866,93.4792428136052
2125.0149,96.32566439651077
2126.5426,91.35844935822956
2128.0695,95.6777094541037
2129.5956,105.1335555258911
2131.1211,97.42609745857408
2132.6458,82.90544408580035
2134.1698,93.62170326695696
2135.693,97.0749820323781
2137.2155,96.66538647618245
2138.7373,83.84302172173943
2140.2584,83.90799192576515
2141.7787,90.16040040654707
2143.2983,97.5003496432928
2144.8171,72.17794121360635
2146.3353,88.19327572008888
2147.8527,78.94645304356368
2149.3693,95.5375721829223
2150.8853,81.3667313475928
2152.4005,83.08402779162861
2153.9149,82.58955795541692
2155.4287,80.08341744850577
2156.9417,88.46570105454771
2158.454,88.73650275636237
2159.9655,90.14591565211458
2161.4764,93.74403195260311
2162.9865,85.430942967168
2164.4958,88.45673906771094
2166.0045,86.72150977182423
2167.5124,69.47534371253437
2169.0195,93.16832865565493
2170.526,92.55055167224555
2172.0317,82.42209890168465
2173.5367,82.68305555784491
2175.0409,83.73350603037943
2176.5445,85.97353388211104
2178.0473,79.40322183852754
2179.5494,90.2726517653823
2181.0507,84.43190473439768
2182.5513,75.13106091457053
2184.0512,84.57019963057883
2185.5504,67.94939945579108
2187.0488,81.01873811787482
2188.5465,66.52829266500294
2190.0435,73.67813933516254
2191.5397,75.21835370105782
2193.0353,69.69901059861309
2194.5301,64.32018411156969
2196.0241,69.8819476266799
2197.5175,69.68437388749498
2199.0101,65.92753493874693
2200.502,63.56150212832563
2201.9931,61.586346144846175
2203.4835,68.05213704130915
2204.9733,64.05894425485212
2206.4622,61.60683654209197
2207.9505,68.54588201905676
2209.438,47.8261481857071
2210.9248,48.79770185654252
2212.4109,46.960609367803045
2213.8962,43.36493656775224
2215.3809,48.7607488350493
2216.8648,53.498111114703306
2218.3479,59.827087864117175
2219.8304,50.49774300571357
2221.3121,55.16013986364419
2222.7931,55.26434125708397
2224.2733,42.160409453607144
2225.7529,49.84840616814449
2227.2317,43.428392694024524
2228.7098,36.9004298260902
2230.1872,56.11457792490319
2231.6638,42.12089698202158
2233.1397,40.96944642785775
2234.6149,46.91028527161643
2236.0894,44.943472112808195
2237.5632,44.81906508184193
2239.0362,34.53712185969198
2240.5085,45.79769967914194
2241.9801,39.250855427605984
2243.4509,44.64664553452076
2244.921,38.2351260368157
2246.3904,33.56635252495448
2247.8591,27.040380207050248
2249.3271,33.65726395555339
2250.7943,36.71705837251079
2252.2608,25.219817723397227
2253.7266,33.16559590651764
2255.1917,20.604446567978584
2256.656,21.636423022231156
2258.1197,22.161578377682872
2259.5826,25.779965526377964
2261.0447,20.59163713874659
2262.5062,17.19664562741991
2263.9669,25.445043199112206
2265.4269,23.186881888572316
2266.8862,32.42221347609893
2268.3448,26.951089510121392
2269.8026,28.173561214848178
2271.2598,15.73967954497607
2272.7162,19.549495173467676
2274.1719,27.003058615888676
2275.6268,31.850420192311276
2277.0811,25.541629952778067
2278.5346,32.32673762882814
2279.9874,40.905792696584285
2281.4395,41.6788443089024
2282.8908,26.895941209581224
2284.3414,21.157131725631643
2285.7914,32.91246391510663
2287.2406,31.71198562448717
2288.689,28.255744371132778
2290.1368,25.14378735528294
2291.5838,28.87616149462042
2293.0302,29.102913455390308
2294.4758,23.224089615076082
2295.9206,26.0897360601341
2297.3648,37.39989864478025
2298.8082,43.304622962334406
2300.251,26.953954232115848
2301.693,16.347937240399006
2303.1343,29.336616503919686
2304.5748,37.42003637593393
2306.0147,33.048240916331906
2307.4538,23.671273810803996
2308.8922,34.03917841455814
2310.3299,26.50199784609049
2311.7669,26.05977488350527
2313.2031,34.21255203988699
2314.6387,27.56037156772345
2316.0735,19.10327537737703
2317.5076,34.04130510360733
2318.941,26.37450219014022
2320.3737,32.602907740290675
2321.8056,14.42656259362775
2323.2369,29.49550726369216
2324.6674,23.40978211975903
2326.0972,22.169427236148977
2327.5263,32.974482453084875
2328.9547,16.324987389095668
2330.3823,29.020981332965903
2331.8092,23.212503410231875
2333.2355,17.749592456220398
2334.661,29.082287074134
2336.0858,23.460625689679773
2337.5098,27.284646437742595
2338.9332,23.20438721860046
2340.3558,29.66988565968495
2341.7778,29.83117915638377
2343.199,27.588304807386976
2344.6195,33.391299413072375
2346.0393,30.89019949793692
2347.4583,21.43504125256686
2348.8767,20.47586055864531
2350.2943,30.66269308350661
2351.7113,35.5455742897268
2353.1275,21.224539333254143
2354.543,32.1996230145819
2355.9578,48.820859921958345
2357.3718,35.38828432163541
2358.7852,35.60192999165815
2360.1978,30.611830356189103
2361.6098,25.46801848337327
2363.021,26.420527135238444
2364.4315,22.91938881913211
2365.8413,30.114635778197567
2367.2504,25.35630002638345
2368.6587,31.29441327649306
2370.0664,23.929006987765547
2371.4733,37.410112306496785
2372.8795,41.13776013969209
2374.285,29.261981020257053
2375.6899,29.432805069719507
2377.0939,19.150262116988415
2378.4973,20.36438169664484
2379.9,19.625193151769054
2381.3019,27.732725621796817
2382.7032,22.737008049911537
2384.1037,27.738069101970154
2385.5035,21.385937216458842
2386.9027,12.780640554481465
2388.3011,18.622207063282303
2389.6987,17.410664562297825
2391.0957,17.746040684743775
2392.492,26.078362889732034
2393.8876,8.007658458914761
2395.2824,27.73395441315961
2396.6765,27.60727769325672
2398.07,18.377654962657743
2399.4627,21.6951126087406
2400.8547,11.109676835107962
2402.246,16.671373628412198
2403.6366,6.330228864209175
2405.0265,19.786268251341312
2406.4156,14.089454259663967
2407.8041,17.83974916116972
2409.1918,17.68711508695708
2410.5789,19.93151398972782
2411.9652,8.722907645310443
2413.3508,20.011257630219916
2414.7358,18.446525433741044
2416.12,20.028672345045834
2417.5035,9.907659468842667
2418.8863,15.883447709553366
2420.2684,14.0559978725247
2421.6497,18.275270604267803
2423.0304,7.891226410736408
2424.4104,17.95382561513111
2425.7896,13.713028461741033
2427.1682,13.918795015317755
2428.546,21.871085203482153
2429.9232,13.969858814667532
2431.2996,18.015075418596666
2432.6753,18.25669444529433
2434.0503,15.544675144634766
2435.4246,20.82897658392585
2436.7982,12.359557675029237
2438.1711,16.386377121517057
2439.5433,16.509393503365914
2440.9148,13.42856523668911
2442.2856,14.59385057250654
2443.6557,18.105207627552204
2445.025,14.362594372622425
2446.3937,17.565968597461165
2447.7617,10.815287948186892
2449.1289,19.16050989525945
2450.4955,9.701591800985284
2451.8613,16.03849083606667
2453.2265,10.071164074190278
2454.5909,15.649568428658085
2455.9546,15.92366071206186
2457.3177,11.943397580496935
2458.68,16.558735530822446
2460.0416,18.91963094046423
2461.4025,27.026040021260542
2462.7627,15.627918795853816
2464.1222,26.975223016626728
2465.4811,10.067908279682797
2466.8392,17.955929911374028
2468.1966,21.889243137374024
2469.5533,24.717803003796575
2470.9093,30.891564337864793
2472.2645,36.810481719623
2473.6191,42.17450942020059
2474.973,23.283601342622546
2476.3262,31.98771096816904
2477.6787,35.43679154528422
2479.0305,32.28079600253625
2480.3816,30.86967691412508
2481.7319,26.30338653144372
2483.0816,27.03187679718826
2484.4306,38.855099391021554
2485.7789,31.073005722287803
2487.1264,37.635546811780955
2488.4733,27.892673369565614
2489.8195,29.544335729351246
2491.165,31.94048394592187
2492.5097,44.581067778618376
2493.8538,23.86603666737676
2495.1972,28.245339606323
2496.5398,29.51892535092327
2497.8818,27.63674237419093
2499.2231,28.848738853950067
2500.5637,27.404862691657968
2501.9035,28.65506150028523
2503.2427,25.69928261875407
2504.5812,32.93747309943683
2505.919,30.269579737713343
2507.256,27.545548999589073
2508.5924,28.66532704837391
2509.9281,34.42885977192293
2511.2631,23.286092771438007
2512.5974,23.586971303833707
2513.9309,34.681440393163825
2515.2638,35.51944482761235
2516.596,39.150929048549415
2517.9275,34.62583714215009
2519.2583,33.44411280308066
2520.5884,30.405699379749763
2521.9178,33.3605398861248
2523.2465,33.35857703211764
2524.5745,35.499753194034724
2525.9018,31.28401041459699
2527.2284,29.211290381528443
2528.5543,32.781534469713165
2529.8796,31.444683761922875
2531.2041,36.00067901311388
2532.5279,35.59946066379621
2533.851,46.89096879447379
2535.1735,40.675143129655794
2536.4952,40.20192292494244
2537.8163,46.471247029182564
2539.1366,50.23305388920653
2540.4562,48.037281487132645
2541.7752,44.983867302748536
2543.0935,47.12274833546928
2544.411,49.65386113487159
2545.7279,53.027141779305
2547.0441,55.89252585058057
2548.3596,56.24994840023828
2549.6744,55.8993439208931
2550.9885,54.790646342661034
2552.3019,54.17378903666474
2553.6146,60.59870482612109
2554.9266,56.86532599250938
2556.2379,54.62358421132217
2557.5485,54.07341058939892
2558.8585,50.96473568734359
2560.1677,53.697489525026754
2561.4762,57.22160161267095
2562.7841,59.037000923524715
2564.0913,62.44361585862055
2565.3977,61.44137422862127
2566.7035,59.63020321975387
2568.0086,70.16002940383169
2569.313,68.33077875636718
2570.6167,69.44237655127256
2571.9197,70.19474737915266
2573.222,68.53781513618901
2574.5236,72.57150301661602
2575.8246,73.2957335292906
2577.1248,70.81042845735453
2578.4244,73.56550885099273
2579.7232,82.76089505228583
2581.0214,83.94650666765972
2582.3189,80.9222624759318
2583.6157,81.88808041645484
2584.9118,78.29387761935914
2586.2072,84.8395703958945
2587.5019,86.82507427437201
2588.7959,83.10030393470686
2590.0893,90.96517318856354
2591.3819,93.06959501660401
2592.6739,85.66348148983832
2593.9652,84.34674374858162
2595.2557,97.96929207651408
2596.5456,94.28103591384922
2597.8348,91.38188372110733
2599.1234,96.0217430159995
2600.4112,102.80052040241742
2601.6983,99.6181215240365
2602.9848,98.87445099652678
2604.2705,101.6694124393781
2605.5556,107.05290848333561
2606.84,101.27484074245103
2608.1237,101.2351097602475
2609.4067,99.58361506749918
2610.689,103.42025518262972
2611.9707,106.5449276282269
2613.2516,94.10752889267565
2614.5319,94.85795439891228
2615.8115,90.34609862879779
2617.0903,100.87185511561427
2618.3685,97.18511648918297
2619.6461,93.83577437060671
2620.9229,90.87371940913783
2622.199,95.79884131567087
2623.4745,100.86102889236349
2624.7493,95.61016998338528
2626.0234,91.59615142429595
2627.2968,94.61885909455373
2628.5695,89.12817795765557
2629.8415,97.27399203091056
2631.1128,94.60618444034617
2632.3835,92.32463733925044
2633.6535,96.6792319348499
2634.9228,91.2698485111249
2636.1914,96.39636638526372
2637.4593,90.5086639617565
2638.7265,93.15661868113057
2639.9931,92.89010707882619
2641.259,97.25900475871799
2642.5242,89.46318639577999
2643.7887,92.35252569239617
2645.0525,91.92689545631913
2646.3156,87.93616757177597
2647.5781,88.33021300372559
2648.8398,95.30890183776512
2650.1009,89.82210327618998
2651.3613,94.06968556820675
2652.6211,90.50151606480108
2653.8801,84.71746117626253
2655.1385,87.31738640786534
2656.3961,94.05115641770988
2657.6531,89.91863499072224
2658.9094,97.51968497131793
2660.1651,97.25416830472614
2661.42,102.07194596097952
2662.6743,100.7228779375692
2663.9279,105.20682321126719
2665.1808,106.57363975161763
2666.433,108.57318447609634
2667.6846,109.65531323644342
2668.9354,112.01988079866697
2670.1856,112.36674083222226
2671.4351,106.59574588636622
2672.6839,123.30674738668841
2673.9321,126.84959569282125
2675.1795,130.62413993133015
2676.4263,124.0802279602849
2677.6724,127.46770633151402
2678.9179,127.83642035604436
2680.1626,134.3362140702257
2681.4067,133.4669302320434
2682.6501,129.42841025612165
2683.8928,126.17049422241524
2685.1348,127.49302091659524
2686.3761,117.59582786262797
2687.6168,117.3787513095495
2688.8568,107.19162633043754
2690.0961,107.38428682458277
2691.3348,100.80656561936019
2692.5727,107.1582944683019
2693.81,113.1893041168745
2695.0466,104.59942423896234
2696.2826,118.28848337655648
2697.5178,102.25630902565399
2698.7524,101.95272749936765
2699.9863,123.37756408824686
2701.2195,109.83064306331454
2702.452,100.6117874618177
2703.6839,118.92081922269722
2704.9151,127.00755927877628
2706.1456,138.9718273736704
2707.3755,128.2634419809192
2708.6046,142.48222018434478
2709.8331,141.42797778513489
2711.0609,148.10052915965537
2712.2881,163.59968726999273
2713.5145,172.27526359722827
2714.7403,174.1770679864468
2715.9654,186.50490855998038
2717.1899,197.80859169839084
2718.4136,199.08792191719124
2719.6367,214.74270175380866
2720.8591,226.57273175479116
2722.0809,232.27781031925997
2723.3019,242.00773358060923
2724.5223,249.31229534945538
2725.7421,265.9412870163374
2726.9611,255.7944974786716
2728.1795,260.2717129744615
2729.3972,251.17271718376566
2730.6142,236.84729118392602
2731.8306,216.39521354055768
2733.0462,217.01626045080275
2734.2612,196.86020594785214
2735.4756,182.52682189473433
2736.6892,171.76587818587564
2737.9022,152.82714289043452
2739.1145,138.76038235991052
2740.3262,123.71536141753222
2741.5372,119.39184349892395
2742.7475,113.18959080255678
2743.9571,98.25836433298389
2745.1661,97.34792396286275
2746.3744,82.45802858226739
2747.582,74.93843610779254
2748.7889,67.93890363145329
2749.9952,55.10918749588086
2751.2008,55.549043364317015
2752.4057,52.908226348912194
2753.61,43.18649100632592
2754.8136,39.983591364136146
2756.0165,43.299281018055694
2757.2188,37.18331316396234
2758.4204,38.18544056474127
2759.6213,33.00541561144473
2760.8215,34.792990313270764
2762.0211,38.14791634936353
2763.22,20.219945050937213
2764.4182,35.65882736772744
2765.6158,33.814314047270614
2766.8127,21.28615548051522
2768.009,16.024101720267197
2769.2045,9.927902606470639
2770.3994,11.147307818829177
2771.5936,2.4820669377680247
2772.7872,2.131929432239417
2773.9801,-3.0033552536247043
2775.1723,-11.22403769701134
2776.3639,-11.530338471589175
2777.5548,-9.822366022890094
2778.745,-8.55011360836528
2779.9346,-9.613476360029608
2781.1235,-10.912263994263412
2782.3117,-16.646190188818252
2783.4992,-13.414859607929088
2784.6861,-11.367710620390653
2785.8723,-7.504047580550491
2787.0579,-10.57306127932759
2788.2428,-6.123867542205915
2789.427,-5.255476569787334
2790.6106,-4.966837385237284
2791.7935,0.34315349048938515
2792.9757,8.075649155143196
2794.1573,2.0818027030441044
2795.3382,11.662767147754721
2796.5184,23.919695482020188
2797.698,28.30374058195855
2798.8769,31.616055084491336
2800.0551,45.90779134350316
2801.2327,48.63010139671803
2802.4096,60.73413682278249
2803.5859,70.62104871404279
2804.7615,92.89198755550353
2805.9364,103.34810312595982
2807.1106,124.69054427528658
2808.2842,143.07045881987835
2809.4572,165.63899332922426
2810.6294,184.7472929421092
2811.801,217.6965011409285
2812.972,249.7877595606044
2814.1423,272.42220765909417
2815.3119,304.85098239647823
2816.4808,356.07521800861525
2817.6491,401.3960456828544
2818.8167,450.36459304579273
2819.9837,497.2819837100674
2821.15,548.7993367846689
2822.3157,603.0177664057695
2823.4807,659.3383812215474
2824.645,710.312283850004
2825.8086,759.5405703157567
2826.9716,824.3243295403007
2828.134,873.7146428497257
2829.2957,911.2125833268783
2830.4567,946.8692153174588
2831.617,961.2855940550427
2832.7767,990.262765304513
2833.9358,966.2517652178973
2835.0941,954.153620044597
2836.2519,954.8193463714954
2837.4089,927.4999512439402
2838.5653,904.7964321590858
2839.7211,899.7597773390871
2840.8761,886.340965958135
2842.0306,896.8409681928227
2843.1843,907.5607453563348
2844.3374,922.3012497934454
2845.4899,972.4134247733231
2846.6417,1010.2982043421227
2847.7928,1067.206512821866
2848.9433,1128.3392644315927
2850.0931,1187.0973627182775
2851.2422,1225.1816999455039
2852.3907,1278.0931565058809
2853.5385,1339.8326005402016
2854.6857,1362.2508874083273
2855.8323,1415.648859071794
2856.9781,1467.9273438696284
2858.1233,1511.3871559843692
2859.2679,1559.2290949192818
2860.4118,1601.20394506376
2861.555,1638.0624752149065
2862.6976,1680.555438157785
2863.8395,1730.0835702968348
2864.9808,1730.9475912309415
2866.1214,1771.6482032581553
2867.2614,1780.5360913670495
2868.4007,1793.2619228297165
2869.5393,1812.2263471128888
2870.6773,1823.4799957506789
2871.8146,1830.8234821549368
2872.9513,1829.2074015027115
2874.0874,1812.0323306628193
2875.2227,1811.298828212001
2876.3574,1792.9574346066754
2877.4915,1771.908672190274
2878.6249,1734.0530453766526
2879.7577,1703.541040860582
2880.8898,1690.8231279963022
2882.0212,1679.6997591026436
2883.152,1665.971369590206
2884.2821,1655.6883780725907
2885.4116,1645.8511865036878
2886.5405,1662.1101802805026
2887.6686,1656.7157283415286
2888.7962,1663.3681830041587
2889.923,1665.0178800186272
2891.0493,1685.4151385014882
2892.1748,1698.9102609191173
2893.2997,1702.5035328837384
2894.424,1724.5952230184746
2895.5476,1715.8855829214124
2896.6706,1743.8748469446878
2897.7929,1766.5132322815793
2898.9145,1790.5009386866195
2900.0355,1815.8881482492075
2901.1559,1845.525025153734
2902.2756,1871.511715425708
2903.3946,1884.398346635389
2904.513,1920.6850276379196
2905.6308,1942.7718484444576
2906.7479,1965.2088798593145
2907.8643,2001.4961732590791
2908.9801,2008.8337603682553
2910.0953,2015.7216528963836
2911.2098,2020.2098424646679
2912.3236,2009.9483005370953
2913.4368,1991.9369783755546
2914.5494,1978.0758071424511
2915.6613,1961.5646980808224
2916.7725,1931.5535426529464
2917.8831,1905.3422127054564
2918.9931,1858.1805607694482
2920.1024,1839.268420322598
2921.211,1829.9056062607751
2922.319,1814.691915087166
2923.4264,1785.1771250059003
2924.5331,1790.1109960741887
2925.6391,1787.243270497473
2926.7445,1791.6236725800832
2927.8493,1787.0019087539176
2928.9534,1807.127667534639
2930.0569,1815.6006195678906
2931.1597,1811.3204174280384
2932.2619,1822.7366955334444
2933.3634,1831.9990701892652
2934.4643,1834.157139473292
2935.5645,1813.4604831433237
2936.6641,1818.7086626155901
2937.763,1791.2012211717154
2938.8613,1758.487683906238
2939.959,1724.8175580016843
2941.056,1662.3903330557036
2942.1523,1598.205481417771
2943.248,1539.162458813457
2944.3431,1445.4107049862791
2945.4375,1370.1496442881296
2946.5313,1281.478686616794
2947.6244,1187.7972281685613
2948.7169,1104.5546523249345
2949.8087,1029.0003305894438
2950.8999,912.6836234200741
2951.9904,861.6538809848068
2953.0803,801.3104443247873
2954.1696,749.1526458646225
2955.2582,697.3298100158153
2956.3462,651.3412536983417
2957.4335,623.5362868588805
2958.5202,599.5142129306981
2959.6062,569.3743291116988
2960.6916,551.3659266046444
2961.7764,540.2382909185534
2962.8605,527.9407020487857
2963.9439,513.7724345883187
2965.0267,505.33275785072215
2966.1089,505.77093601184276
2967.1905,501.286228194199
2968.2714,495.2278884626013
2969.3516,500.345165868997
2970.4312,507.73730451305505
2971.5102,503.7535434909929
2972.5885,516.893116821655
2973.6662,530.8052534863505
2974.7432,534.6391772974576
2975.8196,529.5941067593026
2976.8954,531.9692550298196
2977.9705,525.4138299710023
2979.045,511.6270341251519
2980.1188,514.458064780432
2981.192,486.656114108736
2982.2645,475.2703691373765
2983.3364,462.8500120271058
2984.4077,447.5942201859721
2985.4783,417.5021663935246
2986.5483,395.92301895337005
2987.6177,368.5059419940942
2988.6864,348.2000956850527
2989.7545,312.654636510542
2990.8219,283.6187174728579
2991.8887,260.54148844775017
2992.9548,234.32209647478174
2994.0204,210.60968598810018
2995.0852,186.65339907863256
2996.1495,164.0523757312095
2997.2131,145.95575406412706
2998.276,125.11267055515833
2999.3383,105.2722602225187
3000.4,91.18365683329728
3001.4611,72.5959931018611
3002.5215,67.2584008307407
3003.5812,56.02001109650689
3004.6404,41.879954303146576
3005.6989,31.43736029444699
3006.7567,18.84135849539598
3007.8139,13.441078016607776
3008.8705,9.185647780283318
3009.9264,5.924196574212829
3010.9818,5.505853094330121
3012.0364,4.029745977326911
3013.0905,0.9950038048368697
3014.1439,-13.599244881803656
3015.1966,-1.6538715512081694
3016.2487,-9.119611815533972
3017.3002,-10.497184764761755
3018.3511,-8.587218383950471
3019.4013,-8.640235791283487
3020.4509,-8.25667431863235
3021.4998,-12.236884981913079
3022.5481,-7.981136312865544
3023.5958,-1.6895745967486846
3024.6428,-8.712266387269779
3025.6892,-0.5992613592861176
3026.735,3.499477847886226
3027.7802,1.6339945815517467
3028.8247,8.35433215402054
3029.8685,8.36053386126315
3030.9118,12.352642915706951
3031.9544,19.280702446174075
3032.9963,17.3947554579604
3034.0376,25.994844763554624
3035.0783,34.78101300149831
3036.1184,31.653302550384637
3037.1578,43.961755440997365
3038.1966,49.45641338758776
3039.2348,47.53731766479001
3040.2723,43.354509052674075
3041.3092,51.708027855936905
3042.3455,55.94791394573042
3043.3811,58.6742066761264
3044.4161,64.33694484171792
3045.4505,61.03616665035594
3046.4842,63.97190966652221
3047.5173,60.49421084433703
3048.5498,61.30310649820166
3049.5816,64.04863233757555
3050.6128,64.33082345888715
3051.6434,68.69971431807852
3052.6734,61.85533872778393
3053.7027,66.89772981364047
3054.7314,63.926920082731954
3055.7594,68.3429413731651
3056.7868,63.29582488377753
3057.8136,66.78560112997735
3058.8398,71.51229999421486
3059.8653,72.2759506910844
3060.8902,68.62658172005746
3061.9145,74.41422085784609
3062.9381,75.08889519489668
3063.9612,71.10063107751313
3064.9835,67.94945410111069
3066.0053,74.38538915009838
3067.0264,67.60846042939104
3068.0469,72.16869140004945
3069.0668,68.36610484705014
3070.086,70.5007228336824
3071.1046,64.17256673957493
3072.1226,57.28165723934907
3073.1399,60.57801436590043
3074.1567,48.911657579308496
3075.1727,47.08260573387261
3076.1882,48.09087719477591
3077.203,43.286489856375624
3078.2173,42.419461132120205
3079.2308,37.38980800259333
3080.2438,27.39754702418412
3081.2561,29.842694379383943
3082.2678,27.375265976708732
3083.2789,32.545277426247594
3084.2893,22.402744064337156
3085.2991,19.147680901861293
3086.3083,16.38010272567638
3087.3169,18.400024131162183
3088.3248,11.857459549897499
3089.3321,10.652423229460794
3090.3388,12.084929298856139
3091.3449,7.404991780563279
3092.3503,6.662624576212977
3093.3551,10.007841513386069
3094.3593,6.640656353037258
3095.3629,6.961082756042941
3096.3658,6.01913431687322
3097.3681,5.614824560387348
3098.3698,4.598166951253319
3099.3708,3.1191748979910017
3100.3713,2.677861763138509
3101.3711,2.3742408780424
3102.3702,0.8083255472706696
3103.3688,5.080129051648953
3104.3667,0.23966466391951258
3105.364,-1.6130543939763697
3106.3607,-1.2780172943475634
3107.3568,-2.80519709508971
3108.3522,1.5554459132943066
3109.347,0.35397946422062887
3110.3412,3.540471275550857
3111.3348,3.514985528891799
3112.3277,-2.0724136295544042
3113.32,3.028337911264572
3114.3117,-1.6826750341868717
3115.3028,-0.1553676817276255
3116.2932,4.660361562746971
3117.2831,3.514615845464647
3118.2723,7.257498266049595
3119.2608,5.1891118889800225
3120.2488,4.009559706158939
3121.2361,6.368944657598405
3122.2229,3.4673696432149086
3123.209,4.854937499235575
3124.1944,7.231751027213875
3125.1793,3.54791298015391
3126.1635,9.903526038742385
3127.1471,8.598692848186943
3128.1301,7.133515954660012
3129.1125,8.558097818347221
3130.0942,6.7225408280989996
3131.0753,5.626947287184862
3132.0558,6.271419431648994
3133.0357,14.606059441266225
3134.015,13.530969433097198
3134.9936,9.74625137814192
3135.9716,9.302007112090834
3136.949,15.598338373171941
3137.9258,14.53534680659321
3138.902,18.36313390157933
3139.8775,12.03180100200153
3140.8524,18.84144926809975
3141.8267,18.592179739795952
3142.8004,21.884093268597667
3143.7735,18.667290520090646
3144.7459,17.74187194101981
3145.7178,18.307937791457206
3146.689,21.21558815405625
3147.6596,18.36492292839111
3148.6295,24.45604180188029
3149.5989,21.63904427829266
3150.5676,20.864029616836874
3151.5357,24.18109686033131
3152.5032,23.940344842954048
3153.4701,24.791872157072262
3154.4364,28.785777155649726
3155.402,28.122157943731523
3156.367,34.401112338505
3157.3315,31.472737875935906
3158.2952,30.88713174797887
3159.2584,28.844390831861247
3160.221,31.34461169593908
3161.1829,31.387890620124537
3162.1442,31.82432357088372
3163.105,33.80400620080387
3164.065,33.32703384422904
3165.0245,34.293501497463296
3165.9834,35.753503823540385
3166.9416,39.30713514255902
3167.8993,34.45448941708299
3168.8563,37.79566021660476
3169.8127,40.880740766071945
3170.7684,41.95982391247561
3171.7236,42.783002093999386
3172.6782,40.10036732922869
3173.6321,44.06201120891899
3174.5854,44.468024922822124
3175.5381,44.468499220069795
3176.4902,43.663524405113456
3177.4417,46.20319033771966
3178.3926,44.23758644101971
3179.3428,48.66680167611309
3180.2924,49.64092456172341
3181.2415,49.91004312990624
3182.1899,48.124244916308015
3183.1377,50.783616957474685
3184.0848,49.43824580870983
3185.0314,53.788217517480874
3185.9773,51.18361763687278
3186.9227,54.4745311820884
3187.8674,57.461042656494364
3188.8115,53.093236018712055
3189.755,59.921194652752455
3190.6979,59.99500141169417
3191.6402,60.71473854940389
3192.5818,57.98048771979828
3193.5229,60.79232996964667
3194.4633,61.300345765913484
3195.4031,60.704614967639856
3196.3423,59.50521682086346
3197.2809,61.15222996457587
3198.2189,62.19573244271649
3199.1563,64.33580168770243
3200.0931,66.22251450999352
3201.0292,65.10594707669148
3201.9648,67.986174892673
3202.8997,67.06327281175524
3203.834,70.78731500789364
3204.7677,71.45837498441088
3205.7008,68.67652553675654
3206.6333,71.89183874579643
3207.5652,69.60438600563111
3208.4964,71.31423799144274
3209.4271,73.22146468236964
3210.3571,74.17613534440775
3211.2865,73.92831851133835
3212.2154,77.52808197518134
3213.1436,76.82549278867347
3214.0712,77.4206172292707
3214.9982,78.11352080617397
3215.9246,80.4042682543781
3216.8503,79.4929235277427
3217.7755,80.32954977608472
3218.7001,86.66420935429176
3219.624,82.29696381395604
3220.5473,84.5778738400276
3221.4701,85.05699929448687
3222.3922,86.58439919353553
3223.3137,86.31013170280528
3224.2346,84.08425412208378
3225.1549,84.50682288805741
3226.0746,89.52789359657
3226.9937,90.0475209983971
3227.9121,90.71575894903536
3228.83,89.08266040350617
3229.7473,92.79827740967328
3230.6639,95.66266112457386
3231.5799,96.57586177726229
3232.4954,94.93792864016629
3233.4102,96.59891001995493
3234.3244,92.40885327391801
3235.238,93.11780479335621
3236.151,96.52581004548165
3237.0634,98.68291356632841
3237.9752,98.63915892667242
3238.8864,101.79458871046052
3239.797,98.14924451524783
3240.7069,99.6531669206436
3241.6163,101.35639552476461
3242.5251,106.50896892919593
3243.4332,105.71092472195868
3244.3408,104.81229942598424
3245.2477,105.56312850709477
3246.154,110.21344638298936
3247.0598,107.26328641573585
3247.9649,109.01268086526764
3248.8694,109.26166091888518
3249.7733,106.36025667376214
3250.6766,107.40849713445559
3251.5793,109.35641024191995
3252.4814,113.75402286302464
3253.3829,111.00136077107501
3254.2838,112.84844860183608
3255.1841,110.14530988105926
3256.0838,116.39196700601141
3256.9829,112.73844127250632
3257.8814,116.43475281243796
3258.7792,116.08092063031593
3259.6765,116.72696256630226
3260.5731,115.77289529974976
3261.4692,115.71873434274158
3262.3647,119.51449404963188
3263.2595,119.46018761758742
3264.1538,119.25582704863008
3265.0474,120.45142315017969
3265.9404,118.99698553709788
3266.8329,120.44252261973199
3267.7247,121.68804161845952
3268.616,117.9835485492327
3269.5066,118.82904821112334
3270.3966,121.22454422336781
3271.286,121.8700390169119
