RamanShift,CorrectedData
30.1047,1132.9686948314816
32.3739,1048.9291452405218
34.6426,970.9895843198751
36.9109,886.8499902505631
39.1787,805.6103315037112
41.4461,725.7205676819448
43.7131,644.4806503317856
45.9796,561.8905237425497
48.2456,483.30012575874593
50.5112,398.30938860597723
52.7764,323.3682396768454
55.0411,242.52660238085824
57.3054,166.23439689384085
59.5692,82.54154096635231
61.8326,7.44795068660774
64.0955,-68.69645868259326
66.3579,-142.14177195293053
68.6199,-208.33738765846164
70.8815,-273.13128433694266
73.1426,-283.21935923562717
75.4032,-174.44478102023817
77.6634,212.40211100489978
79.9231,1238.1827202388242
82.1824,3577.958447956552
84.4412,7822.54068305127
86.6995,13745.740778636587
88.9574,19503.020009600703
91.2148,23440.139513374408
93.4717,25158.310232358297
95.7282,25401.342874551567
97.9842,25139.247896370314
100.2398,24430.185500217205
102.4949,23644.415637102433
104.7495,22740.148013734335
107.0036,21838.592100377093
109.2573,20979.2571398934
111.5105,20110.202156760046
113.7632,19287.18596566124
116.0154,18542.617180179164
118.2672,18042.104221024154
120.5185,17476.555323480374
122.7693,17009.52854241094
125.0197,16615.181757913422
127.2696,16216.772679990101
129.519,15980.108852491445
131.7679,15685.497657100195
134.0163,15391.646315698006
136.2642,15055.611893311558
138.5117,14712.301301051071
140.7587,14342.521299470645
143.0052,14044.328502001372
145.2512,13654.57937864913
147.4967,13330.030258976516
149.7417,13061.987336000324
151.9863,12827.306669437055
154.2304,12713.294188383341
156.4739,12448.855693662746
158.717,12316.14685896589
160.9596,12036.823233494846
163.2017,11722.690243290213
165.4433,11351.30319402436
167.6844,10898.26727414276
169.925,10517.187558577849
172.1651,10056.369013279396
174.4047,9696.466499025293
176.6439,9363.584776029744
178.8825,9050.778507542285
181.1206,8795.45226317662
183.3582,8564.760522038658
185.5954,8367.407675279788
187.832,8223.4980284038
190.0681,8113.485803240399
192.3037,8016.175139384322
194.5388,7926.970095295448
196.7734,7905.074649271908
199.0075,7868.892700342129
201.2411,7915.4780684837915
203.4742,7916.78449498566
205.7068,7980.465641981715
207.9389,8031.175092438096
210.1704,8137.116349516293
212.4015,8152.742836066039
214.632,8256.35789356591
216.862,8381.964781967057
219.0915,8433.716678657054
221.3205,8577.266677203828
223.549,8698.717786838139
225.777,8872.172931018089
228.0044,9093.534946214602
230.2314,9420.106580176871
232.4578,9714.490489718743
234.6837,9947.239237453
236.909,10068.105288847526
239.1339,9938.741009897818
241.3582,9730.698665918317
243.582,9361.230422836063
245.8053,9005.338349271107
248.0281,8722.624420231203
250.2503,8448.64052067072
252.472,8297.288448317795
254.6932,8202.719916414151
256.9139,8146.536555228642
259.134,8145.139913002926
261.3536,8123.581456513294
263.5727,8147.512571084642
265.7912,8149.584560806055
268.0092,8199.898648291488
270.2267,8137.655974659055
272.4436,8103.407599027892
274.6601,8013.404499140573
276.8759,7855.147571705599
279.0913,7704.087633297433
281.3061,7599.125421939061
283.5204,7556.011598612605
285.7341,7535.946748308931
287.9473,7603.481380458789
290.16,7731.815929133475
292.3721,7955.000752369469
294.5837,8261.886130885097
296.7947,8538.122265848684
299.0052,8692.459275809691
301.2152,8552.547193936367
303.4246,8184.535966472357
305.6334,7614.625454135845
307.8418,7073.115435799669
310.0495,6597.655614190413
312.2568,6205.6456213035035
314.4635,5912.3850231578235
316.6696,5682.0733237158
318.8752,5544.459967816019
321.0802,5533.294343476331
323.2847,5574.475783269998
325.4887,5571.103564437333
327.692,5476.8769084739
329.8949,5308.844981164222
332.0972,5033.25689352406
334.2989,4715.961703480736
336.5001,4415.458418629001
338.7007,4171.245999403989
340.9008,4001.8233620862593
343.1003,3808.039381243909
345.2992,3709.1428914268126
347.4976,3658.082689104447
349.6955,3547.8575336548674
351.8927,3557.1661478753085
354.0895,3511.907219084429
356.2856,3468.579399029237
358.4812,3430.881304337665
360.6763,3399.3115169518587
362.8707,3342.568584505163
365.0646,3347.2010206378072
367.258,3358.9573055643486
369.4508,3352.535886027332
371.643,3407.2851751797352
373.8346,3393.2535526491756
376.0257,3326.2393639904258
378.2162,3238.290920825719
380.4062,3176.5065015148975
382.5956,2973.3343520349063
384.7844,2822.7226865976318
386.9726,2724.619689681622
389.1603,2620.073517538205
391.3474,2495.7322991725196
393.5339,2482.194137388964
395.7199,2410.9071100346227
397.9052,2406.119270134637
400.09,2399.878646605084
402.2743,2463.3832443008487
404.4579,2531.181044078039
406.641,2715.6700021589277
408.8235,2861.8480494539726
411.0054,3122.0630897169467
413.1868,3475.7129980831432
415.3675,3711.045618467222
417.5477,3822.508760026727
419.7273,3838.300194808744
421.9064,3710.3676566352733
424.0848,3576.108840945324
426.2627,3378.0214060742255
428.4399,3062.802974596223
430.6166,2670.2511353053615
432.7928,2301.9634463676575
434.9683,1960.5874392466285
437.1432,1739.1706223861602
439.3176,1558.5104846242593
441.4914,1412.1544974072385
443.6645,1363.700116596303
445.8371,1278.5947839311193
448.0091,1221.435927514347
450.1806,1159.770962662713
452.3514,1126.3972924785794
454.5216,1109.3123084666113
456.6913,1061.4633908674914
458.8603,1043.6479088287833
461.0288,1086.1132208834279
463.1967,1079.8566751278813
465.3639,1175.17560879747
467.5306,1216.76734832896
469.6967,1290.0792084073673
471.8622,1410.6084915500414
474.0271,1516.7524873735438
476.1914,1571.3084713883582
478.3551,1552.4237039374475
480.5182,1551.745429650693
482.6807,1524.9208776337528
484.8426,1686.1972614748265
487.0039,1962.2717795129174
489.1647,2339.6416132250615
491.3248,2737.4539244655753
493.4843,2892.7558516923764
495.6432,2867.9945059888432
497.8015,2730.0169695107998
499.9592,2670.670295734135
502.1163,2602.5515108345626
504.2728,2310.3576142811107
506.4287,2041.0855795172865
508.5839,1624.1823568830296
510.7386,1287.9948763074299
512.8927,1136.9200514777567
515.0461,1015.5047832013333
517.199,1023.1959609162841
519.3512,1048.9904639056876
521.5029,1163.7351612206694
523.6539,1262.9769114224491
525.8043,1303.9625614348988
527.9541,1277.4889455521334
530.1033,1206.3528850286293
532.2519,1210.201188343999
534.3999,1306.0806519143262
536.5472,1522.4880600536835
538.694,1880.4701840153502
540.8401,2376.323779827724
542.9856,2800.3455847145033
545.1305,2920.2823121361653
547.2748,2790.0306475497327
549.4185,2487.2872472094077
551.5615,2166.748739469087
553.704,2054.011727809808
555.8458,2035.8727940451172
557.987,2126.728499448449
560.1276,2157.4253849345114
562.2675,2287.3099701507454
564.4069,2446.0787531703263
566.5456,2576.178209193353
568.6837,2570.804788959129
570.8212,2253.004917445185
572.958,1818.5249939210153
575.0942,1437.4113951260606
577.2299,1185.8104796145326
579.3648,1117.2685915665206
581.4992,1160.3820633040104
583.6329,1336.9472159763172
585.766,1553.4603591289342
587.8985,1695.1677889378843
590.0304,1680.3657860445855
592.1616,1614.100614138788
594.2922,1501.7685201065815
596.4222,1350.1157346930522
598.5515,1175.98847362561
600.6802,1004.4829391305047
602.8083,850.0453216741153
604.9358,786.9218016779869
607.0626,756.1585510632212
609.1888,747.6517338817102
611.3144,775.6975066237628
613.4393,728.2420183031754
615.5636,691.1314101767821
617.6873,648.0118162190101
619.8103,563.1793634929691
621.9327,473.33017258166
624.0544,395.11035843628997
626.1756,307.56603127477683
628.2961,243.74329736393338
630.4159,165.48825989492616
632.5351,138.5470196214883
634.6537,97.81567564247052
636.7716,90.94032567126487
638.8889,95.41706644309488
641.0056,130.84199378379162
643.1216,129.46120256501854
645.237,146.07078635002654
647.3518,113.96683740745539
649.4659,107.24544654524652
651.5793,122.30270343168922
653.6922,93.48469666262281
655.8043,99.23751361086215
657.9159,83.85724071437653
660.0268,30.089963418769912
662.137,-9.368233668923494
664.2466,-20.871266242558704
666.3556,-44.82295640733901
668.4639,-56.07691776452157
670.5716,-14.836316134023946
672.6786,24.24624287262668
674.785,61.218301858700215
676.8907,102.42740318500546
678.9958,190.32108860017433
681.1002,183.34689882856583
683.204,138.55237269132886
685.3072,118.58504717615142
687.4097,73.69245788519584
689.5115,35.67213923478448
691.6127,20.72162490431765
693.7132,-26.061551783515824
695.8131,-62.579857713242745
697.9123,-50.58549941448837
700.0109,-74.98005824410939
702.1089,-52.56461020982897
704.2061,-19.33948226859866
706.3028,25.69552374308114
708.3987,66.04079919013748
710.4941,143.39673518054587
712.5887,305.513722161877
714.6827,516.7421491477417
716.7761,807.7824020966164
718.8688,1152.1348617995627
720.9608,1322.0999009698116
723.0522,1408.9278807992669
725.1429,1273.9691492588136
727.233,1115.2240402300704
729.3224,963.5928748549704
731.4112,738.1259631232115
733.4993,598.0736053885721
735.5867,424.23609462358945
737.6735,315.7637178200639
739.7596,211.5567577274378
741.845,111.01549393752975
743.9298,92.89020392659768
746.014,87.93116406074842
748.0974,94.78864977719968
750.1802,88.76293563386025
752.2624,123.15429524076171
754.3439,190.513001320307
756.4247,261.5893253633658
758.5048,407.68353695568294
760.5843,649.7459030671143
762.6631,1002.026686590687
764.7413,1539.2261439219674
766.8188,2158.6445214362593
768.8956,2642.232050116616
770.9718,2968.438939359645
773.0473,2825.715372139639
775.1221,2543.911501746512
777.1962,2199.07745321302
779.2697,2050.5133261328137
781.3426,2081.919198108775
783.4147,2307.995126238664
785.4862,2586.541146801046
787.557,2550.507272994546
789.6271,2184.093492152386
791.6966,1624.0997661027159
793.7654,1056.876034832756
795.8335,734.0222220887317
797.901,483.2882410481161
799.9678,407.973997548168
802.0339,427.92939259325976
804.0993,457.05432310803917
806.1641,410.1986817378547
808.2282,387.0623565575206
810.2916,306.44523153986665
812.3544,217.04718678709833
814.4164,139.9680993369784
816.4778,164.45784405679296
818.5385,190.16629441416262
820.5986,285.74332223212696
822.658,441.98879743207544
824.7166,622.7025870779653
826.7747,951.9845538138834
828.832,1223.38455405688
830.8886,1470.452434704177
832.9446,1610.4380304191473
834.9999,1588.2411611606512
837.0545,1542.3616307831635
839.1085,1443.8992272587566
841.1618,1326.6037231358896
843.2143,1222.0748765240423
845.2662,1139.8624322666528
847.3175,1063.566122986429
849.368,960.0356699074528
851.4179,867.3707836181438
853.467,747.0211651065692
855.5155,647.236506687088
857.5633,540.9164932038566
859.6105,458.2108030286581
861.6569,432.1691091241282
863.7027,376.6910798707886
865.7478,352.0763793274782
867.7922,370.72466778613125
869.8359,381.2356020179268
871.8789,496.65883508679326
873.9212,618.444016244317
875.9629,766.6907897754918
878.0039,940.4987937808783
880.0441,1035.1176586941401
882.0837,1102.4970055439571
884.1226,1055.5364450078378
886.1609,1004.0855767383346
888.1984,977.7939898326404
890.2352,991.0112633470908
892.2714,995.5369665600847
894.3069,964.1206588399109
896.3416,889.6618895994961
898.3757,791.6601986105634
900.4091,787.765116748209
902.4418,812.3261669709445
904.4739,819.1428643596337
906.5052,850.814715871873
908.5358,793.8912202738447
910.5658,683.971867823584
912.595,480.8561408402202
914.6236,325.1935148031698
916.6515,228.68346038329037
918.6786,211.5754449995129
920.7051,272.26893378394016
922.7309,350.813389752926
924.756,436.40827320013886
926.7804,565.4530409111194
928.8041,520.7971453073296
930.8272,585.5400331557012
932.8495,536.2311460151959
934.8711,520.7199195893809
936.892,406.0557842195085
938.9123,293.83816503964226
940.9318,246.5664831232807
942.9506,180.74015660555597
944.9688,103.4586011559295
946.9862,48.321230636478504
949.003,-31.07254212530097
951.019,-45.02330478511794
953.0344,-26.681334583989155
955.0491,6.853541019887416
957.063,57.68176111483808
959.0763,162.35376472066855
961.0888,229.51999028036698
963.1007,326.98087461338946
965.1119,370.6868522439927
967.1223,392.9383544266311
969.1321,414.7858087088953
971.1412,442.4796387089991
973.1495,447.8202638973071
975.1572,486.1080993193955
977.1641,543.0435555426429
979.1704,509.32703827334626
981.1759,506.0089477873735
983.1808,606.9396792673233
985.1849,652.269622835709
987.1884,768.5991625456609
989.1911,941.5286759276114
991.1932,1071.1085328260124
993.1945,1100.1390936700336
995.1951,1082.2707081777662
997.1951,1067.1037150659104
999.1943,989.3884422284591
1001.1928,980.7752068883838
1003.1906,1010.6143163747784
1005.1877,1090.2560682089825
1007.1841,1109.050749806198
1009.1798,1078.048637679085
1011.1748,954.8499972497939
1013.1691,781.2550831599874
1015.1627,575.2641405028407
1017.1556,387.47740655897906
1019.1477,277.04511285639273
1021.1392,219.31748704829988
1023.1299,210.24475401748168
1025.12,253.9271364535416
1027.1093,324.4148549436377
1029.0979,430.45812753566315
1031.0859,528.5571690333636
1033.0731,527.0621899359139
1035.0596,458.1733954569154
1037.0454,341.09098553935837
1039.0304,248.2151555445089
1041.0148,119.29609742272078
1042.9985,65.53400064220114
1044.9814,1.0790534782099712
1046.9636,-11.01855644932948
1048.9452,-26.75864153126713
1050.926,32.30909591692944
1052.9061,45.135220898611806
1054.8855,35.670298094042664
1056.8642,93.36489173212794
1058.8421,149.21956568507449
1060.8194,182.58488289144407
1062.7959,258.76140479761125
1064.7717,307.09969102410105
1066.7469,345.7502986038362
1068.7213,356.76378149874654
1070.695,383.9406902132632
1072.6679,375.98157168418766
1074.6402,355.83696900892755
1076.6117,333.50742152507337
1078.5826,294.993465011863
1080.5527,273.69563191344787
1082.5221,352.8144517240671
1084.4908,484.9504512010062
1086.4587,628.1541535734141
1088.426,722.2760772209385
1090.3925,717.9167342416931
1092.3584,753.3266295110334
1094.3235,638.4562607251482
1096.2879,631.0061180469747
1098.2515,692.8266852548859
1100.2145,788.4184398171874
1102.1767,893.481852273937
1104.1382,1088.8173852810032
1106.099,1334.3254925594392
1108.0591,1568.1566169421294
1110.0185,1732.0611879187
1111.9771,1785.839619297225
1113.9351,1599.9923075651586
1115.8923,1389.7196313515742
1117.8488,1155.9219532856205
1119.8045,874.5496220992518
1121.7596,783.6029749652153
1123.7139,697.8823403107581
1125.6675,695.9380387271012
1127.6204,792.0203838266461
1129.5726,753.4796822624194
1131.524,734.7662327672369
1133.4748,695.4303265391227
1135.4248,626.4722474284499
1137.3741,601.7422723312866
1139.3226,553.2906718789964
1141.2705,522.1677106855168
1143.2176,435.32364783188495
1145.164,432.15873717746945
1147.1097,402.4732282284076
1149.0546,399.06736616925446
1150.9989,316.6413921598396
1152.9424,196.7955433693187
1154.8852,77.43005380044451
1156.8272,16.095155488013916
1158.7686,-33.65892030747273
1160.7092,-42.78194248645741
1162.6491,-36.07334369677301
1164.5883,74.56787080534377
1166.5267,188.89305613636498
1168.4644,317.4535666670781
1170.4014,509.9007548793561
1172.3377,788.8859700805315
1174.2732,1026.0105564789374
1176.2081,1351.6758503940528
1178.1421,1661.7331778852567
1180.0755,2002.1838514951705
1182.0082,2168.0291671490904
1183.9401,2270.8204007504664
1185.8713,2114.7088065224743
1187.8017,1935.7956159800815
1189.7315,1659.982039491173
1191.6605,1351.3692680656804
1193.5888,1126.3584761137136
1195.5163,1011.5008245316967
1197.4432,920.2974629524724
1199.3693,895.3995308938793
1201.2947,868.3581586707878
1203.2193,859.0744676440863
1205.1432,931.9995704910834
1207.0664,927.7345712983551
1208.9889,949.3805648324887
1210.9106,983.9886365827297
1212.8316,1032.2098625445233
1214.7519,1083.6453088734197
1216.6715,1153.0460314028842
1218.5903,1180.563075129934
1220.5084,1181.3974735211305
1222.4257,1240.400248237398
1224.3424,1206.972409125694
1226.2583,1281.2649536289773
1228.1735,1399.1288671204838
1230.0879,1517.6651221608045
1232.0016,1665.1746773192444
1233.9146,1727.1584759884645
1235.8269,1700.8174449093767
1237.7384,1595.0524935513204
1239.6492,1451.2145143754606
1241.5592,1363.1543838924463
1243.4686,1319.0229641007772
1245.3772,1345.5711033674215
1247.285,1400.8496368691194
1249.1922,1453.4593863268983
1251.0986,1490.9511594533005
1253.0042,1522.7257494262803
1254.9092,1603.8339345142886
1256.8134,1673.4264777585167
1258.7169,1846.5041261618262
1260.6196,2048.7676099928103
1262.5216,2261.4676410550237
1264.4229,2441.004910664351
1266.3234,2603.730087522006
1268.2232,2711.143815919153
1270.1223,2743.6467141096564
1272.0207,2769.339373235948
1273.9183,2782.7223570040014
1275.8151,2724.946201426392
1277.7113,2663.311414688482
1279.6067,2615.1684777261744
1281.5014,2617.917844842261
1283.3953,2711.4599441878563
1285.2885,2864.8451777348882
1287.181,3035.9739203407007
1289.0727,3234.5965182141917
1290.9637,3388.913287204522
1292.854,3567.5245108148983
1294.7435,3687.880438659391
1296.6323,3785.081284676835
1298.5204,3934.527225927265
1300.4077,4022.8684016199204
1302.2943,4113.854911618761
1304.1802,4101.886815559079
1306.0653,3896.6141319376165
1307.9497,3630.2868382322577
1309.8333,3413.5048729547407
1311.7162,3293.9181383139476
1313.5984,3239.9265023837106
1315.4798,3263.7798002986847
1317.3605,3275.7278347942565
1319.2405,3333.720375968018
1321.1197,3259.5571611602873
1322.9982,3079.63789437418
1324.876,2973.912247017256
1326.753,2852.429859700692
1328.6293,2770.040343296554
1330.5048,2770.2432801526047
1332.3796,2698.4882249162074
1334.2537,2645.2247045322947
1336.127,2617.8522189609266
1337.9996,2632.520241709908
1339.8714,2605.628220108535
1341.7426,2608.7255751608955
1343.6129,2634.061701814805
1345.4826,2642.5859689308218
1347.3515,2638.3977190288924
1349.2196,2630.2962682031075
1351.087,2666.4809061635815
1352.9537,2708.5508963174734
1354.8197,2868.605475407141
1356.6849,2989.3938530894357
1358.5493,3135.115210335155
1360.4131,3238.268698221159
1362.276,3284.003436473158
1364.1383,3216.618512434181
1365.9998,3013.2629806072264
1367.8606,2685.135863329114
1369.7206,2385.9861528040365
1371.5799,2157.31281438484
1373.4384,1973.1647895645037
1375.2962,1816.9409982628904
1377.1533,1567.2903406682126
1379.0096,1263.8616987992755
1380.8652,961.7539390019892
1382.7201,724.2659149836481
1384.5742,497.74647083401214
1386.4275,368.94444340018345
1388.2802,240.1586645518055
1390.132,131.13796246908078
1391.9832,85.18116293062667
1393.8336,40.787090403689945
1395.6832,42.904568503711744
1397.5322,-1.91757956174024
1399.3803,10.019468985862659
1401.2278,3.514556081666342
1403.0745,28.46652356062259
1404.9204,17.474213222551043
1406.7656,67.5864665825975
1408.6101,92.40212498117307
1410.4538,154.7200290828314
1412.2968,228.83901862810126
1414.139,315.75793181031713
1415.9805,377.6756045344264
1417.8213,504.1408695478003
1419.6613,621.4525558210598
1421.5006,822.8594872834183
1423.3391,1066.9604816495748
1425.1769,1387.2543484056332
1427.0139,1875.4898863680946
1428.8502,2466.065880480918
1430.6858,3070.43109693317
1432.5206,3464.534277253262
1434.3547,3735.324132265301
1436.188,3796.999338148051
1438.0206,3706.558533727037
1439.8524,3572.4003198577902
1441.6835,3467.5232603302657
1443.5139,3384.9258832104106
1445.3435,3351.6066818889503
1447.1724,3336.614115907345
1449.0005,3277.746611290995
1450.8279,3225.7025606991638
1452.6545,3198.530324013652
1454.4804,3243.728228859238
1456.3056,3266.6945708753965
1458.13,3190.1776132643263
1459.9536,3021.525586561287
1461.7766,2695.3366893997527
1463.5987,2337.559090197955
1465.4202,2012.5909304207526
1467.2409,1682.180328157424
1469.0608,1421.1253813713347
1470.88,1154.224171204056
1472.6984,959.4747645859034
1474.5161,792.7252169049561
1476.3331,649.8235739545489
1478.1493,563.417873600768
1479.9648,477.4061472114645
1481.7795,409.03642052030955
1483.5935,365.45671448691974
1485.4067,304.06504598055017
1487.2192,275.35942821589106
1489.031,242.48787136698138
1490.842,248.54838285427286
1492.6522,213.98896767333827
1494.4618,202.50762833427052
1496.2705,208.60236520727085
1498.0785,200.5711766374743
1499.8858,175.96205888398526
1501.6924,148.87300620020778
1503.4981,133.0520110799216
1505.3032,141.59706452818318
1507.1075,132.95615621952584
1508.911,124.37727441252264
1510.7138,97.55840603618526
1512.5159,57.897536775755725
1514.3172,39.09265134089492
1516.1178,29.891733862290494
1517.9176,14.84276807970673
1519.7166,-3.1062625660097183
1521.515,-16.45737478243973
1523.3126,-12.662554245605861
1525.1094,-20.0736222223577
1526.9055,-13.292273480631593
1528.7008,-29.42000225288666
1530.4954,-49.65816998176524
1532.2893,-23.057844204092362
1534.0824,-52.119596371579064
1535.8747,-30.093767588075025
1537.6663,-19.780178282662746
1539.4572,-13.478348247685062
1541.2473,0.5624003284874561
1543.0367,38.092879906182134
1544.8253,53.013902940104344
1546.6132,74.47628150402852
1548.4003,81.63082714159555
1550.1867,140.42835065168492
1551.9723,190.26966201686992
1553.7572,261.65556981544705
1555.5414,344.936880723013
1557.3247,445.56439879861136
1559.1074,552.5889246519209
1560.8893,683.211254436982
1562.6705,781.7821787819485
1564.4509,917.2524814828666
1566.2305,976.8229385179684
1568.0094,1054.4443166929586
1569.7876,1109.3173730453154
1571.565,1119.8928540680754
1573.3417,1147.1714951611084
1575.1176,1139.9040205253614
1576.8928,1136.2911428900652
1578.6672,1089.1835635854122
1580.4409,1034.0819725786905
1582.2138,979.6870489453513
1583.986,955.8994614200337
1585.7575,945.2698689405051
1587.5282,942.4989208855404
1589.2981,931.43725718122
1591.0673,978.4855083286293
1592.8358,1036.6442955144912
1594.6035,1095.7142301406693
1596.3704,1135.0959132425887
1598.1366,1212.539934898533
1599.9021,1302.9468738358255
1601.6668,1373.517296656395
1603.4308,1515.3017569327012
1605.194,1638.8007945020345
1606.9564,1806.7649340486669
1608.7182,2009.144683868868
1610.4791,2239.940534191259
1612.2394,2449.502955153017
1613.9988,2698.482394491918
1615.7576,2928.4292754507087
1617.5156,3123.643994287315
1619.2728,3292.0769179753706
1621.0293,3404.128382252068
1622.785,3364.898689933836
1624.54,3233.2381097958214
1626.2942,3075.096876964185
1628.0477,2830.175194232713
1629.8005,2588.2732336442214
1631.5525,2369.741138939781
1633.3037,2180.6790279777288
1635.0542,2079.886994918995
1636.804,1953.9651121177203
1638.553,1895.2134311291793
1640.3013,1900.681983968997
1642.0488,1881.4707837006654
1643.7955,1941.529824380861
1645.5416,2001.2090812515562
1647.2868,2110.958510139423
1649.0313,2231.5280468590436
1650.7751,2416.7176061154187
1652.5181,2583.2770802982686
1654.2604,2799.706337630141
1656.0019,3069.8052205008144
1657.7427,3370.3735433030024
1659.4828,3651.911089731376
1661.222,3831.517609776867
1662.9606,3840.242816911299
1664.6984,3655.536386291328
1666.4354,3240.3479546711797
1668.1717,2732.5771222497224
1669.9072,2234.873456822347
1671.642,1791.936498858675
1673.3761,1451.915766479592
1675.1094,1159.3107598866272
1676.8419,945.6709647621501
1678.5737,786.5458551954271
1680.3048,677.0848958190163
1682.0351,559.4875434000232
1683.7646,472.1032479347032
1685.4934,435.4814538244382
1687.2215,380.42160074958156
1688.9488,317.9731240356723
1690.6754,291.5354552040362
1692.4012,268.7580225962665
1694.1263,242.99025163860642
1695.8506,217.53156506972027
1697.5742,211.5813831983687
1699.297,189.33912415800387
1701.0191,181.75420396626032
1702.7404,138.9760367473882
1704.461,120.45403480809546
1706.1808,113.58760906533234
1707.8999,112.42616923151309
1709.6182,99.11912388317796
1711.3358,86.41588047260711
1713.0527,75.46584546088843
1714.7688,54.76842444495196
1716.4841,55.973022267075066
1718.1987,68.02904322185032
1719.9126,64.08589104414477
1721.6257,40.74296878853829
1723.338,65.44967886875293
1725.0496,29.555423291083116
1726.7605,34.50960340732763
1728.4706,39.91162027373093
1730.18,32.610874601443356
1731.8886,41.5067667025005
1733.5964,40.99869656283363
1735.3036,42.986063753304734
1737.0099,25.668267434797144
1738.7156,18.194706338332708
1740.4204,0.3647789382503106
1742.1246,22.227883526945334
1743.8279,8.33341839316472
1745.5306,14.430781603379728
1747.2325,-7.230628859274475
1748.9336,-0.9014151559636048
1750.634,-15.032107213874497
1752.3336,-21.923225955051294
1754.0325,-7.5751421307932105
1755.7307,-18.088007479369935
1757.4281,8.188101936611929
1759.1247,-5.996709246258433
1760.8206,5.4576635267249
1762.5158,6.201384717393466
1764.2102,-3.4653812669926083
1765.9039,25.857529918812816
1767.5968,0.7703172392152737
1769.289,-11.476820599953498
1770.9804,8.26631509943627
1772.6711,15.800037688949942
1774.361,4.624660437494185
1776.0502,19.890496455976518
1777.7386,22.39785880905947
1779.4263,18.44706036250227
1781.1132,31.688413758085517
1782.7994,24.02223145312064
1784.4849,36.848825588038835
1786.1696,22.868508063048466
1787.8535,44.53159040987339
1789.5367,40.28838393155502
1791.2192,24.289199485820518
1792.9009,25.28434752751764
1794.5818,55.27413826860402
1796.2621,51.15888166819468
1797.9415,36.488887132663876
1799.6202,31.66446355680091
1801.2982,39.18591947050845
1802.9755,60.703563087043676
1804.6519,55.96770222780606
1806.3277,38.32864410716502
1808.0027,60.48669537981641
1809.6769,51.54216231716964
1811.3504,57.245350585771575
1813.0231,64.89656533674861
1814.6951,62.39611114877425
1816.3664,83.29429195155762
1818.0369,80.44141105084782
1819.7067,64.08777091945285
1821.3757,82.78367322576787
1823.044,86.8794189973114
1824.7115,82.72530843376671
1826.3783,83.22164086602379
1828.0443,79.5687147977228
1829.7096,100.01682790028826
1831.3741,97.76627704946168
1833.0379,94.71735812081988
1834.701,110.62036601227783
1836.3633,109.92559467457977
1838.0248,102.48333695226893
1839.6856,111.74388459062948
1841.3457,107.05752831011614
1843.005,123.57455771374634
1844.6636,132.04526133396075
1846.3214,118.66992646745894
1847.9785,117.74883909048822
1849.6349,113.3822839925997
1851.2904,129.97054478585824
1852.9453,132.7139039485055
1854.5994,129.06264265907976
1856.2528,145.61704076898195
1857.9054,145.97737683898822
1859.5572,158.4939279737032
1861.2083,154.71696981795867
1862.8587,151.24677643164932
1864.5084,168.13362032750047
1866.1572,148.67777250577228
1867.8054,130.27950228539157
1869.4528,142.88907749850614
1871.0994,150.20676467447174
1872.7453,164.53282891375284
1874.3905,160.51753381474828
1876.0349,165.51114133052852
1877.6786,171.21391180899036
1879.3215,181.42610394291978
1880.9637,159.8979747129647
1882.6051,160.82977928551327
1884.2458,153.1717712279774
1885.8858,169.87420249947218
1887.525,164.8873235273968
1889.1634,164.61138304040878
1890.8011,150.69662811829448
1892.4381,177.09330419472917
1894.0743,164.3516551964226
1895.7098,166.8719232791541
1897.3446,176.85434895518756
1898.9786,174.54917106806988
1900.6118,163.50662669280337
1902.2443,163.27695115890174
1903.8761,176.01037816081225
1905.5071,180.1571397602138
1907.1374,147.167466258682
1908.7669,167.79158615622418
1910.3957,176.42972648117166
1912.0237,151.33211258394067
1913.651,163.09896805065318
1915.2776,156.53051495410955
1916.9034,158.37697373612127
1918.5285,158.58856327319654
1920.1528,146.86550085807448
1921.7764,164.25800219761095
1923.3992,148.56628153000565
1925.0213,138.84055145088269
1926.6427,134.7310230702019
1928.2633,96.83790610952019
1929.8832,169.81140894308692
1931.5023,148.85173897677032
1933.1207,145.55910191832754
1934.7383,140.73370198699968
1936.3552,140.67574194643794
1937.9714,120.33542315295927
1939.5868,138.06294555612158
1941.2015,127.00850790213099
1942.8154,135.67230755656374
1944.4286,118.85454061491464
1946.041,114.90540181595861
1947.6528,126.82508470992525
1949.2637,127.51378169799182
1950.8739,122.47168391308878
1952.4834,113.59898121300785
1954.0921,115.59586223082533
1955.7001,113.56251446363149
1957.3074,112.79912425255907
1958.9139,114.45587680311564
1960.5197,116.8829561928219
1962.1247,109.23054535463916
1963.729,123.79882605270268
1965.3325,113.23797895884127
1966.9353,96.14818350689575
1968.5374,106.57961799832856
1970.1387,100.93245977312108
1971.7393,97.15688510545897
1973.3392,92.2030692602043
1974.9383,88.07118653065118
1976.5366,88.26141028806569
1978.1342,102.52391302300248
1979.7311,101.20886634340059
1981.3273,100.66644083196297
1982.9227,91.34680605930453
1984.5173,97.00013058937611
1986.1112,80.07658207266286
1987.7044,76.1263271896496
1989.2968,94.54953182005693
1990.8885,89.94636108234454
1992.4795,99.56697914947745
1994.0697,85.66154929496179
1995.6592,84.78023379663182
1997.2479,84.57319407570776
1998.8359,95.29059070561152
2000.4232,91.88258341403343
2002.0097,85.29933097576122
2003.5955,78.99099124675467
2005.1805,93.20772122998278
2006.7648,90.29967713850465
2008.3484,72.91701425330439
2009.9312,96.85988695236847
2011.5133,90.42844888451555
2013.0946,80.52285272996642
2014.6752,87.39325026465758
2016.2551,96.5397924592985
2017.8342,85.56262941066734
2019.4126,89.01191025014577
2020.9902,79.88778325349176
2022.5672,83.44039580634535
2024.1433,95.56989449546973
2025.7188,86.22642507322689
2027.2935,88.060132336278
2028.8674,74.52116021902475
2030.4406,82.55965177526605
2032.0131,78.32574931359204
2033.5849,77.1695943169957
2035.1559,77.59132748521506
2036.7261,81.69108874629273
2038.2957,72.91901725236175
2039.8645,73.5752513386451
2041.4325,92.05992861117466
2042.9998,86.97318594023227
2044.5664,87.86515927550045
2046.1323,88.68598369693086
2047.6974,76.33579340582287
2049.2617,73.91472171661917
2050.8254,89.42290118040364
2052.3883,88.36046360911587
2053.9504,78.1275399204651
2055.5118,84.12426014855828
2057.0725,84.25075354622709
2058.6325,76.45714852506262
2060.1917,75.14357265414901
2061.7502,80.56015273799949
2063.3079,90.35701482969216
2064.8649,82.23428417670425
2066.4212,72.94208512294449
2067.9767,87.48054118997948
2069.5315,80.44977516995846
2071.0856,81.34990898022443
2072.6389,67.33106373362489
2074.1915,61.24335972950939
2075.7433,60.786916593917795
2077.2945,58.9118533404569
2078.8448,64.81828837486592
2080.3945,63.10633951376576
2081.9434,66.926123925595
2083.4916,69.02775814772895
2085.039,57.911358048281954
2086.5857,65.57703880509257
2088.1317,70.27491501688519
2089.677,62.15510062661588
2091.2215,76.91770887449161
2092.7652,59.21285237916777
2094.3083,76.39064299012352
2095.8506,76.25119196470996
2097.3921,71.94460979637392
2098.933,72.67100621604914
2100.4731,60.83049023522585
2102.0124,60.52317013868378
2103.5511,72.04915360289897
2105.089,70.00854769911712
2106.6261,79.901458778093
2108.1626,64.12799249049704
2109.6983,58.58825368798466
2111.2332,80.93234658093252
2112.7675,68.71037479383517
2114.301,68.47244114186401
2115.8337,91.16864775308773
2117.3657,73.5990960708516
2118.897,76.61388662681634
2120.4276,80.3631192166522
2121.9575,70.29689286989151
2123.4866,79.71530581243542
2125.0149,78.1684555672175
2126.5426,67.65643886001885
2128.0695,65.42935163493689
2129.5956,64.23728915950596
2131.1211,60.4803460469675
2132.6458,68.90861626818992
2134.1698,61.67219318924026
2135.693,77.22116948710027
2137.2155,75.65563722203228
2138.7373,78.97568768208612
2140.2584,66.38141139875574
2141.7787,75.12289811377968
2143.2983,73.70023690508219
2144.8171,75.16351609936146
2146.3353,76.21282328631287
2147.8527,79.14824530399824
2149.3693,88.36986822835206
2150.8853,76.8277773438258
2152.4005,63.4220570511734
2153.9149,71.85279098287128
2155.4287,67.77006213717573
2156.9417,67.97395279381499
2158.454,63.664544554818804
2159.9655,70.49191834247654
2161.4764,70.60615444243331
2162.9865,83.90733243541536
2164.4958,74.89553119608763
2166.0045,76.57082876004256
2167.5124,68.98330241391864
2169.0195,78.23302867864732
2170.526,79.87008338532678
2172.0317,71.34454158272638
2173.5367,70.10647752091427
2175.0409,71.15596473651453
2176.5445,82.04307606508655
2178.0473,68.5678836306306
2179.5494,77.33045873671699
2181.0507,67.48087200123723
2182.5513,60.91919326877951
2184.0512,70.49549170912383
2185.5504,61.70983588286026
2187.0488,54.71229364562396
2188.5465,72.85293223595204
2190.0435,72.78181834525981
2191.5397,66.14901793643344
2193.0353,61.654596244541835
2194.5301,63.34861784316422
2196.0241,64.58114668933445
2197.5175,62.05224610660116
2199.0101,59.511978772702605
2200.502,67.26040674485535
2201.9931,61.04759148515723
2203.4835,45.57359378310275
2204.9733,66.63847381771166
2206.4622,65.09229131226789
2207.9505,64.33510532367222
2209.438,58.46697425790376
2210.9248,58.837955877591185
2212.4109,55.09810736069471
2213.8962,54.44748529679532
2215.3809,49.536145724493736
2216.8648,53.46414413791604
2218.3479,52.48153553582824
2219.8304,36.28837438235405
2221.3121,57.98471461680333
2222.7931,54.520609815603166
2224.2733,55.4961129753342
2225.7529,58.26127654737229
2227.2317,43.466152428132546
2228.7098,57.31079193141841
2230.1872,33.94524593637243
2231.6638,46.01956474903045
2233.1397,48.983798335975735
2234.6149,51.48799620359637
2236.0894,42.232207368443596
2237.5632,45.91648033218917
2239.0362,46.690863174181686
2240.5085,43.455403514606814
2241.9801,40.960148506740325
2243.4509,48.405144869305786
2244.921,47.04043891142487
2246.3904,33.61607645816889
2247.8591,42.88210286420531
2249.3271,33.83856314804166
2250.7943,33.88550189936427
2252.2608,37.92296336947402
2253.7266,36.80099147081705
2255.1917,30.269629736611478
2256.656,22.72892133206392
2258.1197,26.128909119686796
2259.5826,24.419635734701842
2261.0447,29.251143551042333
2262.5062,35.3734746984469
2263.9669,34.886671014143076
2265.4269,34.2407739816249
2266.8862,31.585824735520873
2268.3448,35.62186406805222
2269.8026,29.148932455583235
2271.2598,37.41707001825989
2272.7162,41.72631658473847
2274.1719,56.37671160950663
2275.6268,32.368294129788865
2277.0811,39.40110261904283
2278.5346,48.02517522704443
2279.9874,41.69054970955972
2281.4395,43.79726334210363
2282.8908,42.99535298328715
2284.3414,42.484855053749925
2285.7914,38.91580554417874
2287.2406,41.838240020412286
2288.689,38.00219365913131
2290.1368,42.10770121863425
2291.5838,45.80479707719974
2293.0302,44.693515192029054
2294.4758,41.22388906227661
2295.9206,39.89595174016176
2297.3648,40.859735865665925
2298.8082,41.01527367980998
2300.251,52.81259701501972
2301.693,34.15173729356752
2303.1343,46.08272540960138
2304.5748,42.65559191575221
2306.0147,48.82036690382438
2307.4538,54.27708003906582
2308.8922,43.12576049852305
2310.3299,39.21643691647205
2311.7669,42.49913749593338
2313.2031,41.37389004776287
2314.6387,52.19072195782587
2316.0735,42.6996601982496
2317.5076,34.800731219253294
2318.941,49.393961044060916
2320.3737,43.82937534788766
2321.8056,35.30699931200911
2323.2369,46.27685767940761
2324.6674,51.638974839994944
2326.0972,39.39337472091415
2327.5263,39.790080732918796
2328.9547,49.429115892828804
2330.3823,38.5105028195635
2331.8092,40.784263637751565
2333.2355,37.950420086916665
2334.661,44.65899349874098
2336.0858,56.310004825402075
2337.5098,39.70347457248704
2338.9332,53.48942268248402
2340.3558,50.96786870084634
2341.7778,35.98883163813434
2343.199,48.45232999522909
2344.6195,49.15838191312287
2346.0393,46.857005048285146
2347.4583,49.99821656560016
2348.8767,61.5320331613832
2350.2943,50.10847103196761
2351.7113,50.67754575836898
2353.1275,51.839272420516636
2354.543,55.04366559156597
2355.9578,57.34073932627871
2357.3718,52.930507128980025
2358.7852,54.91298193058651
2360.1978,52.838176132710714
2361.6098,61.356101587836974
2363.021,52.86676962006709
2364.4315,46.47019093994322
2365.8413,51.7663757293401
2367.2504,54.65533370542971
2368.6587,54.23707406771973
2370.0664,51.56160546916567
2371.4733,57.12893602035092
2372.8795,50.08907331624323
2374.285,48.792024380521525
2375.6899,53.73779573597449
2377.0939,53.17639341747122
2378.4973,48.95782292250328
2379.9,55.332089216799886
2381.3019,52.44919677651296
2382.7032,48.95914952447379
2384.1037,53.111950859022954
2385.5035,40.107603688908966
2386.9027,45.196110391762204
2388.3011,51.57747294413707
2389.6987,46.70169287062754
2391.0957,41.8187711800515
2392.492,36.12870841421204
2393.8876,50.03150469672437
2395.2824,39.27715978991682
2396.6765,45.36567295580221
2398.07,48.497043063623096
2399.4627,45.87126852896563
2400.8547,42.98834728244583
2402.246,40.14827679596783
2403.6366,32.151054111551275
2405.0265,41.29667586973392
2406.4156,34.83513838954241
2407.8041,36.216437577037254
2409.1918,37.940568989927556
2410.5789,22.757527823759347
2411.9652,35.36730889467174
2413.3508,33.06990679123044
2414.7358,40.51531574832882
2416.12,41.803529670159605
2417.5035,35.98454205576468
2418.8863,48.00834598614915
2420.2684,46.57493418247418
2421.6497,39.98429888581677
2423.0304,37.78643187150374
2424.4104,37.48132451502022
2425.7896,39.268967813985796
2427.1682,37.799352391209936
2428.546,30.37246847681274
2429.9232,40.98830592292313
2431.2996,46.44685427794593
2432.6753,45.79810268040296
2434.0503,43.442039804347814
2435.4246,46.628653865853835
2436.7982,37.157932646573954
2438.1711,40.22986346187531
2439.5433,35.64443325554657
2440.9148,47.85162856907823
2442.2856,45.30143558751661
2443.6557,37.093840017392154
2445.025,42.67882711222114
2446.3937,43.8063817545825
2447.7617,48.826488400267294
2449.1289,50.939131067002904
2450.4955,43.99429328425265
2451.8613,46.091958072088914
2453.2265,48.73210801064113
2454.5909,43.364725219119805
2455.9546,48.23979132941474
2457.3177,44.757287539769436
2458.68,51.967194566029434
2460.0416,48.36949267646821
2461.4025,49.81416161968707
2462.7627,49.25118066059315
2464.1222,62.48052856595223
2465.4811,52.602183610018415
2466.8392,54.06612344224084
2468.1966,51.52232518604694
2469.5533,57.47076542420291
2470.9093,57.51142022425256
2472.2645,68.84426507903197
2473.6191,64.41927490626324
2474.973,64.38642393522639
2476.3262,60.44568575100925
2477.6787,63.94703329483582
2479.0305,60.09043890347391
2480.3816,56.62587427422113
2481.7319,58.00331050347131
2483.0816,62.52271812135996
2484.4306,63.63406707798947
2485.7789,60.837326698235984
2487.1264,47.48246567063484
2488.4733,64.86945207534905
2489.8195,59.8982535177164
2491.165,54.218836954381004
2492.5097,57.581168743004014
2493.8538,59.33521469905918
2495.1972,54.73094006220879
2496.5398,58.718309478763445
2497.8818,55.997287047725194
2499.2231,63.267836280912775
2500.5637,44.52992013017297
2501.9035,60.483500914673755
2503.2427,54.528540508284436
2504.5812,43.715000180039056
2505.919,56.29284065368745
2507.256,62.312022215829074
2508.5924,57.07250459013551
2509.9281,53.574246877159
2511.2631,60.4672076067269
2512.5974,67.50134477292488
2513.9309,53.97661576516634
2515.2638,60.39297729785221
2516.596,66.15038554561738
2517.9275,56.0487960791678
2519.2583,63.68816380770602
2520.5884,59.26844307994702
2521.9178,49.689587607725116
2523.2465,62.15155051019042
2524.5745,61.50428440959672
2525.9018,64.09774130668325
2527.2284,66.63187258714663
2528.5543,68.50662899570625
2529.8796,48.22196061076329
2531.2041,60.37781682565287
2532.5279,63.37414655149121
2533.851,65.21089809561659
2535.1735,66.53801913162602
2536.4952,66.8554566810077
2537.8163,72.31315709987052
2539.1366,64.6610660757691
2540.4562,81.19912857312659
2541.7752,72.1772889097565
2543.0935,76.19549059148142
2544.411,78.90367640235183
2545.7279,74.65178836446398
2547.0441,65.38976771087766
2548.3596,78.817554928135
2549.6744,78.93508984888058
2550.9885,79.9923115175842
2552.3019,74.43915818936466
2553.6146,72.7255673194187
2554.9266,75.0014756185509
2556.2379,74.66681907031113
2557.5485,82.47153290823542
2558.8585,73.76555161919111
2560.1677,81.44880886533122
2561.4762,83.321237571153
2562.7841,80.78276984666707
2564.0913,74.23333696867144
2565.3977,81.82286940613687
2566.7035,77.50129688570178
2568.0086,79.71854831577593
2569.313,80.92455182975618
2570.6167,87.31923476385441
2571.9197,84.85252364503685
2573.222,84.62434412707796
2574.5236,80.38462101522737
2575.8246,82.18327826849145
2577.1248,88.87023904203068
2578.4244,91.24542566917307
2579.7232,89.55875959454443
2581.0214,86.61016135031707
2582.3189,100.49955057307568
2583.6157,90.82684603330347
2584.9118,103.39196549648875
2586.2072,97.29482581985235
2587.5019,94.13534282669525
2588.7959,114.2134313673705
2590.0893,109.32900535087754
2591.3819,110.53197754408222
2592.6739,103.42225962056068
2593.9652,118.94976214856979
2595.2557,121.11439466214392
2596.5456,109.86606550582019
2597.8348,117.20468181299168
2599.1234,118.63014961839121
2600.4112,110.1923737847053
2601.6983,122.99125798831903
2602.9848,117.07670480369393
2604.2705,134.64861557537938
2605.5556,127.60689047715744
2606.84,115.55142833632476
2608.1237,123.43212670410867
2609.4067,119.39888197622224
2610.689,113.90158931405756
2611.9707,127.34014268501858
2613.2516,125.26443491749319
2614.5319,122.77435756646832
2615.8115,123.01980093428699
2617.0903,115.00065409554861
2618.3685,116.96680489465518
2619.6461,124.61814002600215
2620.9229,116.6045450143173
2622.199,122.07590413814694
2623.4745,111.8821005099926
2624.7493,120.32301602159691
2626.0234,120.49853144588167
2627.2968,125.05852635253893
2628.5695,125.85287910627585
2629.8415,122.88146682121453
2631.1128,118.34416535294872
2632.3835,121.3908493282579
2633.6535,113.67139219047976
2634.9228,118.7356661690435
2636.1914,120.33354235666457
2637.4593,129.01489065870237
2638.7265,121.07957977718058
2639.9931,123.87747712397459
2641.259,119.85844890016415
2642.5242,119.42236006805479
2643.7887,120.76907439136744
2645.0525,116.3984544395995
2646.3156,111.16036157455858
2647.5781,120.80465599406773
2648.8398,113.08119678434673
2650.1009,116.48984182356912
2651.3613,113.48044785909622
2652.6211,114.80287047339141
2653.8801,114.50696411411298
2655.1385,118.7925820808914
2656.3961,114.20957652828713
2657.6531,117.30779842293589
2658.9094,118.53709758937714
2660.1651,120.24732267907291
2661.42,121.38832115811454
2662.6743,117.70993929012025
2663.9279,129.5120221248252
2665.1808,125.64441353486541
2666.433,130.10695609775723
2667.6846,132.89949113457283
2668.9354,129.97185866531538
2670.1856,131.02389738099293
2671.4351,144.30544467289587
2672.6839,140.3163366220756
2673.9321,139.45640786652916
2675.1795,144.72549164109103
2676.4263,155.42341978603145
2677.6724,150.3000226943658
2678.9179,151.85512920487565
2680.1626,147.38856665334288
2681.4067,151.15016085699767
2682.6501,153.3397361591857
2683.8928,149.60711539175048
2685.1348,148.10211985313867
2686.3761,138.4245693457255
2687.6168,130.92428219086588
2688.8568,139.05107532566848
2690.0961,136.75476437799978
2691.3348,125.33516358521507
2692.5727,130.99208581712287
2693.81,125.17534269017978
2695.0466,125.73474451092227
2696.2826,127.72010033413346
2697.5178,128.08121795724912
2698.7524,130.71790390050415
2699.9863,127.62996340332165
2701.2195,132.11720039794574
2702.452,127.77941754032145
2703.6839,145.11641616522218
2704.9151,141.42799632962726
2706.1456,154.2139566393522
2707.3755,151.07409428593235
2708.6046,165.708204918764
2709.8331,163.61608267650257
2711.0609,171.64752004072193
2712.2881,182.50230785683522
2713.5145,182.13023525378117
2714.7403,204.7810895354753
2715.9654,211.3046561845311
2717.1899,219.65071863575128
2718.4136,237.8690582108922
2719.6367,245.95945403520352
2720.8591,249.52168285524476
2722.0809,264.6055189579806
2723.3019,264.7107341351594
2724.5223,273.68709753247435
2725.7421,275.03437564851174
2726.9611,287.60233224498666
2728.1795,284.1407283332709
2729.3972,272.0493220487127
2730.6142,255.5278686852535
2731.8306,241.62612081634177
2733.0462,225.99382846014714
2734.2612,204.58073921857851
2735.4756,203.48659843360645
2736.6892,185.0111494013945
2737.9022,167.00413338324034
2739.1145,155.4652897903302
2740.3262,142.69435636380962
2741.5372,123.54106929017115
2742.7475,118.35516332896424
2743.9571,104.78637200432803
2745.1661,86.98442765684968
2746.3744,86.89906157925276
2747.582,80.23000419441752
2748.7889,69.57698505623347
2749.9952,58.73973291629022
2751.2008,59.41797583040784
2752.4057,49.06144126700951
2753.61,45.2698561003387
2754.8136,41.792946714025106
2756.0165,43.58043903899954
2757.2188,37.13205858826393
2758.4204,38.09753043901571
2759.6213,42.62657929713157
2760.8215,35.01892948751345
2762.0211,36.72430490879731
2763.22,23.642429109430395
2764.4182,28.223025270616745
2765.6158,29.91581633713656
2766.8127,14.120524971539908
2768.009,13.436873537219185
2769.2045,12.564584256361627
2770.3994,4.0533792167861975
2771.5936,-2.747019619333628
2772.7872,-3.786890330357892
2773.9801,-5.116483551921419
2775.1723,-8.986012088624761
2776.3639,-9.345637631398063
2777.5548,-19.395432100910966
2778.745,-9.68537405491304
2779.9346,-10.015248290787895
2781.1235,-17.93474284903209
2782.3117,-18.443445717811755
2783.4992,-17.390765717212616
2784.6861,-10.075927417297976
2785.8723,-11.897981654381965
2787.0579,-7.155878606263514
2788.2428,-3.5984495899052718
2789.427,-3.4744544350426168
2790.6106,5.4173829771004876
2791.7935,4.128373475099011
2792.9757,20.359827833354984
2794.1573,28.21305678498618
2795.3382,39.63937085951284
2796.5184,46.99008030432469
2797.698,51.41649497041817
2798.8769,73.76992423888919
2800.0551,83.80167697666968
2801.2327,88.06306131299323
2802.4096,109.0553845390765
2803.5859,128.52995306550622
2804.7615,135.83807221231586
2805.9364,158.0310460142416
2807.1106,187.1601771476387
2808.2842,206.67676670855224
2809.4572,238.78211392142657
2810.6294,269.62751594393774
2811.801,300.2642675459415
2812.972,336.6936608010192
2814.1423,386.46698478010956
2815.3119,434.28552518721517
2816.4808,453.4005638616695
2817.6491,504.9133782999503
2818.8167,558.9752414645297
2819.9837,605.1374212687468
2821.15,648.8011800361888
2822.3157,701.3677740390689
2823.4807,745.0384530615887
2824.645,789.7144598742727
2825.8086,835.1470297972611
2826.9716,887.9373902535484
2828.134,923.686760314661
2829.2957,970.5963501727504
2830.4567,991.9173607831016
2831.617,1015.7509833950369
2832.7767,1030.8983993387046
2833.9358,1020.2107797867437
2835.0941,1014.6392856028097
2836.2519,1001.1850674484496
2837.4089,972.6492658388186
2838.5653,976.533011277221
2839.7211,964.3374245404691
2840.8761,963.3636166400452
2842.0306,972.0626889440572
2843.1843,1018.8357331869779
2844.3374,1053.1338313826527
2845.4899,1092.3080553565705
2846.6417,1163.7594664028825
2847.7928,1233.4391148926588
2848.9433,1296.398039559377
2850.0931,1378.0872668021211
2851.2422,1435.0078100559967
2852.3907,1499.4606689752368
2853.5385,1549.4968288639961
2854.6857,1602.3172600318235
2855.8323,1668.1729172933005
2856.9781,1701.0647394398352
2858.1233,1757.943648581107
2859.2679,1799.8105498161494
2860.4118,1861.5163306645586
2861.555,1880.2618606478259
2862.6976,1912.0979906722798
2863.8395,1944.3255528416298
2864.9808,1975.6453601386067
2866.1214,2008.9582061026858
2867.2614,2011.4148645168893
2868.4007,2036.0160890746574
2869.5393,2028.2626133552828
2870.6773,2044.1551505778964
2871.8146,2049.744393679003
2872.9513,2055.331015153558
2874.0874,2048.8156669990703
2875.2227,2043.9489806597421
2876.3574,2026.9815670916162
2877.4915,1998.5140168112484
2878.6249,1970.1469000653783
2879.7577,1934.8807671156042
2880.8898,1910.3661485220573
2882.0212,1930.2035554960594
2883.152,1892.0434801452725
2884.2821,1891.9363952753215
2885.4116,1891.2827547713987
2886.5405,1887.43299359933
2887.6686,1882.2375278121165
2888.7962,1890.2467545884276
2889.923,1899.91105228456
2891.0493,1918.2307803543406
2892.1748,1918.1062792524885
2893.2997,1927.9878702514134
2894.424,1941.3258554424633
2895.5476,1959.3705176371075
2896.6706,1990.922120233557
2897.7929,2010.8809070363186
2898.9145,2035.0971019406766
2900.0355,2064.070908733108
2901.1559,2095.2025108491184
2902.2756,2151.0420710835056
2903.3946,2161.889731279042
2904.513,2190.145611768079
2905.6308,2220.4598112640733
2906.7479,2251.9824065790235
2907.8643,2267.5134523203324
2908.9801,2281.452980575577
2910.0953,2289.301000757202
2911.2098,2292.4574994631216
2912.3236,2282.672440398241
2913.4368,2269.84576434289
2914.5494,2255.8773892506747
2915.6613,2218.8172103767433
2916.7725,2187.4151004174705
2917.8831,2188.5709098810585
2918.9931,2151.0844674015584
2920.1024,2126.355579727313
2921.211,2106.434032095821
2922.319,2085.169588481025
2923.4264,2067.2619917925285
2924.5331,2054.8109640882385
2925.6391,2033.8162067534438
2926.7445,2040.0774006253228
2927.8493,2053.994206202893
2928.9534,2040.9662635843981
2930.0569,2045.693192328141
2931.1597,2042.1245915827608
2932.2619,2032.3100400399662
2933.3634,2038.24909597022
2934.4643,2038.2412973208857
2935.5645,2021.4861616568346
2936.6641,1994.4331861605267
2937.763,1955.4818477995595
2938.8613,1908.9316035972001
2939.959,1857.7818910218964
2941.056,1793.7821284527815
2942.1523,1715.7817156911692
2943.248,1641.4300346005525
2944.3431,1540.4764498866082
2945.4375,1448.220309840713
2946.5313,1355.5609473494783
2947.6244,1255.997680817315
2948.7169,1165.529815093023
2949.8087,1070.1066424654268
2950.8999,993.7774435680531
2951.9904,901.641488333362
2953.0803,843.5480367560396
2954.1696,787.2463398143578
2955.2582,740.9356400511083
2956.3462,684.0151721366194
2957.4335,645.5841633318638
2958.5202,617.2918340576628
2959.6062,596.6373982789959
2960.6916,575.4200637879251
2961.7764,562.5890324101379
2962.8605,540.1935002171222
2963.9439,534.1826576544756
2965.0267,522.9056897658604
2966.1089,519.7617762531124
2967.1905,518.4000915890102
2968.2714,526.5698050487157
2969.3516,529.6200807233897
2970.4312,531.0000774384953
2971.5102,531.158948723295
2972.5885,541.4958427970505
2973.6662,537.0099025674348
2974.7432,554.3502655271627
2975.8196,540.0160637988502
2976.8954,535.856423961611
2977.9705,529.5204671943987
2979.045,525.1073093176029
2980.1188,511.6660608564089
2981.192,499.4458270849291
2982.2645,474.24570816061544
2983.3364,456.5647992464619
2984.4077,441.20219076300623
2985.4783,408.1069685651378
2986.5483,378.52821409572493
2987.6177,358.21500471656645
2988.6864,312.5164140041792
2989.7545,292.6315119529305
2990.8219,258.80936543202336
2991.8887,236.14903838434634
2992.9548,212.19959216469454
2994.0204,181.96008576637257
2995.0852,157.17957606068916
2996.1495,133.8071180993528
2997.2131,120.64176536227637
2998.276,99.28256999130156
2999.3383,82.1785829218527
3000.4,61.5788540965284
3001.4611,57.532432636142175
3002.5215,39.33836704571888
3003.5812,25.94570525495891
3004.6404,14.903494800179374
3005.6989,14.510782958240156
3006.7567,12.466616856966482
3007.8139,-0.2299565209241905
3008.8705,-7.729890317380523
3009.9264,-2.3841353770855562
3010.9818,-7.993565323118219
3012.0364,-7.359029961045053
3013.0905,-8.93129924071485
3014.1439,-14.31106959526727
3015.1966,-12.848948234162492
3016.2487,-3.7453993992756978
3017.3002,-8.550758971489017
3018.3511,-11.265325415144787
3019.4013,-0.8893117725036177
3020.4509,7.777181454774848
3021.4998,1.1340626492551564
3022.5481,13.781240115730157
3023.5958,8.968622147652354
3024.6428,18.196116900661764
3025.6892,22.513632440712684
3026.735,24.871076651798376
3027.7802,32.11835719277599
3028.8247,35.805381473792124
3029.8685,34.53205658380989
3030.9118,43.84828925373881
3031.9544,53.65398586916808
3032.9963,61.34905237720409
3034.0376,71.03339418841318
3035.0783,65.40691609987141
3036.1184,83.31952219832084
3037.1578,81.47111591643483
3038.1966,93.46159985369155
3039.2348,89.54087579485838
3040.2723,93.40884459008697
3041.3092,102.06540619412016
3042.3455,100.21045962761275
3043.3811,107.49390289056555
3044.4161,99.31563298087502
3045.4505,110.2255458214986
3046.4842,107.37353634223746
3047.5173,105.75949837063746
3048.5498,103.03332466050927
3049.5816,104.74490690806886
3050.6128,95.34413577919929
3051.6434,95.13090089233458
3052.6734,93.20509091246765
3053.7027,98.31659355328264
3054.7314,91.56529559641308
3055.7594,92.3010828403269
3056.7868,92.87384016783932
3057.8136,87.78345153875483
3058.8398,92.5797999841397
3059.8653,84.61276765722585
3060.8902,84.33223578544738
3061.9145,82.28808475011073
3062.9381,79.23019408920032
3063.9612,87.20844251781978
3064.9835,86.1727079587709
3066.0053,77.22286746277109
3067.0264,81.80879721881098
3068.0469,74.78037264365253
3069.0668,72.13746833596974
3070.086,73.27995814663313
3071.1046,65.40771520513835
3072.1226,57.97061190818164
3073.1399,54.26851999838226
3074.1567,53.25131063865339
3075.1727,48.91885444922323
3076.1882,43.971021517806804
3077.203,33.90768144293057
3078.2173,31.97870338341096
3079.2308,29.883956158987644
3080.2438,28.42330826961353
3081.2561,26.496627916401906
3082.2678,18.5037830162332
3083.2789,13.44464122102167
3084.2893,9.419069997643788
3085.2991,10.026936678529864
3086.3083,4.96810850191963
3087.3169,3.842452605783393
3088.3248,7.049836078410522
3089.3321,5.540125969665951
3090.3388,4.3131892589163385
3091.3449,0.018892870127160677
3092.3503,-2.0428963158678357
3093.3551,-1.1223116069749324
3094.3593,0.6305340974338947
3095.3629,-4.084460890120539
3096.3658,1.382601736577385
3097.3681,-1.5183389124925952
3098.3698,0.41265625882343215
3099.3708,-5.22445848511515
3100.3713,-1.929728884075331
3101.3711,-2.603148485483814
3102.3702,-4.744691558775941
3103.3688,-0.2543063679336228
3104.3667,-2.6318937774701396
3105.364,-0.0273521113782067
3106.3607,-2.340553401031798
3107.3568,1.3286305954427462
3108.3522,1.7803515020474379
3109.347,0.16476092949807253
3110.3412,4.682010470707013
3111.3348,6.332250072624845
3112.3277,3.86562963538222
3113.32,4.882298995787238
3114.3117,4.782407951991985
3115.3028,6.466106253325478
3116.2932,12.433543601292882
3117.2831,10.684869632738355
3118.2723,8.470233860170765
3119.2608,8.189785689250357
3120.2488,10.143674440935044
3121.2361,15.682049354285056
3122.2229,13.405059566923896
3123.209,14.512854059654686
3124.1944,15.555581679229945
3125.1793,17.483391127273762
3126.1635,18.44643094985443
3127.1471,17.19484951820654
3128.1301,14.428795019100349
3129.1125,21.748415467357773
3130.0942,23.303858733512982
3131.0753,25.39527247061585
3132.0558,24.2228040986778
3133.0357,26.936600783757513
3134.015,26.836809449685674
3134.9936,26.323576750926975
3135.9716,26.997049073578097
3136.949,29.607372540500023
3137.9258,30.054693004583328
3138.902,30.689156022644866
3139.8775,32.81090685095471
3140.8524,38.27009043889136
3141.8267,35.86685140772428
3142.8004,37.301333996022066
3143.7735,36.373682083684756
3144.7459,41.484039177599186
3145.7178,36.882548420915356
3146.689,40.81935254194295
3147.6596,40.8445939001662
3148.6295,40.90841444687588
3149.5989,38.56095572491681
3150.5676,43.152358868049724
3151.5357,43.38276462442583
3152.5032,43.45231331067278
3153.4701,44.711144809590536
3154.4364,47.25939856945595
3155.402,46.3972135914345
3156.367,49.32472840409763
3157.3315,44.892081072044725
3158.2952,53.34940916662792
3159.2584,50.79684981027855
3160.221,51.38453959193387
3161.1829,53.31261459256271
3162.1442,51.78121037928847
3163.105,53.94046198610847
3164.065,56.54050392920794
3165.0245,56.781470185367475
3165.9834,58.81349416596268
3166.9416,55.88670871455449
3167.8993,55.85124608656886
3168.8563,60.50723797856473
3169.8127,59.55481552858859
3170.7684,68.04410926961457
3171.7236,63.425249139068654
3172.6782,66.19836439393578
3173.6321,67.31358365694837
3174.5854,69.57103488885525
3175.5381,65.62084537726945
3176.4902,70.61314171409362
3177.4417,72.54804983502197
3178.3926,73.27569496961735
3179.3428,71.39620162196206
3180.2924,74.05969356338147
3181.2415,79.01629385123897
3182.1899,76.46612480230095
3183.1377,75.40930794317093
3184.0848,76.64596403579114
3185.0314,77.32621308801073
3185.9773,82.50017434121929
3186.9227,83.5179662635442
3187.8674,81.0797064981111
3188.8115,81.085511852866
3189.755,89.58549832495784
3190.6979,88.72978110068043
3191.6402,87.86847447047256
3192.5818,89.10169183747527
3193.5229,86.9795457261448
3194.4633,91.60214776992052
3195.4031,88.46960873244625
3196.3423,92.23203846134443
3197.2809,95.88954591954138
3198.2189,88.74223914764299
3199.1563,96.24022522735973
3200.0931,97.18361035297966
3201.0292,95.77249975638856
3201.9648,95.00699769763608
3202.8997,98.83720747904685
3203.834,98.31323145287558
3204.7677,99.13517098300478
3205.7008,97.40312645018474
3206.6333,102.36719724381393
3207.5652,102.7774817792596
3208.4964,101.23407744821696
3209.4271,103.88708061460643
3210.3571,104.28658663000765
3211.2865,107.18268980712939
3212.2154,108.7754834158146
3213.1436,110.01505965407927
3214.0712,109.30150963218452
3214.9982,109.73492336024094
3215.9246,111.81538975534394
3216.8503,111.59299663723966
3217.7755,113.9678307075204
3218.7001,114.13997755184846
3219.624,114.40952161620773
3220.5473,116.27654620518243
3221.4701,118.99113347926146
3222.3922,122.55336443616824
3223.3137,120.4633188837148
3224.2346,120.37107540417944
3225.1549,122.0267113752073
3226.0746,123.33030297073272
3226.9937,122.83192514442288
3227.9121,125.38165161664193
3228.83,128.67955487943473
3229.7473,127.0257061710296
3230.6639,128.27017544285926
3231.5799,131.81303137609925
3232.4954,130.60434136922333
3233.4102,130.09417150257508
3234.3244,132.43258655045435
3235.238,136.36964998621949
3236.151,135.60542395890295
3237.0634,134.88996925384055
3237.9752,136.87334530031393
3238.8864,137.10561017870492
3239.797,138.4868206006619
3240.7069,136.71703190677724
3241.6163,138.79629805277494
3242.5251,143.3246716272087
3243.4332,144.25220383066915
3244.3408,144.0789444305003
3245.2477,142.6549417515239
3246.154,147.63024267777232
3247.0598,146.90489266672836
3247.9649,146.57893569957244
3248.8694,147.8524142884359
3249.7733,146.47536947966086
3250.6766,150.04784084106504
3251.5793,149.81986647571253
3252.4814,152.991482986189
3253.3829,152.11272547688128
3254.2838,155.83362752226154
3255.1841,156.40422117567445
3256.0838,155.67453693212846
3256.9829,154.84460372258974
3257.8814,158.614448921279
3258.7792,153.334098353971
3259.6765,158.95357626029588
3260.5731,158.62290534654272
3261.4692,159.29210672946476
3262.3647,158.71119993958618
3263.2595,160.73020291451
3264.1538,164.74913200472727
3265.0474,161.068001953427
3265.9404,161.03682585630685
3266.8329,165.60561519838427
3267.7247,164.02437985430876
3268.616,163.4931280426734
3269.5066,164.5118663418275
3270.3966,165.08059969518902
3271.286,164.74933140105725
