RamanShift,CorrectedData
30.1047,1909.5304790994176
32.3739,1777.611252255706
34.6426,1647.9420063166892
36.9109,1521.1727044109502
39.1787,1390.6032931876514
41.4461,1260.183704084227
43.7131,1135.5138546320793
45.9796,1005.3436497607714
48.2456,877.1229830447281
50.5112,746.6017380049361
52.7764,621.1797893911527
55.0411,496.2070044871169
57.3054,366.3332443647698
59.5692,238.50836513398244
61.8326,109.93221924129296
64.0955,-11.045343251843917
66.3579,-130.27447338329577
68.6199,-247.20521184795103
70.8815,-348.8362978987092
73.1426,-401.6640012084037
75.4032,-325.4811065752523
77.6634,79.07361382589932
79.9231,1196.0146393764594
82.1824,3783.3564486671003
84.4412,8551.51350832835
86.6995,15168.75024715717
88.9574,21647.331008435387
91.2148,26087.46998375733
93.4717,28076.681148244017
95.7282,28431.178216141765
97.9842,28326.524620930086
100.2398,27705.483511776703
102.4949,27032.1677545841
104.7495,26147.23993819993
107.0036,25263.86238115016
109.2573,24393.547140488365
111.5105,23579.65602062949
113.7632,22718.40058205302
116.0154,21993.792149441877
118.2672,21445.54182029498
120.5185,20812.660472173324
122.7693,20337.50876818249
125.0197,19962.44716330147
127.2696,19515.935909134136
129.519,19256.23505765993
131.7679,18964.604465698907
134.0163,18718.153797508792
136.2642,18377.192527701252
138.5117,18099.879943706437
140.7587,17778.87514918256
143.0052,17476.837066789052
145.2512,17136.32444139658
147.4967,16798.445843107445
149.7417,16497.30967066071
151.9863,16283.674154810971
154.2304,16103.49736133974
156.4739,15867.03719319179
158.717,15670.15139227692
160.9596,15430.997541834564
163.2017,15052.28306840264
165.4433,14709.765244209088
167.6844,14264.051190959033
169.925,13807.147883259939
172.1651,13296.312153078765
174.4047,12930.300694310987
176.6439,12578.520067888963
178.8825,12223.026705442055
181.1206,11935.92691281442
183.3582,11656.276873619954
185.5954,11451.682652113288
187.832,11267.000195986278
190.0681,11094.885338413955
192.3037,11014.09379990137
194.5388,10889.081190004703
196.7734,10804.80300813921
199.0075,10796.514644829342
201.2411,10851.871382551511
203.4742,10832.878395816992
205.7068,10896.69075061835
207.9389,10854.16340461938
210.1704,10962.201206516955
212.4015,10979.908896466333
214.632,11048.341105000756
216.862,11167.20235285438
219.0915,11217.847050277956
221.3205,11371.879495850217
223.549,11530.753875971423
225.777,11756.824263323047
228.0044,12004.044615279032
230.2314,12383.218771645068
232.4578,12747.25045218641
234.6837,12982.793252836125
236.909,13126.500642054785
239.1339,12999.375958475035
241.3582,12687.672409464516
243.582,12249.59307239712
245.8053,11834.940897770015
248.0281,11406.01871358444
250.2503,11074.57922949223
252.472,10799.525041085046
254.6932,10674.408633208755
256.9139,10476.782382713993
259.134,10378.048559707306
261.3536,10270.909329527423
263.5727,10228.666753732587
265.7912,10052.772791171963
268.0092,10002.679298408033
270.2267,9888.138031475566
272.4436,9794.600646382547
274.6601,9641.718700255575
276.8759,9442.493652275249
279.0913,9358.426865204992
281.3061,9238.919607383295
283.5204,9204.92305356439
285.7341,9256.538286113311
287.9473,9361.81629534587
290.16,9496.007979012513
292.3721,9751.814141245519
294.5837,10098.985491217094
296.7947,10388.022640581314
299.0052,10515.526100002406
301.2152,10320.39627626436
303.4246,9887.933470995918
305.6334,9278.48788262187
307.8418,8689.009610687675
310.0495,8193.348661953927
312.2568,7838.054956291126
314.4635,7549.928331636294
316.6696,7358.068547545916
318.8752,7232.275288077186
321.0802,7234.498163706636
323.2847,7290.086712588038
325.4887,7258.4404005302
327.692,7139.458620441055
329.8949,6955.7406926441345
332.0972,6647.335866068395
334.2989,6303.793320085391
336.5001,5936.7621675933315
338.7007,5687.74145845249
340.9008,5496.780183155519
343.1003,5317.577275317668
345.2992,5256.331613586399
347.4976,5150.042023433398
349.6955,5070.207277767038
351.8927,5081.276097995284
354.0895,4977.097154824032
356.2856,5002.219068146431
358.4812,4935.790408084658
360.6763,4909.209694738711
362.8707,4832.175398850697
365.0646,4857.335942070629
367.258,4757.339697726786
369.4508,4718.934990574095
371.643,4766.270097794075
373.8346,4682.593249378917
376.0257,4609.052627658102
378.2162,4480.096368135186
380.4062,4303.1725602232
382.5956,4147.929248534227
384.7844,3987.964434648633
386.9726,3801.0260786675044
389.1603,3721.8621008122973
391.3474,3624.420383294211
393.5339,3575.2987711058286
395.7199,3488.9450729955297
397.9052,3457.507061958715
400.09,3395.3324761013355
402.2743,3436.869018954285
404.4579,3472.414360095134
406.641,3596.116134732765
408.8235,3790.9719433519185
411.0054,3999.6293504761816
413.1868,4474.385882719434
415.3675,4781.989026699257
417.5477,4890.386224289392
419.7273,4923.524869543693
421.9064,4748.152307612159
424.0848,4561.715834409537
426.2627,4292.212698369072
428.4399,3966.59010230684
430.6166,3567.2952061168144
432.7928,3194.075130027086
434.9683,2830.0769585927956
437.1432,2579.3477444283417
439.3176,2334.0345118473524
441.4914,2173.2842593699934
443.6645,2152.243962176086
445.8371,2011.3105737126061
448.0091,1911.331025904099
450.1806,1848.9522305620158
452.3514,1723.7710803844966
454.5216,1688.3844495801677
456.6913,1610.5891951199483
458.8603,1603.732157090908
461.0288,1662.9101594742315
463.1967,1653.220010213794
465.3639,1766.8585006243666
467.5306,1799.8224054885322
469.6967,1931.2584819202893
471.8622,2061.11346903543
474.0271,2192.134086637172
476.1914,2238.017033917604
478.3551,2198.9089881474865
480.5182,2125.056604217425
482.6807,2157.6065150289323
484.8426,2228.2553322329695
487.0039,2458.199645904446
489.1647,2825.4360238357185
491.3248,3256.4110092371666
493.4843,3439.0211170648254
495.6432,3410.0128297106166
497.8015,3270.0325951762643
499.9592,3258.5268273633737
502.1163,3217.7419074732315
504.2728,2953.424184121868
506.4287,2667.6699737478884
508.5839,2203.1755632556815
510.7386,1845.737212872933
512.8927,1643.2511607955894
515.0461,1531.7636267622183
517.199,1418.2208140788898
519.3512,1402.4189107340353
521.5029,1466.4540905338908
523.6539,1507.022513260501
525.8043,1506.0203240313785
527.9541,1518.8436528938219
530.1033,1523.7386148349287
532.2519,1531.1513096533672
534.3999,1667.5278219104475
536.5472,1959.1142208559686
538.694,2380.4565590644597
540.8401,2978.700869519307
542.9856,3472.8931613993554
545.1305,3628.179414096445
547.2748,3501.0555722734935
549.4185,3122.2175443116394
551.5615,2733.661203581465
553.704,2578.6323922313895
555.8458,2510.626925073233
557.987,2520.9905911324677
560.1276,2500.51915432834
562.2675,2502.508353370191
564.4069,2482.8539019621676
566.5456,2456.451488783354
568.6837,2371.4967776843114
570.8212,2078.535407951076
572.958,1733.7629951547497
575.0942,1499.8751340810777
577.2299,1331.3174021781888
579.3648,1246.8853618954709
581.4992,1279.2245623691342
583.6329,1504.33054026655
585.766,1713.9488194628539
587.8985,1820.1749087898716
590.0304,1766.6542999399462
592.1616,1743.382466403691
594.2922,1664.204864005158
596.4222,1481.666931134594
598.5515,1315.3640895401986
600.6802,1159.2417461535224
602.8083,931.3452947524747
604.9358,900.1701175225462
607.0626,809.0615873357965
609.1888,798.2650680625884
611.3144,756.0759154826883
613.4393,611.2894773932167
615.5636,507.8010940305612
617.6873,408.4560995182219
619.8103,370.9998229017001
621.9327,275.72758914193764
624.0544,242.88471948989172
626.1756,219.5665324392612
628.2961,201.86834405489208
630.4159,106.43546820599295
632.5351,100.81321674308856
634.6537,42.246900452355476
636.7716,-9.368170888159511
638.8889,3.663312077125738
641.0056,60.53675229181681
643.1216,84.19751610300955
645.237,124.8409692524474
647.3518,119.41247663991089
649.4659,144.20740191677396
651.5793,121.37110754029345
653.6922,110.34895452566343
655.8043,103.5863026743682
657.9159,96.92851068441814
660.0268,15.570936217944109
662.137,-31.891064032195573
664.2466,-21.36228892681538
666.3556,-45.04721873500239
668.4639,-63.55012031658771
670.5716,-11.424810509699455
672.6786,52.025528713231324
674.785,84.5478295136054
676.8907,145.2890235325758
678.9958,272.9460415658141
681.1002,195.66581295610376
683.204,212.19526431677878
685.3072,186.38132030452834
687.4097,120.4209034541127
689.5115,65.51093443647187
691.6127,63.94833271834068
693.7132,-28.41998288862669
695.8131,-34.54709421227017
697.9123,-57.88579916481831
700.0109,-100.78855053303414
702.1089,-93.9072228245459
704.2061,-53.14268366938268
706.3028,-34.0948625644196
708.3987,11.486841888865456
710.4941,146.303371696642
712.5887,316.755554111518
714.6827,607.2442149230919
716.7761,971.7701767534309
718.8688,1307.1842561521553
720.9608,1505.3872599511997
723.0522,1633.7299819106738
725.1429,1416.4632007368273
727.233,1158.0376787985952
729.3224,908.0541643003053
731.4112,649.0133938659164
733.4993,403.3660950388585
735.5867,234.51298887242956
737.6735,159.90479238629268
739.7596,128.7922202549853
741.845,78.02598555400618
743.9298,11.656800070926693
746.014,48.185374813088856
748.0974,36.262304336374655
750.1802,45.188182714828145
752.2624,75.5636036598844
754.3439,99.38916043109202
756.4247,124.31544553239655
758.5048,277.84305047384987
760.5843,488.0225655223694
762.6631,751.2545781664521
764.7413,1204.489671014384
766.8188,1768.9784191619
768.8956,2213.421385659847
770.9718,2539.319115869308
773.0473,2423.8721330171393
775.1221,2127.1809349370233
777.1962,1733.5459952239144
779.2697,1509.217766200978
781.3426,1565.1466828559278
783.4147,1807.083165084303
785.4862,2191.2776171301994
787.557,2244.7304251668647
789.6271,1869.0419534547873
791.6966,1356.912543807157
793.7654,784.992519346757
795.8335,520.6821896272631
797.901,346.63185635242917
799.9678,301.9918160191992
802.0339,317.81236165821247
804.0993,327.9937832802025
806.1641,352.9363677177971
808.2282,306.84039852369824
810.2916,257.00615572126844
812.3544,165.53391626547455
814.4164,76.62395454122816
816.4778,158.47654327810233
818.5385,129.5919544394601
820.5986,204.820458403894
822.658,303.3623242540889
824.7166,419.51781902453877
826.7747,619.5872067161217
828.832,847.1707471345508
830.8886,973.6186938896899
832.9446,1108.7812921196928
834.9999,1139.4087772265375
837.0545,1230.9513735244182
839.1085,1196.5592939334238
841.1618,1193.3827390641636
843.2143,1136.4218975616423
845.2662,1055.326946137062
847.3175,1060.6980501373946
849.368,960.0853643563569
851.4179,852.339032980708
853.467,680.4091905963396
855.5155,592.3459632657723
857.5633,477.3494702474345
859.6105,411.81982487631467
861.6569,366.6071357138935
863.7027,334.51150720347505
865.7478,324.58304012229564
867.7922,375.77183190249343
869.8359,411.8279767303866
871.8789,522.3515650345907
873.9212,715.092683125451
875.9629,870.8014120898042
878.0039,1109.477825863596
880.0441,1230.5219896747622
882.0837,1224.8339576564686
884.1226,1139.7637716366735
886.1609,1057.91146119501
888.1984,991.3270445134949
890.2352,1028.1105291950225
892.2714,961.111912929242
894.3069,1004.8811831247003
896.3416,941.8183175788545
898.3757,934.2232840403485
900.4091,910.9460408396444
902.4418,926.3865369649866
904.4739,943.0947122951729
906.5052,995.4704974451233
908.5358,874.9638135988353
910.5658,778.6245719856051
912.595,613.6526750851117
914.6236,466.3480175908153
916.6515,430.1104880596504
918.6786,426.5899703851028
920.7051,526.7863441595582
922.7309,665.7994847094997
924.756,727.7792620935761
926.7804,830.2255397124463
928.8041,766.7381736889838
930.8272,831.5670118438211
932.8495,779.1118943302135
934.8711,673.8726529857704
936.892,549.8491118569727
938.9123,428.6410882515811
940.9318,337.7983939788828
942.9506,244.42083656175237
944.9688,156.15822014507648
946.9862,74.46034642957238
949.003,6.8270155543687
951.019,21.858026913996582
953.0344,44.25311170109126
955.0491,65.71200088970727
957.063,218.93442501138634
959.0763,413.020113940569
961.0888,408.21879536236884
963.1007,564.8301928316978
965.1119,582.7040258212874
967.1223,605.5400081555745
969.1321,612.4878478319806
971.1412,729.2972467925465
973.1495,710.8679008544423
975.1572,778.3494985418984
977.1641,865.6917212704575
979.1704,858.4442426721725
981.1759,807.5067277221824
983.1808,932.2288328111972
985.1849,1027.4602062548583
987.1884,1150.3004870465447
989.1911,1351.5993039050336
991.1932,1455.0062740461035
993.1945,1516.771001169538
995.1951,1454.5930744250581
997.1951,1449.7720677947036
999.1943,1384.7075407145821
1001.1928,1310.5990381230913
1003.1906,1332.0960911115617
1005.1877,1394.4482176653546
1007.1841,1353.904922448888
1009.1798,1283.4156961820881
1011.1748,1119.0300160458355
1013.1691,918.0473463868802
1015.1627,743.4171403616565
1017.1556,513.9388419461393
1019.1477,424.5118876821325
1021.1392,329.585708972063
1023.1299,335.6597329732722
1025.12,338.4333835472353
1027.1093,372.40608119884564
1029.0979,492.27724304869116
1031.0859,559.6962824933034
1033.0731,548.1126080064787
1035.0596,462.5756224650431
1037.0454,264.4347232647269
1039.0304,228.43930317551713
1041.0148,101.58875232305218
1042.9985,18.782458548579598
1044.9814,1.8698086774893454
1046.9636,-38.84981065265674
1048.9452,-45.87703148367655
1050.926,-11.96209774779345
1052.9061,-20.004795065673534
1054.8855,-19.054789556634205
1056.8642,26.838452507890906
1058.8421,124.32565521381912
1060.8194,178.40754237867077
1062.7959,202.18483657675824
1064.7717,224.8582585983022
1066.7469,223.0285272116962
1068.7213,271.64635893676314
1070.695,260.46246806305135
1072.6679,173.5275661636515
1074.6402,178.69236220703897
1076.6117,182.357563426438
1078.5826,206.923875268134
1080.5527,247.09200135486026
1082.5221,344.41264324011354
1084.4908,508.48650000647467
1086.4587,717.1142672924179
1088.426,867.7966356515572
1090.3925,891.8842884663864
1092.3584,849.2779004414442
1094.3235,680.5281373624202
1096.2879,639.1856565222406
1098.2515,626.0011084085418
1100.2145,747.4251371171304
1102.1767,826.1083804837945
1104.1382,979.551468870075
1106.099,1206.205024376457
1108.0591,1410.3196593079156
1110.0185,1536.2959739073885
1111.9771,1620.3345543146352
1113.9351,1406.9859713064616
1115.8923,1116.0507794563455
1117.8488,822.0295192679223
1119.8045,558.7227200843154
1121.7596,479.4809030283541
1123.7139,400.85458363564976
1125.6675,424.2442726469926
1127.6204,525.6504767946608
1129.5726,496.3236985684889
1131.524,492.4144352018229
1133.4748,532.1731789647638
1135.4248,540.2504172032932
1137.3741,542.1466319416468
1139.3226,503.6622998015737
1141.2705,491.6478919833753
1143.2176,363.25387465072345
1145.164,418.23070905084387
1147.1097,451.1288527984034
1149.0546,483.29875932577124
1150.9989,445.44087755405417
1152.9424,315.205651571363
1154.8852,144.4435210114243
1156.8272,101.75492235592537
1158.7686,82.69029064212373
1160.7092,15.10005988973353
1162.6491,-8.215336708432005
1164.5883,106.69453388946204
1166.5267,202.18018679643137
1168.4644,333.44213605857294
1170.4014,565.680893700166
1172.3377,829.096968411086
1174.2732,1048.8408632243954
1176.2081,1298.6630728821983
1178.1421,1541.8140816382038
1180.0755,1796.644360759492
1182.0082,1880.6543660950265
1183.9401,1916.1945355273347
1185.8713,1735.4652881324255
1187.8017,1565.3170238243583
1189.7315,1315.6001251625567
1191.6605,1028.964959053279
1193.5888,813.4118792467925
1195.5163,715.2912292037145
1197.4432,635.7033442505563
1199.3693,610.8985525609278
1201.2947,557.1771759513977
1203.2193,538.9895301295765
1205.1432,578.4359252313043
1207.0664,595.4666660025214
1208.9889,666.6820514048377
1210.9106,724.9823744451896
1212.8316,767.0679214637239
1214.7519,851.9389715507677
1216.6715,883.6957961259686
1218.5903,880.1886580896135
1220.5084,855.9678115050338
1222.4257,909.633501633667
1224.3424,842.9359651772902
1226.2583,874.7254297413347
1228.1735,1012.0021145018909
1230.0879,1130.7162298877884
1232.0016,1214.4679762078413
1233.9146,1271.5575424637136
1235.8269,1213.7351055123836
1237.7384,1108.6008294952699
1239.6492,911.8048664164526
1241.5592,850.8473571940121
1243.4686,783.9784336279918
1245.3772,769.1982190099698
1247.285,732.4568287917609
1249.1922,764.3043707332035
1251.0986,779.7409452695865
1253.0042,816.8666451931495
1254.9092,837.681555498737
1256.8134,900.1857530125199
1258.7169,1086.229306183879
1260.6196,1266.4122744603374
1262.5216,1509.5347064271446
1264.4229,1634.0466380054168
1266.3234,1830.8480900209215
1268.2232,1907.4390669589775
1270.1223,1917.119554996436
1272.0207,1936.0395212357653
1273.9183,1922.6489136082637
1275.8151,1860.097660684838
1277.7113,1801.035671809932
1279.6067,1704.312837727004
1281.5014,1617.8290311691817
1283.3953,1591.9341078264697
1285.2885,1592.9779072105957
1287.181,1649.1102529139607
1289.0727,1763.6809525991848
1290.9637,1831.9897974378
1292.854,2027.936560964532
1294.7435,2134.020998394215
1296.6323,2367.592844662333
1298.5204,2631.051813364138
1300.4077,2837.347594418996
1302.2943,3069.0298514357382
1304.1802,3152.0482196497396
1306.0653,3009.5023036060884
1307.9497,2835.741676329384
1309.8333,2730.8158807492036
1311.7162,2688.024431437727
1313.5984,2707.51681565899
1315.4798,2787.4424937967815
1317.3605,2856.950899159736
1319.2405,2965.541437182059
1321.1197,2921.0134847284608
1322.9982,2851.4663890082556
1324.876,2805.6994680206153
1326.753,2727.5120112500736
1328.6293,2747.3532801241818
1330.5048,2775.572508795378
1332.3796,2771.2689039425786
1334.2537,2708.1416444889655
1336.127,2711.6898816450594
1337.9996,2696.9627395399693
1339.8714,2680.109315185913
1341.7426,2625.078678625501
1343.6129,2642.0698731002376
1345.4826,2608.2819156008627
1347.3515,2669.0137966974107
1349.2196,2603.714480877121
1351.087,2592.582905937097
1352.9537,2707.2179836373234
1354.8197,2821.218599811935
1356.6849,3012.033613222915
1358.5493,3145.0618544200697
1360.4131,3204.752123832868
1362.276,3134.5531904401687
1364.1383,3029.013791173329
1365.9998,2814.982631618186
1367.8606,2511.458387070459
1369.7206,2250.9397046760387
1371.5799,2053.6252064662367
1373.4384,1913.7634919629763
1375.2962,1813.2531401519282
1377.1533,1549.542710881149
1379.0096,1246.680745866186
1380.8652,986.5657713271703
1382.7201,763.9963010174251
1384.5742,545.6708388246243
1386.4275,396.1378809964863
1388.2802,268.34591832403385
1390.132,187.49343763691286
1391.9832,153.07892308130977
1393.8336,109.75085692849098
1395.6832,63.95771991894617
1397.5322,-6.2520083043255
1399.3803,13.370151262104628
1401.2278,-10.327259920783035
1403.0745,-20.245700525711072
1404.9204,-27.28652605608295
1406.7656,30.74911023923596
1408.6101,39.9603277037786
1410.4538,55.246245373584316
1412.2968,110.10598188508993
1414.139,171.83865532226446
1415.9805,266.5433826680255
1417.8213,331.66927918690453
1419.6613,483.26545747801356
1421.5006,680.9810268237798
1423.3391,950.1150916739753
1425.1769,1270.266749668568
1427.0139,1763.8350889463763
1428.8502,2393.969184943566
1430.6858,2988.3680954579613
1432.5206,3391.9808543476847
1434.3547,3662.6564655871916
1436.188,3690.343899231153
1438.0206,3684.34208870769
1439.8524,3546.449930541492
1441.6835,3446.7162844138347
1443.5139,3380.6399745415074
1445.3435,3332.7697906741414
1447.1724,3314.054488754973
1449.0005,3300.7427913995434
1450.8279,3158.8833880828606
1452.6545,3204.974935272505
1454.4804,3231.766057847217
1456.3056,3250.4553486360037
1458.13,3151.5413681502105
1459.9536,3024.4726443966447
1461.7766,2665.647673866715
1463.5987,2309.2149228070994
1465.4202,1964.2728308079986
1467.2409,1600.7198143674632
1469.0608,1358.8042703408282
1470.88,1104.9745795762283
1472.6984,929.6291093337713
1474.5161,717.316215823821
1476.3331,611.0342459604526
1478.1493,469.9815394845882
1479.9648,417.6564300268092
1481.7795,320.10724651788587
1483.5935,313.8823137120289
1485.4067,286.2799531623714
1487.2192,235.94848328323496
1489.031,260.73621962613834
1490.842,214.6914753831261
1492.6522,224.61256113888703
1494.4618,183.19778533120734
1496.2705,213.5454541517447
1498.0785,189.2038719601842
1499.8858,177.47134098076276
1501.6924,188.44616154567302
1503.4981,178.62663221240655
1505.3032,176.91104965401246
1507.1075,151.24770875726972
1508.911,168.9849026398624
1510.7138,139.67092290699838
1512.5159,104.30405947404324
1514.3172,80.93260085965994
1516.1178,71.45483453947236
1517.9176,80.8190471797825
1519.7166,22.523524732343503
1521.515,44.466552340722046
1523.3126,69.84641492325136
1525.1094,58.31139695359889
1526.9055,47.90978220697252
1528.7008,-4.510146124534003
1530.4954,-41.30010532790038
1532.2893,-21.761767633766794
1534.0824,-19.89639268472638
1535.8747,-0.35502272332632856
1537.6663,-41.538501227150846
1539.4572,-22.297668127128418
1541.2473,31.267051615433957
1543.0367,1.9054557929266593
1544.8253,11.21734188506889
1546.6132,42.65250735254085
1548.4003,40.110749543850034
1550.1867,76.94186538099711
1551.9723,116.69565138487633
1553.7572,186.42190330696758
1555.5414,259.0704157318014
1557.3247,329.7409813796912
1559.1074,387.9833903802555
1560.8893,491.59742956570517
1562.6705,576.3328818884329
1564.4509,642.5395253848601
1566.2305,719.9171323280752
1568.0094,848.7154685657842
1569.7876,911.0842927465219
1571.565,953.2233550316723
1573.3417,989.8823964717831
1575.1176,1001.211148585171
1576.8928,992.1593329913321
1578.6672,929.2266612976564
1580.4409,838.4628351899446
1582.2138,754.467547061744
1583.986,672.3404809219683
1585.7575,612.2313132348663
1587.5282,563.7397137412827
1589.2981,577.9153460597518
1591.0673,524.2078681714156
1592.8358,593.5669322782669
1594.6035,613.0921853402269
1596.3704,623.5332683815632
1598.1366,663.289816295619
1599.9021,761.9614577404082
1601.6668,805.5978147410497
1603.4308,878.3485017030471
1605.194,1000.9131249759484
1606.9564,1118.5912821258153
1608.7182,1316.6325607095914
1610.4791,1463.5865370983247
1612.2394,1636.0027744967592
1613.9988,1811.2808214737688
1615.7576,2064.6202102382194
1617.5156,2310.4204548861726
1619.2728,2508.281048867493
1621.0293,2675.201462527857
1622.785,2690.9311411301205
1624.54,2627.3695031851366
1626.2942,2519.4159402944497
1628.0477,2307.2198177859173
1629.8005,2086.430475793244
1631.5525,1879.4972313779326
1633.3037,1722.6193807372001
1635.0542,1618.6462012732845
1636.804,1508.6769531622467
1638.553,1450.7108803936899
1640.3013,1474.9972118704554
1642.0488,1464.885161988279
1643.7955,1503.5239303929266
1645.5416,1577.912702081314
1647.2868,1651.6506470151198
1649.0313,1777.5869193768995
1650.7751,1922.1706568327027
1652.5181,2096.4009792727156
1654.2604,2313.2269873654277
1656.0019,2600.497760815315
1657.7427,2934.462356194599
1659.4828,3263.8198040705174
1661.222,3462.9691056656848
1662.9606,3492.659229564528
1664.6984,3317.889109721784
1666.4354,2962.0076451656023
1668.1717,2489.713701745248
1669.9072,2007.5061156899192
1671.642,1614.5836983316785
1673.3761,1330.3452409275324
1675.1094,1043.1895185886551
1676.8419,861.9652931227811
1678.5737,714.5713159057468
1680.3048,583.2563296937515
1682.0351,469.269070097278
1683.7646,395.2582668942523
1685.4934,348.57264516991563
1687.2215,305.06092605693084
1688.9488,271.7218272022401
1690.6754,209.30406320216935
1692.4012,193.55634593584
1694.1263,182.57738518933547
1695.8506,200.41588881317693
1697.5742,164.87056283211678
1699.297,154.7901112667514
1701.0191,115.17323648897582
1702.7404,101.61863932279266
1704.461,73.27501944046344
1706.1808,65.44107549807995
1707.8999,90.86550541897486
1709.6182,56.597006472080466
1711.3358,34.03427501767146
1713.0527,40.22600685006
1714.7688,22.120897423217684
1716.4841,21.617641788856417
1718.1987,45.56493477748518
1719.9126,9.51147100343951
1721.6257,20.705944625417033
1723.338,23.147049707000406
1725.0496,2.7334801047236397
1726.7605,-10.98607055634784
1728.4706,2.7370913215236214
1730.18,-31.44823091309081
1731.8886,3.3567660610151506
1733.5964,8.301199732868554
1735.3036,-17.165812442066454
1737.0099,15.004846908665058
1738.7156,8.062466643970765
1740.4204,-30.74366452727736
1742.1246,-5.864257976831141
1743.8279,-7.249717947233876
1745.5306,2.149609902910015
1747.2325,-2.366547660329161
1748.9336,-13.79846389236991
1750.634,-27.246388406829283
1752.3336,-33.51043297067372
1754.0325,7.80956284054264
1755.7307,-4.935905779515451
1757.4281,18.053656284728277
1759.1247,49.42879345853544
1760.8206,28.44004998663877
1762.5158,41.887969619483556
1764.2102,13.773095823111362
1765.9039,38.09597164469051
1767.5968,30.457139993652163
1769.289,23.707143398479275
1770.9804,28.546524083089025
1772.6711,52.77582403432825
1774.361,33.0455849535856
1776.0502,59.10634801449669
1777.7386,40.95865406023859
1779.4263,70.65304334293342
1781.1132,91.49005570512054
1782.7994,89.32023028280673
1784.4849,72.94410529710694
1786.1696,71.36221807593756
1787.8535,79.97510521777349
1789.5367,85.98330260747207
1791.2192,124.38734533015122
1792.9009,68.78776761109566
1794.5818,105.78510243172605
1796.2621,117.57988208558436
1797.9415,106.57263780837184
1799.6202,98.86389965998751
1801.2982,104.70419663460689
1802.9755,109.2940567377691
1804.6519,130.33400692797022
1806.3277,132.6245730707751
1808.0027,109.26627972840743
1809.6769,144.5596501368509
1811.3504,137.60520643942618
1813.0231,132.85346933385972
1814.6951,141.9049581418294
1816.3664,157.56019085648404
1818.0369,158.0196840519211
1819.7067,140.83395272663984
1821.3757,151.8535102989481
1823.044,178.42886877881938
1824.7115,191.06053865769263
1826.3783,171.04902864273117
1828.0443,158.29484553049224
1829.7096,158.14849440704438
1831.3741,199.66047877551046
1833.0379,191.18130055753227
1834.701,207.6614596781501
1836.3633,209.25145415059524
1838.0248,208.75177991148848
1839.6856,190.26293080494452
1841.3457,211.58539858756012
1843.005,218.3696731133041
1844.6636,221.3162421202942
1846.3214,216.97559116295452
1847.9785,238.59820358255274
1849.6349,244.23456055059887
1851.2904,248.63514085262614
1852.9453,247.35042083182634
1854.5994,248.13087434504087
1856.2528,278.7269727756111
1857.9054,256.4891850255708
1859.5572,289.8679772096839
1861.2083,278.9638128778306
1862.8587,308.42715268121356
1864.5084,303.2584544813999
1866.1572,283.008173055694
1867.8054,276.3267601488078
1869.4528,299.56466467537757
1871.0994,300.2723327867752
1872.7453,311.8002076387311
1874.3905,301.89872938425015
1876.0349,305.66833505834256
1877.6786,333.25945867703194
1879.3215,323.3725311996668
1880.9637,303.8579802530048
1882.6051,323.5162302300869
1884.2458,336.0977024853737
1885.8858,316.60281513817154
1887.525,319.8319829468164
1889.1634,300.0856175036233
1890.8011,302.91412720258177
1892.4381,327.4679174368348
1894.0743,330.69739057037896
1895.7098,333.10294569254256
1897.3446,341.8849785856828
1898.9786,322.9938817011289
1900.6118,330.8300440713674
1902.2443,327.7938514989437
1903.8761,335.4356864781057
1905.5071,316.9059282251683
1907.1374,306.7549526020912
1908.7669,327.78313230177446
1910.3957,319.24083694957426
1912.0237,307.8784328930142
1913.651,319.79628328721446
1915.2776,338.3947482085159
1916.9034,313.87418453529335
1918.5285,298.53494576198227
1920.1528,284.1273822442745
1921.7764,303.15184135252184
1923.3992,293.5086676158053
1925.0213,266.99820253169037
1926.6427,257.4707846626543
1928.2633,245.6267499011983
1929.8832,272.9164315651169
1931.5023,271.3901605159426
1933.1207,273.29826488604795
1934.7383,264.29107009390464
1936.3552,243.3188988250049
1937.9714,254.5320711219356
1939.5868,258.53090459409486
1941.2015,241.46571430556287
1942.8154,221.53681273511484
1944.4286,224.7945099468743
1946.041,211.68911378959638
1947.6528,203.32092986409407
1949.2637,202.44026165429568
1950.8739,191.14741061092172
1952.4834,198.5926761602941
1954.0921,222.6263558172668
1955.7001,205.69874511076705
1957.3074,210.3601373434658
1958.9139,198.01082376104387
1960.5197,193.10109350558287
1962.1247,187.58123373906346
1963.729,162.85152969245883
1965.3325,151.71226472092985
1966.9353,168.56372055113025
1968.5374,178.9561773925925
1970.1387,162.23991376922095
1971.7393,156.96520641536063
1973.3392,139.93233044295812
1974.9383,125.79155939430802
1976.5366,148.2431654123884
1978.1342,147.68741938225594
1979.7311,137.92459070654604
1981.3273,145.85494731102244
1982.9227,130.07875574220088
1984.5173,135.8962810880539
1986.1112,129.507787135768
1987.7044,124.5135363135696
1989.2968,125.81378975461394
1990.8885,140.55880734691982
1992.4795,134.74884772037512
1994.0697,134.13416809928185
1995.6592,129.4150243604554
1997.2479,130.4916710393718
1998.8359,136.91436137736036
2000.4232,117.63334731083705
2002.0097,122.49887940707231
2003.5955,103.86120705700887
2005.1805,125.2205784266007
2006.7648,120.57724064319518
2008.3484,123.58143958193978
2009.9312,130.6834199122086
2011.5133,124.9834250675649
2013.0946,136.8816971747401
2014.6752,130.87847711063569
2016.2551,130.5740043833357
2017.8342,106.76851719214028
2019.4126,114.06225243061908
2020.9902,105.70544592465194
2022.5672,94.44833235949955
2024.1433,119.49114536337402
2025.7188,124.43411762000505
2027.2935,104.3274806182144
2028.8674,101.72146460248132
2030.4406,106.31629877401701
2032.0131,107.26221131681905
2033.5849,95.95942935172388
2035.1559,110.30817892695177
2036.7261,115.30868513112455
2038.2957,100.76117194978815
2039.8645,95.96586221540474
2041.4325,133.57297775282768
2042.9998,121.68273942725409
2044.5664,135.44536676814823
2046.1323,121.36107808814904
2047.6974,121.68009034544593
2049.2617,118.15261928461769
2050.8254,131.77887943344012
2052.3883,116.65908413816578
2053.9504,122.34344542726285
2055.5118,124.68217416260904
2057.0725,122.87547998264745
2058.6325,114.4235712790005
2060.1917,106.97665521453928
2061.7502,110.38493780790122
2063.3079,118.94862400796228
2064.8649,93.96791765974467
2066.4212,113.5930214187938
2067.9767,113.97413700097513
2069.5315,104.56146498622729
2071.0856,101.30520481475105
2072.6389,97.80555488113532
2074.1915,108.56271256691798
2075.7433,71.72687427558321
2077.2945,88.74823532498795
2078.8448,75.5269903157232
2080.3945,65.56333296090179
2081.9434,74.40745621836868
2083.4916,69.85955239033501
2085.039,65.96981303494613
2086.5857,68.98842901175067
2088.1317,75.6655905205971
2089.677,86.551487071456
2091.2215,81.49630741764577
2092.7652,69.45023944697186
2094.3083,61.51347023227572
2095.8506,85.83618615190062
2097.3921,81.66857296905255
2098.933,99.01081558857823
2100.4731,82.41309809863924
2102.0124,100.47560359729232
2103.5511,103.39851435846867
2105.089,104.13201165134615
2106.6261,89.77627571111861
2108.1626,109.83148573166181
2109.6983,100.44782000908799
2111.2332,105.37545574119576
2112.7675,109.71456912130634
2114.301,115.81533528898672
2115.8337,111.82792828666243
2117.3657,110.00252099860609
2118.897,112.98928519081437
2120.4276,120.6383915292572
2121.9575,118.60000955001397
2123.4866,127.3743075827847
2125.0149,107.71145277126925
2126.5426,96.71161098542689
2128.0695,110.62494701810192
2129.5956,125.35162469502484
2131.1211,116.44180673567917
2132.6458,121.24565460603253
2134.1698,103.4633286076355
2135.693,121.69498782958317
2137.2155,120.04079032633854
2138.7373,120.65089293541587
2140.2584,109.7254512939262
2141.7787,116.76461983247236
2143.2983,116.91855188440468
2144.8171,93.78739961542851
2146.3353,102.47131402206514
2147.8527,107.42044516296482
2149.3693,111.43494207206413
2150.8853,99.2649527090989
2152.4005,98.11062391945916
2153.9149,102.92210155588828
2155.4287,120.89953049002588
2156.9417,120.19305456429538
2158.454,125.45281641212205
2159.9655,97.6289574650059
2161.4764,111.3716178999216
2162.9865,114.3309369175563
2164.4958,128.3570526048843
2166.0045,114.30010190557095
2167.5124,107.26022047971037
2169.0195,107.58754284439829
2170.526,122.48220244413005
2172.0317,121.84433164752454
2173.5367,113.82406159838001
2175.0409,115.07152222205468
2176.5445,128.88684230566878
2178.0473,127.3701494856291
2179.5494,95.82157010947685
2181.0507,113.94122925105194
2182.5513,109.32925102597937
2184.0512,107.63575841047259
2185.5504,106.4108732874547
2187.0488,99.70471646349279
2188.5465,98.1174076810471
2190.0435,96.59906568553379
2191.5397,96.74980824119757
2193.0353,88.81975214629483
2194.5301,93.40901323158687
2196.0241,77.667706439639
2197.5175,95.84594577892722
2199.0101,83.29384448125529
2200.502,81.0115148199684
2201.9931,68.79906823547435
2203.4835,71.05661535806985
2204.9733,85.0342661300624
2206.4622,81.13212978319461
2207.9505,74.95031469886544
2209.438,75.43892844715583
2210.9248,70.0480778486426
2212.4109,72.77786896951511
2213.8962,52.77840717548179
2215.3809,57.499797104474055
2216.8648,63.09214286664064
2218.3479,61.805547997132635
2219.8304,69.04011540018064
2221.3121,61.79594736196259
2222.7931,67.0731454782549
2224.2733,55.02181072687381
2225.7529,71.89204341490631
2227.2317,49.5339432992223
2228.7098,74.09760941777085
2230.1872,54.2331403131634
2231.6638,78.64063378703668
2233.1397,54.47018709869826
2234.6149,62.82189672105187
2236.0894,48.895858582302935
2237.5632,61.2921679824417
2239.0362,56.01091973250004
2240.5085,55.752208030592556
2241.9801,39.01612651472351
2243.4509,64.00276826537856
2244.921,59.362225972880424
2246.3904,36.54459168752328
2247.8591,39.649956865978766
2249.3271,36.278412599473995
2250.7943,45.83004958273932
2252.2608,40.65495814772157
2253.7266,39.90322816806565
2255.1917,40.62494911087015
2256.656,49.020210044202486
2258.1197,48.539099629879274
2259.5826,43.13170603951903
2261.0447,45.448116959351864
2262.5062,44.488419644295846
2263.9669,45.05270089478745
2265.4269,46.69104706638018
2266.8862,53.80354406410606
2268.3448,55.39027732608565
2269.8026,77.00133175240762
2271.2598,55.78679168925919
2272.7162,31.396740712814335
2274.1719,45.93126184138555
2275.6268,51.49043777931911
2277.0811,58.124350771649915
2278.5346,50.08308254850817
2279.9874,54.66671425878121
2281.4395,58.67532655052992
2282.8908,58.90899952514383
2284.3414,57.317812697262525
2285.7914,65.30184499244069
2287.2406,53.76117476305308
2288.689,64.1458797084556
2290.1368,69.70603699039384
2291.5838,56.39172312915662
2293.0302,74.10301394797489
2294.4758,55.23998470616152
2295.9206,64.30270992200121
2297.3648,57.691263561380765
2298.8082,52.0057189471604
2300.251,58.546148825286764
2301.693,56.112625421651956
2303.1343,77.15522037668597
2304.5748,68.27400476969251
2306.0147,70.36904890842425
2307.4538,61.04042241789193
2308.8922,58.73819421941698
2310.3299,62.0124326239179
2311.7669,60.8132053549316
2313.2031,48.94057951587274
2314.6387,45.89462160202311
2316.0735,53.92539761926082
2317.5076,53.4329731145167
2318.941,49.46741309547133
2320.3737,63.77878203547334
2321.8056,55.567143913198834
2323.2369,49.13256206953565
2324.6674,44.27509928970085
2326.0972,48.24481786758588
2327.5263,62.44177965433528
2328.9547,66.21604601864647
2330.3823,66.26767770479864
2331.8092,72.89673479491239
2333.2355,71.10327670843344
2334.661,66.88736213584207
2336.0858,70.49904905658514
2337.5098,72.68839478123573
2338.9332,78.30545591537384
2340.3558,75.25028833769693
2341.7778,85.12294714385234
2343.199,71.57348667698398
2344.6195,74.1019604290068
2346.0393,74.45842117609982
2347.4583,86.49292095342435
2348.8767,77.15551105155964
2350.2943,85.74624189615815
2351.7113,80.96516314131395
2353.1275,77.41232358366187
2354.543,69.63777121018484
2355.9578,69.39155323374598
2357.3718,66.22371617083263
2358.7852,69.3843058440184
2360.1978,73.42336741364124
2361.6098,82.59094534619999
2363.021,78.53708337395938
2364.4315,82.2118244032763
2365.8413,75.66521055514113
2367.2504,74.19728312842471
2368.6587,79.45808266534868
2370.0664,69.39764896616362
2371.4733,62.516021036538405
2372.8795,70.66323718816557
2374.285,58.039335107578154
2375.6899,70.24435177467512
2377.0939,62.228323588966305
2378.4973,55.09128624751702
2379.9,64.53327482511577
2381.3019,66.15432384564156
2382.7032,50.25446718764397
2384.1037,67.63373806812706
2385.5035,53.442169201555316
2386.9027,48.92979262605468
2388.3011,61.3466398453279
2389.6987,72.44274187377869
2391.0957,75.01812911234492
2392.492,62.87283123753332
2393.8876,50.80687717567071
2395.2824,44.47029522436196
2396.6765,56.86311317314494
2398.07,42.035358366857054
2399.4627,49.63705758170363
2400.8547,54.818237173537
2402.246,47.57892300184403
2403.6366,33.56914037792694
2405.0265,40.68891413729989
2406.4156,47.538268779785994
2407.8041,50.96722839831955
2409.1918,35.0758166104506
2410.5789,43.86405652405392
2411.9652,41.28197089625246
2413.3508,44.22958204552697
2414.7358,41.45691187754255
2416.12,37.51398185566359
2417.5035,53.6008130286873
2418.8863,44.11742607027509
2420.2684,34.16384111808566
2421.6497,27.890077868597018
2423.0304,39.44615567665096
2424.4104,30.382093618189174
2425.7896,31.6979103746919
2427.1682,45.493624323819176
2428.546,37.969253526253624
2429.9232,29.82481558774225
2431.2996,45.660327734341536
2432.6753,43.475806893859954
2434.0503,51.32126953750458
2435.4246,33.396731701723866
2436.7982,27.952208909754745
2438.1711,29.587716350867368
2439.5433,28.003268934810876
2440.9148,40.448881275458234
2442.2856,44.57456770665067
2443.6557,29.83034215774228
2445.025,28.01621811234145
2446.3937,35.382208755755755
2447.7617,32.92832699313044
2449.1289,55.354585375790066
2450.4955,40.260996125776956
2451.8613,46.44757091158908
2453.2265,46.6143209991144
2454.5909,43.11125718976473
2455.9546,55.9883898188109
2457.3177,48.145728790412704
2458.68,49.783283448846305
2460.0416,53.3510626569298
2461.4025,50.1990747796508
2462.7627,56.577327648486516
2464.1222,67.88582859292501
2465.4811,47.52458437668224
2466.8392,64.29360108461674
2468.1966,53.942884326342664
2469.5533,70.12243906853837
2470.9093,61.4322697384539
2472.2645,60.27238006211678
2473.6191,57.24277315123163
2474.973,72.69345151478137
2476.3262,79.67441708932165
2477.6787,53.33567108447437
2479.0305,62.62721391311857
2480.3816,62.64904545477657
2481.7319,65.15116496269866
2483.0816,50.18357106364533
2484.4306,52.096261732867106
2485.7789,62.53923444377779
2487.1264,47.91248614883034
2488.4733,56.116013175085754
2489.8195,51.4498113704808
2491.165,39.56387602179416
2492.5097,63.058201901306575
2493.8538,57.332783385661514
2495.1972,47.73761422092116
2496.5398,45.87268757981974
2497.8818,43.337996157716816
2499.2231,53.48353219124442
2500.5637,46.25928748365595
2501.9035,52.215253303370446
2503.2427,53.50142045621578
2504.5812,45.36777922586748
2505.919,62.314319360988065
2507.256,51.74103015656374
2508.5924,55.197900284436855
2509.9281,46.98491789904119
2511.2631,56.50207060283242
2512.5974,47.549345528418144
2513.9309,59.726729243384625
2515.2638,56.634207839826104
2516.596,60.17176681257001
2517.9275,57.6393910901013
2519.2583,56.78706499918985
2520.5884,42.46477229021116
2521.9178,51.422496145672085
2523.2465,48.26021932343269
2524.5745,45.47792406712847
2525.9018,49.475592137794365
2527.2284,59.25320484168583
2528.5543,58.0607429903032
2529.8796,55.04818680261451
2531.2041,61.86551591698162
2532.5279,60.06270942128572
2533.851,59.28974578475368
2535.1735,65.09660287598535
2536.4952,54.48325797068355
2537.8163,73.19968769358661
2539.1366,74.44586812460079
2540.4562,61.97177461163619
2541.7752,67.52738175814466
2543.0935,73.46266354785962
2544.411,70.7775932892414
2545.7279,84.17214355612487
2547.0441,91.59628621456977
2548.3596,75.89999228891475
2549.6744,83.43323188753652
2550.9885,73.74597435981241
2552.3019,65.68818822078833
2553.6146,73.30984124805173
2554.9266,70.86090056230887
2556.2379,81.34133255116876
2557.5485,77.30110289363142
2558.8585,80.04017645528529
2560.1677,82.65851732870829
2561.4762,92.45608880607733
2562.7841,80.93285335298492
2564.0913,87.73877251046429
2565.3977,89.82380701022134
2566.7035,101.8879167065752
2568.0086,82.98106055560856
2569.313,102.35319649452526
2570.6167,111.20428163071983
2571.9197,99.83427204805616
2573.222,97.74312271835583
2574.5236,96.48078761509714
2575.8246,96.64721973432893
2577.1248,110.24237110729109
2578.4244,110.41619279875226
2579.7232,121.21863477105762
2581.0214,116.94964588239054
2582.3189,104.10917377874921
2583.6157,125.89716493663491
2584.9118,118.61356479145911
2586.2072,122.30831751966252
2587.5019,125.88136611155096
2588.7959,133.8326523343469
2590.0893,125.46211669646004
2591.3819,135.0696983679752
2592.6739,134.30533526435693
2593.9652,132.11896395037206
2595.2557,143.46051964773596
2596.5456,147.72993625697404
2597.8348,145.52714624400824
2599.1234,142.95208059746096
2600.4112,149.75466885068386
2601.6983,149.4848391075086
2602.9848,128.5425179742208
2604.2705,144.52763056225854
2605.5556,152.7901006976349
2606.84,139.77985076108826
2608.1237,140.79680160545672
2609.4067,137.74087268577932
2610.689,136.46198204912776
2611.9707,142.0600463651656
2613.2516,132.23498093893727
2614.5319,134.33669965488752
2615.8115,138.0151150751126
2617.0903,132.52013841834173
2618.3685,136.1516795231537
2619.6461,123.05964690292626
2620.9229,132.14394770952094
2622.199,136.95448786420343
2623.4745,140.441171966801
2624.7493,137.85390324759692
2626.0234,142.44258353246232
2627.2968,131.95711326873038
2628.5695,123.84739147930941
2629.8415,136.31331586753686
2631.1128,137.85478289827643
2632.3835,142.32168767325834
2633.6535,133.81392391566578
2634.9228,142.13138392546466
2636.1914,129.47395866448255
2637.4593,132.14153767323387
2638.7265,139.03400919749447
2639.9931,144.15126016162594
2641.259,144.04317609965005
2642.5242,138.35964110407576
2643.7887,138.20053782698187
2645.0525,131.4657475368499
2646.3156,124.25515012015762
2647.5781,129.2186241487252
2648.8398,140.0560469518232
2650.1009,131.76729456653584
2651.3613,137.2022416293878
2652.6211,117.11076145923175
2653.8801,132.49272600289964
2655.1385,135.4980060361163
2656.3961,135.2764710096792
2657.6531,135.32798901940714
2658.9094,137.25242680835458
2660.1651,129.54964976629617
2661.42,135.11952191048204
2662.6743,141.96190596266706
2663.9279,147.7766632934106
2665.1808,142.9136538536536
2666.433,156.77273611657142
2667.6846,150.9537671262026
2668.9354,153.85660235886053
2670.1856,144.68109578131975
2671.4351,164.07709982179085
2672.6839,160.84446546167305
2673.9321,159.53304204159645
2675.1795,153.14267729374615
2676.4263,159.023217354978
2677.6724,165.2745068307206
2678.9179,163.19638873617168
2680.1626,163.28870443378378
2681.4067,165.9012936540464
2682.6501,170.43399449456274
2683.8928,169.68664339392353
2685.1348,159.75907508638056
2686.3761,150.9011226093197
2687.6168,158.66261740253697
2688.8568,156.59338939681618
2690.0961,152.39326693631642
2691.3348,153.41207679926345
2692.5727,146.24964423995027
2693.81,156.5057929785496
2695.0466,148.8303452727381
2696.2826,146.42312181513535
2697.5178,153.43394181005715
2698.7524,147.01262299758878
2699.9863,143.50898158347593
2701.2195,145.97283230333915
2702.452,143.15398845770892
2703.6839,154.4022618873886
2704.9151,152.06746300164127
2706.1456,160.04940066570725
2707.3755,170.84788222415318
2708.6046,165.7127134210524
2709.8331,177.69369829199957
2711.0609,190.29063921546253
2712.2881,189.0033367929724
2713.5145,195.08158972315357
2714.7403,209.77519481459774
2715.9654,223.98394692508157
2717.1899,228.80763881463008
2718.4136,248.5460610034295
2719.6367,254.54900172358862
2720.8591,264.56624672175724
2722.0809,273.097579199095
2723.3019,272.0427797110997
2724.5223,298.55162608229375
2725.7421,290.6238934167724
2726.9611,296.50935383311423
2728.1795,297.55777654365943
2729.3972,282.4689277956552
2730.6142,265.5925708607716
2731.8306,256.1784661859896
2733.0462,243.576371562364
2734.2612,221.78604221916635
2735.4756,214.0572309499047
2736.6892,179.33968833022732
2737.9022,163.38316279520984
2739.1145,163.687400986532
2740.3262,140.2021479120424
2741.5372,131.47714694271622
2742.7475,123.8621400475082
2743.9571,101.30686788060098
2745.1661,103.11106985755669
2746.3744,86.92448438086865
2747.582,82.49684882192037
2748.7889,78.72789968285042
2749.9952,69.86737264082956
2751.2008,58.015002585749926
2752.4057,52.720523708830115
2753.61,53.38366962113946
2754.8136,45.45417340654251
2756.0165,38.38176761506725
2757.2188,40.4161843421997
2758.4204,39.80715529960935
2759.6213,32.804411794803286
2760.8215,41.20768473721796
2762.0211,41.06670470824645
2763.22,22.43120187720467
2764.4182,13.750906002742227
2765.6158,17.425546619197007
2766.8127,12.204853123398493
2768.009,14.03855473792089
2769.2045,12.376380563290923
2770.3994,1.1180595596498506
2771.5936,-2.286679436623558
2772.7872,-6.238107600331432
2773.9801,-14.086473262347909
2775.1723,-19.63196243485345
2776.3639,-10.274620406160807
2777.5548,-10.414296341278714
2778.745,-14.050736761758685
2779.9346,-16.183584150331967
2781.1235,-14.712340622869533
2782.3117,-21.786346621237612
2783.4992,-3.904795611019267
2784.6861,-11.166663412195703
2785.8723,-9.620886835840793
2787.0579,-8.266291138060978
2788.2428,1.6483945376967313
2789.427,5.674523628233942
2790.6106,15.163449553868304
2791.7935,20.91652567817232
2792.9757,24.08510521308517
2794.1573,34.2705411613814
2795.3382,48.17418628498547
2796.5184,56.74739300311796
2797.698,68.89151325325724
2798.8769,84.90789840540856
2800.0551,95.94789914066291
2801.2327,109.21286529103122
2802.4096,116.75414572904663
2803.5859,136.42308823511428
2804.7615,153.77103942209726
2805.9364,177.84934453862866
2807.1106,201.8093472956317
2808.2842,226.45238962553617
2809.4572,253.82981144267933
2810.6294,290.5929503968757
2811.801,325.9431415996414
2812.972,366.73171725656425
2814.1423,417.66000631380007
2815.3119,439.57933405018844
2816.4808,492.5410215679691
2817.6491,551.9963855735887
2818.8167,585.1467378480842
2819.9837,625.843384652529
2821.15,671.7376263965302
2822.3157,717.8307572312611
2823.4807,770.0240645905195
2824.645,808.2188287297967
2825.8086,860.6663222043437
2826.9716,875.617809487223
2828.134,926.3245464448353
2829.2957,970.0877801874029
2830.4567,998.4087485619035
2831.617,1019.538679714437
2832.7767,1018.6287918070161
2833.9358,1020.9802928062682
2835.0941,1019.8943804925322
2836.2519,1006.7722424363444
2837.4089,984.465056009298
2838.5653,988.523988515263
2839.7211,980.25019741346
2840.8761,987.5948302778697
2842.0306,998.1090248799716
2843.1843,1040.4939091152964
2844.3374,1077.2006008982867
2845.4899,1133.0302077384447
2846.6417,1207.6338263732678
2847.7928,1280.062542209952
2848.9433,1349.3674285793545
2850.0931,1418.3495460117078
2851.2422,1495.9099415435724
2852.3907,1569.5496480280112
2853.5385,1646.1196833589906
2854.6857,1688.42104973498
2855.8323,1730.2047328932513
2856.9781,1797.721701686869
2858.1233,1821.6229076668478
2859.2679,1876.509284406989
2860.4118,1928.4317472648631
2861.555,1947.1911928329491
2862.6976,1994.0384984194093
2863.8395,2012.5745218604952
2864.9808,2040.2001010520717
2866.1214,2053.8660537642613
2867.2614,2052.9731773651833
2868.4007,2068.8222486842997
2869.5393,2085.8140240213397
2870.6773,2098.4492389878114
2871.8146,2118.478608337082
2872.9513,2110.5528258380273
2874.0874,2101.322564074738
2875.2227,2099.488474525775
2876.3574,2084.0511876564765
2877.4915,2045.8613129372943
2878.6249,2028.8694389981692
2879.7577,2008.4261340104288
2880.8898,1973.7319458567083
2882.0212,1981.2874023353806
2883.152,1964.0430115074996
2884.2821,1937.2492616212458
2885.4116,1927.1566212843702
2886.5405,1932.4655397321317
2887.6686,1939.7264469282227
2888.7962,1942.9397535116814
2889.923,1957.055850724281
2891.0493,1971.4751103783979
2892.1748,1976.1478847158494
2893.2997,1985.6245062637029
2894.424,1998.8052877875464
2895.5476,2019.6405221967239
2896.6706,2041.0804824125266
2897.7929,2070.3754211598407
2898.9145,2076.6255707527494
2900.0355,2127.8311428015795
2901.1559,2175.3423281504042
2902.2756,2199.4092963649846
2903.3946,2239.0321952576605
2904.513,2259.0611506466776
2905.6308,2285.5462659599607
2906.7479,2308.837622034824
2907.8643,2331.2852768531184
2908.9801,2338.9392653083196
2910.0953,2345.7495989810495
2911.2098,2350.3162660625403
2912.3236,2344.139231286526
2913.4368,2340.8684358835794
2914.5494,2311.3037976428823
2915.6613,2283.49521094493
2916.7725,2263.3425470571824
2917.8831,2223.995654412147
2918.9931,2211.554358808904
2920.1024,2184.9184638065817
2921.211,2162.4377508487632
2922.319,2131.561979529847
2923.4264,2115.7408878198567
2924.5331,2106.924192373195
2925.6391,2096.211588686857
2926.7445,2091.952751188595
2927.8493,2087.297333344047
2928.9534,2085.844967699323
2930.0569,2102.295265927561
2931.1597,2086.3978188434494
2932.2619,2077.5021962387236
2933.3634,2062.007947041143
2934.4643,2072.314599403442
2935.5645,2046.3716608582795
2936.6641,2016.1286182151653
2937.763,1976.8349378198939
2938.8613,1940.240065856974
2939.959,1875.7434287425658
2941.056,1816.5444334904291
2942.1523,1740.642468356889
2943.248,1653.4369034328265
2944.3431,1563.2770914026987
2945.4375,1450.012368416594
2946.5313,1357.642054991829
2947.6244,1251.2154571455978
2948.7169,1170.1818673186729
2949.8087,1066.3405654396734
2950.8999,987.7408197354009
2951.9904,906.5318877692503
2953.0803,839.4130172272098
2954.1696,775.4334467299486
2955.2582,717.4924065040066
2956.3462,680.9391190215892
2957.4335,657.1727995799781
2958.5202,617.5926566670643
2959.6062,590.8978921990109
2960.6916,570.8877019160557
2961.7764,552.3112756494565
2962.8605,539.1677975215957
2963.9439,534.3064461317415
2965.0267,524.8263946874858
2966.1089,516.3768110533554
2967.1905,517.7568578456139
2968.2714,512.6656925167572
2969.3516,519.2524673417122
2970.4312,531.1163294687498
2971.5102,537.1564208536156
2972.5885,534.1218781408929
2973.6662,536.1118326036005
2974.7432,531.8754101735387
2975.8196,527.8117314213897
2976.8954,525.719911599082
2977.9705,530.3990606804272
2979.045,509.94828338203797
2980.1188,498.1166791165365
2981.192,484.5033421970628
2982.2645,458.20736195559016
2983.3364,448.177822879059
2984.4077,414.96380487233637
2985.4783,398.0643833585118
2986.5483,367.4786296110376
2987.6177,335.80561092272205
2988.6864,291.69439091158836
2989.7545,277.84402983760356
2990.8219,248.10358504379167
2991.8887,219.572111094736
2992.9548,188.29866007398505
2994.0204,172.4822818693666
2995.0852,150.6220244857219
2996.1495,121.91693420307013
2997.2131,99.51605579521026
2998.276,80.51843281677316
2999.3383,66.97310782722957
3000.4,47.42912258086619
3001.4611,37.58551816223883
3002.5215,24.39133518161225
3003.5812,28.64561387339586
3004.6404,8.997394228086137
3005.6989,-5.004284050276283
3006.7567,-2.2603813476237065
3007.8139,-6.921808057091425
3008.8705,-1.1894519906056757
3009.9264,-10.464131811230118
3010.9818,-6.896654299403622
3012.0364,-15.337721698888345
3013.0905,-13.387967355870842
3014.1439,-7.847871392697925
3015.1966,-6.167780185922993
3016.2487,-3.8479617118642864
3017.3002,-5.988622330716453
3018.3511,1.1100700384631637
3019.4013,6.548007302954375
3020.4509,5.9750813589365634
3021.4998,7.941184037109679
3022.5481,15.146207108422459
3023.5958,22.340042264412318
3024.6428,18.17258104515463
3025.6892,24.443714767324877
3026.735,39.003334565873274
3027.7802,43.951331331313554
3028.8247,45.68759556412556
3029.8685,53.81201732527711
3030.9118,53.87448621885915
3031.9544,71.97489131084308
3032.9963,75.71312112845567
3034.0376,86.08906347917514
3035.0783,84.85260541334912
3036.1184,99.70363312043526
3037.1578,108.19203194136469
3038.1966,112.96768622003276
3039.2348,114.43047921841435
3040.2723,114.5302930688078
3041.3092,127.26700875920687
3042.3455,115.09050613230266
3043.3811,117.7006637581161
3044.4161,125.39735905576316
3045.4505,114.98046826735333
3046.4842,115.09986638102288
3047.5173,123.0054272351037
3048.5498,113.29702351692947
3049.5816,112.97452668377974
3050.6128,108.23780705996421
3051.6434,95.43673384004745
3052.6734,108.32117513621631
3053.7027,112.54099810628998
3054.7314,100.6960688248763
3055.7594,108.73625224117319
3056.7868,99.91141229741788
3057.8136,97.12141184848554
3058.8398,92.31611275013722
3059.8653,100.44537588691975
3060.8902,93.35906122021908
3061.9145,92.50702770696768
3062.9381,79.58913337050762
3063.9612,90.35523530911098
3064.9835,88.10518982515862
3066.0053,85.98885231747937
3067.0264,84.30607730385043
3068.0469,76.35671844216034
3069.0668,76.99062854723724
3070.086,73.40765967034235
3071.1046,68.40766309283066
3072.1226,66.64048936198071
3073.1399,56.405988340994156
3074.1567,52.35400922666798
3075.1727,47.53440065173942
3076.1882,38.14701072540555
3077.203,38.64168708151976
3078.2173,28.068276972465412
3079.2308,32.4266272642094
3080.2438,19.366584542035923
3081.2561,14.93799506696297
3082.2678,16.94070490634283
3083.2789,9.77455997814809
3084.2893,14.639406030944485
3085.2991,8.085088715552274
3086.3083,5.8614535363980735
3087.3169,2.668345917057536
3088.3248,3.605611222491973
3089.3321,5.523094790979428
3090.3388,3.620641924742017
3091.3449,2.4980978707708914
3092.3503,0.3553078398511502
3093.3551,2.642117017786859
3094.3593,0.008370586829187232
3095.3629,-1.5960862971919028
3096.3658,-5.7714085620687
3097.3681,0.4822648093086741
3098.3698,-2.3851475095784735
3099.3708,-7.823726850071466
3100.3713,-2.733530715887923
3101.3711,-1.9145384517144635
3102.3702,-5.016702094266009
3103.3688,-0.9399545540182714
3104.3667,-1.9341786245932155
3105.364,-0.749247709466772
3106.3607,-1.7850158896706887
3107.3568,1.2586702387479818
3108.3522,2.231981912050685
3109.347,-0.4649096460875626
3110.3412,11.968166765688267
3111.3348,4.881386993180627
3112.3277,8.324926762510245
3113.32,7.298961750984233
3114.3117,8.85366755266054
3115.3028,12.18921968860775
3116.2932,17.35579359135798
3117.2831,15.10356457155126
3118.2723,10.132707766269846
3119.2608,15.69339816156068
3120.2488,15.685810642143537
3121.2361,19.36011993580425
3122.2229,18.11650061347072
3123.209,18.955127052469862
3124.1944,21.076173448963658
3125.1793,22.029813809563052
3126.1635,23.36622193011732
3127.1471,27.485571386177554
3128.1301,19.788035519632786
3129.1125,26.72378739751619
3130.0942,25.542999888981115
3131.0753,26.19584559594324
3132.0558,27.682496864888634
3133.0357,28.103125780344897
3134.015,36.55790415001479
3134.9936,38.34700350056974
3135.9716,35.720594993102196
3136.949,32.72884940523474
3137.9258,40.521937157384
3138.902,39.60002834267826
3139.8775,40.363292649026505
3140.8524,39.16189936833749
3141.8267,39.996017388887054
3142.8004,38.81581520733212
3143.7735,43.671460920369526
3144.7459,48.26312223653804
3145.7178,44.14096642766191
3146.689,49.55516028293437
3147.6596,49.95587015013891
3148.6295,46.19326188150748
3149.5989,47.61750082971331
3150.5676,48.77875188549707
3151.5357,56.57717946342436
3152.5032,51.912947490273396
3153.4701,54.83621932705066
3154.4364,54.39715781563322
3155.402,57.195925249535975
3156.367,54.48268337830234
3157.3315,55.30759337951653
3158.2952,69.070815885936
3159.2584,57.92251097724224
3160.221,66.01283804240869
3161.1829,64.49195589118374
3162.1442,61.21002267318738
3163.105,66.3171958931201
3164.065,63.4136324435822
3165.0245,68.14948855400212
3165.9834,66.62491981967196
3166.9416,68.8900811543891
3167.8993,69.09512680570168
3168.8563,71.39021033225708
3169.8127,71.22548460175143
3170.7684,75.00110176797887
3171.7236,73.86721327247865
3172.6782,77.5739698067791
3173.6321,79.27152132373641
3174.5854,78.2100170004671
3175.5381,79.83960522137244
3176.4902,84.16043358875365
3177.4417,79.0726489065159
3178.3926,83.72639713696007
3179.3428,84.12182345166052
3180.2924,86.90907218492772
3181.2415,90.33828682985393
3182.1899,89.85961001044063
3183.1377,89.6231834473066
3184.0848,93.77914796247441
3185.0314,87.22764348173489
3185.9773,100.26880899308729
3186.9227,94.75278261225463
3187.8674,96.37970145227175
3188.8115,96.74970167864572
3189.755,101.26291849308663
3190.6979,94.4194861298075
3191.6402,99.3695378103923
3192.5818,98.96320581223009
3193.5229,102.90062141901458
3194.4633,104.08191492480748
3195.4031,105.85721559466427
3196.3423,103.1266516528213
3197.2809,106.59035026494281
3198.2189,110.24843756542651
3199.1563,106.5010386227666
3200.0931,111.34827740297295
3201.0292,115.94027680704502
3201.9648,112.82715862249951
3202.8997,114.30904347745036
3203.834,115.18605087173994
3204.7677,117.40829916212016
3205.7008,116.32590555348246
3206.6333,119.08898607663527
3207.5652,117.79765559912798
3208.4964,122.85202779762014
3209.4271,119.10221517079472
3210.3571,125.34832898881444
3211.2865,126.3904793308198
3212.2154,127.52877502246811
3213.1436,126.96332362551175
3214.0712,128.94423142641546
3214.9982,130.87160344201064
3215.9246,126.89554339968643
3216.8503,131.5661537181159
3217.7755,133.98353554701671
3218.7001,132.8977887204449
3219.624,137.75901173262125
3220.5473,137.66730174878856
3221.4701,135.67275455659956
3222.3922,139.02546456703394
3223.3137,138.9255248343438
3224.2346,143.12302702252663
3225.1549,139.41806140632457
3226.0746,144.41071682924957
3226.9937,147.35108074063294
3227.9121,145.88923914569864
3228.83,150.62527657616005
3229.7473,148.95927610483795
3230.6639,151.84131929830045
3231.5799,149.92148623352278
3232.4954,152.69985546906702
3233.4102,157.6265040642803
3234.3244,157.75150755151134
3235.238,156.47493988684369
3236.151,159.54687344884582
3237.0634,159.11737905133683
3237.9752,159.28652591266695
3238.8864,161.85438166001262
3239.797,161.12101232768504
3240.7069,161.93648233145143
3241.6163,162.10085447586906
3242.5251,168.31418994613017
3243.4332,169.07654830641843
3244.3408,170.23798743777564
3245.2477,173.84856353047797
3246.154,167.30833107242177
3247.0598,168.81734281301772
3247.9649,168.7756498285932
3248.8694,169.28330150730199
3249.7733,173.5903455495415
3250.6766,173.19682796287603
3251.5793,175.80279301896633
3252.4814,175.85828325750487
3253.3829,179.16333946015607
3254.2838,178.86800065000148
3255.1841,181.57230405848912
3256.0838,182.92628512838715
3256.9829,183.12997748674047
3257.8814,181.03341293133127
3258.7792,186.73662142864174
3259.6765,179.33963113481997
3260.5731,182.84246833864776
3261.4692,180.54515753551055
3262.3647,187.64772139236902
3263.2595,185.3001807707323
3264.1538,187.3525546556322
3265.0474,195.50486017909859
3265.9404,192.20711259963588
3266.8329,189.85932522069987
3267.7247,189.6615094236751
3268.616,188.9136746913528
3269.5066,192.26582860990914
3270.3966,189.66797687638325
3271.286,187.77012326515614
