RamanShift,CorrectedData
30.1047,1123.9010845635728
32.3739,1039.7405700916352
34.6426,961.6800443806865
36.9109,878.3194857943103
39.1787,794.9588630792896
41.4461,715.6481361992118
43.7131,638.0872571680759
45.9796,555.626170843399
48.2456,476.36481570182525
50.5112,394.4531246637364
52.7764,313.4910258858663
55.0411,234.928443580417
57.3054,156.71529882468047
59.5692,75.30151034666405
61.8326,-1.813004692777966
64.0955,-78.77832988580637
66.3579,-154.49453071266515
68.6199,-221.26088565808288
70.8815,-275.2751298064265
73.1426,-284.73278784581527
75.4032,-161.27663446582233
77.6634,273.1034001245298
79.9231,1400.8689968697965
82.1824,3935.8818339834993
84.4412,8545.203575670472
86.6995,14900.895846776724
88.9574,21010.22018669624
91.2148,25122.73798581404
93.4717,26871.36042441294
95.7282,26986.098431548377
97.9842,26596.6626675622
100.2398,25741.363522935248
102.4949,24762.66112218176
104.7495,23700.215332402313
107.0036,22640.235773070905
109.2573,21720.331826659356
111.5105,20814.11264923714
113.7632,19976.887179670415
116.0154,19305.414148684198
118.2672,18771.152087234663
120.5185,18248.609333223816
122.7693,17833.644036842157
125.0197,17432.064165794094
127.2696,17052.477509447595
129.519,16785.44168284998
131.7679,16411.264130523818
134.0163,16030.402129137232
136.2642,15620.212791245733
138.5117,15176.703069100793
140.7587,14694.62975875177
143.0052,14300.099504480979
145.2512,13829.068803624452
147.4967,13445.394010517219
149.7417,13118.031341203627
151.9863,12849.436877274082
154.2304,12667.066569138673
156.4739,12367.22623871313
158.717,12185.871581242518
160.9596,11941.308168299638
163.2017,11571.091449598583
165.4433,11192.826755440365
167.6844,10770.269300415086
169.925,10349.274187184572
172.1651,9878.596410707973
174.4047,9537.19086245169
176.6439,9200.912335096164
178.8825,8890.465525949927
181.1206,8682.255040312391
183.3582,8425.88539457832
185.5954,8275.011018319927
187.832,8120.886256850576
190.0681,8000.065372733524
192.3037,7909.152547323168
194.5388,7828.001881973257
196.7734,7761.817398946017
199.0075,7763.4030422236565
201.2411,7814.562678170216
203.4742,7832.200095515705
205.7068,7930.669004844505
207.9389,7971.6230384190085
210.1704,8101.365749194914
212.4015,8118.900610411697
214.632,8205.23101429518
216.862,8284.510271882176
219.0915,8362.291612157203
221.3205,8401.82818125967
223.549,8445.973041706078
225.777,8504.829171994654
228.0044,8575.299466163895
230.2314,8773.286733204008
232.4578,8863.54369635221
234.6837,8957.722991112852
236.909,8990.277164354855
239.1339,8906.358673369898
241.3582,8762.119885546908
243.582,8488.963079211215
245.8053,8303.090445066959
248.0281,8148.254088928656
250.2503,8054.206033579908
252.472,7993.5982203217845
254.6932,8010.532509913301
256.9139,8061.610683177487
259.134,8184.384440832053
261.3536,8340.90540297861
263.5727,8543.725107874918
265.7912,8717.595010369696
268.0092,8894.066479874416
270.2267,9031.0407986246
272.4436,9080.919159915109
274.6601,9025.00266673041
276.8759,8877.742331245776
279.0913,8727.139075386456
281.3061,8520.64373230028
283.5204,8450.957047863692
285.7341,8356.079682746698
287.9473,8353.312213109737
290.16,8382.105131552464
292.3721,8505.458847141403
294.5837,8725.973685122048
296.7947,8906.299885685303
299.0052,9026.487601762336
301.2152,8923.03689722132
303.4246,8657.847745665556
305.6334,8235.970031467987
307.8418,7704.7535524230625
310.0495,7236.748023965553
312.2568,6750.403084482688
314.4635,6314.26829999422
316.6696,6003.643169015883
318.8752,5774.327126920725
321.0802,5668.61954904537
323.2847,5681.51975298318
325.4887,5600.626999641323
327.692,5540.0904931117675
329.8949,5422.509381480222
332.0972,5190.882757431484
334.2989,4914.259659425261
336.5001,4629.989074012432
338.7007,4378.269938601281
340.9008,4156.551144300214
343.1003,3960.8315384349335
345.2992,3806.0599267656453
347.4976,3661.7850754442334
349.6955,3549.0557125619907
351.8927,3515.020529592368
354.0895,3430.7781825182537
356.2856,3360.227292172347
358.4812,3275.666445079567
360.6763,3243.894194162551
362.8707,3200.459059587287
365.0646,3233.6095290808153
367.258,3210.944058365594
369.4508,3250.161070827993
371.643,3340.708957744944
373.8346,3387.1360778917697
376.0257,3422.790756636703
378.2162,3399.8712854766254
380.4062,3340.275921680506
382.5956,3204.802888518616
384.7844,3052.6003758584575
386.9726,2887.566541519511
389.1603,2785.79951279526
391.3474,2651.3473881035206
393.5339,2615.358238004137
395.7199,2577.780106543476
397.9052,2601.1110116143263
400.09,2612.4489453316783
402.2743,2723.0418737994205
404.4579,2854.3877369969523
406.641,3054.934447673266
408.8235,3217.029890033471
411.0054,3375.8219177333467
413.1868,3587.6583522583715
415.3675,3646.8369813358095
417.5477,3628.9555568163523
419.7273,3637.4617940823264
421.9064,3503.6533722265067
424.0848,3414.777933967054
426.2627,3229.783086985595
428.4399,2977.16640481598
430.6166,2589.8754286942276
432.7928,2221.0076700846967
434.9683,1890.9106145529895
437.1432,1609.3317254546419
439.3176,1414.6184472360874
441.4914,1315.2182082504441
443.6645,1262.5784227046443
445.8371,1174.2964916534456
448.0091,1111.2198035258298
450.1806,1102.0457350078123
452.3514,1043.121651673222
454.5216,1059.3949080754337
456.6913,1011.5628483366163
458.8603,1033.9228059849956
461.0288,1084.3721044331796
463.1967,1074.1580567545498
465.3639,1095.227965178774
467.5306,1081.329121193945
469.6967,1091.9588053358711
471.8622,1145.6142873270874
474.0271,1202.2428259705393
476.1914,1218.3416686130404
478.3551,1225.45805057898
480.5182,1230.1391950093366
482.6807,1324.2323127905129
484.8426,1494.4846025075294
487.0039,1796.7932495030782
489.1647,2190.855424175019
491.3248,2539.7182789532762
493.4843,2676.028944359232
495.6432,2611.4345255170865
497.8015,2449.3821007907536
499.9592,2375.968722429803
502.1163,2173.0914181899807
504.2728,1842.3471920673492
506.4287,1545.1830263270658
508.5839,1198.245884810818
510.7386,975.3827159084649
512.8927,827.0404560274092
515.0461,804.9660318212264
517.199,852.7563616730931
519.3512,971.758355916536
521.5029,1231.918916357523
523.6539,1459.484935084447
525.8043,1556.053291866523
527.9541,1517.270851878111
530.1033,1343.184464733049
532.2519,1194.0409648724708
534.3999,1168.287173305669
536.5472,1253.7198991015248
538.694,1518.8359396460583
540.8401,1837.1820797880828
542.9856,2094.455089188068
545.1305,2152.7017191346604
547.2748,2090.218699971965
549.4185,1852.7527405170713
551.5615,1664.6505286848842
553.704,1645.3587338627894
555.8458,1685.8740087916685
557.987,1860.0429897588147
560.1276,2094.212296192789
562.2675,2425.2285289217198
564.4069,2871.4882678316208
566.5456,3248.7880685562195
568.6837,3373.8244580143673
570.8212,3017.3939306370376
572.958,2355.242947116969
575.0942,1746.0679379729645
577.2299,1343.8653101714026
579.3648,1127.1314532179877
581.4992,1103.8127431797766
583.6329,1225.1055448525149
585.766,1408.3062119938204
587.8985,1565.3110861102614
590.0304,1571.766494625348
592.1616,1529.1187493094876
594.2922,1419.7141462154232
596.4222,1228.9489661047155
598.5515,1015.169475541792
600.6802,869.2219288015913
602.8083,712.7025700073627
604.9358,682.1576345901394
607.0626,688.2333508539286
609.1888,785.4259402811695
611.3144,921.9316174719752
613.4393,996.0965891722026
615.5636,1061.417052908404
617.6873,1099.3391962461756
619.8103,1018.1091961369457
621.9327,844.8732185387653
624.0544,663.0774192285899
626.1756,487.21794553464315
628.2961,356.1909381543828
630.4159,296.6425329130925
632.5351,269.9688620741581
634.6537,245.466054934539
636.7716,246.43023809151236
638.8889,276.5575356876943
641.0056,304.244069401404
643.1216,276.8359581453842
645.237,273.6793177899417
647.3518,205.42026143701878
649.4659,177.75489945177833
651.5793,124.62934014518214
653.6922,75.78969005064391
655.8043,105.6820544552902
657.9159,111.9025378883598
660.0268,62.047243822265955
662.137,55.462274610405075
664.2466,59.94373198570065
666.3556,56.83771712646194
668.4639,40.09033061156151
670.5716,1.997672451507242
672.6786,-2.5441577440997207
674.785,-33.53906038562127
676.8907,-36.79091046728536
678.9958,40.44675207188993
681.1002,0.07075483406879357
683.204,-20.17207498303651
685.3072,-34.08491088858318
687.4097,-39.320724872688515
689.5115,-45.28214841722547
691.6127,-47.77142019002349
693.7132,-72.49032649026049
695.8131,-62.14017638063524
697.9123,-33.97155474547981
700.0109,1.3655743112212804
702.1089,60.371586061326525
704.2061,68.69685576303345
706.3028,154.5417580708381
708.3987,196.45666695226282
710.4941,227.79195482942305
712.5887,299.4979921598606
714.6827,444.5751471232106
716.7761,634.9737849041285
718.8688,855.3442662415237
720.9608,1030.486945524568
723.0522,1159.2521685889988
725.1429,1174.7902709656955
727.233,1237.5015765930148
729.3224,1249.6363976614175
731.4112,1148.8950339863604
733.4993,989.9277728869347
735.5867,777.1348901932943
737.6735,577.566651836305
739.7596,392.82331597549637
741.845,275.75513499473345
743.9298,194.41235734965085
746.014,204.34522873834067
748.0974,188.25399291477697
750.1802,188.68889158947786
752.2624,210.70016459042745
754.3439,284.7380498587354
756.4247,390.30278322850245
758.5048,583.2945976864576
760.5843,895.5137223163001
762.6631,1341.6103803687947
764.7413,1903.784786139573
766.8188,2668.8871405081554
768.8956,3227.5676253162255
770.9718,3641.1763957165876
773.0473,3543.713574586369
775.1221,3311.82924839095
777.1962,2997.6734681585713
779.2697,2880.146251799195
781.3426,2960.0475872460465
783.4147,3085.877433630898
785.4862,3213.135720485059
787.557,3060.222346481067
789.6271,2614.4871781600996
791.6966,1988.430051461124
793.7654,1387.7007761782334
795.8335,968.3991422212275
797.901,671.574925622901
799.9678,494.62789273205635
802.0339,451.95780318176
804.0993,433.0144116587944
806.1641,371.24746833036806
808.2282,296.55671903355505
810.2916,210.4419058929525
812.3544,147.80276806759684
814.4164,161.23904261211464
816.4778,171.45046510310385
818.5385,220.43676950476947
820.5986,350.19768806682805
822.658,627.7329508346247
824.7166,931.0422843515298
826.7747,1452.7254088835907
828.832,1959.882035386432
830.8886,2334.1118602884326
832.9446,2532.1645604191453
834.9999,2410.739789267016
837.0545,2171.0871749988382
839.1085,1858.4063216740196
841.1618,1590.0968116411077
843.2143,1354.4082086645976
845.2662,1181.3400606080122
847.3175,1049.1919017908003
849.368,945.0632547190235
851.4179,853.5036314068147
853.467,741.2625344177013
855.5155,662.539457780158
857.5633,609.1338881100419
859.6105,555.7953053978308
861.6569,467.47318354265735
863.7027,393.0669908857053
865.7478,363.12619109342813
867.7922,327.05024390161634
869.8359,330.9386054147926
871.8789,371.59072846698473
873.9212,502.3560625828359
875.9629,583.3340535710831
878.0039,760.924142216898
880.0441,863.6257634721278
882.0837,920.1883446793709
884.1226,934.7113045449769
886.1609,986.9940525734146
888.1984,1080.03598892204
890.2352,1196.9865038782827
892.2714,1225.2449769292089
894.3069,1203.6107755920293
896.3416,1035.4332551315074
898.3757,904.9117587762994
900.4091,834.9956194007409
902.4418,810.63416083005
904.4739,872.8266985394966
906.5052,944.9225398980034
908.5358,907.070983546244
910.5658,766.3713186756686
912.595,578.1228254070247
914.6236,357.7747761973569
916.6515,227.8264377224914
918.6786,197.17707308050376
920.7051,179.9259430912207
922.7309,258.4723066026927
924.756,317.0154206637235
926.7804,395.95453973838994
928.8041,395.2389151206153
930.8272,464.91779414478515
932.8495,455.19042019290646
934.8711,440.7060319978027
936.892,396.71386374039685
938.9123,387.86314519455846
940.9318,386.40310216702346
942.9506,374.93295658589705
944.9688,308.6519265152547
946.9862,232.45922626985703
949.003,108.85406707794755
951.019,29.98565784317907
953.0344,-2.896793619334858
955.0491,-8.394079794334175
957.063,63.193035772403164
959.0763,167.21387339195098
961.0888,211.71775274346874
963.1007,255.20399183397058
965.1119,295.07190655330487
967.1223,316.37081023927203
969.1321,309.000013278961
971.1412,316.05882289575493
973.1495,312.24654322304013
975.1572,354.86247523362545
977.1641,392.55591677785196
979.1704,365.97616215743983
981.1759,371.67250174855326
983.1808,407.7442222676018
985.1849,427.99060671427105
987.1884,492.71093401080907
989.1911,639.2044787995601
991.1932,737.9705107957525
993.1945,742.6582933225873
995.1951,746.8670823235643
997.1951,697.5961263156041
999.1943,667.5446663469575
1001.1928,665.9119364899143
1003.1906,722.2471641413267
1005.1877,844.199570038927
1007.1841,907.668367697981
1009.1798,939.1527621917539
1011.1748,863.4019495168413
1013.1691,721.1651162783128
1015.1627,532.8914404472198
1017.1556,335.2800927829703
1019.1477,206.23023871605983
1021.1392,101.09104032417963
1023.1299,100.01165762272649
1025.12,108.29124961618982
1027.1093,184.87897430894554
1029.0979,304.2739886224608
1031.0859,427.82544762942416
1033.0731,449.33250335978664
1035.0596,430.494303565245
1037.0454,309.5599915041839
1039.0304,221.12870613004088
1041.0148,101.99958330065965
1042.9985,10.221756662605912
1044.9814,-0.6556411575566017
1046.9636,-72.93347763547172
1048.9452,-89.76261369693566
1050.926,-33.19318166231278
1052.9061,-4.374417123455714
1054.8855,41.34477592766598
1056.8642,87.71553719949225
1058.8421,122.38900598703549
1060.8194,157.8163207081452
1062.7959,263.7986185567879
1064.7717,333.9870351487607
1066.7469,387.1827034618873
1068.7213,457.5367531341217
1070.695,534.8503099315894
1072.6679,556.8244950450589
1074.6402,579.8604243167902
1076.6117,533.9592080208113
1078.5826,449.87195063254694
1080.5527,354.7997512878319
1082.5221,284.99370462378647
1084.4908,317.0549017295343
1086.4587,374.2344308442771
1088.426,410.93337703666657
1090.3925,435.8528216330142
1092.3584,476.1938418503087
1094.3235,478.45751054701395
1096.2879,545.3448958196605
1098.2515,677.3070609802053
1100.2145,850.4450638871695
1102.1767,1020.2599556260011
1104.1382,1273.1527787776959
1106.099,1544.024565720656
1108.0591,1770.9763361017613
1110.0185,1945.659094127639
1111.9771,2033.7238262951596
1113.9351,1936.271499644603
1115.8923,1786.9530608790228
1117.8488,1625.5694373387614
1119.8045,1418.771538494635
1121.7596,1289.3102575617686
1123.7139,1170.336473567575
1125.6675,1125.6010526463742
1127.6204,1138.5548492291218
1129.5726,1170.0487064907684
1131.524,1063.233456220718
1133.4748,943.8599185078874
1135.4248,771.4289028088642
1137.3741,648.5412091416365
1139.3226,545.1476298099042
1141.2705,505.2489506319562
1143.2176,399.5459519746073
1145.164,371.0894091521932
1147.1097,352.5300934835841
1149.0546,234.91877257676242
1150.9989,177.60621051441194
1152.9424,63.043169030032914
1154.8852,-20.1195919189322
1156.8272,-53.53131300546465
1158.7686,-51.39103390782384
1160.7092,-27.347259526453854
1162.6491,6.2520186346228
1164.5883,116.8090822704944
1166.5267,263.0262130137362
1168.4644,399.25569132883265
1170.4014,632.249795050011
1172.3377,903.5607980189479
1174.2732,1202.9409677548283
1176.2081,1617.8925627412264
1178.1421,2119.1178294323145
1180.0755,2640.6689981033423
1182.0082,3024.698277838378
1183.9401,3194.907851314805
1185.8713,3043.9498709630316
1187.8017,2765.426457264388
1189.7315,2341.7897002607106
1191.6605,1962.1916623395746
1193.5888,1703.7343824706622
1195.5163,1542.9198800017484
1197.4432,1420.9501572432591
1199.3693,1398.6272010764296
1201.2947,1360.2529841729956
1203.2193,1368.5794652184231
1205.1432,1358.0585892956542
1207.0664,1342.1422878018393
1208.9889,1337.5324785535504
1210.9106,1334.5810659459357
1212.8316,1354.389940998828
1214.7519,1403.8609813862513
1216.6715,1437.3460512383335
1218.5903,1502.0970006465996
1220.5084,1578.6156653291155
1222.4257,1691.7538659829852
1224.3424,1752.2634075191527
1226.2583,1871.1960779310284
1228.1735,1998.2036476893973
1230.0879,2170.987868553085
1232.0016,2378.7004722988777
1233.9146,2515.043168993696
1235.8269,2529.3676449174536
1237.7384,2461.775561199638
1239.6492,2342.8185536760648
1241.5592,2319.348233564804
1243.4686,2359.0161886557353
1245.3772,2522.173983545271
1247.285,2708.223159239662
1249.1922,2901.9152315234196
1251.0986,3054.8016890988274
1253.0042,3139.5839916490277
1254.9092,3261.213568309142
1256.8134,3364.0418168184524
1258.7169,3523.020102304108
1260.6196,3694.199756252843
1262.5216,3953.5820749211953
1264.4229,4171.018317623704
1266.3234,4383.759704139095
1268.2232,4524.707412535914
1270.1223,4630.56257704511
1272.0207,4665.276286650558
1273.9183,4628.449584030506
1275.8151,4598.733465210442
1277.7113,4564.528879931355
1279.6067,4639.8367319469035
1281.5014,4874.657879365461
1283.3953,5239.043133897037
1285.2885,5732.343258505069
1287.181,6223.008963762559
1289.0727,6687.690902919088
1290.9637,6979.489666994145
1292.854,7266.605780130313
1294.7435,7242.589696675287
1296.6323,7198.491798310699
1298.5204,7109.012394292296
1300.4077,6926.201721890911
1302.2943,6725.009947287263
1304.1802,6473.737167400048
1306.0653,6078.883411897877
1307.9497,5594.848645711987
1309.8333,5217.882772984787
1311.7162,4918.085641910204
1313.5984,4716.407048503338
1315.4798,4598.7967395984415
1317.3605,4543.204414865691
1319.2405,4426.579727987302
1321.1197,4243.522287213449
1322.9982,3952.28165652851
1324.876,3690.1073574816473
1326.753,3437.4488720992076
1328.6293,3266.2056455064694
1330.5048,3113.3770884542228
1332.3796,2971.612579031209
1334.2537,2907.5114641923965
1336.127,2813.823061176633
1337.9996,2794.146658147659
1339.8714,2790.5815151309725
1341.7426,2844.126864210616
1343.6129,2876.2319095648127
1345.4826,2897.7958269305236
1347.3515,2910.367763282392
1349.2196,2852.2468366171097
1351.087,2942.1821358276857
1352.9537,3002.372721284669
1354.8197,3159.567623936784
1356.6849,3336.215844709037
1358.5493,3514.5663529307603
1360.4131,3692.618084569125
1362.276,3820.769940445646
1364.1383,3824.7207844556606
1365.9998,3637.26944228681
1367.8606,3314.7147013795284
1369.7206,2967.6053128015647
1371.5799,2656.3899944735194
1373.4384,2386.967434639945
1375.2962,2158.5862949815
1377.1533,1858.1452133091634
1379.0096,1516.5928058480622
1380.8652,1171.4276702418756
1382.7201,917.4483889683615
1384.5742,657.2035327910035
1386.4275,482.7916632988072
1388.2802,364.46133550874674
1390.132,249.9110996098916
1391.9832,203.48950214669185
1393.8336,126.59508716449545
1395.6832,95.22639667375279
1397.5322,61.731971418972535
1399.3803,29.31035119239641
1401.2278,47.36007516895006
1403.0745,42.87968223045846
1404.9204,50.81771078514976
1406.7656,92.4726988124603
1408.6101,139.19318378365097
1410.4538,176.47770224525357
1412.2968,249.1747893518741
1414.139,340.9829784933436
1415.9805,452.0508005677466
1417.8213,505.5767830633449
1419.6613,632.6094489478955
1421.5006,821.7473161333919
1423.3391,1049.9388962057392
1425.1769,1349.3826925333706
1427.0139,1807.3271979853325
1428.8502,2407.020891936845
1430.6858,2996.6622356898633
1432.5206,3394.9496664761346
1434.3547,3667.7315915607905
1436.188,3697.556384259473
1438.0206,3653.6223812105072
1439.8524,3494.2278820766596
1441.6835,3384.0211499844745
1443.5139,3309.1504131182246
1445.3435,3266.163865821971
1447.1724,3227.609669348283
1449.0005,3223.1359522880903
1450.8279,3162.240810956231
1452.6545,3181.0723094361874
1454.4804,3234.228480189039
1456.3056,3237.4573238651383
1458.13,3204.006808772556
1459.9536,3042.3248708447973
1461.7766,2759.059413975302
1463.5987,2423.9083116342617
1465.4202,2095.6194097012785
1467.2409,1784.7905298168716
1469.0608,1509.4694726653624
1470.88,1260.754021083174
1472.6984,1043.9419428120373
1474.5161,843.2309929861458
1476.3331,717.568916300278
1478.1493,603.3534490169022
1479.9648,559.9323202227997
1481.7795,492.653252971224
1483.5935,443.5639647161079
1485.4067,383.51216798485166
1487.2192,366.9455708692167
1489.031,357.4118776258465
1490.842,317.7087888419301
1492.6522,322.1840015305452
1494.4618,296.1352095276843
1496.2705,276.96010344750175
1498.0785,251.35637094280082
1499.8858,254.12169689679195
1501.6924,218.10376367912886
1503.4981,210.00025111824834
1505.3032,166.35883686155375
1507.1075,135.87719645644665
1508.911,131.75300378674456
1510.7138,92.78393137749481
1512.5159,53.01765043621708
1514.3172,31.70183124259529
1516.1178,37.134143546144514
1517.9176,9.912256779362906
1519.7166,-11.866159996590795
1521.515,-21.953437819674946
1523.3126,-1.2017891849118314
1525.1094,-22.613207272482214
1526.9055,-25.539673256693277
1528.7008,-23.48294240591713
1530.4954,-57.29451484718902
1532.2893,-50.325656112952856
1534.0824,-61.127059363452645
1535.8747,-42.198915005627896
1537.6663,-26.04080278710444
1539.4572,-10.85188088834093
1541.2473,29.318952657819864
1543.0367,35.67290822882478
1544.8253,53.81119590893377
1546.6132,115.73502542567894
1548.4003,152.1456059684815
1550.1867,236.49414556941792
1551.9723,307.6318507391088
1553.7572,428.70992562323954
1555.5414,568.9295712911762
1557.3247,707.7919845251881
1559.1074,892.3483564182534
1560.8893,1078.9498709854306
1562.6705,1250.6977033182975
1564.4509,1397.743017718929
1566.2305,1471.1369659824268
1568.0094,1563.8306859264649
1569.7876,1566.4753006573528
1571.565,1549.521917643092
1573.3417,1551.671628686936
1575.1176,1564.8755100969174
1576.8928,1607.9846226643604
1578.6672,1602.9000115318386
1580.4409,1615.322705762078
1582.2138,1634.403718388805
1583.986,1713.5940462925164
1585.7575,1796.3446700096683
1587.5282,1871.9565529407864
1589.2981,1982.7806405229467
1591.0673,2093.6178594736657
1592.8358,2227.819116682652
1594.6035,2316.6352981034415
1596.3704,2452.3172674113785
1598.1366,2562.9158651154585
1599.9021,2673.8319072015083
1601.6668,2796.6661840261995
1603.4308,2941.06945920789
1605.194,3120.042468398279
1606.9564,3367.2359178383786
1608.7182,3650.6504825687707
1610.4791,3940.736803957684
1612.2394,4258.745486866847
1613.9988,4612.627096750616
1615.7576,4952.432156475897
1617.5156,5135.411142783323
1619.2728,5250.664482889209
1621.0293,5198.342552655762
1622.785,5028.945675438544
1624.54,4700.7241226096885
1626.2942,4380.028115251884
1628.0477,3985.457827440574
1629.8005,3643.213389450925
1631.5525,3312.1448917035314
1633.3037,3057.6023881868496
1635.0542,2860.0858997678915
1636.804,2678.7454167376463
1638.553,2550.6809007862485
1640.3013,2533.892286816382
1642.0488,2522.129484223924
1643.7955,2568.342377065832
1645.5416,2653.3308241777695
1647.2868,2755.194658711979
1649.0313,2873.7836872874004
1650.7751,3030.1976889710277
1652.5181,3217.4864140920226
1654.2604,3415.449582677571
1656.0019,3685.7868825799987
1657.7427,3962.847967497135
1659.4828,4245.282454268946
1661.222,4429.63992010692
1662.9606,4406.969899769718
1664.6984,4178.9218837196095
1666.4354,3767.395318349163
1668.1717,3207.5396082617344
1669.9072,2621.8541203867258
1671.642,2157.5381895781443
1673.3761,1761.7911244714605
1675.1094,1444.662212126766
1676.8419,1206.000721986241
1678.5737,1008.6059090454469
1680.3048,848.2770162399447
1682.0351,730.6632764192359
1683.7646,627.7139139500487
1685.4934,548.8781458924855
1687.2215,500.35518302950686
1688.9488,437.99423065529754
1690.6754,373.64448906048665
1692.4012,349.9051541557651
1694.1263,331.32541811537703
1695.8506,293.9044696145188
1697.5742,276.5914940151333
1699.297,239.08567374012
1701.0191,209.68618844646744
1702.7404,190.49221540030976
1704.461,157.45292977092095
1706.1808,135.21750482265543
1707.8999,138.18511224533904
1709.6182,119.70492237662666
1711.3358,100.27610417232563
1713.0527,99.94782539119569
1714.7688,99.81925278923381
1716.4841,68.28955212296205
1718.1987,64.60788815071146
1719.9126,67.17342494792047
1721.6257,62.8353259439491
1723.338,61.492753896426166
1725.0496,59.44487093462749
1726.7605,66.89083857290461
1728.4706,56.679817731162075
1730.18,54.36096866039952
1731.8886,55.28345104481923
1733.5964,59.64642402501704
1735.3036,50.399046188756074
1737.0099,39.74047552733509
1738.7156,47.66986952806565
1740.4204,21.236385280852573
1742.1246,11.039179398907436
1743.8279,3.5274082830778752
1745.5306,1.850228223817794
1747.2325,-2.393204523690656
1748.9336,-13.903733722764628
1750.634,-27.48217922860931
1752.3336,-27.429221998133016
1754.0325,-8.09526844127413
1755.7307,-23.780450950044724
1757.4281,1.7151789552731316
1759.1247,3.691807321100896
1760.8206,-11.300379823290768
1762.5158,12.288803514452411
1764.2102,8.359656217478914
1765.9039,8.662477046048025
1767.5968,-7.102435323173722
1769.289,10.965217699856566
1770.9804,-0.284194341489183
1772.6711,1.7996979865129106
1774.361,8.517266956685035
1776.0502,13.668884823854569
1777.7386,23.304923757676534
1779.4263,22.4257557911169
1781.1132,33.43175272409917
1782.7994,28.673286132286194
1784.4849,38.05072725702894
1786.1696,25.364447052943888
1787.8535,33.01481609414441
1789.5367,30.602204701099254
1791.2192,47.42698286412997
1792.9009,32.38952026753759
1794.5818,40.34018612135378
1796.2621,30.779349311716487
1797.9415,31.457378321365013
1799.6202,35.42464132524765
1801.2982,59.9815061837412
1802.9755,51.62834040297503
1804.6519,69.41551088926371
1806.3277,48.84338403263973
1808.0027,47.81232552897973
1809.6769,71.72270058573031
1811.3504,74.17487393221973
1813.0231,70.11920958054816
1814.6951,63.95607080106765
1816.3664,85.13582016293776
1818.0369,89.158819595757
1819.7067,57.1254301777667
1821.3757,93.78601209562248
1823.044,83.89092496472495
1824.7115,95.5905274626175
1826.3783,88.68517742793574
1828.0443,89.27523174340968
1829.7096,106.11104640491794
1831.3741,99.74297651558936
1833.0379,104.57137611744156
1834.701,93.49659825506433
1836.3633,119.81899492733419
1838.0248,110.58891719816347
1839.6856,118.2567149332749
1841.3457,129.47273689250187
1843.005,130.5873306531139
1844.6636,141.1008424976535
1846.3214,112.7136174027928
1847.9785,142.57599893419638
1849.6349,142.0383295303941
1851.2904,135.5509502041573
1852.9453,147.7642005478756
1854.5994,148.6284187984288
1856.2528,160.04394171505965
1857.9054,151.71110457072427
1859.5572,163.33024103794196
1861.2083,151.25168327212214
1862.8587,170.075761795375
1864.5084,185.0528056172916
1866.1572,172.33314204670842
1867.8054,156.26709654193246
1869.4528,171.7049928379406
1871.0994,160.19715310704123
1872.7453,182.59389780449237
1874.3905,183.54554578358375
1876.0349,174.90241407166695
1877.6786,190.36481786063905
1879.3215,185.08307059337267
1880.9637,169.05748380909426
1882.6051,181.98836719620158
1884.2458,179.67602875251623
1885.8858,171.32077465597922
1887.525,182.27290928777074
1889.1634,169.98273531586483
1890.8011,176.40055358550717
1892.4381,195.6266632421175
1894.0743,185.81136166711076
1895.7098,193.00494428563616
1897.3446,190.75770466472932
1898.9786,196.96993444137843
1900.6118,197.94192334499485
1902.2443,185.87395913529144
1903.8761,194.01632759256609
1905.5071,169.56931263837532
1907.1374,195.2831962541136
1908.7669,194.60825872548412
1910.3957,190.8947783853596
1912.0237,182.8430316205313
1913.651,189.2032929088432
1915.2776,188.72583489970975
1916.9034,181.01092835051077
1918.5285,169.0588421313696
1920.1528,177.0698433023017
1921.7764,190.59419723273368
1923.3992,176.53216752139633
1925.0213,166.4840158610773
1926.6427,166.55000217924544
1928.2633,160.93038473853085
1929.8832,171.27542013606535
1931.5023,156.73536335967765
1933.1207,165.26046768444485
1934.7383,160.95098481809146
1936.3552,159.60716481573854
1937.9714,160.92925612299769
1939.5868,173.6675055894093
1941.2015,155.6221584552236
1942.8154,157.24345822401665
1944.4286,150.48164684314543
1946.041,130.5369646875315
1947.6528,153.10965062728383
1949.2637,146.0999422271425
1950.8739,145.30807552075112
1952.4834,146.78428508075513
1954.0921,144.6288040267209
1955.7001,141.89186401037477
1957.3074,150.32369523715488
1958.9139,140.77452649358293
1960.5197,139.19458506294495
1962.1247,140.5340968207811
1963.729,139.84328625068656
1965.3325,128.12237643091748
1966.9353,146.47158904129856
1968.5374,135.591144480431
1970.1387,127.98126168220051
1971.7393,135.09215822458555
1973.3392,142.62405040575004
1974.9383,137.7271531729407
1976.5366,122.90168004716406
1978.1342,130.49784317215654
1979.7311,136.96585346264146
1981.3273,125.95592052836264
1982.9227,129.41825260940686
1984.5173,117.25305668630244
1986.1112,119.21053844539574
1987.7044,113.14090240050564
1989.2968,119.59435187334566
1990.8885,123.77108905422165
1992.4795,138.6713149374964
1994.0697,129.14522927982398
1995.6592,122.39303045114457
1997.2479,117.46491552994712
1998.8359,118.21108037078966
2000.4232,117.8817196535822
2002.0097,109.277026876126
2003.5955,112.99719435740599
2005.1805,118.84241332363581
2006.7648,123.31287387105931
2008.3484,110.80876490749665
2009.9312,123.03027410763957
2011.5133,121.32758803809293
2013.0946,118.00089203515836
2014.6752,116.80037022186457
2016.2551,123.47620554123023
2017.8342,116.2285797682739
2019.4126,130.65767344325218
2020.9902,110.56366594413635
2022.5672,116.19673534232084
2024.1433,122.00705860356402
2025.7188,121.69481153165793
2027.2935,112.16016871032684
2028.8674,131.65330350634463
2030.4406,113.52438816488552
2032.0131,103.87359361459198
2033.5849,100.50108964886476
2035.1559,102.50704502236931
2036.7261,100.19162748476197
2038.2957,134.2550037606295
2039.8645,114.59733957264166
2041.4325,117.41879930091955
2042.9998,116.16954617961142
2044.5664,123.1497422686773
2046.1323,120.30954846638315
2047.6974,109.89912443949947
2049.2617,109.31862865169933
2050.8254,117.86821846766725
2052.3883,128.94805015890051
2053.9504,114.70827881821583
2055.5118,105.49905824894881
2057.0725,106.12054110735403
2058.6325,105.42287899469602
2060.1917,117.50622245103455
2061.7502,113.47072096220245
2063.3079,98.56652283897142
2064.8649,114.59377525740797
2066.4212,114.00262440791494
2067.9767,116.54321533495659
2069.5315,110.41569194297199
2071.0856,108.27019697096966
2072.6389,92.95687205380227
2074.1915,101.62585774362014
2075.7433,95.57729366300555
2077.2945,104.31131841828392
2078.8448,101.22806966000712
2080.3945,104.72768399561437
2081.9434,105.2102970202659
2083.4916,94.57604328184584
2085.039,86.67505627613741
2086.5857,94.35746855316324
2088.1317,94.77341179619543
2089.677,101.37301674493233
2091.2215,85.50641319133888
2092.7652,81.97372991364887
2094.3083,95.92509483503454
2095.8506,102.61063505893094
2097.3921,96.48047672952225
2098.933,91.93474496488852
2100.4731,83.22356391830431
2102.0124,88.89705682369731
2103.5511,107.75534608276052
2105.089,99.59855320821748
2106.6261,101.82679863523936
2108.1626,92.24020180301295
2109.6983,94.63888113245912
2111.2332,105.8229541220951
2112.7675,97.54253732405209
2114.301,103.04774623223079
2115.8337,95.43869536510624
2117.3657,108.96549821067629
2118.897,103.42826730255365
2120.4276,90.27711408469622
2121.9575,108.21214896677975
2123.4866,106.78348145570885
2125.0149,103.39121997626671
2126.5426,87.63547188540224
2128.0695,88.31634350615377
2129.5956,92.23394028520352
2131.1211,93.88836678607322
2132.6458,90.32972664994395
2134.1698,96.50812257911434
2135.693,89.77365637258663
2137.2155,94.7764288642843
2138.7373,97.91653999039386
2140.2584,92.89408873933826
2141.7787,99.25917312037586
2143.2983,92.11189021382552
2144.8171,101.05233610741448
2146.3353,79.13060596775131
2147.8527,85.6467939509223
2149.3693,94.70099342170738
2150.8853,78.1432968884194
2152.4005,88.67379591236204
2153.9149,95.24258127340704
2155.4287,94.74974286468887
2156.9417,93.89536962691636
2158.454,93.42954955330174
2159.9655,91.65236969810667
2161.4764,85.86391618129642
2162.9865,83.76427420631512
2164.4958,90.85352811796724
2166.0045,94.73176142341526
2167.5124,92.04905672128757
2169.0195,90.45549566289537
2170.526,95.60115897906053
2172.0317,80.63612649605216
2173.5367,87.06047708412757
2175.0409,82.82428880718476
2176.5445,98.77763885851687
2178.0473,83.92060360317487
2179.5494,84.90325841843492
2181.0507,82.12567784236808
2182.5513,81.33793556401247
2184.0512,80.09010445114995
2185.5504,66.03225655818301
2187.0488,76.61446313861416
2188.5465,88.78679478562344
2190.0435,85.14932132624631
2191.5397,80.70211169965205
2193.0353,79.09523399351747
2194.5301,72.82875548849984
2196.0241,71.25274267430405
2197.5175,78.61726131234809
2199.0101,80.32237645152236
2200.502,80.01815235454592
2201.9931,68.30465248091377
2203.4835,66.18193948994008
2204.9733,62.400075357893
2206.4622,76.45912139922166
2207.9505,73.50913830437548
2209.438,63.55018599921323
2210.9248,61.232323674502595
2212.4109,56.505609885510694
2213.8962,61.27010257518168
2215.3809,68.47585912140471
2216.8648,62.42293628936909
2218.3479,63.611390159504936
2219.8304,54.39127618801513
2221.3121,65.5626491949879
2222.7931,48.375563456600275
2224.2733,50.2800725934012
2225.7529,59.92622974218466
2227.2317,53.164087536944635
2228.7098,62.893698012412415
2230.1872,59.115112671680436
2231.6638,49.92838238890363
2233.1397,54.08355744708638
2234.6149,53.48068762994967
2236.0894,57.56982218038024
2237.5632,55.501009806459024
2239.0362,56.72429864056858
2240.5085,53.739736260083646
2241.9801,61.44736967513563
2243.4509,46.94724535845944
2244.921,46.889409168316206
2246.3904,33.673906493495906
2247.8591,47.40078225389402
2249.3271,47.82008103266821
2250.7943,41.83184693896828
2252.2608,46.436123603743226
2253.7266,48.43295423962513
2255.1917,43.97238159488552
2256.656,42.504447933466054
2258.1197,33.27919507958677
2259.5826,36.44666443242318
2261.0447,43.406897058359846
2262.5062,38.80993365931408
2263.9669,43.85581450313498
2265.4269,24.34457946957309
2266.8862,25.57626799982131
2268.3448,40.70091929162777
2269.8026,34.81857228697936
2271.2598,47.37926552085355
2272.7162,32.2830371800444
2274.1719,36.87992497755317
2275.6268,42.2199663035517
2277.0811,44.40319817941304
2278.5346,55.129657204309524
2279.9874,50.649379533382216
2281.4395,46.612400770476825
2282.8908,45.26875601294523
2284.3414,46.218479892015694
2285.7914,35.961606586229436
2287.2406,46.54816981194426
2288.689,51.128202925902315
2290.1368,59.451738819364664
2291.5838,41.868809872310294
2293.0302,52.67944787020156
2294.4758,45.383684179814054
2295.9206,49.98154964112882
2297.3648,52.323074640291225
2298.8082,39.75828906363154
2300.251,48.437222274250416
2301.693,46.45990323766523
2303.1343,63.52636043502184
2304.5748,55.836621882867576
2306.0147,47.24071496248598
2307.4538,40.88866649679335
2308.8922,53.080502836300184
2310.3299,57.416249922630186
2311.7669,55.24593316660366
2313.2031,39.66957740487942
2314.6387,48.68720692165675
2316.0735,48.598845604440385
2317.5076,45.30451685386424
2318.941,44.60424358457317
2320.3737,46.54804825816814
2321.8056,46.435952890207545
2323.2369,39.717979030769584
2324.6674,45.39414776557442
2326.0972,49.964479783162915
2327.5263,39.37899531813582
2328.9547,48.33771410544978
2330.3823,52.94065548627168
2331.8092,40.08783831839173
2333.2355,45.6792809301935
2334.661,40.56500124918239
2336.0858,33.34501674606986
2337.5098,50.119344485917736
2338.9332,42.48800120033866
2340.3558,42.60100311975157
2341.7778,41.10836604969586
2343.199,49.66010536970134
2344.6195,50.65623604821508
2346.0393,49.09677255708402
2347.4583,44.63172886159259
2348.8767,36.861118436059314
2350.2943,50.33495430848461
2351.7113,55.20324913825948
2353.1275,51.566015081424666
2354.543,59.37326374198892
2355.9578,60.32500620830092
2357.3718,53.371252974978006
2358.7852,53.71201393338765
2360.1978,61.64729844118369
2361.6098,53.427115318900405
2363.021,47.75147277059955
2364.4315,40.87037846607154
2365.8413,53.633839597592214
2367.2504,55.741862948734024
2368.6587,49.69445476673184
2370.0664,51.14162074140245
2371.4733,55.38336606561734
2372.8795,48.669695420832454
2374.285,57.500612934671494
2375.6899,59.976122248062325
2377.0939,51.79622642692891
2378.4973,48.86092793743421
2379.9,53.47022872778098
2381.3019,57.32413025756409
2382.7032,45.622633451676165
2384.1037,57.51573866176875
2385.5035,39.60344578326885
2386.9027,35.985754136444484
2388.3011,43.91266264553042
2389.6987,46.83416987490466
2391.0957,46.90027394981871
2392.492,32.560972527183594
2393.8876,38.91626279490765
2395.2824,50.016141615291076
2396.6765,48.46060546147112
2398.07,43.69965030642493
2399.4627,41.43327163852416
2400.8547,42.11146450914498
2402.246,34.884223555331346
2403.6366,37.00154299301289
2405.0265,43.91341668927771
2406.4156,39.819838141198034
2407.8041,37.57080040671383
2409.1918,41.96629614556707
2410.5789,45.856317641791634
2411.9652,39.84085675975825
2413.3508,39.319904905276644
2414.7358,44.69345308574884
2416.12,41.811491915377474
2417.5035,38.47401156143235
2418.8863,39.58100177306699
2420.2684,44.182451914696344
2421.6497,37.828350954924986
2423.0304,45.018687420535116
2424.4104,48.85344946002567
2425.7896,42.93262477170799
2427.1682,47.156200565359995
2428.546,41.82416362143249
2429.9232,49.08650024881399
2431.2996,40.29319633815214
2432.6753,45.29423728923007
2434.0503,46.43960809889904
2435.4246,46.92929331106836
2436.7982,35.9632770052508
2438.1711,41.84154279166694
2439.5433,42.76407392090471
2440.9148,34.63085322513689
2442.2856,49.54186310889622
2443.6557,31.64708563040722
2445.025,29.29650235247584
2446.3937,42.64009452143796
2447.7617,39.92784309066394
2449.1289,49.30972858712448
2450.4955,43.48573113851137
2451.8613,45.95583037941947
2453.2265,44.27000550958712
2454.5909,34.82823526919458
2455.9546,43.98049795572285
2457.3177,45.576771518370265
2458.68,43.11703346653053
2460.0416,45.95126085383026
2461.4025,43.87943030272595
2462.7627,51.901517976161585
2464.1222,56.36749959828728
2465.4811,53.277350374237585
2466.8392,52.98104494547317
2468.1966,44.42855742068127
2469.5533,59.819861378739574
2470.9093,51.60492995424033
2472.2645,45.18373568357799
2473.6191,55.35625058709786
2474.973,52.62244623330889
2476.3262,45.23229363715825
2477.6787,61.08576328736876
2479.0305,55.23282522034128
2480.3816,46.82344886161968
2481.7319,50.50760308441909
2483.0816,56.78525629372041
2484.4306,54.75637638942953
2485.7789,56.42093070360022
2487.1264,58.3788860207228
2488.4733,45.13020856107869
2489.8195,55.82486396116121
2491.165,46.51281740616207
2492.5097,50.844033523024336
2493.8538,53.818476473563805
2495.1972,49.88610991115604
2496.5398,53.896896950991504
2497.8818,54.50080020940061
2499.2231,54.24778176374468
2500.5637,55.7878031463772
2501.9035,53.02082534717454
2503.2427,59.24680879813491
2504.5812,55.365713401048765
2505.919,60.92749846523907
2507.256,62.08212274637151
2508.5924,59.32954439083721
2509.9281,51.16972092420633
2511.2631,57.752609278754335
2512.5974,48.77816587505913
2513.9309,56.69634655617392
2515.2638,57.057106677370484
2516.596,60.11040102695813
2517.9275,57.206183822675484
2519.2583,51.29440868115796
2520.5884,52.12502864697956
2521.9178,51.44799625176961
2523.2465,54.56326350590814
2524.5745,57.72078190529544
2525.9018,59.070502400199075
2527.2284,59.612375363679575
2528.5543,52.346350578092256
2529.8796,55.622377229669496
2531.2041,58.94040398118045
2532.5279,49.90037893917088
2533.851,68.80224962078239
2535.1735,64.29596304415406
2536.4952,58.93146553940187
2537.8163,67.30870279368276
2539.1366,65.82761990483891
2540.4562,65.38816129762608
2541.7752,74.64027073852378
2543.0935,60.83389134013055
2544.411,56.668965468642
2545.7279,69.64543488191555
2547.0441,73.71324077111888
2548.3596,79.37232363096541
2549.6744,80.87262321903631
2550.9885,66.16407849919028
2552.3019,71.64662762655985
2553.6146,75.67020809463781
2554.9266,73.73475668045046
2556.2379,73.59020940432208
2557.5485,79.28650154923002
2558.8585,78.9235676622501
2560.1677,75.4013414975932
2561.4762,80.26975602023492
2562.7841,83.32874344113793
2564.0913,82.67823516856708
2565.3977,81.9681617775002
2566.7035,83.69845301613373
2568.0086,86.66903781298197
2569.313,74.57984425957522
2570.6167,83.78079958075352
2571.9197,81.8718302555585
2573.222,84.15286192522456
2574.5236,93.67381941226813
2575.8246,88.63462669767728
2577.1248,88.38520682570197
2578.4244,89.07548195424624
2579.7232,93.55537335736187
2581.0214,88.42480141834642
2582.3189,97.03368558494378
2583.6157,97.53194442065069
2584.9118,102.3194955186267
2586.2072,98.64625549671234
2587.5019,104.26213994955356
2588.7959,109.267063485334
2590.0893,110.16093966961625
2591.3819,112.44368097529218
2592.6739,110.11519877364492
2593.9652,117.0254033115209
2595.2557,116.2742037346145
2596.5456,112.2115080183662
2597.8348,113.13722297547486
2599.1234,111.95125429652478
2600.4112,117.303506540728
2601.6983,126.94388314778416
2602.9848,124.82228638435811
2604.2705,115.88861724767628
2605.5556,134.09277548674197
2606.84,123.03465969167337
2608.1237,129.41416711166084
2609.4067,125.0811937655485
2610.689,117.63563437803941
2611.9707,119.1773824230246
2613.2516,120.45633019803972
2614.5319,108.722368808846
2615.8115,114.57538815664202
2617.0903,118.51527705540286
2618.3685,111.89192317335039
2619.6461,113.60521299355366
2620.9229,115.50503188016307
2622.199,110.84126406127712
2623.4745,109.66379260994438
2624.7493,112.42249949080087
2626.0234,108.06726557184493
2627.2968,109.49797059685
2628.5695,118.01449322891733
2629.8415,115.26671103616877
2631.1128,115.75450040658177
2632.3835,108.77773657546663
2633.6535,115.58629362058934
2634.9228,114.33004453193882
2636.1914,114.8088611436416
2637.4593,109.42261414652398
2638.7265,110.42117308332433
2639.9931,110.25440640255499
2641.259,112.37218144851704
2642.5242,115.3243644629681
2643.7887,108.41082056394418
2645.0525,114.03141371623747
2646.3156,115.48600680053255
2647.5781,106.77446155719986
2648.8398,110.09663857175019
2650.1009,107.25239736194942
2651.3613,109.14159634459747
2652.6211,113.26409286397018
2653.8801,110.11974317292788
2655.1385,107.35840239169033
2656.3961,102.42992453928025
2657.6531,113.83416256113651
2658.9094,104.12096837839908
2660.1651,115.3401927738663
2661.42,119.19168548912717
2662.6743,115.47529511236871
2663.9279,126.54086903986115
2665.1808,123.33825351312248
2666.433,121.56729350826174
2667.6846,121.4778327680059
2668.9354,127.91971381940925
2670.1856,124.0927779747476
2671.4351,140.04686526709997
2672.6839,131.2818144886176
2673.9321,135.84746303098348
2675.1795,134.69364697306253
2676.4263,141.1202010352452
2677.6724,148.77695859098634
2678.9179,143.46375160253893
2680.1626,146.6304105443872
2681.4067,141.32676445637753
2682.6501,147.40264091205256
2683.8928,148.6578660716873
2685.1348,135.84226462153066
2686.3761,139.40565976125305
2687.6168,134.04787333210209
2688.8568,123.118725781269
2690.0961,128.16803621546677
2691.3348,124.04562251022122
2692.5727,123.15130125937822
2693.81,122.5348878163278
2695.0466,114.59619630294691
2696.2826,119.23503961576404
2697.5178,126.45122950534642
2698.7524,125.24457652991083
2699.9863,123.36488998316253
2701.2195,124.31197790636094
2702.452,127.33564710711676
2703.6839,128.18570314992195
2704.9151,137.41195032591156
2706.1456,143.66419164436428
2707.3755,147.44222874043965
2708.6046,156.34586181265524
2709.8331,166.52488958510708
2711.0609,167.57910921843177
2712.2881,169.95831620801812
2713.5145,182.81230437346352
2714.7403,186.59086583478228
2715.9654,198.1437908838658
2717.1899,205.82086794669704
2718.4136,225.82188346782124
2719.6367,234.14662183357552
2720.8591,251.64486517207854
2722.0809,254.0163932699826
2723.3019,270.56098339749235
2724.5223,268.478410284648
2725.7421,279.0684459558803
2726.9611,284.1808597508357
2728.1795,278.3154182184772
2729.3972,276.27188506595934
2730.6142,260.6000212172828
2731.8306,247.94958483372966
2733.0462,226.77033147058216
2734.2612,216.46201420362678
2735.4756,200.27438384094722
2736.6892,177.05718902600705
2737.9022,160.01017639952585
2739.1145,153.28309083165203
2740.3262,136.82567559243205
2741.5372,133.18767241908222
2742.7475,114.91882168056185
2743.9571,106.918862413954
2745.1661,96.58753250715387
2746.3744,94.72456877886805
2747.582,82.47970708192861
2748.7889,73.40268232192193
2749.9952,56.99322857963756
2751.2008,49.451079201838866
2752.4057,45.575966965357
2753.61,48.4176241525127
2754.8136,43.475782589867435
2756.0165,48.15017361980625
2757.2188,41.29052814995708
2758.4204,44.04657660644625
2759.6213,40.868049002494786
2760.8215,32.254674910858
2762.0211,34.60618349561082
2763.22,31.022303598281894
2764.4182,24.052763714337857
2765.6158,28.897292029023333
2766.8127,22.55561648705509
2768.009,22.877464744177473
2769.2045,17.21256423057889
2770.3994,4.11064214767282
2771.5936,-1.5785744752519122
2772.7872,1.6946413499864548
2773.9801,-1.369967618471378
2775.1723,-7.522658639430688
2776.3639,-8.31367528572082
2777.5548,-7.693185978811016
2778.745,-10.411276086554949
2779.9346,-10.917954121878324
2781.1235,-24.563124589059214
2782.3117,-14.346582922013909
2783.4992,-15.167879169044568
2784.6861,-15.276420056090046
2785.8723,-10.421460781976862
2787.0579,-10.652103934095408
2788.2428,-10.617347989443147
2789.427,-5.116085010499432
2790.6106,-1.3971009924380269
2791.7935,4.040869179257356
2792.9757,7.89910457614144
2794.1573,17.478884229359664
2795.3382,28.13148709106747
2796.5184,27.80819193863158
2797.698,43.46027726810462
2798.8769,37.73902129745659
2800.0551,66.7457018100564
2801.2327,69.58159621188224
2802.4096,84.89798124145557
2803.5859,94.69613294148292
2804.7615,108.47732650569196
2805.9364,127.04283618085049
2807.1106,154.5939351289528
2808.2842,168.43189524156548
2809.4572,191.90798686431617
2810.6294,227.7734786585138
2811.801,257.82963736638806
2812.972,287.32772745243415
2814.1423,325.0190108028512
2815.3119,367.0547464305612
2816.4808,414.7361900982959
2817.6491,464.1145938982402
2818.8167,515.5912057752166
2819.9837,566.5172690329023
2821.15,619.1940218190622
2822.3157,661.9226966162892
2823.4807,735.3545197152358
2824.645,776.6407107873284
2825.8086,835.5324821504482
2826.9716,887.1810383560702
2828.134,936.9875756003444
2829.2957,1000.0032812076114
2830.4567,1022.9293331323366
2831.617,1060.0668993289528
2832.7767,1052.1171375226006
2833.9358,1048.9811948377512
2835.0941,1044.8102078777051
2836.2519,1040.6553027559514
2837.4089,1014.8175951378764
2838.5653,997.148190282314
2839.7211,972.5981832999231
2840.8761,966.7186593298794
2842.0306,982.010693785379
2843.1843,993.1253524124298
2844.3374,1032.5636911369347
2845.4899,1082.6767559535417
2846.6417,1125.5155825312631
2847.7928,1189.881195712344
2848.9433,1244.4746090838742
2850.0931,1314.1468243341315
2851.2422,1378.9988307066485
2852.3907,1444.5316043034895
2853.5385,1479.7461074367313
2854.6857,1527.5432879731345
2855.8323,1574.724078981999
2856.9781,1649.789398257192
2858.1233,1685.0401478453407
2859.2679,1737.0772132951788
2860.4118,1782.5514633050373
2861.555,1835.6137492024754
2862.6976,1859.1149044895392
2863.8395,1917.155744312136
2864.9808,1937.4870652250256
2866.1214,1958.6096446114097
2867.2614,1965.624240479621
2868.4007,1991.631591251895
2869.5393,1988.7324156942252
2870.6773,2018.3274126562903
2871.8146,2023.3172611004436
2872.9513,2032.4526198057667
2874.0874,2012.2841273181677
2875.2227,2004.462401859029
2876.3574,1981.288041526891
2877.4915,1956.2116243756718
2878.6249,1927.3837086464093
2879.7577,1895.6048330180247
2880.8898,1892.4255168956029
2882.0212,1879.9962607281818
2883.152,1851.6175460405443
2884.2821,1844.98983555751
2885.4116,1835.363573487724
2886.5405,1833.139185589933
2887.6686,1833.517079269249
2888.7962,1856.4476435993922
2889.923,1858.6812493189132
2891.0493,1877.068248601885
2892.1748,1867.80897503557
2893.2997,1885.0037434365481
2894.424,1906.7028499433095
2895.5476,1924.7065718443073
2896.6706,1935.665167360967
2897.7929,1977.378875467648
2898.9145,1993.9479157820583
2900.0355,2026.6224881481185
2901.1559,2042.102772470271
2902.2756,2095.8389283867327
2903.3946,2119.0810951146937
2904.513,2135.1793909129556
2905.6308,2154.3339128495077
2906.7479,2180.3947366405464
2907.8643,2204.9619164589303
2908.9801,2228.285484673569
2910.0953,2239.7154516037554
2911.2098,2236.4518052859257
2912.3236,2232.094511359366
2913.4368,2229.3435130988405
2914.5494,2203.6987314581716
2915.6613,2157.9600650977445
2916.7725,2149.077390640957
2917.8831,2116.0505631316096
2918.9931,2085.7294161227255
2920.1024,2068.713762006826
2921.211,2040.9533923191361
2922.319,2023.8980779077447
2923.4264,1997.3975692112072
2924.5331,1989.901596429097
2925.6391,1997.009869787015
2926.7445,1986.022079611544
2927.8493,2003.6378962591707
2928.9534,2016.4569702261597
2930.0569,2023.1789319723985
2931.1597,2025.0533917932053
2932.2619,2031.6799397521086
2933.3634,2019.9581456621042
2934.4643,2030.4875590193878
2935.5645,2025.2177091205754
2936.6641,1995.9981049574058
2937.763,1962.5282352694417
2938.8613,1937.9575688362665
2939.959,1885.6355548121799
2941.056,1819.1116229719069
2942.1523,1740.335184233816
2943.248,1668.705631325162
2944.3431,1597.272339569846
2945.4375,1493.6846676047135
2946.5313,1387.9919580938872
2947.6244,1290.7935387646442
2948.7169,1191.5887234643408
2949.8087,1098.2768131323994
2950.8999,1019.2570967923549
2951.9904,932.9788524849748
2953.0803,877.7913480584559
2954.1696,810.8938420312081
2955.2582,764.2855841437273
2956.3462,716.1658160275714
2957.4335,690.7837716714428
2958.5202,638.188677902386
2959.6062,627.9297546396083
2960.6916,602.9562154204298
2961.7764,586.2672675028734
2962.8605,572.1121121154009
2963.9439,562.7399446238003
2965.0267,557.6999546727395
2966.1089,547.5413262794866
2967.1905,539.6632378843108
2968.2714,540.3148624520672
2969.3516,539.3953675509799
2970.4312,542.053915346124
2971.5102,549.6396626086208
2972.5885,561.2517606890538
2973.6662,563.9393554416088
2974.7432,572.2515871079547
2975.8196,582.7375902903678
2976.8954,571.3464938686084
2977.9705,555.7274208950619
2979.045,548.9794887086492
2980.1188,544.2018090910171
2981.192,517.643488334018
2982.2645,507.00362728748655
2983.3364,495.88132162482316
2984.4077,471.42566194939195
2985.4783,442.93573390574454
2986.5483,427.71061842417555
2987.6177,397.0993920056229
2988.6864,361.10112687391893
2989.7545,338.1148912819019
2990.8219,305.4897498713992
2991.8887,266.62476390308933
2992.9548,241.51899158275347
2994.0204,223.37148844992578
2995.0852,193.03130762895114
2996.1495,166.04750001045983
2997.2131,145.4191145547693
2998.276,125.39519856172274
2999.3383,102.87479787697237
3000.4,91.65695709221859
3001.4611,68.19071977041409
3002.5215,63.975128557942355
3003.5812,50.00922541928014
3004.6404,37.842051679152746
3005.6989,33.872648162193855
3006.7567,16.400055314616907
3007.8139,6.923313243908467
3008.8705,7.591461893554936
3009.9264,-1.2964588621903204
3010.9818,7.108590775011692
3012.0364,-5.744336444875728
3013.0905,-8.106187842975942
3014.1439,-9.427853354490821
3015.1966,-13.110141933806347
3016.2487,-10.203768351053384
3017.3002,-6.209316406045218
3018.3511,-11.827267962949634
3019.4013,-11.508042854863675
3020.4509,-8.451942760477664
3021.4998,-0.7591543931342244
3022.5481,0.9202199687321126
3023.5958,-7.8139143693611
3024.6428,1.1383478889017624
3025.6892,-2.0230098991593763
3026.735,1.9019956123921702
3027.7802,10.213367979361635
3028.8247,13.411110738534603
3029.8685,18.94522732456295
3030.9118,15.815721037987828
3031.9544,30.372594989898346
3032.9963,26.66585213322668
3034.0376,35.4954951171793
3035.0783,42.011526324304896
3036.1184,46.86394778219727
3037.1578,57.002761098334986
3038.1966,58.42796741155706
3039.2348,56.08956729067501
3040.2723,66.48756072022064
3041.3092,74.77194712383022
3042.3455,75.19272526026435
3043.3811,70.64989314056442
3044.4161,73.04344802384452
3045.4505,79.8233864627203
3046.4842,76.63970427937306
3047.5173,77.74239649775018
3048.5498,78.5814573754023
3049.5816,78.35688039245639
3050.6128,79.76865824322516
3051.6434,80.9167828384526
3052.6734,72.80124529119615
3053.7027,72.82203590534601
3054.7314,79.82914425677961
3055.7594,75.07255919315435
3056.7868,77.30226876383625
3057.8136,73.11826026746604
3058.8398,79.27052022966149
3059.8653,72.05903444485813
3060.8902,82.1337879147863
3061.9145,75.39476492058623
3062.9381,86.89194892206035
3063.9612,71.37532262506369
3064.9835,74.89486786653197
3066.0053,83.1005657696478
3067.0264,74.89239670864532
3068.0469,75.7203402267532
3069.0668,74.88437511827641
3070.086,63.834479420316484
3071.1046,64.97063042113126
3072.1226,60.79280477063378
3073.1399,67.3509784690311
3074.1567,52.4951269086024
3075.1727,47.72522480811716
3076.1882,48.04124636139352
3077.203,41.143165284997565
3078.2173,38.83095481508286
3079.2308,33.00458777637158
3080.2438,30.914036605276323
3081.2561,30.65927340816384
3082.2678,26.240269982260656
3083.2789,22.0569978182007
3084.2893,21.859428144215315
3085.2991,13.747531967966012
3086.3083,10.271280078520135
3087.3169,6.380643127469654
3088.3248,8.92559166369395
3089.3321,11.50609617226604
3090.3388,4.372127049003041
3091.3449,2.1736545746612137
3092.3503,3.960648986275544
3093.3551,4.68308049914458
3094.3593,7.640919288960475
3095.3629,1.8341354845846922
3096.3658,3.612699138469594
3097.3681,-0.3734197152735419
3098.3698,-3.9742510786602736
3099.3708,1.6101787767568112
3100.3713,-1.1701167178065646
3101.3711,-1.4651241472365086
3102.3702,-2.1748184069530794
3103.3688,4.000840244213748
3104.3667,-1.3380867261301717
3105.364,1.058462109612691
3106.3607,1.7905615465261917
3107.3568,-0.5917136308904389
3108.3522,2.061711343956489
3109.347,-1.0490828511200903
3110.3412,-1.7740155589243045
3111.3348,0.2370043580773995
3112.3277,-0.8659142401661768
3113.32,0.46733513862034215
3114.3117,3.286867637195286
3115.3028,0.3927983936438011
3116.2932,0.9852425131825271
3117.2831,4.064315097100092
3118.2723,2.730131236832932
3119.2608,7.232805983174302
3120.2488,4.672454359616182
3121.2361,4.2491913173223566
3122.2229,-0.5868682392677442
3123.209,6.364390551793434
3124.1944,1.753088415267058
3125.1793,8.829346012270406
3126.1635,6.893283986390031
3127.1471,13.395022892919059
3128.1301,8.984683218217867
3129.1125,14.06238531469667
3130.0942,13.628249444918964
3131.0753,10.832395730824388
3132.0558,17.024944158070227
3133.0357,10.656014603989803
3134.015,16.025726775666996
3134.9936,9.684200273625663
3135.9716,18.681554538132318
3136.949,18.56790891261157
3137.9258,16.193382553672294
3138.902,17.558094432244445
3139.8775,24.162163357324033
3140.8524,21.855707962326278
3141.8267,18.788846639044777
3142.8004,19.561697560716183
3143.7735,24.17437871268872
3144.7459,24.927007884693623
3145.7178,25.86970262471843
3146.689,28.452580231480667
3147.6596,29.075757745000843
3148.6295,32.589351920773765
3149.5989,25.143479223536616
3150.5676,29.588255792133182
3151.5357,24.823797513972437
3152.5032,31.85021998058083
3153.4701,30.617638535246925
3154.4364,30.926168202757054
3155.402,35.32592370172124
3156.367,36.117019441487756
3157.3315,39.64956947814579
3158.2952,37.423687506614286
3159.2584,34.839486825316555
3160.221,36.04708035843913
3161.1829,40.34658068177371
3162.1442,38.988100010641254
3163.105,41.32175015689691
3164.065,43.14764254251487
3165.0245,39.3158881762518
3165.9834,39.57659763538804
3166.9416,42.42988110404503
3167.8993,43.325848370578285
3168.8563,49.41460879904458
3169.8127,45.74627132024223
3170.7684,47.72094437082348
3171.7236,50.38873592997788
3172.6782,49.39975349968557
3173.6321,51.45410407803935
3174.5854,49.45189416913447
3175.5381,55.59322976252519
3176.4902,53.578216353246866
3177.4417,56.30695888040253
3178.3926,57.42956174731308
3179.3428,53.696128794229836
3180.2924,54.85676328710853
3181.2415,61.51156795494359
3182.1899,61.11064497816188
3183.1377,61.70409592207456
3184.0848,63.04202174088638
3185.0314,58.32452277176113
3185.9773,59.70169872144242
3186.9227,59.87364871342864
3187.8674,63.640471274201204
3188.8115,65.90226433150508
3189.755,66.00912517668047
3190.6979,69.36115044204499
3191.6402,67.95843609982498
3192.5818,70.35107742863534
3193.5229,73.08916902750653
3194.4633,74.62280479195832
3195.4031,72.60207788661873
3196.3423,73.1770807298878
3197.2809,70.29790501414473
3198.2189,73.66464169999796
3199.1563,75.47738104507685
3200.0931,79.18621257036436
3201.0292,75.19122504206965
3201.9648,78.39250643453973
3202.8997,80.54014397020937
3203.834,78.33422408758827
3204.7677,80.42483241978472
3205.7008,80.76205381656473
3206.6333,82.69597232344597
3207.5652,86.77667117832563
3208.4964,85.55423279214111
3209.4271,88.32873870806313
3210.3571,90.85026961372006
3211.2865,87.41890531345285
3212.2154,88.23472470309983
3213.1436,87.84780580431018
3214.0712,88.45822575638587
3214.9982,94.21606082015079
3215.9246,90.37138637184654
3216.8503,94.77427684555414
3217.7755,94.37480577164072
3218.7001,96.62304573273066
3219.624,97.11906836770018
3220.5473,96.0629443491951
3221.4701,100.70474337867054
3222.3922,98.94453419695216
3223.3137,102.18238453781808
3224.2346,97.56836114560119
3225.1549,101.45252974281036
3226.0746,101.68495507627092
3226.9937,104.31570087828291
3227.9121,104.99482986429675
3228.83,107.17240370660585
3229.7473,103.64848302755536
3230.6639,108.27312737776634
3231.5799,112.39639527137501
3232.4954,114.06834413978629
3233.4102,110.93903029044111
3234.3244,110.45850889009694
3235.238,111.47683399612097
3236.151,112.14405856129525
3237.0634,113.6102344236335
3237.9752,114.82541229970877
3238.8864,118.9896417699918
3239.797,118.75297126669918
3240.7069,121.515448032151
3241.6163,117.42711812113765
3242.5251,122.33802637329504
3243.4332,124.24821645398775
3244.3408,120.90773080520026
3245.2477,122.4666106264348
3246.154,124.37489590811629
3247.0598,123.33262541600351
3247.9649,126.23983667210628
3248.8694,128.04656596510813
3249.7733,126.85284832129418
3250.6766,126.20871748648388
3251.5793,125.56420593796813
3252.4814,128.66934489095064
3253.3829,131.474164304993
3254.2838,133.4786928529634
3255.1841,130.83295789298822
3256.0838,129.03698544840688
3256.9829,133.29080023422932
3257.8814,133.04442567509545
3258.7792,136.09788386273715
3259.6765,132.201195558442
3260.5731,136.65438016251866
3261.4692,134.40745575326392
3262.3647,136.4104390424306
3263.2595,140.51334539769707
3264.1538,139.9661888226371
3265.0474,141.01898191569114
3265.9404,138.72173587563765
3266.8329,143.12446049106524
3267.7247,138.07716416334515
3268.616,139.77985386260394
3269.5066,140.13253517819658
3270.3966,138.8352123016794
3271.286,140.18788802328334
