RamanShift,CorrectedData
30.1047,120.74148529273933
32.3739,111.8472480116923
34.6426,102.85300952323037
36.9109,95.15876750146627
39.1787,83.11451859198252
41.4461,77.42025848877395
43.7131,67.37598205469025
45.9796,59.08168337837842
48.2456,47.08735587472559
50.5112,37.942992367802034
52.7764,27.848585210804465
55.0411,22.35412637749962
57.3054,10.209607563168415
59.5692,1.7650202395504664
61.8326,-8.829644223710671
64.0955,-14.974394474621658
66.3579,-20.51915095304337
68.6199,-24.513684504635897
70.8815,-33.10756098874133
73.1426,-28.25010137299357
75.4032,-6.590295880492292
77.6634,54.7231474841755
79.9231,203.29158655347862
82.1824,528.1163786126546
84.4412,1078.4488789140246
86.6995,1755.090437428747
88.9574,2406.1423933434903
91.2148,2844.80606829402
93.4717,3025.782759854676
95.7282,3009.4737371517394
97.9842,2986.0302390536626
100.2398,2929.9034743341613
102.4949,2870.4446219066476
104.7495,2799.2548313855013
107.0036,2736.3352236806545
109.2573,2662.28689170949
111.5105,2565.7109010260415
113.7632,2445.408290561471
116.0154,2325.030073589833
118.2672,2199.977238931099
120.5185,2087.000752154939
122.7693,1979.0015568312522
125.0197,1884.0305756599294
127.2696,1802.6387115508464
129.519,1755.6768485735738
131.7679,1719.8958527712948
134.0163,1693.096572630424
136.2642,1661.4298394384182
138.5117,1624.9464675517688
140.7587,1598.4972547126686
143.0052,1541.3829824138452
145.2512,1485.0544161630548
147.4967,1411.7123060542237
149.7417,1354.8573873307337
151.9863,1333.2403811188437
154.2304,1310.8119949962395
156.4739,1280.5729232082024
158.717,1283.6738468918948
160.9596,1306.7154343787497
163.2017,1307.0983411634625
165.4433,1301.8232096735737
167.6844,1282.9906692656414
169.925,1243.151336277991
172.1651,1179.2558142190426
174.4047,1111.0046941657022
176.6439,1076.898555402318
178.8825,1032.0379661031916
181.1206,1005.5734836736393
183.3582,989.5556551985985
185.5954,969.3350177072712
187.832,959.3620983333043
190.0681,946.5874145169942
192.3037,951.5614741050166
194.5388,936.9347754781747
196.7734,948.3078075016558
199.0075,953.1310496713004
201.2411,958.3549719998715
203.4742,980.6800349688215
205.7068,984.5566894760532
207.9389,991.7853766126696
210.1704,991.4165276242073
212.4015,1002.9005638383494
214.632,1007.587896668614
216.862,996.8789274995145
219.0915,989.9740476396852
221.3205,1015.9236384289715
223.549,990.3780713074793
225.777,997.8377075560784
228.0044,971.0528985518586
230.2314,958.7239856935321
232.4578,923.7013006692833
234.6837,910.7851655800565
236.909,896.8258932897834
239.1339,872.0737875545441
241.3582,860.8791431621603
243.582,845.7922461797156
245.8053,851.7133740655031
248.0281,849.2927958198932
250.2503,843.5307719261235
252.472,850.677554374503
254.6932,846.8833867200337
256.9139,841.4985040109426
259.134,846.4231328266227
261.3536,877.4074913314826
263.5727,925.7517892256999
265.7912,964.106227435378
268.0092,1006.9709976291023
270.2267,1047.746281834397
272.4436,1078.8322520090767
274.6601,1108.6790696334938
276.8759,1113.3868853996787
279.0913,1147.9058389128713
281.3061,1148.8360586444423
283.5204,1160.177661586706
285.7341,1177.9307532436155
287.9473,1176.8454275173467
290.16,1177.62176653077
292.3721,1142.5598406383015
294.5837,1115.0597084181404
296.7947,1081.2714170228887
299.0052,1066.4950024545506
301.2152,1023.5304899024163
303.4246,1017.9778938908275
305.6334,992.1372187088206
307.8418,964.0084584656533
310.0495,930.791597349212
312.2568,881.3366099072983
314.4635,842.9434613797984
316.6696,775.2121081932332
318.8752,714.2924983446895
321.0802,704.8345720791333
323.2847,684.9882624986064
325.4887,681.0534956568055
327.692,698.8801907575446
329.8949,748.4182601941033
332.0972,757.4176093709594
334.2989,765.7781362084075
336.5001,764.0497310525667
338.7007,722.7322765917748
340.9008,679.3256478738735
343.1003,617.2297127193815
345.2992,576.4943321555625
347.4976,541.4693610373822
349.6955,505.25464845486465
351.8927,490.25003808333986
354.0895,459.0553685455926
356.2856,445.77047356190735
358.4812,425.7951822620157
360.6763,413.6793193179441
362.8707,415.32270514376773
365.0646,415.37515601676876
367.258,410.5364840610034
369.4508,431.00649724677623
371.643,457.7349994390279
373.8346,481.3217901926339
376.0257,497.0666644851203
378.2162,516.469412480795
380.4062,516.9298193733005
382.5956,490.7976651915851
384.7844,458.47272479529954
386.9726,424.9547681361171
389.1603,382.4935605809852
391.3474,375.73886324730415
393.5339,371.7904334275397
395.7199,390.3480246567692
397.9052,401.2613867521668
400.09,435.980265627426
402.2743,475.654403183627
404.4579,513.9835369620487
406.641,550.6173997474257
408.8235,591.6557191846575
411.0054,630.2482174124709
413.1868,689.6446106530352
415.3675,732.6446088260386
417.5477,733.2479149547239
419.7273,655.5042247358886
421.9064,565.863226533851
424.0848,513.3246021578877
426.2627,465.53802775864324
428.4399,401.2031743535165
430.6166,341.419708304526
432.7928,291.13729196165855
434.9683,251.05558426070456
437.1432,226.17424122608122
439.3176,192.6929163716518
441.4914,193.21126094953547
443.6645,191.07892428492414
445.8371,183.69555377089705
448.0091,168.71079488974465
450.1806,181.92429128680283
452.3514,171.18568492029908
454.5216,163.94461592921994
456.6913,164.30072274069494
458.8603,169.25364214240926
461.0288,189.10300927904154
463.1967,170.94845760273392
465.3639,178.5396186745993
467.5306,156.82612234626663
469.6967,152.90759668396913
471.8622,140.58366818567856
474.0271,140.85396182029217
476.1914,143.51810115087187
478.3551,133.52570833193954
480.5182,134.2764040828365
482.6807,152.31980778764864
484.8426,163.15553748769753
487.0039,192.6332097011075
489.1647,251.4024393144473
491.3248,291.86283928795524
493.4843,305.7640200678445
495.6432,289.4555891817008
497.8015,276.2371510994708
499.9592,216.30830739654425
502.1163,152.41865688593975
504.2728,133.21779621759265
506.4287,109.30532051725345
508.5839,92.08082357849389
510.7386,77.99389810183379
512.8927,87.74413586698438
515.0461,100.73112787371838
517.199,111.60446424436691
519.3512,153.81373409395087
521.5029,216.8085254214484
523.6539,271.28842468770017
525.8043,278.15301618546255
527.9541,218.80188149460787
530.1033,156.48459941347892
532.2519,122.1507465523996
534.3999,94.09989795684965
536.5472,85.38162745080012
538.694,80.145507917224
540.8401,92.49111138527837
542.9856,116.81800908266518
545.1305,122.37577131217654
547.2748,144.56396720842463
549.4185,143.83216468226442
551.5615,146.17993019891128
553.704,172.20682878525963
555.8458,207.66242400640476
557.987,211.24627770537472
560.1276,241.25794964857255
562.2675,301.39699748993826
564.4069,346.3629764708344
566.5456,393.8554388186526
568.6837,384.37393329715565
570.8212,322.9180047315526
572.958,242.2871941033136
575.0942,195.58103916472896
577.2299,156.84907524521805
579.3648,125.39083571839069
581.4992,117.00585238936605
583.6329,133.8436558093556
585.766,169.05377535951106
587.8985,211.4857390825498
590.0304,234.23907333065085
592.1616,270.1133023411369
594.2922,260.9579480089408
596.4222,208.8225295278619
598.5515,158.50656348212055
600.6802,126.75956436771344
602.8083,80.28104509557056
604.9358,75.52051730902781
607.0626,73.3274918486095
609.1888,82.3014787996367
611.3144,106.29198751415584
613.4393,147.99852652119876
615.5636,191.92060328687853
617.6873,236.20772379732466
619.8103,268.30939211946
621.9327,274.5751099581321
624.0544,226.05437633509428
626.1756,182.94668752634834
628.2961,139.8015375473542
630.4159,117.3684185841048
632.5351,107.04682142457841
634.6537,102.03623568306944
636.7716,93.83614990340493
638.8889,81.94605160904962
641.0056,95.66542738510702
643.1216,103.0937629972193
645.237,103.68054325437606
647.3518,91.42525193462848
649.4659,64.927371779223
651.5793,55.73638461515475
653.6922,33.6517716201447
655.8043,38.573013414549905
657.9159,25.449590282211602
660.0268,23.030982121240186
662.137,16.216668575251106
664.2466,14.70612905754956
666.3556,18.24884281927484
668.4639,16.34428896450595
670.5716,8.291946414833319
672.6786,2.6412939284051618
674.785,-9.158189819548625
676.8907,0.24297381978897192
678.9958,-6.455645014448919
681.1002,-0.804478610438764
683.204,-5.953894764463598
685.3072,-5.70425323606662
687.4097,-6.105854305382536
689.5115,-14.408941267056548
691.6127,-1.5136964182502197
693.7132,-13.570158110801685
695.8131,1.4716504252771756
697.9123,7.111841525853606
700.0109,16.80052751207893
702.1089,22.48782063398653
704.2061,35.97383297360443
706.3028,63.25867638808336
708.3987,77.34246237483626
710.4941,94.22530179868863
712.5887,97.90730475104192
714.6827,96.73858038104447
716.7761,105.71923685877209
718.8688,92.19938138691418
720.9608,104.87912011096842
723.0522,109.25855825444023
725.1429,133.33779999204444
727.233,189.56694840591013
729.3224,242.84610524479035
731.4112,281.97537036176755
733.4993,291.6048411814645
735.5867,242.78461230875018
737.6735,174.61477543244507
739.7596,125.74541981352365
741.845,98.7266329668131
743.9298,101.85850114968684
746.014,98.84110963225226
748.0974,107.02454266603252
750.1802,125.80888351414023
752.2624,106.94421436944299
754.3439,103.08061616671955
756.4247,97.06816877130746
758.5048,106.00695101773806
760.5843,125.69704076986102
762.6631,156.73851483145677
764.7413,212.23144874933632
766.8188,302.57591650292466
768.8956,371.22198994933353
770.9718,430.51973791991486
773.0473,428.46922553380216
775.1221,395.87051360493194
777.1962,390.07365866254895
779.2697,457.3787132771937
781.3426,525.7357261186698
783.4147,602.2447412829953
785.4862,574.3557976088305
787.557,486.16892791238797
789.6271,377.3841592663232
791.6966,254.05151388160255
793.7654,166.62101019535135
795.8335,121.99266410418056
797.901,98.81648983849311
799.9678,81.0425004087648
802.0339,84.0707078373083
804.0993,88.05112333601085
806.1641,83.38375727605307
808.2282,66.71861914810529
810.2916,40.25571760900016
812.3544,33.69506064838515
814.4164,19.186655853351226
816.4778,37.23051047403942
818.5385,47.276631568723815
820.5986,82.42502582337477
822.658,116.77569945119649
824.7166,190.77865784114397
826.7747,294.18390521441484
828.832,358.5914438844201
830.8886,421.3512732227325
832.9446,439.01338901501094
834.9999,409.77778283340183
837.0545,338.1444418599184
839.1085,251.86334917879674
841.1618,190.33448449282855
843.2143,148.9578249861728
845.2662,117.9833459396441
847.3175,99.46102114447865
849.368,93.14082321207991
851.4179,93.42272375924108
853.467,88.35669347134808
855.5155,104.64270209955953
857.5633,95.33071851146713
859.6105,92.32071052823528
861.6569,91.11264501772257
863.7027,71.55648792458032
865.7478,62.30220428233474
867.7922,57.79975840894633
869.8359,46.59911399935481
871.8789,46.20023417050288
873.9212,36.30308157334275
875.9629,53.75761839682457
878.0039,67.71380646686782
880.0441,86.87160707181579
882.0837,107.48098082287402
884.1226,149.1418874625325
886.1609,177.30428565847228
888.1984,219.16813258695572
890.2352,262.83338365120323
892.2714,263.69999206275463
894.3069,241.56790840481563
896.3416,188.3870806235932
898.3757,160.6574542496155
900.4091,140.2289729295411
902.4418,142.2015787034543
904.4739,158.1252122091504
906.5052,172.6998126624096
908.5358,173.67531769776008
910.5658,144.35166322273358
912.595,110.47878340810894
914.6236,85.90661098114799
916.6515,61.23507756432605
918.6786,43.56411392105224
920.7051,37.493650202385766
922.7309,38.32361612374518
924.756,26.40394102561322
926.7804,49.63455386523697
928.8041,55.01538333582437
930.8272,86.54635763423823
932.8495,93.9274044071883
934.8711,101.95845043592055
936.892,104.5394215624076
938.9123,125.17024260903759
940.9318,152.1508373528045
942.9506,164.98112831900073
944.9688,146.5110365114108
946.9862,121.79048128400825
949.003,101.31938052565704
951.019,71.59765090731673
953.0344,54.375208086754355
955.0491,51.751967005760434
957.063,54.327842062373975
959.0763,58.00274713711485
961.0888,51.82659556722467
963.1007,58.14930010991793
965.1119,52.92077300414314
967.1223,47.89092590735663
969.1321,32.65966994780706
971.1412,35.42691577483345
973.1495,29.042573711178875
975.1572,27.95655372531644
977.1641,35.21876549529452
979.1704,31.829118419596057
981.1759,30.33752154451713
983.1808,29.143883598062757
985.1849,25.798113004863012
987.1884,36.450117898109056
989.1911,34.14980615301124
991.1932,50.897085280279725
993.1945,39.991862449127325
995.1951,46.68404431979559
997.1951,44.52353715260847
999.1943,37.260246741050196
1001.1928,46.04407843337026
1003.1906,58.27493720521579
1005.1877,83.40272757179355
1007.1841,107.12735346556155
1009.1798,113.7987179849506
1011.1748,108.46672315711862
1013.1691,87.18126987123662
1015.1627,66.54225793180876
1017.1556,39.74958627152705
1019.1477,19.65315315766179
1021.1392,5.302856459986629
1023.1299,11.04859385174484
1025.12,5.3402629531502726
1027.1093,24.777761273931333
1029.0979,36.81098627041399
1031.0859,48.33983515114733
1033.0731,62.41420475657003
1035.0596,66.18399144372358
1037.0454,63.199090945507464
1039.0304,37.30939833298203
1041.0148,22.664808045217228
1042.9985,18.065214148189057
1044.9814,7.810510481226174
1046.9636,8.050590703005128
1048.9452,12.385348394097605
1050.926,37.06467705456964
1052.9061,31.088470060634336
1054.8855,52.55662041785831
1056.8642,41.9190208209244
1058.8421,45.52556343894878
1060.8194,58.87614002185808
1062.7959,47.07064186432399
1064.7717,53.75895967225665
1066.7469,51.84098368086097
1068.7213,62.96660358775193
1070.695,66.7357085721352
1072.6679,97.74818718355084
1074.6402,111.9039273041816
1076.6117,115.80281583872932
1078.5826,97.24473857285659
1080.5527,64.77958013419766
1082.5221,32.75722417793986
1084.4908,6.727553711474798
1086.4587,4.490451414622157
1088.426,-1.6542001000732398
1090.3925,-2.5565182649710323
1092.3584,7.133396013028346
1094.3235,17.81546736664143
1096.2879,39.68962035725099
1098.2515,60.00577936808588
1100.2145,87.7138683854788
1102.1767,118.41381079570533
1104.1382,172.45552910790218
1106.099,210.58894464706827
1108.0591,261.96397701364765
1110.0185,291.83054370219475
1111.9771,338.8385595876248
1113.9351,380.1879366265475
1115.8923,429.6285833871882
1117.8488,450.3104046358924
1119.8045,407.98330084272004
1121.7596,317.7471679746278
1123.7139,221.80189791873966
1125.6675,182.69737938470837
1127.6204,189.6834988641682
1129.5726,191.1601410217802
1131.524,196.6771886253706
1133.4748,161.23452253116534
1135.4248,102.18202162861814
1137.3741,66.81956319483811
1139.3226,43.597023485114505
1141.2705,50.064278086541094
1143.2176,52.82120215024145
1145.164,65.96767032669709
1147.1097,57.80355673817735
1149.0546,32.978734847275064
1150.9989,13.043077538547891
1152.9424,4.146457366766185
1154.8852,-12.21125324373088
1156.8272,-19.380181910067677
1158.7686,-13.260334258949001
1160.7092,-7.901522309062784
1162.6491,0.39657439164238895
1164.5883,4.834355231424752
1166.5267,22.912215636764586
1168.4644,49.83055098579848
1170.4014,70.88975642754122
1172.3377,120.0902266127024
1174.2732,178.2823554830943
1176.2081,266.5665357796279
1178.1421,376.5931584603892
1180.0755,473.31261181780087
1182.0082,519.9752803783533
1183.9401,496.68154393541136
1185.8713,411.3317770825877
1187.8017,283.22634944667925
1189.7315,206.1156265411663
1191.6605,130.34997104726574
1193.5888,103.27974358503855
1195.5163,63.15530347104618
1197.4432,37.57700898905398
1199.3693,42.14521779127392
1201.2947,24.560287154148682
1203.2193,17.322573932668547
1205.1432,14.982434736221308
1207.0664,14.340226000969892
1208.9889,23.34630401325262
1210.9106,18.051024916006554
1212.8316,23.854744618705695
1214.7519,29.70781885031397
1216.6715,43.66060310124817
1218.5903,66.8134525648469
1220.5084,72.91672199784307
1222.4257,80.52076548883565
1224.3424,101.87593639725594
1226.2583,121.98258727732843
1228.1735,143.4410696645183
1230.0879,186.8517338744657
1232.0016,229.96492878840002
1233.9146,268.78100141903406
1235.8269,288.0002964794312
1237.7384,288.87315599484486
1239.6492,296.6499191105263
1241.5592,324.3309220829957
1243.4686,361.96649820227435
1245.3772,431.6569775150746
1247.285,511.0526864484435
1249.1922,588.2539471128598
1251.0986,654.9610765082754
1253.0042,718.4743857521021
1254.9092,802.194179412142
1256.8134,880.0707548714531
1258.7169,935.4544014911519
1260.6196,950.5453998316476
1262.5216,955.1440210988067
1264.4229,941.850526993041
1266.3234,915.515169663323
1268.2232,869.7881918401205
1270.1223,826.8698270987489
1272.0207,799.210300316643
1273.9183,772.8098281025385
1275.8151,790.7186190730685
1277.7113,838.9368741167686
1279.6067,923.9147862149885
1281.5014,1052.6025399597088
1283.3953,1212.550310703763
1285.2885,1369.858263273959
1287.181,1475.826550371602
1289.0727,1505.605310999415
1290.9637,1467.7946694018556
1292.854,1403.2447347673292
1294.7435,1308.8556016062953
1296.6323,1208.6773503967652
1298.5204,1142.7100485281958
1300.4077,1084.3537513032707
1302.2943,1029.458502597573
1304.1802,1011.1743354431484
1306.0653,975.2012725774578
1307.9497,922.3393266262196
1309.8333,898.6885004631399
1311.7162,873.3487877385313
1313.5984,840.770173115822
1315.4798,798.5526325249525
1317.3605,797.1461334881612
1319.2405,777.9006355421618
1321.1197,765.5660902522064
1322.9982,709.3924414045413
1324.876,641.329625129752
1326.753,557.7275704645008
1328.6293,485.0362000321534
1330.5048,404.8054308788005
1332.3796,349.88517520017115
1334.2537,302.7253411439398
1336.127,275.97583335893034
1337.9996,246.03655346671292
1339.8714,232.25740032909994
1341.7426,210.88827034753842
1343.6129,212.07905760090182
1345.4826,198.02965405918087
1347.3515,192.9899495715764
1349.2196,181.1598320069926
1351.087,169.48918730443506
1352.9537,179.22789959131092
1354.8197,172.57585130013604
1356.6849,184.98292307114764
1358.5493,199.34899381882474
1360.4131,229.62394060781753
1362.276,273.55763850928656
1364.1383,300.34996029815306
1365.9998,312.8007760137623
1367.8606,297.30995269196035
1369.7206,289.47735424058556
1371.5799,289.0528415943776
1373.4384,277.28627279330226
1375.2962,254.52750298679769
1377.1533,209.5263845514395
1379.0096,167.03276731852827
1380.8652,140.09649902410126
1382.7201,113.76742573386787
1384.5742,92.89539211257295
1386.4275,78.28024168728712
1388.2802,51.521817056127816
1390.132,45.219960034409496
1391.9832,48.374511922228976
1393.8336,32.63531356748342
1395.6832,31.7522053343248
1397.5322,18.025027260552292
1399.3803,19.20361906644291
1401.2278,12.887820292024458
1403.0745,3.0774702852884275
1404.9204,-3.477591734651469
1406.7656,-2.5775265794562756
1408.6101,-4.122460319645938
1410.4538,-4.712493276249916
1412.2968,-5.0476845869192175
1414.139,1.621953688502117
1415.9805,17.14645991653947
1417.8213,26.77587244749884
1419.6613,38.56022946022165
1421.5006,63.19956886579075
1423.3391,106.54392818968665
1425.1769,146.19334432539472
1427.0139,221.84785310096083
1428.8502,300.557488882498
1430.6858,366.52228381764064
1432.5206,386.8422670484489
1434.3547,381.7674640517601
1436.188,357.4978964359893
1438.0206,355.5835819918765
1439.8524,342.824534935183
1441.6835,335.1707659258344
1443.5139,338.5722821955113
1445.3435,352.3790876241867
1447.1724,355.64118270611095
1449.0005,351.85856441174445
1450.8279,348.2812261551357
1452.6545,337.00915783174776
1454.4804,339.1923458542317
1456.3056,333.18077326514725
1458.13,318.9744197151306
1459.9536,301.5732615230105
1461.7766,268.7272718178721
1463.5987,233.63642071306788
1465.4202,211.50067563467792
1467.2409,165.67000167241827
1469.0608,147.89436180099847
1470.88,117.67371733842867
1472.6984,98.60802812377551
1474.5161,80.69725281936849
1476.3331,67.39134910145663
1478.1493,66.84027383931692
1479.9648,65.19398322831233
1481.7795,67.1524327954038
1483.5935,68.06557741561284
1485.4067,61.88337129243649
1487.2192,71.80576794871644
1489.031,73.23272028846088
1490.842,72.1641804976204
1492.6522,74.1501000298191
1494.4618,60.39042961703899
1496.2705,59.435119249761726
1498.0785,63.684118314564614
1499.8858,56.03737560367392
1501.6924,53.89483927247477
1503.4981,41.906456915978936
1505.3032,45.32217559024997
1507.1075,42.2919419322875
1508.911,31.115702125869177
1510.7138,32.14340193185387
1512.5159,36.1249867999432
1514.3172,30.26040185840526
1516.1178,19.64959187425808
1517.9176,18.992501311915873
1519.7166,17.53907443929745
1521.515,19.08925533439657
1523.3126,0.5429878998166942
1525.1094,15.150215847268726
1526.9055,7.260882883033787
1528.7008,9.32493256189116
1530.4954,0.6923083660113889
1532.2893,6.21295368431629
1534.0824,1.2368118988043761
1535.8747,4.1138263293448745
1537.6663,9.143940283438951
1539.4572,10.027097027449713
1541.2473,9.013239736301387
1543.0367,20.552311484647248
1544.8253,20.794255257008444
1546.6132,27.03901383238326
1548.4003,26.28652978182714
1550.1867,36.886745406005616
1551.9723,50.339602742719194
1553.7572,63.34504346090125
1555.5414,83.70300872608931
1557.3247,111.71343907037038
1559.1074,147.3262741888018
1560.8893,183.79145265930651
1562.6705,211.2089115865453
1564.4509,238.27858623726468
1566.2305,246.45040976612194
1568.0094,248.6243129449893
1569.7876,250.65022408123468
1571.565,242.2780689959833
1573.3417,247.0577710038578
1575.1176,253.68925099670082
1576.8928,272.17242739577733
1578.6672,292.10721608545975
1580.4409,324.64353022839646
1582.2138,346.28128006616384
1583.986,380.4703725939033
1585.7575,417.9607113439431
1587.5282,439.00219604390827
1589.2981,472.84472224181695
1591.0673,480.9881810956653
1592.8358,487.93245903500275
1594.6035,486.4274376794968
1596.3704,490.47299376949064
1598.1366,467.81899918105324
1599.9021,459.31532088552353
1601.6668,451.01182117605066
1603.4308,432.5083577526307
1605.194,452.80478380514165
1606.9564,478.8009481983786
1608.7182,530.3466952690886
1610.4791,605.3418645660092
1612.2394,692.4862903344117
1613.9988,770.6298007661485
1615.7576,839.62221712821
1617.5156,835.613352981288
1619.2728,807.2030134898523
1621.0293,730.2409954622398
1622.785,632.4770876347563
1624.54,529.2110714412988
1626.2942,433.14272199099344
1628.0477,355.1218091008552
1629.8005,288.0480982564723
1631.5525,238.47135139221535
1633.3037,196.39132756197364
1635.0542,174.0077834349234
1636.804,143.8204737163274
1638.553,120.67915137137106
1640.3013,105.13356792703519
1642.0488,94.83347370350941
1643.7955,90.82861796964755
1645.5416,75.31874904596924
1647.2868,75.00361434470801
1649.0313,66.58296052491005
1650.7751,68.45653349558552
1652.5181,68.3740784999153
1654.2604,68.635340096515
1656.0019,79.4400621602598
1657.7427,83.03798787967139
1659.4828,108.4288596488712
1661.222,132.66241903160102
1662.9606,162.7384065073138
1664.6984,182.7065612288386
1666.4354,185.5166207216202
1668.1717,169.11832068403817
1669.9072,132.76139495930596
1671.642,96.89557569945401
1673.3761,67.72059372889879
1675.1094,48.336178903101256
1676.8419,31.192060400316734
1678.5737,30.087966915438585
1680.3048,19.37362683143982
1682.0351,11.748768230413589
1683.7646,8.913119000716847
1685.4934,11.166406913219106
1687.2215,4.158359649658763
1688.9488,2.888704780110203
1690.6754,-2.6928301669356642
1692.4012,2.5134823081250772
1694.1263,0.5573966062695774
1695.8506,2.7386671033403047
1697.5742,-4.492951830394077
1699.297,-0.18770585205152202
1701.0191,-0.24579573416110634
1702.7404,-3.917420374070872
1704.461,-1.3027762136294996
1706.1808,-4.352020559656097
1707.8999,0.4847022957642366
1709.6182,-5.542708462768104
1711.3358,-0.6843536554995922
1713.0527,-1.940278731019447
1714.7688,-3.760522301223773
1716.4841,-2.8951035946242882
1718.1987,-0.09400427211500073
1719.9126,-1.3071770725049987
1721.6257,7.265426204499079
1723.338,-1.4261331821103909
1725.0496,1.968205954004759
1726.7605,0.19851904625318184
1728.4706,-1.2851184916385137
1730.18,0.5173687520711496
1731.8886,6.706069027457374
1733.5964,2.5810705794216346
1735.3036,7.542461585804773
1737.0099,4.140330198637031
1738.7156,6.574764494524118
1740.4204,2.0458525086686166
1742.1246,7.703682210525443
1743.8279,6.248341549091265
1745.5306,16.9299183963262
1747.2325,8.148500561706783
1748.9336,9.954175685410945
1750.634,6.097031326132054
1752.3336,8.927154943021407
1754.0325,12.144633934260014
1755.7307,13.749555608757333
1757.4281,12.942007153976647
1759.1247,11.972075619885572
1760.8206,15.089847927031883
1762.5158,20.19541087624262
1764.2102,15.28885111744637
1765.9039,17.220255098617855
1767.5968,15.23970911484318
1769.289,14.547299289006133
1770.9804,13.443111591593407
1772.6711,14.127231847618674
1774.361,21.649745747664667
1776.0502,21.910738841041905
1777.7386,21.61029646056349
1779.4263,22.24850371993523
1781.1132,19.225445516760146
1782.7994,23.24120652615619
1784.4849,19.945871230987166
1786.1696,21.33952388170485
1787.8535,24.672248529302237
1789.5367,21.344129011377248
1791.2192,19.205248918805324
1792.9009,27.15569162902088
1794.5818,26.195540327405666
1796.2621,22.974877927784718
1797.9415,29.343787082027717
1799.6202,26.852350212255658
1801.2982,29.10064944715174
1802.9755,20.288766646875672
1804.6519,27.16678338058071
1806.3277,22.034781014532513
1808.0027,31.64284064332898
1809.6769,23.341043141220354
1811.3504,28.529469066028696
1813.0231,27.658198742165382
1814.6951,27.777312208747333
1816.3664,30.88688922830943
1818.0369,30.487009285613425
1819.7067,28.377751556552198
1821.3757,26.359194912148638
1823.044,26.631417939648117
1824.7115,25.14449896270409
1826.3783,24.498516038655822
1828.0443,26.943546973397673
1829.7096,28.579669327838843
1831.3741,34.05696039345321
1833.0379,30.975497175918008
1834.701,29.585356340341008
1836.3633,38.436614242075024
1838.0248,29.42934694061944
1839.6856,32.51363011110752
1841.3457,30.589539134379265
1843.005,32.50714906613837
1844.6636,37.966534656193176
1846.3214,30.367770329280546
1847.9785,27.06093013047203
1849.6349,32.8460878011615
1851.2904,34.073316812133555
1852.9453,34.89269030571211
1854.5994,33.504281083487825
1856.2528,34.35816159812467
1857.9054,35.90440396724384
1859.5572,35.243079964885
1861.2083,34.22426100604383
1862.8587,35.14801815328529
1864.5084,33.364422126931885
1866.1572,39.92354329582598
1867.8054,31.725451695165788
1869.4528,35.07021696091414
1871.0994,35.0079084117793
1872.7453,34.73859501576757
1874.3905,33.3623453908061
1876.0349,33.779227807436214
1877.6786,34.43931020257587
1879.3215,41.24266017535081
1880.9637,40.93934498049384
1882.6051,34.77943146031113
1884.2458,37.862986047715424
1885.8858,35.74007482782524
1887.525,41.11076350712921
1889.1634,37.32511743471527
1890.8011,41.73320154856373
1892.4381,32.58508041340383
1894.0743,34.980818176632866
1895.7098,34.57047865979736
1897.3446,38.60412533463564
1898.9786,36.6818213271813
1900.6118,35.30362937742666
1902.2443,38.869611858545966
1903.8761,33.62983079067713
1905.5071,33.28434780526207
1907.1374,33.28322419744444
1908.7669,36.32652092952438
1910.3957,33.66429863097005
1912.0237,37.4966175679842
1913.651,38.72353767012683
1915.2776,33.34511849199173
1916.9034,38.56141920093748
1918.5285,31.772498630871453
1920.1528,32.67841523008694
1921.7764,35.67922712915228
1923.3992,36.72499213185168
1925.0213,33.61576768517703
1926.6427,33.751610868870515
1928.2633,37.08257842651649
1929.8832,36.50872676418339
1931.5023,35.08011191711395
1933.1207,35.146789555463656
1934.7383,37.508814998586985
1936.3552,33.5662432143705
1937.9714,33.36912879561277
1939.5868,34.367525999449896
1941.2015,30.66148874932675
1942.8154,33.00107062501303
1944.4286,31.58632489966351
1946.041,36.41730451642243
1947.6528,29.1440621025707
1949.2637,31.36664992121632
1950.8739,31.93511994402671
1952.4834,38.34952382900286
1954.0921,40.05991291479458
1955.7001,32.26633815655656
1957.3074,31.6188501088443
1958.9139,30.86749900355008
1960.5197,33.61233475637772
1962.1247,29.803406974356065
1963.729,35.240764928390774
1965.3325,34.62445759135338
1966.9353,31.454533583707814
1968.5374,31.681041179673585
1970.1387,31.65402833892479
1971.7393,31.723542704325155
1973.3392,35.93963160219832
1974.9383,32.552342041632414
1976.5366,26.761720672319427
1978.1342,29.567813818427993
1979.7311,30.67066753650954
1981.3273,30.220327587437396
1982.9227,30.56683942537822
1984.5173,30.860248202295438
1986.1112,30.650598764484144
1987.7044,27.637935649637072
1989.2968,30.372303088940924
1990.8885,29.553745037203186
1992.4795,30.88230514550827
1994.0697,31.85802676940324
1995.6592,30.780952955612065
1997.2479,30.85112643227862
1998.8359,30.918589619737162
2000.4232,32.03338462981094
2002.0097,27.895553265137153
2003.5955,30.055137008019415
2005.1805,27.712177061805704
2006.7648,29.516714329292796
2008.3484,32.56878943615571
2009.9312,29.518442712902456
2011.5133,30.715714164353187
2013.0946,30.710643500143732
2014.6752,31.703270122752826
2016.2551,28.693633127552815
2017.8342,28.231771292883337
2019.4126,25.767723110147813
2020.9902,27.001526788432002
2022.5672,28.23322027914446
2024.1433,30.312841263678536
2025.7188,30.840427141095375
2027.2935,31.166015007327758
2028.8674,23.339641649904237
2030.4406,33.11134354469317
2032.0131,27.231156934166506
2033.5849,27.14911772968297
2035.1559,26.365261570289675
2036.7261,30.72962382354261
2038.2957,28.642239593345153
2039.8645,31.553143676304487
2041.4325,28.012370582605456
2042.9998,26.369954506901536
2044.5664,28.17592936372253
2046.1323,26.030328803898797
2047.6974,28.783186196501347
2049.2617,27.484534650298002
2050.8254,29.284406986224766
2052.3883,26.032835750372314
2053.9504,27.37985319598731
2055.5118,23.875491315988143
2057.0725,32.51978182949469
2058.6325,25.712756216871924
2060.1917,22.704445633287094
2061.7502,28.79488097677998
2063.3079,26.634092918345885
2064.8649,30.47211184103142
2066.4212,25.908967861542266
2067.9767,31.094690791862988
2069.5315,25.67931018488858
2071.0856,27.36285528256711
2072.6389,23.59535507005367
2074.1915,25.876838258874912
2075.7433,24.707333324603937
2077.2945,29.136868484045536
2078.8448,28.66547170693117
2080.3945,23.893170671623793
2081.9434,27.919992769831637
2083.4916,26.045965154331327
2085.039,28.621114698699586
2086.5857,23.995468016053493
2088.1317,23.819051433299038
2089.677,28.791891037387543
2091.2215,22.364012677079856
2092.7652,25.035441913217923
2094.3083,28.056204083003678
2095.8506,30.526324273284644
2097.3921,24.795827290346324
2098.933,21.66473763521114
2100.4731,26.133079560943116
2102.0124,22.600877103959007
2103.5511,28.71815403934474
2105.089,25.434933916177528
2106.6261,26.00123999635315
2108.1626,22.51709528741796
2109.6983,25.982522536905975
2111.2332,25.647544267180308
2112.7675,24.412182740778874
2114.301,20.676459963764216
2115.8337,24.74039769807706
2117.3657,25.104017498893597
2118.897,21.517340673986126
2120.4276,24.480388280086743
2121.9575,27.093181158754305
2123.4866,21.40573990674369
2125.0149,24.018084849878065
2126.5426,25.280236099923158
2128.0695,24.94221352846391
2129.5956,24.804036754282947
2131.1211,24.26572514674079
2132.6458,25.177297827157602
2134.1698,27.638773674196415
2135.693,25.25017131474732
2137.2155,23.911509099312767
2138.7373,22.37280512589352
2140.2584,24.03407725337526
2141.7787,26.495343116915677
2143.2983,23.506620111331813
2144.8171,22.867925366487242
2146.3353,28.129275777179473
2147.8527,20.590688009526716
2149.3693,22.90217844835449
2150.8853,20.313763272581454
2152.4005,25.025458432104514
2153.9149,23.387279673683068
2155.4287,21.19924249382197
2156.9417,22.76136215515335
2158.454,21.973653708317002
2159.9655,23.336131976339146
2161.4764,19.048811562509528
2162.9865,22.41170683675655
2164.4958,21.6748319785206
2166.0045,22.388200943124986
2167.5124,23.101827469144723
2169.0195,23.61572507127279
2170.526,24.42990703318395
2172.0317,23.794386402395745
2173.5367,24.009175982126692
2175.0409,20.874288337651407
2176.5445,18.939735794152753
2178.0473,20.505530468070774
2179.5494,20.47168428644818
2181.0507,19.588208971272493
2182.5513,18.455116039814357
2184.0512,17.272416813462414
2185.5504,24.54012242905415
2187.0488,22.958243850702956
2188.5465,20.326791797121118
2190.0435,23.145776757438597
2191.5397,19.665209017517398
2193.0353,21.085098631761852
2194.5301,18.405455457924276
2196.0241,19.976289142905998
2197.5175,18.64760914955383
2199.0101,21.669424740951683
2200.502,21.241744993707513
2201.9931,18.0645787677351
2203.4835,19.53793471053072
2204.9733,21.111821288944952
2206.4622,20.436246774449188
2207.9505,19.011219227396566
2209.438,19.286746503777763
2210.9248,15.06283626947129
2212.4109,18.78949599748833
2213.8962,18.866733010211902
2215.3809,19.794554442129993
2216.8648,19.97296723906328
2218.3479,20.30197814888686
2219.8304,13.781593719746184
2221.3121,18.0118202967669
2222.7931,15.74266408725876
2224.2733,16.174131118413314
2225.7529,18.006227259995526
2227.2317,18.038958220029045
2228.7098,13.62232952647534
2230.1872,16.15634652690632
2231.6638,14.991014432670596
2233.1397,14.876338293553388
2234.6149,18.012323009429835
2236.0894,14.298973331411716
2237.5632,15.13629383048766
2239.0362,16.02428893465664
2240.5085,9.91296292055479
2241.9801,14.502319904575373
2243.4509,10.742363903982024
2244.921,12.033098791015249
2246.3904,12.674528330491995
2247.8591,16.016656166898258
2249.3271,16.959485817974752
2250.7943,15.553020641295646
2252.2608,13.847263824840269
2253.7266,13.942218401057772
2255.1917,8.787887263924645
2256.656,12.534273167995252
2258.1197,11.081378779945169
2259.5826,13.479206641107211
2261.0447,14.927759182000457
2262.5062,12.377038698351868
2263.9669,14.27704733661082
2265.4269,10.427787119456482
2266.8862,10.52925992679755
2268.3448,10.681467534264826
2269.8026,8.984411612196638
2271.2598,8.33809372411666
2272.7162,8.542515343704522
2274.1719,9.247677861258879
2275.6268,8.6035825816533
2277.0811,12.710230717284503
2278.5346,10.917623394513456
2279.9874,10.675761612598905
2281.4395,13.234646261623425
2282.8908,11.59427812491198
2284.3414,7.204657853443081
2285.7914,6.065785982252493
2287.2406,9.027662974329445
2288.689,8.990289232005281
2290.1368,9.503665067334637
2291.5838,11.617790702469335
2293.0302,12.032666264524508
2294.4758,6.748291764437482
2295.9206,9.014667092818911
2297.3648,11.081792072796546
2298.8082,8.349666437351488
2300.251,8.418289808647032
2301.693,8.63766172534983
2303.1343,10.107781641943689
2304.5748,12.578648926535791
2306.0147,7.750262846155579
2307.4538,9.772622542046008
2308.8922,11.845727077947402
2310.3299,8.869575419873996
2311.7669,10.694166415382625
2313.2031,9.069498823334428
2314.6387,14.045571295648955
2316.0735,9.87238239355078
2317.5076,9.74993053780895
2318.941,11.478214050468708
2320.3737,10.507231156076088
2321.8056,9.986979964394862
2323.2369,17.517458480116687
2324.6674,11.09866460806353
2326.0972,16.330596077882873
2327.5263,16.06325050823574
2328.9547,20.546625354477044
2330.3823,15.730717911329236
2331.8092,11.965525268048609
2333.2355,13.451044356584262
2334.661,7.8872719892302285
2336.0858,8.074204843769934
2337.5098,7.361839519114042
2338.9332,7.40017253343126
2340.3558,10.239200331271846
2341.7778,5.978919283184467
2343.199,9.819325657325749
2344.6195,7.8604156620631755
2346.0393,8.302185407571073
2347.4583,10.294630925419625
2348.8767,7.087748164157134
2350.2943,9.131532969385745
2351.7113,7.075981115830075
2353.1275,8.721088286899544
2354.543,9.966850095243728
2355.9578,9.313262066301405
2357.3718,8.310319625842908
2358.7852,7.008018106505972
2360.1978,4.356352757825221
2361.6098,5.10531875925507
2363.021,5.404911246686439
2364.4315,8.55512530495703
2365.8413,9.905955964855508
2367.2504,3.5573981716193117
2368.6587,8.009446771426354
2370.0664,8.762096574880502
2371.4733,3.115342312491279
2372.8795,6.719178627147272
2374.285,6.523600130583631
2375.6899,4.078601367343808
2377.0939,6.33417681673528
2378.4973,4.990320917279604
2379.9,12.597028044156588
2381.3019,7.554292522642882
2382.7032,6.112108552044916
2384.1037,8.02047025612623
2385.5035,7.479371697529302
2386.9027,2.6888068586919474
2388.3011,6.948769647258331
2389.6987,6.259253943984547
2391.0957,8.920253560139088
2392.492,4.681762244397859
2393.8876,1.2937736562343076
2395.2824,3.4062814083042525
2396.6765,5.669279100325895
2398.07,4.532760297954496
2399.4627,5.8467185101525985
2400.8547,3.711147200555203
2402.246,4.826039774330184
2403.6366,4.041389599533872
2405.0265,5.207189995962253
2406.4156,4.323434242997479
2407.8041,5.690115567949789
2409.1918,4.9072271548950965
2410.5789,5.124762131008168
2411.9652,4.84271357439151
2413.3508,4.261074511900048
2414.7358,5.679837921961607
2416.12,3.2989967403932923
2417.5035,0.26854384621381655
2418.8863,4.938472085451963
2420.2684,3.3587743014511204
2421.6497,6.329443288170012
2423.0304,2.5504718059796687
2424.4104,0.8218525519566384
2425.7896,6.8435781976728975
2427.1682,5.765641406481905
2428.546,4.3880347733013565
2429.9232,7.260750835392571
2431.2996,5.53378208613654
2432.6753,3.757120946306827
2434.0503,6.880759781339151
2435.4246,2.0546909190980784
2436.7982,2.328906618640559
2438.1711,5.353399118476716
2439.5433,4.82816063382765
2440.9148,2.2031833263804828
2442.2856,2.82845930954079
2443.6557,0.6039806746823757
2445.025,7.279739484894478
2446.3937,0.8557277972265922
2447.7617,2.9319375959307905
2449.1289,3.2583608567018985
2450.4955,2.534989525915435
2451.8613,5.861815517363283
2453.2265,0.28883071948753525
2454.5909,1.16602696211217
2455.9546,5.29339607217284
2457.3177,1.370929864944948
2458.68,1.1986201027699508
2460.0416,5.32645853428
2461.4025,2.9544368961210807
2462.7627,6.132546871674599
2464.1222,4.010780114777674
2465.4811,2.8391282179420045
2466.8392,1.5675827335714558
2468.1966,5.696135185678699
2469.5533,7.224777082600582
2470.9093,1.1534998757126615
2472.2645,3.9322949441427326
2473.6191,2.7611536554836817
2474.973,6.440067338005498
2476.3262,7.769027292366644
2477.6787,5.398024754824895
2479.0305,4.027050883947787
2480.3816,7.356096784322624
2481.7319,7.185153520266283
2483.0816,4.314212082534631
2484.4306,3.3932633900320255
2485.7789,2.472298318520771
2487.1264,5.001307709830549
2488.4733,3.930282381068068
2489.8195,4.009213099327013
2491.165,1.6880905923982894
2492.5097,4.016905547980691
2493.8538,3.9456486368921517
2495.1972,6.574310489781531
2496.5398,4.252881697841239
2497.8818,6.681352786520613
2499.2231,5.959714238740197
2500.5637,8.087956470606997
2501.9035,8.866069838630949
2503.2427,5.944044618442376
2504.5812,3.621870997010973
2505.919,8.299539101865982
2507.256,8.327039024317997
2508.5924,6.7043607726822
2509.9281,7.081494272003489
2511.2631,8.908429380283174
2512.5974,-0.6148441152923425
2513.9309,6.711663483379098
2515.2638,7.187948016692296
2516.596,3.664005257925467
2517.9275,4.2898309084773345
2519.2583,6.4654206331066035
2520.5884,6.890770053673727
2521.9178,6.165874727384974
2523.2465,6.740730142538936
2524.5745,5.315331725775508
2525.9018,5.489674836327275
2527.2284,6.063754780273577
2528.5543,5.587566808797
2529.8796,3.611106112442613
2531.2041,7.184367825879875
2532.5279,6.707347047667206
2533.851,4.330038804519404
2535.1735,3.352438056077773
2536.4952,7.12453971868328
2537.8163,4.896338675152528
2539.1366,4.117829737056752
2540.4562,6.289007667003837
2541.7752,4.4598671864233665
2543.0935,8.130402953854883
2544.411,7.15060958323928
2545.7279,9.97048160721345
2547.0441,4.190013486908192
2548.3596,7.309199583749532
2549.6744,4.128034217263377
2550.9885,4.146511633883627
2552.3019,4.664626038763906
2553.6146,1.6323715955927298
2554.9266,5.249742421412378
2556.2379,7.016732616941447
2557.5485,5.183336230401125
2558.8585,4.599547239845329
2560.1677,3.915359571494619
2561.4762,8.030767105574114
2562.7841,13.895763683155351
2564.0913,3.1103430650022332
2565.3977,7.724498872921046
2566.7035,-0.261775302385324
2568.0086,5.801514052541002
2569.313,7.664363066293163
2570.6167,3.226767809449136
2571.9197,11.388724275943297
2573.222,7.650228427442364
2574.5236,8.661276111725805
2575.8246,5.421863100070837
2577.1248,5.781985077141918
2578.4244,11.591637673384923
2579.7232,4.050816461425889
2581.0214,5.90951689797447
2582.3189,2.117734399232205
2583.6157,8.275464322305446
2584.9118,9.132702003123214
2586.2072,7.189442694859935
2587.5019,5.69568155936296
2588.7959,5.351413686585346
2590.0893,7.506634109523318
2591.3819,10.411337807659052
2592.6739,7.215519685408438
2593.9652,12.319174543074006
2595.2557,8.622297108803124
2596.5456,11.874881987551504
2597.8348,8.476923698051849
2599.1234,8.978416640288046
2600.4112,12.9293551294748
2601.6983,9.379733391042606
2602.9848,10.429545521128503
2604.2705,12.578785522072138
2605.5556,11.477447291917741
2606.84,10.425524602921662
2608.1237,13.273011112565882
2609.4067,11.56990037407705
2610.689,9.666185807951848
2611.9707,10.86186071898797
2613.2516,7.306918315321269
2614.5319,11.10135169646901
2615.8115,10.495153888879287
2617.0903,12.638317807986752
2618.3685,5.980836264274529
2619.6461,5.172701941842604
2620.9229,6.913907464982607
2622.199,3.304445406259191
2623.4745,8.694308269097938
2624.7493,7.633488523880047
2626.0234,8.421978554043648
2627.2968,8.559770666692032
2628.5695,11.396857084708678
2629.8415,7.333229945379415
2631.1128,8.118881272021504
2632.3835,6.403803014619932
2633.6535,7.237987041970953
2634.9228,8.27142515883277
2636.1914,8.254109097583758
2637.4593,8.636030507888066
2638.7265,8.067180956868746
2639.9931,10.797551925288587
2641.259,10.877134813238563
2642.5242,5.805920912834154
2643.7887,6.533901407419506
2645.0525,8.061067422279585
2646.3156,7.487410017360347
2647.5781,8.562920171997092
2648.8398,6.187588790651034
2650.1009,6.911406692154223
2651.3613,7.734364633462803
2652.6211,8.55645330241888
2653.8801,9.227663309520914
2655.1385,3.9479851797028758
2656.3961,7.567409345622103
2657.6531,10.38592620045614
2658.9094,4.103526061708436
2660.1651,9.570199143023203
2661.42,5.585935617009433
2662.6743,7.600725560574119
2663.9279,7.664558994764938
2665.1808,7.177425864622357
2666.433,4.239316038541219
2667.6846,6.050219313142165
2668.9354,10.71012544265264
2670.1856,10.119024120797924
2671.4351,9.87690493420206
2672.6839,9.783757368298886
2673.9321,10.83957080975322
2675.1795,7.194334547392302
2676.4263,11.698037761647704
2677.6724,13.300669561007638
2678.9179,5.402218936979978
2680.1626,12.152674748065927
2681.4067,9.952025798744522
2682.6501,9.300260771968063
2683.8928,9.397368251168572
2685.1348,10.143336726775516
2686.3761,9.238154595244694
2687.6168,6.63181015159855
2688.8568,9.574291598477998
2690.0961,7.665587072205852
2691.3348,7.855684613362065
2692.5727,8.844572185870696
2693.81,7.682237675098989
2695.0466,5.268668877968473
2696.2826,5.153853514578337
2697.5178,4.587779252341072
2698.7524,6.120433707130665
2699.9863,6.501804448943311
2701.2195,11.831878986570928
2702.452,10.210644763787407
2703.6839,8.338089106047818
2704.9151,11.414199236700846
2706.1456,9.48896229571426
2707.3755,6.612365308913894
2708.6046,11.434395207235951
2709.8331,7.905038855493011
2711.0609,8.824283004153706
2712.2881,10.742114324636255
2713.5145,8.558519400116083
2714.7403,12.673484706347459
2715.9654,13.386996633499464
2717.1899,15.949041445006387
2718.4136,13.759605270432544
2719.6367,15.068674079851881
2720.8591,18.47623370574231
2722.0809,18.782269829895007
2723.3019,18.286767949338838
2724.5223,19.48971337327997
2725.7421,16.891091228056865
2726.9611,19.090886445110918
2728.1795,17.98908378697257
2729.3972,17.635667825263475
2730.6142,12.380622951714429
2731.8306,14.723933381699574
2733.0462,16.715583206786867
2734.2612,12.90555637130494
2735.4756,10.94383665242659
2736.6892,11.080407698269084
2737.9022,11.465253047511332
2739.1145,10.898356128028183
2740.3262,5.979700253041976
2741.5372,8.609268626791511
2742.7475,9.987044393718584
2743.9571,8.713010612172319
2745.1661,7.987150240631422
2746.3744,9.509446150444525
2747.582,7.329881133088776
2748.7889,3.4984378849468456
2749.9952,3.715099029102653
2751.2008,2.179847153655743
2752.4057,5.492664809554682
2753.61,2.8535345259495557
2754.8136,4.062438777063839
2756.0165,6.319360008585647
2757.2188,3.8742806255787414
2758.4204,4.477182969913294
2759.6213,4.678049344716705
2760.8215,5.326862008344534
2762.0211,6.02360317237185
2763.22,3.8682549951051044
2764.4182,1.0107995746147793
2765.6158,3.201218970288778
2766.8127,0.6894952314070437
2768.009,1.7756103752373278
2769.2045,5.65954641215248
2770.3994,3.6412853347692575
2771.5936,1.3708090791090015
2772.7872,3.5980995447801973
2773.9801,0.07313861768326291
2775.1723,5.0959081477376245
2776.3639,4.2663899841313295
2777.5548,-0.11543407490662361
2778.745,3.90041772618887
2779.9346,-1.936071703830713
2781.1235,0.1750805047819739
2782.3117,1.5838765631305236
2783.4992,-1.3096813194322152
2784.6861,0.19440905060781688
2785.8723,3.696162950481046
2787.0579,-0.7044043445261607
2788.2428,-3.1572775960890667
2789.427,0.5375654711164586
2790.6106,-0.11982132638229359
2791.7935,-1.2793841774336414
2792.9757,1.4089319261290854
2794.1573,0.2951947735204925
2795.3382,2.8794721398658893
2796.5184,0.6118317973386382
2797.698,0.042341489317401226
2798.8769,-0.07893104693746267
2800.0551,3.1980819254110457
2801.2327,-0.5265510682789554
2802.4096,-0.05276153463017863
2803.5859,2.769524279979848
2804.7615,1.3903806562612786
2805.9364,2.159881847229066
2807.1106,5.328102091994339
2808.2842,0.045115608069451696
2809.4572,3.6109965596857734
2810.6294,6.875819110623489
2811.801,9.18965738855286
2812.972,10.852585452386023
2814.1423,10.01467726913851
2815.3119,11.376006697300035
2816.4808,14.836647495213583
2817.6491,14.896673307462088
2818.8167,21.356157630262004
2819.9837,24.7151738108631
2821.15,25.523794982953547
2822.3157,30.88209403306982
2823.4807,37.69014359251044
2824.645,38.09801598375304
2825.8086,50.555783152373806
2826.9716,57.263516662968755
2828.134,68.52128757457614
2829.2957,69.57916637359902
2830.4567,76.6372228612276
2831.617,73.64552614286043
2832.7767,78.85414455752385
2833.9358,80.91314570778897
2835.0941,76.77259640768546
2836.2519,75.1825626621116
2837.4089,69.69310970823972
2838.5653,67.05430203141655
2839.7211,65.01620342005774
2840.8761,61.62887699203591
2842.0306,62.492385215061695
2843.1843,60.356789940557
2844.3374,60.17215239501985
2845.4899,60.38853320138041
2846.6417,64.20599238084736
2847.7928,64.47458935074405
2848.9433,65.49438288633391
2850.0931,70.06543111813453
2851.2422,69.08779152171962
2852.3907,72.76152087200865
2853.5385,73.38667525304312
2854.6857,73.3133100212494
2855.8323,75.19147979918714
2856.9781,76.87123847628277
2858.1233,80.7026391900481
2859.2679,82.38573430928247
2860.4118,84.97057539575889
2861.555,85.65721318739304
2862.6976,93.09569757239484
2863.8395,90.1860775824021
2864.9808,91.82840131809571
2866.1214,94.1227159782957
2867.2614,94.66906784353819
2868.4007,94.71750225313211
2869.5393,94.81806359969576
2870.6773,94.67079532867243
2871.8146,100.97573993732478
2872.9513,102.38293897620753
2874.0874,100.79243298611797
2875.2227,106.40426148402412
2876.3574,106.96846297896953
2877.4915,112.63507491595524
2878.6249,109.25413367029773
2879.7577,112.27567449096267
2880.8898,110.9497315343744
2882.0212,116.37633783420063
2883.152,117.10552531461167
2884.2821,118.58732473601452
2885.4116,118.82176568776097
2886.5405,119.2588765733295
2887.6686,118.74868460798102
2888.7962,123.09121581438765
2889.923,119.0864950277347
2891.0493,120.83454585229532
2892.1748,119.8353907014777
2893.2997,122.23905078034464
2894.424,119.645546095605
2895.5476,122.30489543157717
2896.6706,119.16711637612408
2897.7929,121.03222529405981
2898.9145,122.80023735852726
2900.0355,121.72116653234707
2901.1559,126.09502555033757
2902.2756,118.92182593010537
2903.3946,118.70157792830689
2904.513,120.98429061238029
2905.6308,119.369971862748
2906.7479,117.70862834998954
2907.8643,119.95026555098482
2908.9801,119.34488776552737
2910.0953,121.79249809390812
2911.2098,118.79309844296907
2912.3236,124.69668950162733
2913.4368,125.05327077086906
2914.5494,121.1628405047135
2915.6613,119.92539570664718
2916.7725,115.44093216852826
2917.8831,114.00944448296099
2918.9931,110.93092608814027
2920.1024,110.35536928216652
2921.211,104.98276525383103
2922.319,107.76310408837136
2923.4264,106.49637482119738
2924.5331,108.43256541008793
2925.6391,103.02166274785813
2926.7445,103.91365264299748
2927.8493,102.65851987377887
2928.9534,106.20624817933866
2930.0569,103.95682027222797
2931.1597,107.5102178029356
2932.2619,110.566421382382
2933.3634,110.22541054638562
2934.4643,105.88716372510058
2935.5645,113.45165824642704
2936.6641,111.36887037939346
2937.763,111.88877525851179
2938.8613,113.51134690460529
2939.959,109.98655821960946
2941.056,106.51438097034641
2942.1523,104.74478582377262
2943.248,95.42774238170084
2944.3431,90.8132191984959
2945.4375,83.25118387424529
2946.5313,76.94160310090427
2947.6244,70.53444273791636
2948.7169,60.92966787530899
2949.8087,61.22724289776522
2950.8999,56.17713158067142
2951.9904,48.079297087141576
2953.0803,48.63370201851835
2954.1696,45.29030849535143
2955.2582,40.049078151853536
2956.3462,38.95997216933432
2957.4335,41.972951328612666
2958.5202,40.087976020907746
2959.6062,39.955006217709226
2960.6916,36.274001489627075
2961.7764,40.04492100772118
2962.8605,38.867723580311484
2963.9439,38.64236761526868
2965.0267,38.418811131786285
2966.1089,36.94701176263415
2967.1905,42.27692675639397
2968.2714,37.20851299217744
2969.3516,39.69172692632696
2970.4312,34.126524643099806
2971.5102,40.01286182983603
2972.5885,39.05069383261044
2973.6662,38.83997559736923
2974.7432,38.08066167955168
2975.8196,34.72270624619736
2976.8954,38.21606308353921
2977.9705,37.21068563058317
2979.045,39.1065269441745
2980.1188,39.7035397090517
2981.192,39.051676218887955
2982.2645,37.85088837032107
2983.3364,36.40112766947213
2984.4077,35.10234524395331
2985.4783,33.95449185736553
2986.5483,30.45751792228625
2987.6177,26.91137351174805
2988.6864,28.816008394208318
2989.7545,28.3713720690107
2990.8219,24.627413747338757
2991.8887,19.884082356662372
2992.9548,22.341326578177263
2994.0204,17.149094894238353
2995.0852,12.907335563787338
2996.1495,13.965996674274948
2997.2131,16.025026184078577
2998.276,11.434371911915683
2999.3383,8.39398151625345
3000.4,8.753802541215347
3001.4611,5.813782446985048
3002.5215,5.323868606208194
3003.5812,1.3840083333926394
3004.6404,4.344148889807549
3005.6989,4.404237522882013
3006.7567,2.1142214366036427
3007.8139,4.024047790917692
3008.8705,2.383663724627233
3009.9264,0.29301633629487256
3010.9818,1.9020527006465997
3012.0364,0.4607198894782627
3013.0905,-0.48103504443480816
3014.1439,2.3767349470755477
3015.1966,0.1339817177175533
3016.2487,0.6406570974320971
3017.3002,0.7467129148202467
3018.3511,1.9021009920764946
3019.4013,4.106773143928212
3020.4509,0.9106811660817691
3021.4998,-0.48622318682418
3022.5481,-1.7339881692577954
3023.5958,-0.23265717831760568
3024.6428,0.617743711439644
3025.6892,2.5171907497024115
3026.735,2.265660179981726
3027.7802,3.86312822061673
3028.8247,1.2095710672899642
3029.8685,-1.79503512294729
3030.9118,0.39928579486052485
3031.9544,3.042527898069846
3032.9963,2.134685260044254
3034.0376,0.42575192372206416
3035.0783,0.1657219106947565
3036.1184,-0.6954107617037089
3037.1578,1.142347922203431
3038.1966,0.07899892524643448
3039.2348,-0.5354568011679
3040.2723,3.3489816935772616
3041.3092,5.582320709312167
3042.3455,2.764566512377286
3043.3811,3.295725313289875
3044.4161,3.4258032949215256
3045.4505,2.3548066071865996
3046.4842,4.082741365741427
3047.5173,3.8096136626942787
3048.5498,5.285429549326025
3049.5816,3.0601950388214085
3050.6128,3.3339160915109325
3051.6434,1.956598637123136
3052.6734,4.128248572047429
3053.7027,3.7488717731072256
3054.7314,6.268474075843475
3055.7594,8.03706127830841
3056.7868,2.3046391158695485
3057.8136,3.571213243523786
3058.8398,5.636789293221643
3059.8653,6.3013728612015285
3060.8902,5.814969487333958
3061.9145,6.0775846484757245
3062.9381,10.38922376333393
3063.9612,5.399892189839832
3064.9835,10.959595182032464
3066.0053,10.518337939951937
3067.0264,9.92612555404243
3068.0469,6.682963009564743
3069.0668,9.838855192518409
3070.086,11.593806922073345
3071.1046,8.34782291901092
3072.1226,11.000907788174429
3073.1399,10.703066050928955
3074.1567,5.904302118630499
3075.1727,7.804620295604417
3076.1882,6.354024827133042
3077.203,7.352519880452501
3078.2173,5.300109559258697
3079.2308,7.296797893722335
3080.2438,9.19258886101303
3081.2561,5.73748636533243
3082.2678,7.381494218956311
3083.2789,6.574616176785588
3084.2893,4.666855919906233
3085.2991,4.908217063658073
3086.3083,5.998703176712365
3087.3169,4.888317778658212
3088.3248,5.42706432909768
3089.3321,5.9649462387496754
3090.3388,1.9519668640624506
3091.3449,4.038129501834819
3092.3503,6.623437429345914
3093.3551,5.407893883493594
3094.3593,5.591502034941335
3095.3629,2.4242650002736728
3096.3658,3.6561858401601377
3097.3681,1.6372675910276087
3098.3698,3.3175132527411133
3099.3708,6.346925808793003
3100.3713,7.525508209500487
3101.3711,6.303263341711544
3102.3702,8.680194017019058
3103.3688,6.606302983983294
3104.3667,0.7315929043625751
3105.364,3.356066373852199
3106.3607,5.029725980831543
3107.3568,3.0525742801193196
3108.3522,4.574613776236982
3109.347,5.6458469431802545
3110.3412,5.416276209198726
3111.3348,6.885903946083522
3112.3277,4.35473247146302
3113.32,4.472764034106545
3114.3117,4.390000839236116
3115.3028,3.756445047346112
3116.2932,4.922098775030914
3117.2831,6.136964101320457
3118.2723,5.451043056023682
3119.2608,3.564337607579896
3120.2488,3.7768496699179828
3121.2361,4.838581121323443
3122.2229,6.099533802313289
3123.209,3.9597095050187203
3124.1944,-0.6808900394243924
3125.1793,3.827736860522723
3126.1635,2.9355986984903284
3127.1471,1.94270392983133
3128.1301,2.0490609805426487
3129.1125,1.4046782571941723
3130.0942,3.0095641458651823
3131.0753,1.2637270185881766
3132.0558,4.667175217300018
3133.0357,4.569917071300305
3134.015,4.771960863216883
3134.9936,2.923314829978443
3135.9716,4.273987160794062
3136.949,6.173986015639674
3137.9258,4.473319511751349
3138.902,2.671995704625296
3139.8775,4.470022605024534
3140.8524,0.9674081969921282
3141.8267,1.8141604198709178
3142.8004,4.110287203329664
3143.7735,3.8057964588955278
3144.7459,7.050696056992797
3145.7178,6.394993829987801
3146.689,4.338697539739911
3147.6596,4.781814884158563
3148.6295,3.174353517766222
3149.5989,1.0163210472672057
3150.5676,2.5077250476222925
3151.5357,4.098573083629061
3152.5032,2.3388726950078365
3153.4701,4.128631380493217
3154.4364,4.767856615431077
3155.402,1.2565558338809772
3156.367,3.6447364222239145
3157.3315,3.682405754275333
3158.2952,4.51957116740331
3159.2584,1.8062399621518734
3160.221,2.6924193938693444
3161.1829,4.128116699841641
3162.1442,2.8633390904304914
3163.105,4.198093734716455
3164.065,2.4823877731466997
3165.0245,6.366228304187465
3165.9834,4.649622401481109
3166.9416,4.682577075007712
3167.8993,3.215099288251127
3168.8563,1.2971959578694405
3169.8127,1.9788739683697472
3170.7684,3.4101401912871854
3171.7236,4.941001478368151
3172.6782,5.82146464725764
3173.6321,3.951536466190638
3174.5854,4.68122364518748
3175.5381,5.610532854753136
3176.4902,2.2394707185803453
3177.4417,4.068043804256519
3178.3926,5.5462586569743575
3179.3428,2.3241217812461334
3180.2924,7.401639626121529
3181.2415,2.9788186174090154
3182.1899,2.9556651069006645
3183.1377,6.182185416600366
3184.0848,5.0583858389553615
3185.0314,4.534272604591036
3185.9773,5.509851893548915
3186.9227,4.735129840527801
3187.8674,3.4101125251279774
3188.8115,3.334805979598432
3189.755,6.959216202087025
3190.6979,5.383349157393564
3191.6402,4.407210740725686
3192.5818,4.830806793457541
3193.5229,8.254143112891173
3194.4633,4.02722544802056
3195.4031,4.850059465298244
3196.3423,4.77265079090452
3197.2809,5.895005002519085
3198.2189,6.217127630095128
3199.1563,2.089024144635789
3200.0931,3.9606999549729327
3201.0292,1.7821604490481815
3201.9648,6.453410975196161
3202.8997,7.674456863929891
3203.834,6.84530338122828
3204.7677,7.765955716325674
3205.7008,9.03641899000338
3206.6333,7.756698245383149
3207.5652,6.026798435222543
3208.4964,4.746724434712138
3209.4271,5.266481058774529
3210.3571,5.336073074865063
3211.2865,5.955505197774276
3212.2154,6.774782088931975
3213.1436,7.293908350212911
3214.0712,5.312888515744018
3214.9982,6.331727046713141
3215.9246,6.550428351179242
3216.8503,6.7189967738840135
3217.7755,7.937436594064858
3218.7001,7.405752023769213
3219.624,6.373947195670147
3220.5473,4.3420261683832155
3221.4701,8.209992936784497
3222.3922,7.777851452329806
3223.3137,7.145605584375023
3224.2346,7.363259124497517
3225.1549,6.5308157928186015
3226.0746,8.098279235826997
3226.9937,6.815653034703266
3227.9121,4.682940689645186
3228.83,6.300145632693998
3229.7473,9.367271249061542
3230.6639,4.884320860958193
3231.5799,8.601297696921614
3232.4954,3.7182049366462646
3233.4102,7.385045673813625
3234.3244,8.151822964923134
3235.238,6.368539792623776
3236.151,7.635199058046293
3237.0634,7.801803598636033
3237.9752,6.318356175486351
3238.8864,7.684859471672562
3239.797,4.301316107086419
3240.7069,7.667728624771085
3241.6163,6.934099524756564
3242.5251,11.550431230395567
3243.4332,4.966726095699822
3244.3408,6.482986359176737
3245.2477,8.749214209666459
3246.154,8.965411771179266
3247.0598,4.831581080233282
3247.9649,6.247724083692514
3248.8694,8.813842680105143
3249.7733,7.229938705542116
3250.6766,8.74601390793595
3251.5793,7.812069962919769
3252.4814,10.378108458666567
3253.3829,6.9941309052286265
3254.2838,5.110138708877154
3255.1841,5.676133205942047
3256.0838,6.192115681651817
3256.9829,6.358087364473645
3257.8814,7.324049420953555
3258.7792,4.640002954056692
3259.6765,6.7059489935077075
3260.5731,6.971888522631226
3261.4692,6.787822457692379
3262.3647,6.903751645237406
3263.2595,6.26967686393433
3264.1538,6.635598823413657
3265.0474,7.101518170609133
3265.9404,5.817435486098491
3266.8329,7.233351279444287
3267.7247,7.899266002034707
3268.616,8.765180032924434
3269.5066,8.081093672175466
3270.3966,8.397007132198024
3271.286,4.762920544591375
