RamanShift,CorrectedData
30.1047,5163.970749582528
32.3739,4819.762936945025
34.6426,4492.005072667813
36.9109,4155.297056913557
39.1787,3820.4387449248666
41.4461,3489.8299503913836
43.7131,3153.5704487983576
45.9796,2820.1099807327396
48.2456,2488.4982552457714
50.5112,2162.0349531875936
52.7764,1828.2197305233647
55.0411,1492.402221597891
57.3054,1166.9320424737814
59.5692,841.3087942896217
61.8326,517.4320665146774
64.0955,188.00144020512562
66.3579,-125.78350875717706
68.6199,-437.57320637038845
70.8815,-723.1168220554142
73.1426,-936.4591538768283
75.4032,-936.7377759621538
77.6634,-445.08090721196777
79.9231,1261.7925914835341
82.1824,5547.218305592418
84.4412,13762.281807964826
86.6995,26528.218615978716
88.9574,38164.56410938924
91.2148,46055.20340266934
93.4717,48147.02122864634
95.7282,48812.40185959553
97.9842,48847.779086321985
100.2398,48182.736211506744
102.4949,47466.05604935309
104.7495,46917.72093223692
107.0036,45866.86271787361
109.2573,45884.56279480129
111.5105,44731.9020928895
113.7632,44374.56108316213
116.0154,44044.46978932407
118.2672,43969.50779133459
120.5185,43458.804228708286
122.7693,42960.88780126466
125.0197,41984.836774235184
127.2696,42685.778983242446
129.519,42078.54184406067
131.7679,42161.85234560629
134.0163,40417.88705601034
136.2642,40472.32212178533
138.5117,40742.03328526489
140.7587,39951.89588405946
143.0052,39508.28484835914
145.2512,38437.12470883506
147.4967,38828.189601075515
149.7417,38118.15327629757
151.9863,37710.08909743637
154.2304,36771.87004624556
156.4739,36785.31872737787
158.717,36876.95737776735
160.9596,36168.00786649488
163.2017,35153.941693871726
165.4433,35377.37999852911
167.6844,34522.893567558844
169.925,34412.352834278936
172.1651,33660.62788677844
174.4047,33246.03846902294
176.6439,32889.40398837169
178.8825,32434.143519723577
181.1206,32404.975809083466
183.3582,31959.219278114775
185.5954,31265.792024431157
187.832,31090.911826054107
190.0681,30444.346148347187
192.3037,30767.162145764876
194.5388,31133.22666831819
196.7734,29280.856258346554
199.0075,30364.317146857098
201.2411,29625.97527204844
203.4742,30109.04626847602
205.7068,29715.94547443554
207.9389,29395.387927132248
210.1704,29062.988366611957
212.4015,29428.761238966606
214.632,28361.02069965826
216.862,28930.48060986138
219.0915,28434.60454714024
221.3205,27991.65579975431
223.549,28388.397371617022
225.777,28035.39198672524
228.0044,28066.05208519188
230.2314,27655.989826775945
232.4578,27364.467090575923
234.6837,27235.445479130423
236.909,28176.436321333393
239.1339,26175.10067372434
241.3582,26588.049311078452
243.582,26327.742746419903
245.8053,26030.791226892365
248.0281,25738.45473636211
250.2503,25745.842998387463
252.472,25002.015479142246
254.6932,25104.931387341843
256.9139,24727.299681681525
259.134,25565.229069807225
261.3536,24160.228012091913
263.5727,24821.454713256266
265.7912,24252.317136418704
268.0092,24276.17299648311
270.2267,24174.329765830207
272.4436,23494.844674079002
274.6601,23717.674709105202
276.8759,23667.026623836085
279.0913,23159.206934022182
281.3061,22944.17191874379
283.5204,22783.72762548913
285.7341,22467.029872304738
287.9473,22721.134249399878
290.16,22050.796122313524
292.3721,22237.62062937332
294.5837,21517.312688398975
296.7947,21071.926994834004
299.0052,21647.36802894885
301.2152,21119.64006029468
303.4246,21205.897141949
305.6334,20796.393115792955
307.8418,19756.531611648727
310.0495,19494.966051374617
312.2568,19009.299659263626
314.4635,18567.885464659128
316.6696,18492.026306811487
318.8752,18496.124839292243
321.0802,17147.133530752675
323.2847,17378.30466488284
325.4887,17195.140353901472
327.692,16681.442536244307
329.8949,16762.56297839566
332.0972,16270.503280025441
334.2989,16143.01487317794
336.5001,16202.099027192424
338.7007,15188.406849978026
340.9008,15340.189287422887
343.1003,15117.94713353111
345.2992,15092.331028904933
347.4976,14487.841462967153
349.6955,14422.928774217253
351.8927,14029.09315627635
354.0895,14056.034658536271
356.2856,13770.353190097943
358.4812,13898.948519501959
360.6763,13206.220277585431
362.8707,13396.967956195971
365.0646,12951.340915119043
367.258,12812.188380170417
369.4508,12375.359447652481
371.643,12749.05308574577
373.8346,12333.668138877212
376.0257,12213.953323983245
378.2162,11896.8572346636
380.4062,11342.678342378516
382.5956,11489.864999619691
384.7844,11312.765445452053
386.9726,11200.277804041893
389.1603,11012.200086427874
391.3474,10305.030191645936
393.5339,10623.465908610022
395.7199,9848.504923183835
397.9052,9807.844814996366
400.09,9819.433065191617
402.2743,10011.11705683513
404.4579,9570.294074798177
406.641,9473.711303840857
408.8235,9690.965833020353
411.0054,9664.304656656772
413.1868,9642.92467216064
415.3675,9406.822680299396
417.5477,9332.145385411299
419.7273,9170.989397766381
421.9064,8863.451234313274
424.0848,8833.8273202907
426.2627,8880.6639923029
428.4399,8056.607498615827
430.6166,7486.503998688793
432.7928,7613.049571415111
434.9683,6983.840220822996
437.1432,6790.971874810253
439.3176,6813.390391436296
441.4914,6109.941560850828
443.6645,6096.521105069711
445.8371,5967.824685009378
448.0091,5560.397900621094
450.1806,5315.936292177925
452.3514,5148.835344349005
454.5216,4949.140488644094
456.6913,4952.597105084635
458.8603,4959.150524200682
461.0288,4654.446026996324
463.1967,4762.228844884157
465.3639,4697.24416273235
467.5306,4096.187117786765
469.6967,4208.102800320878
471.8622,4229.736259646277
474.0271,4017.132502993547
476.1914,4003.4364952959368
478.3551,3925.293161315414
480.5182,4235.997385779563
482.6807,3746.7940141631116
484.8426,3898.0778495808045
487.0039,4361.543657679475
489.1647,4400.986165125214
491.3248,4073.9000549686534
493.4843,4521.029966250579
495.6432,4415.92049727284
497.8015,3773.066201126996
499.9592,3963.5615867454326
502.1163,3750.3011253298755
504.2728,3465.929248446453
506.4287,3365.990350158281
508.5839,2826.928789869213
510.7386,2787.9888933231705
512.8927,2815.064957994815
515.0461,2695.151253478929
517.199,2897.5420212196696
519.3512,2763.331475709754
521.5029,2694.0638024664804
523.6539,2895.3331593738694
525.8043,2572.6836773753384
527.9541,2750.709458460973
530.1033,2551.854578894061
532.2519,2286.6630874307957
534.3999,2375.929007308885
536.5472,2558.496338899422
538.694,2236.9590588142164
540.8401,2678.3611180801527
542.9856,2664.796445354543
545.1305,2721.7089425111335
547.2748,2496.74248477567
549.4185,2383.490920156859
551.5615,2413.9980716959544
553.704,2341.7077385993107
555.8458,2117.1636959333555
557.987,2333.9596953474174
560.1276,2504.639467319219
562.2675,2531.4967189869276
564.4069,2821.3251324422963
566.5456,3190.2183644621546
568.6837,2928.37004361007
570.8212,2800.023766547507
572.958,2002.9731006522125
575.0942,1897.9115853017283
577.2299,1424.68273984392
579.3648,1294.3800646475574
581.4992,1085.3470458346055
583.6329,1100.727156583227
585.766,1121.0138592181756
587.8985,1370.350605056934
590.0304,1005.7308342068791
592.1616,1116.8979730718784
594.2922,897.9454379985618
596.4222,689.2666341645963
598.5515,599.0549577681813
600.6802,516.703798114926
602.8083,167.85653851987445
604.9358,154.2014004271623
607.0626,286.87492839405604
609.1888,128.36212650582456
611.3144,346.9451329671647
613.4393,248.55480364512186
615.5636,318.6185284248422
617.6873,417.7612141289501
619.8103,348.2545845809582
621.9327,316.5203594267514
624.0544,258.5802548297215
626.1756,91.05598378801369
628.2961,3.9692567140009487
630.4159,-126.70912562926969
632.5351,-91.20840213159681
634.6537,108.69345414130657
636.7716,-60.48061870431411
638.8889,-36.45876840985875
641.0056,14.031461484650208
643.1216,81.61289166232018
645.237,161.25820263192873
647.3518,-41.31074041057582
649.4659,33.67792611818004
651.5793,13.546478495867632
653.6922,-24.833143442367145
655.8043,-135.18913519076887
657.9159,114.70055583953945
660.0268,-269.39066722313146
662.137,-112.38940239746444
664.2466,-20.219556489370007
666.3556,-96.7039135346713
668.4639,-143.01525736697658
670.5716,-86.42540574778832
672.6786,-33.154747716245765
674.785,-247.97280892167328
676.8907,-210.69911468184728
678.9958,-121.55071306619357
681.1002,-90.8925472599658
683.204,-202.33955923293252
685.3072,-282.0566900459162
687.4097,-233.35685938753159
689.5115,-182.5001692001024
691.6127,-111.19439019096171
693.7132,-228.49546989074588
695.8131,-77.40935471811099
697.9123,30.8602915779702
700.0109,41.959806022641715
702.1089,-25.66447466754471
704.2061,38.03378580437857
706.3028,173.45092399205896
708.3987,141.83327606885723
710.4941,162.92717647363315
712.5887,311.27895822696155
714.6827,393.2849527201615
716.7761,492.1414882318131
718.8688,615.6948891076463
720.9608,579.64147477199
723.0522,811.377558492306
725.1429,796.3494477395725
727.233,976.8034418710304
729.3224,893.1858322804255
731.4112,819.792900593493
733.4993,778.5709195041345
735.5867,629.7161535083287
737.6735,471.37485931638366
739.7596,337.24328734147275
741.845,278.36768328304606
743.9298,305.04428946814005
746.014,256.36934544011456
748.0974,258.53908769189
750.1802,262.29975015272794
752.2624,99.29756416650343
754.3439,112.22875845412636
756.4247,205.58956074352318
758.5048,247.57619764036644
760.5843,385.0848936944385
762.6631,586.8618709798102
764.7413,923.9033477197299
766.8188,1387.7555362688436
768.8956,1663.5146397427743
770.9718,1981.0768473796415
773.0473,1797.7883317824526
775.1221,1703.7952457434294
777.1962,1510.9937240769723
779.2697,1422.2798845595535
781.3426,1497.649829857699
783.4147,1609.5496484151809
785.4862,1726.5754136992764
787.557,1577.2731830818448
789.6271,1330.0389966689472
791.6966,965.3188787939507
793.7654,536.508840489827
795.8335,391.8048831363558
797.901,232.45300274823967
799.9678,138.64919142214785
802.0339,80.8394389301975
804.0993,124.16973365806189
806.1641,93.38606318300299
808.2282,23.284413840628986
810.2916,86.36077103264688
812.3544,62.911119927986874
814.4164,-4.768555168033345
816.4778,104.86772942087555
818.5385,75.76595741871279
820.5986,214.12211150078656
822.658,378.9321735847989
824.7166,521.9421234472611
826.7747,968.2979370753528
828.832,1226.94558523687
830.8886,1357.1810290166031
832.9446,1569.7002172299253
834.9999,1468.8490851204115
837.0545,1295.7735522346265
839.1085,1200.1695234306753
841.1618,1040.932890608914
843.2143,877.7095336680359
845.2662,755.9453220974101
847.3175,734.4861166093251
849.368,592.5277703566462
851.4179,589.9661291473822
853.467,457.7470328642885
855.5155,467.4163154904818
857.5633,455.61980643163406
859.6105,367.3533304192897
861.6569,365.1627076288278
863.7027,393.0437545621171
865.7478,418.392284069414
867.7922,462.00410507055494
869.8359,374.0250223014518
871.8789,492.7508358780033
873.9212,609.727342175931
875.9629,567.4503326434133
878.0039,696.4155926313833
880.0441,754.3689018163059
882.0837,901.1560329104977
884.1226,945.1227510826138
886.1609,949.9648124897867
888.1984,1081.0279638378925
890.2352,1286.2079423332034
892.2714,1262.0504743717102
894.3069,1304.9012734872958
896.3416,1113.2560405934128
898.3757,1076.5604635544732
900.4091,1041.4602191023587
902.4418,1084.0509732034116
904.4739,1039.1283814093185
906.5052,1114.1880884313287
908.5358,1118.6257285893953
910.5658,1086.686925061651
912.595,939.5172898399469
914.6236,802.5124240493242
916.6515,831.56791941962
918.6786,805.3793596555697
920.7051,789.4423201462341
922.7309,901.3023682269122
924.756,839.5050633385108
926.7804,983.3959559089053
928.8041,764.1705879709334
930.8272,880.8244917234842
932.8495,838.8531917237851
934.8711,922.1022037208095
936.892,812.4170350750501
938.9123,803.6431839259385
940.9318,851.4261402887787
942.9506,793.3613861424528
944.9688,751.4443949515917
946.9862,693.4206322472164
949.003,546.4855560459182
951.019,539.1346174300998
953.0344,486.06326201733464
955.0491,533.9669300338574
957.063,612.8410568452891
959.0763,721.1810724776224
961.0888,746.1824008284493
963.1007,789.9404585835691
965.1119,820.7506549669451
967.1223,882.8583913031689
969.1321,864.80906070938
971.1412,913.5480474740871
973.1495,838.5207272377593
975.1572,888.5724665053895
977.1641,956.2486233967975
979.1704,897.2445471461178
981.1759,885.705577425033
983.1808,954.5270449327982
985.1849,948.9542715116368
987.1884,985.9825694585234
989.1911,1067.7572415808936
991.1932,1152.973580826394
993.1945,1114.6768694651182
995.1951,1010.012378237443
997.1951,1052.8253667370045
999.1943,1011.0610844572984
1001.1928,936.3147703636096
1003.1906,922.8316533106263
1005.1877,1009.4069527898973
1007.1841,994.6358790646809
1009.1798,946.8136323041945
1011.1748,894.0354027312969
1013.1691,845.0963711007207
1015.1627,691.3417092268683
1017.1556,459.3165804731798
1019.1477,416.76614128967776
1021.1392,256.3855435332189
1023.1299,243.0199348930073
1025.12,214.61446049440565
1027.1093,211.81426303258195
1029.0979,305.26448305656595
1031.0859,290.31025899724045
1033.0731,339.94672623286533
1035.0596,316.0690172386094
1037.0454,190.22226109016265
1039.0304,146.85158370255158
1041.0148,102.20210908859372
1042.9985,-46.53104020737737
1044.9814,-54.25274266303313
1046.9636,-137.81741191097535
1048.9452,-174.9789195989324
1050.926,-115.0397605786784
1052.9061,-92.35068166261044
1054.8855,-53.211280415940564
1056.8642,-11.62023182055782
1058.8421,83.42432072231531
1060.8194,96.77434989757603
1062.7959,111.78182755589296
1064.7717,145.24872458022583
1066.7469,176.17701073573335
1068.7213,230.86865433509593
1070.695,329.62562192926634
1072.6679,240.69987776051858
1074.6402,332.3433827748995
1076.6117,383.2080955114616
1078.5826,298.7959711858348
1080.5527,199.80896118158853
1082.5221,135.5990138943307
1084.4908,182.1180757216207
1086.4587,216.6680917050362
1088.426,227.70100506498784
1090.3925,171.8187568552239
1092.3584,230.5732858524825
1094.3235,160.31652911533456
1096.2879,169.20042139663929
1098.2515,303.52689584609107
1100.2145,484.29788392139744
1102.1767,575.6153140450297
1104.1382,704.5311097964841
1106.099,889.5971889991051
1108.0591,988.3154624309464
1110.0185,1066.2378319740928
1111.9771,1170.416189627489
1113.9351,1093.9524167277232
1115.8923,985.9983829072225
1117.8488,856.8559468589483
1119.8045,738.7769574158519
1121.7596,720.2632548423426
1123.7139,570.416672015097
1125.6675,533.4890346082029
1127.6204,658.1321625915771
1129.5726,596.0978706002898
1131.524,587.0379666880908
1133.4748,534.7042529477658
1135.4248,404.84852560172294
1137.3741,374.82257552535884
1139.3226,241.6281895455977
1141.2705,281.66715074113745
1143.2176,149.04123977442214
1145.164,192.8522344912344
1147.1097,131.85191124693665
1149.0546,95.64204446839722
1150.9989,73.3244072639718
1152.9424,49.550771785616234
1154.8852,-10.977090547967236
1156.8272,-31.307408813547227
1158.7686,57.96169757322059
1160.7092,19.232421957698534
1162.6491,1.55695710562577
1164.5883,122.88730365087395
1166.5267,151.1754466733073
1168.4644,290.97337002393033
1170.4014,404.1830560419985
1172.3377,656.45648415705
1174.2732,831.295629756798
1176.2081,1103.8024616643925
1178.1421,1458.2789403900315
1180.0755,1854.1270154058984
1182.0082,2005.5986216013953
1183.9401,2096.0956753246573
1185.8713,1990.370072867845
1187.8017,1803.2236895621863
1189.7315,1597.6583808352334
1191.6605,1271.4759840823026
1193.5888,1047.828320722143
1195.5163,1001.1671994587414
1197.4432,896.3444185178196
1199.3693,853.111766113434
1201.2947,817.7210214961742
1203.2193,713.9239553855405
1205.1432,761.5223303238345
1207.0664,723.26790171412
1208.9889,707.26241734426
1210.9106,677.0576177694493
1212.8316,655.4052364722775
1214.7519,679.2070001647699
1216.6715,713.0646290048971
1218.5903,797.3298363585818
1220.5084,795.3543284611114
1222.4257,918.3898035744896
1224.3424,902.6879520071852
1226.2583,987.2004548837867
1228.1735,1080.8789843020204
1230.0879,1148.7752024876208
1232.0016,1305.5907608575435
1233.9146,1404.1772993409832
1235.8269,1367.5364448112487
1237.7384,1394.6698100998838
1239.6492,1303.328994363088
1241.5592,1281.9655828103496
1243.4686,1307.1811476178918
1245.3772,1442.9272481422813
1247.285,1568.905430668292
1249.1922,1684.417227051439
1251.0986,1839.714153458197
1253.0042,1864.9477092108682
1254.9092,2017.8693752346298
1256.8134,2025.4306138051797
1258.7169,2156.432867019539
1260.6196,2223.527556720426
1262.5216,2381.9160831862137
1264.4229,2520.7498244600174
1266.3234,2689.580134765798
1268.2232,2751.758343120033
1270.1223,2810.8857516434146
1272.0207,2867.013634939067
1273.9183,2844.4932395012765
1275.8151,2773.2257831541974
1277.7113,2777.7624552770685
1279.6067,2816.1544175168747
1281.5014,3040.7528037429875
1283.3953,3272.7587196632485
1285.2885,3660.073240577982
1287.181,4031.6974090599397
1289.0727,4430.7322310811505
1290.9637,4622.678672296683
1292.854,4847.887654054277
1294.7435,4837.160051474915
1296.6323,4760.896691200709
1298.5204,4650.048351502181
1300.4077,4540.8157630409005
1302.2943,4337.399609977969
1304.1802,4196.400531066331
1306.0653,3872.919121684936
1307.9497,3578.3059352487544
1309.8333,3356.1114864435513
1311.7162,3118.7862541720497
1313.5984,3044.1306837758602
1315.4798,2924.7951894087346
1317.3605,2887.7301547831376
1319.2405,2891.085934363571
1321.1197,2758.462853737241
1322.9982,2546.26120958052
1324.876,2404.8312709851452
1326.753,2198.0732815802658
1328.6293,2098.1874609467486
1330.5048,1998.1240066847204
1332.3796,1881.383095412457
1334.2537,1839.4148837670036
1336.127,1814.1695095715804
1337.9996,1780.547092255274
1339.8714,1738.5477331054863
1341.7426,1757.3715156041617
1343.6129,1768.9185058477779
1345.4826,1798.4387523590885
1347.3515,1863.0322859716944
1349.2196,1838.7991195348077
1351.087,1898.9892472673491
1352.9537,1938.5026450002588
1354.8197,2047.8892695746072
1356.6849,2170.299058446428
1358.5493,2269.581928592899
1360.4131,2416.237775288213
1362.276,2516.2664711107573
1364.1383,2538.617864476553
1365.9998,2453.191778638975
1367.8606,2246.3380114652064
1369.7206,2082.65633629054
1371.5799,1875.0465039868868
1373.4384,1664.8582445996071
1375.2962,1587.9412694235907
1377.1533,1359.395273105165
1379.0096,1083.2699344112589
1380.8652,900.9149185148453
1382.7201,719.9298797562151
1384.5742,561.0144634665085
1386.4275,415.3683077775604
1388.2802,302.7410452110744
1390.132,233.7823041350821
1391.9832,206.19170989020495
1393.8336,138.56888547925337
1395.6832,132.76345184311867
1397.5322,98.07502853701953
1399.3803,65.5032337885641
1401.2278,3.197684844602918
1403.0745,35.85799829696407
1404.9204,-46.366241207411804
1406.7656,-7.775449380143982
1408.6101,-31.769578734132665
1410.4538,-6.698504105544998
1412.2968,11.438217047536455
1414.139,79.79109418508233
1415.9805,122.7106366526823
1417.8213,107.6473529980467
1419.6613,225.9017505417869
1421.5006,303.6243355280567
1423.3391,403.8656119419866
1425.1769,591.4260807324754
1427.0139,877.506238809794
1428.8502,1215.0065771699738
1430.6858,1554.9275780339703
1432.5206,1812.1697114726994
1434.3547,1966.433432007787
1436.188,1970.369176039174
1438.0206,1962.3273603024536
1439.8524,1833.0583818295418
1441.6835,1815.6626180290987
1443.5139,1794.4404279791997
1445.3435,1719.7921526013088
1447.1724,1737.8681148724972
1449.0005,1711.4186205719125
1450.8279,1750.4439581000333
1452.6545,1694.2943987431609
1454.4804,1745.1201962831692
1456.3056,1758.921587558987
1458.13,1764.1987919583553
1459.9536,1694.1520112797825
1461.7766,1539.1814296798239
1463.5987,1356.9872143735083
1465.4202,1148.6195171840627
1467.2409,977.8284763648535
1469.0608,853.2642186830672
1470.88,707.726861127594
1472.6984,599.7165121546877
1474.5161,454.5332731433464
1476.3331,341.9272394754116
1478.1493,285.8985019873908
1479.9648,301.74714809654324
1481.7795,266.62326236113404
1483.5935,279.1769263219776
1485.4067,236.00821885366713
1487.2192,233.81721603902588
1489.031,268.85399160080306
1490.842,265.16861692358725
1492.6522,275.26116070343414
1494.4618,250.48168898471704
1496.2705,248.28026505920025
1498.0785,240.60694971384146
1499.8858,211.81180125280298
1501.6924,217.84487557419197
1503.4981,218.45622645799085
1505.3032,242.19590550574867
1507.1075,216.1139621344464
1508.911,188.2604433391134
1510.7138,231.78539395363987
1512.5159,168.738856929318
1514.3172,143.07087289959782
1516.1178,86.28148081054314
1517.9176,96.47071817752658
1519.7166,140.18862165310566
1521.515,93.8352269251518
1523.3126,131.11056827963694
1525.1094,109.16467906420439
1526.9055,92.49759131538849
1528.7008,74.10933597808435
1530.4954,15.34994307220768
1532.2893,23.269441876600467
1534.0824,-8.03213848339874
1535.8747,57.645230884871125
1537.6663,45.451659115115035
1539.4572,18.487254764600948
1541.2473,58.85212593608958
1543.0367,56.94638054747702
1544.8253,40.67012592814535
1546.6132,80.17346883801838
1548.4003,97.65651563033134
1550.1867,130.86937185659008
1551.9723,176.11214209174977
1553.7572,271.5849296020733
1555.5414,352.63783589271225
1557.3247,451.4709597529709
1559.1074,540.0343964457952
1560.8893,652.6282367194253
1562.6705,773.7525659217681
1564.4509,867.2074628744467
1566.2305,938.3429986615683
1568.0094,1016.0092356951736
1569.7876,1031.006227003887
1571.565,1040.4340154562433
1573.3417,1088.0926336107368
1575.1176,1053.6321036215159
1576.8928,1081.052436761811
1578.6672,1100.253633768547
1580.4409,1096.6856845681214
1582.2138,1149.4985680844056
1583.986,1172.7422522744127
1585.7575,1242.0666936001799
1587.5282,1292.6718367963113
1589.2981,1406.607614176759
1591.0673,1498.6739451287594
1592.8358,1560.070734973482
1594.6035,1617.54787404536
1596.3704,1647.655237078112
1598.1366,1706.0926826299983
1599.9021,1775.210052782726
1601.6668,1823.7571725570833
1603.4308,1926.6338492217674
1605.194,1991.089871807908
1606.9564,2124.3750100803045
1608.7182,2298.639013892862
1610.4791,2522.231611855752
1612.2394,2721.4025095927573
1613.9988,2920.551387505355
1615.7576,3166.5278987810107
1617.5156,3319.3316674016805
1619.2728,3431.162285684046
1621.0293,3378.819312751486
1622.785,3230.802273415753
1624.54,2993.610658700418
1626.2942,2789.743927321031
1628.0477,2488.0015080570447
1629.8005,2255.282801790472
1631.5525,2047.6871845233236
1633.3037,1874.2640097047915
1635.0542,1752.5126103071998
1636.804,1625.132300560239
1638.553,1541.6223771684818
1640.3013,1511.2321205851913
1642.0488,1465.5607958474084
1643.7955,1507.057652879861
1645.5416,1507.621926951666
1647.2868,1594.4028382613815
1649.0313,1602.0995919313445
1650.7751,1740.0113771398592
1652.5181,1821.4873670442394
1654.2604,1900.1267174016975
1656.0019,2052.4285657545715
1657.7427,2216.992030643938
1659.4828,2379.266210086598
1661.222,2498.000179929433
1662.9606,2513.7929922266685
1664.6984,2412.6436740525296
1666.4354,2207.2012273433174
1668.1717,1902.064629908904
1669.9072,1547.0828374871526
1671.642,1267.454786795286
1673.3761,1057.4293990797032
1675.1094,881.2555829122593
1676.8419,734.6322362905175
1678.5737,602.4082483995044
1680.3048,523.5325010779216
1682.0351,430.9038701403915
1683.7646,390.3212261662229
1685.4934,368.9334354256862
1687.2215,315.73936028584285
1688.9488,247.13785942443246
1690.6754,222.62778836180405
1692.4012,200.10800014692904
1694.1263,197.02734560251884
1695.8506,191.1346735502084
1697.5742,175.57883084136483
1699.297,189.50866241600852
1701.0191,129.57301145838937
1702.7404,102.07071925767195
1704.461,60.900625807305914
1706.1808,44.211570080040474
1707.8999,35.35239043963702
1709.6182,17.07192480773847
1711.3358,52.91901075246278
1713.0527,34.69248567121758
1714.7688,8.291186432219547
1716.4841,-3.2360504432381276
1718.1987,18.60961148322167
1719.9126,21.327040978112564
1721.6257,-10.13489337813553
1723.338,47.77267678163844
1725.0496,9.94872107217634
1726.7605,13.342208630494497
1728.4706,16.20210849412433
1730.18,-48.172610432822694
1731.8886,1.9170205917434942
1733.5964,4.670451554295141
1735.3036,-22.962867577864017
1737.0099,-19.283486884120066
1738.7156,18.1582729551792
1740.4204,-30.837716098287274
1742.1246,-10.421582264420067
1743.8279,-15.943145694340274
1745.5306,25.397877572433572
1747.2325,8.851930768409147
1748.9336,8.069456872117371
1750.634,-14.149101226419589
1752.3336,-14.403300717875027
1754.0325,19.00744255659629
1755.7307,19.2338566448052
1757.4281,57.87666940449162
1759.1247,39.0366085010628
1760.8206,89.71440102114866
1762.5158,87.66077366102945
1764.2102,55.976452219832936
1765.9039,52.46216162009841
1767.5968,64.8186262245963
1769.289,66.99656987148046
1770.9804,86.0967157507257
1772.6711,92.41978638235196
1774.361,99.11650342541361
1776.0502,90.4875876147762
1777.7386,111.73375869413758
1779.4263,95.00573550233094
1781.1132,119.40423576085232
1782.7994,143.87997624115087
1784.4849,120.63367252063108
1786.1696,138.3660387379059
1787.8535,151.02778782525274
1789.5367,152.01963133129902
1791.2192,159.84227929439294
1792.9009,136.3964402326892
1794.5818,132.7328210659216
1796.2621,160.502127349866
1797.9415,146.95506331297656
1799.6202,157.49233157869276
1801.2982,170.51463330090883
1802.9755,195.87266805860054
1804.6519,201.21713372560953
1806.3277,170.1487262170449
1808.0027,154.96813943585585
1809.6769,185.6260655835049
1811.3504,198.37319531176763
1813.0231,203.6102174161624
1814.6951,222.98781870848507
1816.3664,248.0066839644278
1818.0369,226.31749572981425
1819.7067,237.47093407040484
1821.3757,218.11767678879005
1823.044,227.2083993128581
1824.7115,242.9437748893124
1826.3783,221.97447449278116
1828.0443,264.4011666684546
1829.7096,245.87451774178408
1831.3741,262.495191394215
1833.0379,286.36384884844665
1834.701,254.8311487022347
1836.3633,286.64774668969585
1838.0248,290.2642959966379
1839.6856,280.1314469423978
1841.3457,318.44984694366394
1843.005,295.72014061581285
1844.6636,320.84296938973057
1846.3214,328.51897173909674
1847.9785,333.44878292917747
1849.6349,338.13303494004685
1851.2904,324.7223564172991
1852.9453,351.56737262520073
1854.5994,352.21870558080354
1856.2528,374.12697378549547
1857.9054,360.69279221847864
1859.5572,394.7667721176922
1861.2083,388.8495211141508
1862.8587,397.6916428912
1864.5084,427.84373724369925
1866.1572,381.6563999895898
1867.8054,382.98022266838325
1869.4528,406.9657930030353
1871.0994,392.96369488669825
1872.7453,438.5745081428795
1874.3905,401.64880866545354
1876.0349,389.53716796255503
1877.6786,413.740153525835
1879.3215,435.758328951576
1880.9637,433.7422536986651
1882.6051,440.4424828684032
1884.2458,454.75956722468254
1885.8858,443.3940531269718
1887.525,430.0964823871527
1889.1634,419.1173923831657
1890.8011,435.6573161919914
1892.4381,420.5167826994384
1894.0743,477.3963164347497
1895.7098,442.64643772200543
1897.3446,464.21766211132854
1898.9786,452.36050072638227
1900.6118,461.17546004865744
1902.2443,464.61304203604413
1903.8761,452.22374403468075
1905.5071,411.908058744586
1907.1374,428.11647434353563
1908.7669,448.99947489023543
1910.3957,449.4075401622258
1912.0237,422.74114544704935
1913.651,439.00076153817645
1915.2776,437.98685500166994
1916.9034,433.8498880135812
1918.5285,398.9903183701008
1920.1528,409.3585995289168
1921.7764,436.3051809578137
1923.3992,402.5805080309992
1925.0213,380.1350217596291
1926.6427,377.81915912905606
1928.2633,348.28335332328425
1929.8832,389.9280337481332
1931.5023,369.70362632659
1933.1207,399.7605530823648
1934.7383,369.64923234213165
1936.3552,363.07007843496194
1937.9714,384.42350199343855
1939.5868,363.90991001944167
1941.2015,360.1797056706191
1942.8154,350.2332884655225
1944.4286,317.7710543209105
1946.041,306.39339565120645
1947.6528,306.4507016931293
1949.2637,327.2933586194631
1950.8739,281.37174953848717
1952.4834,273.68625428555424
1954.0921,308.1872498822968
1955.7001,306.5751106134867
1957.3074,329.6502076820334
1958.9139,286.2129092250989
1960.5197,308.11358008334264
1962.1247,276.2525822352982
1963.729,280.98027457836633
1965.3325,263.89701324741964
1966.9353,261.30315156753386
1968.5374,253.9490402248166
1970.1387,251.78502729234424
1971.7393,250.76145830370842
1973.3392,235.07867627465112
1974.9383,242.38702171330533
1976.5366,209.1868327770162
1978.1342,234.0784451992604
1979.7311,224.31219262164905
1981.3273,232.18840634501612
1982.9227,233.90741542707474
1984.5173,229.71954660365736
1986.1112,213.22512427152196
1987.7044,218.97447053024007
1989.2968,227.4679053471291
1990.8885,233.4557464997706
1992.4795,225.48830949106105
1994.0697,217.3159074893474
1995.6592,230.88885140809361
1997.2479,205.85744998760947
1998.8359,199.17200965931988
2000.4232,191.93283479607362
2002.0097,204.24022777900882
2003.5955,187.5944890699384
2005.1805,207.39591708827265
2006.7648,204.69480837748142
2008.3484,197.54145740707554
2009.9312,224.2361565996198
2011.5133,207.72919640227155
2013.0946,224.07086501982303
2014.6752,215.2614485797776
2016.2551,203.80123096893112
2017.8342,196.4404939214619
2019.4126,199.97951713354087
2020.9902,186.21857833693048
2022.5672,212.4579532636053
2024.1433,193.3979157833519
2025.7188,188.98873764137988
2027.2935,188.13068864892102
2028.8674,184.72403672732435
2030.4406,178.869047916638
2032.0131,171.41598640967277
2033.5849,161.4151146105478
2035.1559,144.8166932092263
2036.7261,192.22098128152265
2038.2957,181.4782364550847
2039.8645,184.63871443535845
2041.4325,202.0526691130117
2042.9998,186.6703525323237
2044.5664,187.9920147170551
2046.1323,178.41790382426643
2047.6974,187.64826613109926
2049.2617,174.93334613052048
2050.8254,185.12338643901603
2052.3883,205.81862792373704
2053.9504,191.31930960060708
2055.5118,175.57566842736196
2057.0725,168.63793944855024
2058.6325,187.956355952967
2060.1917,164.28114954303692
2061.7502,175.8625499416139
2063.3079,196.90078522874865
2064.8649,175.9460817258696
2066.4212,185.598663785403
2067.9767,162.45875400030945
2069.5315,170.42657310757022
2071.0856,165.25234021958295
2072.6389,153.7862727444808
2074.1915,142.37858643787877
2075.7433,116.929495517531
2077.2945,142.08921277740683
2078.8448,129.10794984218228
2080.3945,141.93591691564052
2081.9434,144.9233229104857
2083.4916,120.22037532006743
2085.039,128.47728018850376
2086.5857,152.0442423577142
2088.1317,158.9214653848494
2089.677,158.80915130662106
2091.2215,157.20750057052828
2092.7652,142.01671203598107
2094.3083,132.5369829903184
2095.8506,146.51850930071032
2097.3921,158.0114855089596
2098.933,158.86610469168227
2100.4731,164.93255834538286
2102.0124,174.01103637790584
2103.5511,163.00172704777106
2105.089,169.45481687338906
2106.6261,176.87049074315655
2108.1626,173.1489318509275
2109.6983,172.89032162185413
2111.2332,189.89483974960058
2112.7675,182.21266419892982
2114.301,161.7939710356568
2115.8337,185.98893450347077
2117.3657,179.24772722812486
2118.897,192.4205199754897
2120.4276,176.20748171895502
2121.9575,167.90877950771028
2123.4866,189.5745786288744
2125.0149,171.70504269048251
2126.5426,161.2003334048186
2128.0695,168.46061076712795
2129.5956,157.1360331606502
2131.1211,156.27675728401846
2132.6458,173.98293826450754
2134.1698,210.60472966662564
2135.693,165.4922833150522
2137.2155,167.39574892842666
2138.7373,169.96527457046614
2140.2584,165.4510066309258
2141.7787,156.10308979991623
2143.2983,157.27166711304108
2144.8171,141.05688004487274
2146.3353,154.4588684972714
2147.8527,158.82777096153222
2149.3693,153.81372438436574
2150.8853,151.01686412420258
2152.4005,152.78732400134322
2153.9149,150.17523632592292
2155.4287,125.03073188020244
2156.9417,185.65393994469014
2158.454,158.74498854958892
2159.9655,161.1540038685671
2161.4764,175.28111048784012
2162.9865,139.0764313820855
2164.4958,153.8400877731765
2166.0045,145.77219949222126
2167.5124,170.12288483192788
2169.0195,151.9422606272865
2170.526,181.58044201205848
2172.0317,169.58754260058868
2173.5367,176.96367419142007
2175.0409,165.85894688722692
2176.5445,189.12346902104764
2178.0473,189.90734726733353
2179.5494,139.51068640929952
2181.0507,152.78358933109484
2182.5513,165.9761575217608
2184.0512,152.43849094250072
2185.5504,141.2206878947618
2187.0488,134.02284515560677
2188.5465,127.34505808988888
2190.0435,126.23742072223831
2191.5397,144.70002580383698
2193.0353,128.1329648234896
2194.5301,121.0363278230052
2196.0241,129.71020356286135
2197.5175,133.9046795931772
2199.0101,121.16984216697074
2200.502,109.00577619821433
2201.9931,99.41256538918697
2203.4835,116.19029235211019
2204.9733,106.48903870508639
2206.4622,124.70888490431571
2207.9505,100.49991034110826
2209.438,94.51219315968228
2210.9248,93.0458104992531
2212.4109,96.10083855392168
2213.8962,90.62735258732846
2215.3809,93.12542690210557
2216.8648,105.84513489461551
2218.3479,98.73654902996441
2219.8304,90.89974071481447
2221.3121,99.08478036845645
2222.7931,92.24173750118916
2224.2733,88.7706806324677
2225.7529,82.52167735933062
2227.2317,68.99479439111747
2228.7098,83.59009761194648
2230.1872,80.55765221599177
2231.6638,82.54752256152824
2233.1397,61.50977220124969
2234.6149,75.44446386238042
2236.0894,70.85165965704755
2237.5632,80.78142094292934
2239.0362,74.28380836918495
2240.5085,83.4088817771617
2241.9801,48.656700265369636
2243.4509,73.22732209823153
2244.921,70.570805053605
2246.3904,74.38720617707759
2247.8591,69.42658180852868
2249.3271,65.88898754396996
2250.7943,53.374478285147234
2252.2608,56.93310827491905
2253.7266,56.81493122239817
2255.1917,52.32000026736796
2256.656,42.84836798146853
2258.1197,51.00008641314116
2259.5826,43.02520718235019
2261.0447,55.8237813990595
2262.5062,61.84585974297943
2263.9669,42.09149233558719
2265.4269,77.81072867989906
2266.8862,67.4536178580197
2268.3448,54.77020817395214
2269.8026,62.9605472571634
2271.2598,72.57468218942404
2272.7162,72.86265942290174
2274.1719,71.87452468402489
2275.6268,64.46032297059583
2277.0811,74.42009856166987
2278.5346,74.35389509169727
2279.9874,81.0617554509281
2281.4395,82.19372178607728
2282.8908,56.249835433240605
2284.3414,78.38013690658272
2285.7914,68.78466615777279
2287.2406,63.91346235467927
2288.689,68.36656397733213
2290.1368,58.89400886662952
2291.5838,80.39583417980248
2293.0302,86.02207648514377
2294.4758,65.27277154699232
2295.9206,60.1979542694653
2297.3648,52.64765890395756
2298.8082,79.22191909988169
2300.251,76.67076798017024
2301.693,80.24423787553178
2303.1343,79.49236034997148
2304.5748,74.51516616505478
2306.0147,74.26268528742185
2307.4538,64.48494693856901
2308.8922,72.08197959736754
2310.3299,78.90381109784857
2311.7669,68.55046855321962
2313.2031,79.47197828765457
2314.6387,66.31836593982962
2316.0735,68.03965635371242
2317.5076,64.33587371008207
2318.941,64.60704150932406
2320.3737,57.553182608462976
2321.8056,69.42431921846173
2323.2369,59.07047297475174
2324.6674,72.64166481851589
2326.0972,71.43791510023675
2327.5263,66.90924344398309
2328.9547,86.4556687594436
2330.3823,69.87720928722229
2331.8092,83.12388240336895
2333.2355,81.99570478516034
2334.661,82.34269227863979
2336.0858,77.31485990988631
2337.5098,76.5622218815588
2338.9332,79.48479162317199
2340.3558,71.28258179862041
2341.7778,70.55560427695355
2343.199,63.80387021439765
2344.6195,70.87739006162201
2346.0393,73.52617363126092
2347.4583,87.65023002717635
2348.8767,73.19956761796948
2350.2943,67.72419389573997
2351.7113,78.12411562059287
2353.1275,96.59933887539319
2354.543,74.14986896176333
2355.9578,83.8257102153334
2357.3718,63.37686623023683
2358.7852,76.90333976235115
2360.1978,78.10513293378881
2361.6098,78.23224709762917
2363.021,64.48468282590329
2364.4315,57.96243990831863
2365.8413,57.21551748973934
2367.2504,61.74391413540752
2368.6587,60.897627838408425
2370.0664,52.92665597439054
2371.4733,56.23099531002481
2372.8795,70.01064208271646
2374.285,56.31559196755961
2375.6899,58.695839939544385
2377.0939,38.15138041050659
2378.4973,44.13220720532399
2379.9,49.98831376736189
2381.3019,43.11969309866572
2382.7032,39.526337701399825
2384.1037,57.408239646531
2385.5035,40.61539060976611
2386.9027,37.04778169272913
2388.3011,44.90540359088891
2389.6987,51.38824662923844
2391.0957,32.7963006837158
2392.492,46.32955511638011
2393.8876,43.28799896132887
2395.2824,37.52162078936544
2396.6765,42.88040873841237
2398.07,44.06435057118142
2399.4627,47.02343362157853
2400.8547,45.557644782870284
2402.246,39.91697047808884
2403.6366,34.10139667469002
2405.0265,28.910908940961235
2406.4156,34.945492504176855
2407.8041,25.35513230250217
2409.1918,26.48981292464805
2410.5789,15.79951870577679
2411.9652,21.93423371615245
2413.3508,22.143941868047932
2414.7358,18.128626854393588
2416.12,31.088272146681902
2417.5035,24.97286103512215
2418.8863,14.032376499038946
2420.2684,27.416801268028394
2421.6497,14.52611793136657
2423.0304,10.110308804160013
2424.4104,1.019356056257493
2425.7896,6.60324175640244
2427.1682,9.711947963146486
2428.546,14.745456669011674
2429.9232,17.55374976939993
2431.2996,20.186809012260255
2432.6753,-5.25538402999473
2434.0503,25.927152013181967
2435.4246,9.884451013621856
2436.7982,9.616546583885793
2438.1711,16.17347223769275
2439.5433,16.855261392596276
2440.9148,15.6619473044193
2442.2856,6.64356306043328
2443.6557,7.400141591292595
2445.025,12.981715761218311
2446.3937,16.038318360430367
2447.7617,11.869982049331156
2449.1289,9.67673932794196
2450.4955,-0.9913774224150984
2451.8613,21.76566408281724
2453.2265,19.497906032056108
2454.5909,10.505390396061102
2455.9546,6.238158950617617
2457.3177,8.496253366453857
2458.68,28.729715251921334
2460.0416,25.238586130410113
2461.4025,26.122907238014704
2462.7627,15.832719558443841
2464.1222,30.918063814182005
2465.4811,28.178980569385203
2466.8392,25.215510079033265
2468.1966,20.677692316315188
2469.5533,29.215567002267562
2470.9093,46.62917365115027
2472.2645,48.91855148506875
2473.6191,28.383739259837512
2474.973,36.274775242085525
2476.3262,32.74169741460764
2477.6787,28.78454339745167
2479.0305,15.453350483248414
2480.3816,26.548155676785882
2481.7319,18.968995828317475
2483.0816,15.915907522614361
2484.4306,13.63892715476186
2485.7789,14.988090960684985
2487.1264,18.86343503992248
2488.4733,21.96499534213308
2489.8195,14.292807628341961
2491.165,22.996907439926872
2492.5097,19.127330175336283
2493.8538,23.484111003050657
2495.1972,7.5672849002776275
2496.5398,23.57688660938493
2497.8818,9.21295079706988
2499.2231,15.475511894260762
2500.5637,23.314604239757955
2501.9035,19.3302620176064
2503.2427,19.72251917870699
2504.5812,21.39140948065733
2505.919,15.886966483833021
2507.256,13.459223534695411
2508.5924,15.608213820838955
2509.9281,20.03397039526635
2511.2631,20.036526154901367
2512.5974,11.315913796326186
2513.9309,19.37216581576058
2515.2638,1.2553145962656345
2516.596,9.865392327180416
2517.9275,7.752431185291243
2519.2583,8.266463248729451
2520.5884,8.957520518102683
2521.9178,12.62563491135279
2523.2465,12.470838256846946
2524.5745,15.393162256695632
2525.9018,9.442638488298371
2527.2284,7.519298375125118
2528.5543,10.473173246218494
2529.8796,22.304294355429874
2531.2041,26.312692851878865
2532.5279,17.89839966164186
2533.851,26.261445447668848
2535.1735,20.651860693926437
2536.4952,26.61967562177074
2537.8163,17.314920246037445
2539.1366,9.587624315370022
2540.4562,27.287817405260967
2541.7752,28.765528995328168
2543.0935,33.22078829231236
2544.411,39.60362421529999
2545.7279,34.91406535117039
2547.0441,42.75213989076792
2548.3596,35.56787567579613
2549.6744,46.96130012043841
2550.9885,52.782440283200685
2552.3019,52.03132275297639
2553.6146,44.60797359083517
2554.9266,44.71241833753243
2556.2379,40.994682087746014
2557.5485,49.30478948902896
2558.8585,46.34276477898857
2560.1677,48.85863170218431
2561.4762,52.80241353974975
2562.7841,55.12413308423197
2564.0913,61.07381260015541
2565.3977,64.95147380080357
2566.7035,53.65713778872282
2568.0086,55.29082501694529
2569.313,60.45255540193148
2570.6167,72.39234830723399
2571.9197,66.61022249188136
2573.222,77.05619599097918
2574.5236,73.53028617353266
2575.8246,73.732509637985
2577.1248,63.512882247478046
2578.4244,73.37141912783
2579.7232,84.95813476973103
2581.0214,68.67304293015809
2582.3189,80.16615651650682
2583.6157,91.0874877494432
2584.9118,83.8870480479718
2586.2072,96.06484792022366
2587.5019,80.17089703546026
2588.7959,89.65520410229465
2590.0893,95.61777702763175
2591.3819,87.25862282182584
2592.6739,94.72774753905423
2593.9652,91.67515636090843
2595.2557,102.95085352170327
2596.5456,97.90484233900179
2597.8348,96.48712510085966
2599.1234,100.24770311628481
2600.4112,95.48657672941454
2601.6983,101.20374528191064
2602.9848,96.74920716056954
2604.2705,86.47295974015196
2605.5556,96.57499942792674
2606.84,91.00532176643401
2608.1237,99.6639213324645
2609.4067,88.85079179275658
2610.689,76.91592581741065
2611.9707,79.90931518801926
2613.2516,81.38095091701666
2614.5319,84.63082321774368
2615.8115,79.55892148973248
2617.0903,82.31523428620767
2618.3685,79.5997493648058
2619.6461,90.61245366001071
2620.9229,71.35333331030847
2622.199,85.87237354806234
2623.4745,91.71955889210358
2624.7493,81.34487300253977
2626.0234,83.84829862228344
2627.2968,80.37981768079817
2628.5695,83.53941126906625
2629.8415,67.72705967427169
2631.1128,78.94274234820523
2632.3835,62.08643806538794
2633.6535,70.45812481091411
2634.9228,59.407779949014184
2636.1914,73.08538013933776
2637.4593,79.3409014474571
2638.7265,78.77431920809181
2639.9931,63.73560796255424
2641.259,75.57474146441427
2642.5242,82.44169282988446
2643.7887,71.33643441943059
2645.0525,80.85893776910302
2646.3156,69.25917370158777
2647.5781,70.43711223098285
2648.8398,67.99272267879542
2650.1009,56.22597366216178
2651.3613,74.23683311829245
2652.6211,75.07526842213815
2653.8801,64.34124620628268
2655.1385,69.88473235255833
2656.3961,68.20569209938617
2657.6531,81.55408998634152
2658.9094,79.47988987094254
2660.1651,76.68305479516812
2661.42,84.21354700619804
2662.6743,77.37132798438233
2663.9279,76.70635836793576
2665.1808,79.5185980213605
2666.433,83.90800604209653
2667.6846,83.02454073239687
2668.9354,91.06815955543652
2670.1856,88.03881914414615
2671.4351,98.28647522077517
2672.6839,88.1110826271854
2673.9321,85.86259522237492
2675.1795,86.34096598423093
2676.4263,87.54614703201673
2677.6724,101.07808962158538
2678.9179,104.2867441333292
2680.1626,95.9220599368607
2681.4067,99.4339853589263
2682.6501,99.57246776705188
2683.8928,98.83745353442418
2685.1348,97.92888803850497
2686.3761,90.84671566838256
2687.6168,83.24087983385698
2688.8568,90.66132303626182
2690.0961,88.75798694452305
2691.3348,90.68081232095392
2692.5727,86.87973904028877
2693.81,84.70470607045468
2695.0466,81.30565151058181
2696.2826,83.33251261275336
2697.5178,89.28522581599759
2698.7524,91.9637267260182
2699.9863,86.66795005566655
2701.2195,82.44782959815802
2702.452,100.05329828002846
2703.6839,89.48428820333584
2704.9151,96.1407304696047
2706.1456,103.77255528551882
2707.3755,102.8796918963535
2708.6046,106.81206850965896
2709.8331,110.26961230418851
2711.0609,103.65224939057612
2712.2881,99.3099047767596
2713.5145,120.09250243415659
2714.7403,119.89996534108559
2715.9654,118.53221527494111
2717.1899,135.38917281411818
2718.4136,139.12075735169037
2719.6367,143.32688692684042
2720.8591,148.6574781875447
2722.0809,144.1624463485116
2723.3019,154.84170513787444
2724.5223,162.9451668421425
2725.7421,160.07274219940837
2726.9611,167.12434031831276
2728.1795,167.74986870676912
2729.3972,156.6992332014479
2730.6142,141.67233796152118
2731.8306,140.11908557916945
2733.0462,141.0893772298516
2734.2612,135.53311268783455
2735.4756,117.40019031649308
2736.6892,100.69050712387047
2737.9022,86.10395894400949
2739.1145,85.99044060404776
2740.3262,85.24984607008446
2741.5372,75.33206844831466
2742.7475,59.73699999243581
2743.9571,68.61453220282647
2745.1661,58.76455598249436
2746.3744,57.236961548302816
2747.582,44.731638529471184
2748.7889,39.89847598285019
2749.9952,31.737362517973224
2751.2008,42.19818634539024
2752.4057,41.03083535827773
2753.61,26.735197027830964
2754.8136,29.76115841493788
2756.0165,32.40860631313444
2757.2188,24.27742721834693
2758.4204,14.91750730241506
2759.6213,16.27873249440563
2760.8215,21.36098857421007
2762.0211,19.564161158933985
2763.22,25.588135652073106
2764.4182,27.682797261482847
2765.6158,12.048030939136652
2766.8127,15.533721360181517
2768.009,6.239753079283901
2769.2045,5.716010495773844
2770.3994,3.762377946584593
2771.5936,3.128739711490425
2772.7872,7.214980032641506
2773.9801,-6.3290168790981625
2775.1723,2.9966331149855705
2776.3639,-7.708122619515279
2777.5548,2.2566632530263178
2778.745,-3.158984927618576
2779.9346,-4.805042844245463
2781.1235,-6.631454621389821
2782.3117,-5.938116381210193
2783.4992,0.6251420023659193
2784.6861,0.8085499771937066
2785.8723,-12.63766301512237
2787.0579,-14.513267541062532
2788.2428,-8.767907916853801
2789.427,-5.3010834711813
2790.6106,-4.562205941330603
2791.7935,4.4493658932362905
2792.9757,-5.465681170505832
2794.1573,11.843339619925928
2795.3382,0.8271696191679894
2796.5184,11.536550063424556
2797.698,16.07222218062816
2798.8769,17.18492708334611
2800.0551,26.225405723424046
2801.2327,32.944398880858444
2802.4096,32.49264707339148
2803.5859,52.720890489322755
2804.7615,53.27986899202392
2805.9364,64.77032191765989
2807.1106,68.09298806959544
2808.2842,73.34860560349364
2809.4572,95.33791199408631
2810.6294,114.66164398261742
2811.801,139.07053735695138
2812.972,155.1153267583369
2814.1423,182.34674543731717
2815.3119,194.0155250932827
2816.4808,226.7223956021569
2817.6491,258.9680848997083
2818.8167,276.103318654482
2819.9837,314.4788199453426
2821.15,344.3953090901223
2822.3157,370.55350326186567
2823.4807,417.6541161896653
2824.645,446.29785789707864
2825.8086,483.0854342311235
2826.9716,513.6675465758384
2828.134,540.7948914844093
2829.2957,580.9681603733467
2830.4567,586.8880392512135
2831.617,598.3552083168909
2832.7767,616.1703419003802
2833.9358,616.4841083481308
2835.0941,598.7471698448886
2836.2519,601.3101824105605
2837.4089,589.4237960775812
2838.5653,569.1886548652853
2839.7211,559.4553968987692
2840.8761,557.7746546112436
2842.0306,569.0470548413646
2843.1843,573.623218850043
2844.3374,594.3037622077192
2845.4899,623.1892947486017
2846.6417,636.4304203638621
2847.7928,677.3277367127794
2848.9433,722.5818350903285
2850.0931,742.9933000182082
2851.2422,784.8627087922985
2852.3907,814.9406312785476
2853.5385,846.5276294942759
2854.6857,870.9742573073993
2855.8323,900.1810601205581
2856.9781,928.2985746266503
2858.1233,962.4773285167648
2859.2679,989.4678401990046
2860.4118,1011.8706184567006
2861.555,1058.1861621785042
2862.6976,1067.114960134362
2863.8395,1073.8074905123594
2864.9808,1114.0642208294314
2866.1214,1102.1356078644394
2867.2614,1120.7220972556029
2868.4007,1135.5741236197864
2869.5393,1141.992110366633
2870.6773,1152.5264695500455
2871.8146,1153.977601804007
2872.9513,1147.395896237234
2874.0874,1155.4317304186684
2875.2227,1152.285470443292
2876.3574,1137.4574708517703
2877.4915,1115.2980746619135
2878.6249,1089.257613516957
2879.7577,1086.536407907157
2880.8898,1074.6347674301926
2882.0212,1072.9029908183804
2883.152,1068.5913660576894
2884.2821,1040.100170405059
2885.4116,1058.1296704315148
2886.5405,1052.480122307081
2887.6686,1061.3017716204854
2888.7962,1048.9948534356554
2889.923,1055.2595922034998
2891.0493,1066.1962018849804
2892.1748,1066.0548858884636
2893.2997,1086.5858369603536
2894.424,1079.6392371865065
2895.5476,1099.465257786921
2896.6706,1110.9140591852033
2897.7929,1102.3357908103073
2898.9145,1132.7305909820473
2900.0355,1156.4485869968794
2901.1559,1149.4898948239552
2902.2756,1183.7546188679398
2903.3946,1192.9428520386004
2904.513,1206.1546754081573
2905.6308,1222.9401581194024
2906.7479,1240.0493572535825
2907.8643,1254.2823176625423
2908.9801,1251.3890717976335
2910.0953,1259.7196395673845
2911.2098,1250.6240283664338
2912.3236,1234.202232992224
2913.4368,1236.854235735958
2914.5494,1228.080006546816
2915.6613,1220.879503005437
2916.7725,1206.3026704116592
2917.8831,1181.7994418565254
2918.9931,1158.8697383680546
2920.1024,1156.5134691562707
2921.211,1139.7305318425013
2922.319,1126.870812482939
2923.4264,1117.4841857364715
2924.5331,1121.0205149932794
2925.6391,1116.4296524687015
2926.7445,1121.5114391678717
2927.8493,1111.815704931627
2928.9534,1125.2422683856917
2930.0569,1123.9909370376326
2931.1597,1134.2615071425942
2932.2619,1127.7037637158114
2933.3634,1128.917480429905
2934.4643,1148.6024196804583
2935.5645,1136.9583325738809
2936.6641,1130.9349587305571
2937.763,1116.2820264012898
2938.8613,1095.7992525275313
2939.959,1068.7363428879146
2941.056,1034.6929923030798
2942.1523,1000.3688849063045
2943.248,950.8136944839355
2944.3431,909.7770848186319
2945.4375,855.7087101849154
2946.5313,803.7582157595376
2947.6244,734.8752381621641
2948.7169,682.809405974878
2949.8087,637.4103404310106
2950.8999,587.0776559357989
2951.9904,541.2609605203766
2953.0803,493.9598563451011
2954.1696,454.67394015772027
2955.2582,436.75280376638364
2956.3462,406.3960344325027
2957.4335,386.0532150499604
2958.5202,362.7739244486809
2959.6062,350.60773759805613
2960.6916,340.00422583973955
2961.7764,333.51295700930746
2962.8605,332.9834955422941
2963.9439,320.31540253910384
2965.0267,309.4582357703067
2966.1089,310.4615498033195
2967.1905,312.4248961109764
2968.2714,317.7978230614965
2969.3516,318.5798758988502
2970.4312,313.57059668903014
2971.5102,322.96952431223065
2972.5885,324.62619451293995
2973.6662,337.49013980595146
2974.7432,332.06088945979593
2975.8196,337.08796936810324
2976.8954,335.1209021038941
2977.9705,326.65920686931054
2979.045,323.2523995152851
2980.1188,317.2499926261594
2981.192,308.90149555375115
2982.2645,294.4564144773782
2983.3364,294.71425248734397
2984.4077,279.4245097293881
2985.4783,273.8366834021076
2986.5483,261.20026790985503
2987.6177,237.3147549186158
2988.6864,215.5796334823733
2989.7545,205.99439028196377
2990.8219,183.75850984242675
2991.8887,157.3214746288587
2992.9548,145.38276526877144
2994.0204,125.3918608164621
2995.0852,112.1982388724009
2996.1495,102.90137578313909
2997.2131,81.40074677324674
2998.276,77.89582603827989
2999.3383,65.68608695978787
3000.4,59.42100214036179
3001.4611,47.50004352573251
3002.5215,35.47268246742112
3003.5812,26.98838984194913
3004.6404,26.046636171111118
3005.6989,18.79689170681752
3006.7567,19.188626440512962
3007.8139,6.471310175673807
3008.8705,3.8944125238899687
3009.9264,9.157403032038587
3010.9818,5.70975120805349
3012.0364,-0.6490735317056533
3013.0905,-7.5696018279764985
3014.1439,-7.452357837251839
3015.1966,-9.897790095703044
3016.2487,-0.5562726904469173
3017.3002,-5.8780808296769465
3018.3511,-7.713484164422766
3019.4013,-3.9126936236865504
3020.4509,-6.0258430787642965
3021.4998,-3.503027313143207
3022.5481,-2.6942809121379696
3023.5958,1.6003965341786852
3024.6428,3.781032351600288
3025.6892,2.5976538499163553
3026.735,-3.399711698893043
3027.7802,6.988962951175381
3028.8247,0.16373900924480722
3029.8685,2.524677614548864
3030.9118,11.62183990468435
3031.9544,12.505286992001288
3032.9963,16.875079872631602
3034.0376,10.881279417654184
3035.0783,23.273946329397802
3036.1184,24.903141201378332
3037.1578,31.668924394372766
3038.1966,33.121356020126655
3039.2348,33.01049587369687
3040.2723,35.98640341892656
3041.3092,33.54913778955449
3042.3455,38.24875775945583
3043.3811,32.88532176701432
3044.4161,39.10888786812683
3045.4505,42.76951378983716
3046.4842,48.06725686810029
3047.5173,44.452174011176055
3048.5498,43.12432164665228
3049.5816,44.633755757595054
3050.6128,46.330531895827505
3051.6434,44.36470516683568
3052.6734,38.4863302128004
3053.7027,41.59546123225539
3054.7314,45.24215203887155
3055.7594,47.72645603036551
3056.7868,48.99842615203272
3057.8136,41.00811487190401
3058.8398,44.90557416802642
3059.8653,41.790855608365746
3060.8902,44.81401031183265
3061.9145,43.725088979429415
3062.9381,45.32414186401843
3063.9612,41.4612187812113
3064.9835,46.236369093378414
3066.0053,44.99964174827841
3067.0264,49.95108523130631
3068.0469,48.99074757786104
3069.0668,46.71867632383089
3070.086,43.23491851519674
3071.1046,47.33952073075301
3072.1226,42.33252911694518
3073.1399,42.86398934682353
3074.1567,42.583946670112994
3075.1727,34.14244590789923
3076.1882,30.43953145542838
3077.203,28.625247366522274
3078.2173,31.39963739060738
3079.2308,27.11274499085755
3080.2438,17.764613316450493
3081.2561,25.055285245436323
3082.2678,22.284803478219146
3083.2789,20.30321046465059
3084.2893,14.160548431734014
3085.2991,17.10685940344115
3086.3083,13.742185262138264
3087.3169,10.516567719123543
3088.3248,12.030048348273453
3089.3321,9.73266861829893
3090.3388,13.674469877610647
3091.3449,5.405493377292771
3092.3503,7.57578023168486
3093.3551,4.9353715010717
3094.3593,13.734308169980238
3095.3629,1.3226311735841705
3096.3658,7.500381309714157
3097.3681,6.417599362974954
3098.3698,4.024326042967459
3099.3708,3.4206019951170674
3100.3713,4.806467824605932
3101.3711,3.281964102410541
3102.3702,1.097131351442556
3103.3688,8.752010061794579
3104.3667,5.496640712588146
3105.364,1.9310636954246547
3106.3607,6.105319346939211
3107.3568,6.119447984456372
3108.3522,4.623489864247631
3109.347,4.217485181390032
3110.3412,5.501474084725771
3111.3348,0.9254966809222083
3112.3277,-1.6604069783679165
3113.32,6.443803149253256
3114.3117,1.1381836936491254
3115.3028,11.072791220245165
3116.2932,-3.0523177169147857
3117.2831,7.912913325485135
3118.2723,4.668571283414678
3119.2608,8.564743013714804
3120.2488,6.501515326540527
3121.2361,5.878974946399637
3122.2229,5.647208532784987
3123.209,3.5563026863998175
3124.1944,9.506343951475401
3125.1793,6.24741883668014
3126.1635,8.979613755619368
3127.1471,10.953015059424047
3128.1301,7.917709009429416
3129.1125,7.373781757440639
3130.0942,8.821319376085711
3131.0753,12.510407864255114
3132.0558,9.841133132626112
3133.0357,9.563580966772207
3134.015,11.22783705385558
3134.9936,11.133986985402743
3135.9716,7.7321162406619806
3136.949,14.472310187541893
3137.9258,12.354654116630229
3138.902,15.6792331737918
3139.8775,14.696132381344853
3140.8524,12.205436604815446
3141.8267,17.90723056276849
3142.8004,17.601598851714442
3143.7735,15.988625889091566
3144.7459,21.0683959163224
3145.7178,18.44099301494333
3146.689,21.00650105580678
3147.6596,16.665003725355405
3148.6295,19.96658449996704
3149.5989,24.961326689369713
3150.5676,19.599313403625473
3151.5357,23.380627503183177
3152.5032,21.555351652498587
3153.4701,20.42356828222114
3154.4364,23.035359607446935
3155.402,19.140807639036495
3156.367,21.739994157496824
3157.3315,20.433000751926812
3158.2952,22.719908794025628
3159.2584,27.650799451162555
3160.221,25.175753663507834
3161.1829,25.794852094723893
3162.1442,26.30817515671555
3163.105,26.96580300343919
3164.065,33.61781552576949
3165.0245,30.36429234492303
3165.9834,31.05531274593858
3166.9416,29.89095571021204
3167.8993,25.271299908586343
3168.8563,34.09642371299475
3169.8127,28.416405242657532
3170.7684,25.03132227583069
3171.7236,35.44125230660606
3172.6782,33.89627257876225
3173.6321,38.59645998166556
3174.5854,35.89189106571973
3175.5381,35.13264199536411
3176.4902,42.96878857611901
3177.4417,34.75040626217833
3178.3926,36.277570078048086
3179.3428,40.150354700730276
3180.2924,35.61883444445132
3181.2415,42.233083221934095
3182.1899,47.84317458971324
3183.1377,37.59918168199272
3184.0848,42.60117715454487
3185.0314,38.84923328715047
3185.9773,44.64342193357865
3186.9227,46.73381455910629
3187.8674,44.72048218257629
3188.8115,48.45349535549349
3189.755,46.13292418215792
3190.6979,43.00883828233481
3191.6402,46.43130681446024
3192.5818,47.55039850688203
3193.5229,45.26618162363502
3194.4633,49.77872395325031
3195.4031,46.93809283159692
3196.3423,50.14435509675678
3197.2809,52.94757711743088
3198.2189,49.797824760876665
3199.1563,52.29516336487609
3200.0931,54.33965776923287
3201.0292,54.08137229079924
3201.9648,56.92037070303064
3202.8997,55.7067162385691
3203.834,56.4904715608526
3204.7677,58.02169877625218
3205.7008,54.200459426234445
3206.6333,56.27681447204884
3207.5652,59.95082433294033
3208.4964,62.87254886538611
3209.4271,59.64204732635564
3210.3571,59.10937834409296
3211.2865,63.774599950421575
3212.2154,62.68776958607131
3213.1436,67.59894405402594
3214.0712,67.15817953039176
3214.9982,65.46553151528558
3215.9246,63.971054837242534
3216.8503,67.12480367014244
3217.7755,70.37683154815448
3218.7001,70.07719133420002
3219.624,68.32593518743195
3220.5473,70.27311456623151
3221.4701,71.36878024572044
3222.3922,75.6629822982895
3223.3137,70.5057700826417
3224.2346,67.54719220085023
3225.1549,75.98729654993072
3226.0746,74.0761303514267
3226.9937,74.76374006700892
3227.9121,75.90017141758673
3228.83,78.43546937643218
3229.7473,81.11967815781558
3230.6639,76.90284119165263
3231.5799,77.03500109666226
3232.4954,79.716199722535
3233.4102,78.29647814861148
3234.3244,78.37587665707031
3235.238,84.50443474712532
3236.151,85.68219113423157
3237.0634,81.55918368879988
3237.9752,85.0354494244191
3238.8864,80.91102453908641
3239.797,85.98594438044442
3240.7069,83.81024348702555
3241.6163,87.43395553750281
3242.5251,87.15711337244673
3243.4332,86.9797489580885
3244.3408,87.90189338908809
3245.2477,91.72357689030792
3246.154,91.1448288075917
3247.0598,91.31567756954723
3247.9649,90.88615069333416
3248.8694,92.40627478295528
3249.7733,92.12607553355194
3250.6766,98.19557771620276
3251.5793,97.51480518072565
3252.4814,94.93378079498268
3253.3829,94.80252645168795
3254.2838,98.87106309421773
3255.1841,102.38941071792306
3256.0838,99.20758832944432
3256.9829,100.47561391152786
3257.8814,98.49350445484406
3258.7792,100.51127594530728
3259.6765,99.07894338389674
3260.5731,100.296520766479
3261.4692,103.06402109813116
3262.3647,103.83145638096511
3263.2595,102.4988375864526
3264.1538,104.16617464775071
3265.0474,100.68347647302826
3265.9404,97.25075092879229
3266.8329,98.46800487471505
3267.7247,101.53524419796132
3268.616,96.20247380101581
3269.5066,97.86969757101082
3270.3966,98.48691843305389
3271.286,96.15413833355555
