RamanShift,CorrectedData
30.1047,656.5982757363797
32.3739,612.9185058593682
34.6426,569.4887294163739
36.9109,523.608933712229
39.1787,479.2291003568782
41.4461,435.84920572417684
43.7131,391.31922139568894
45.9796,347.4891145944865
48.2456,303.35884863044896
50.5112,256.528383338564
52.7764,215.69767552023103
55.0411,174.46667941156545
57.3054,131.58534709170578
59.5692,84.95362889512373
61.8326,42.271473840437395
64.0955,0.33883009672867814
66.3579,-39.19435458963527
68.6199,-82.32813247567563
70.8815,-117.86216426681123
73.1426,-137.8952882104175
75.4032,-127.47516511084905
77.6634,-31.998078198531402
79.9231,265.49096277300924
82.1824,939.8472677110478
84.4412,2140.1761438679496
86.6995,3804.882889097608
88.9574,5527.922779852153
91.2148,6776.101054534889
93.4717,7463.872896269892
95.7282,7697.593420420225
97.9842,7780.967667710224
100.2398,7746.000601888291
102.4949,7686.997108893153
104.7495,7620.36199720353
107.0036,7527.199998428172
109.2573,7449.6657679722075
111.5105,7368.963885968768
113.7632,7251.098858054329
116.0154,7161.1251161757245
118.2672,7075.447019768802
120.5185,6973.318856658159
122.7693,6897.394843913922
125.0197,6813.22912887303
127.2696,6713.4757898984735
129.519,6672.638837220949
131.7679,6569.722213936401
134.0163,6552.029796414384
136.2642,6503.8153953272285
138.5117,6456.082755826972
140.7587,6367.235558027496
143.0052,6299.077417481858
145.2512,6225.661886070756
147.4967,6124.642452684116
149.7417,6039.9225439552465
151.9863,5955.6555252710305
154.2304,5929.744701619128
156.4739,5840.543318430642
158.717,5811.754561839231
160.9596,5760.38155957312
163.2017,5717.077381242988
165.4433,5671.295038855698
167.6844,5604.4374872473445
169.925,5508.557624541065
172.1651,5440.00829281563
174.4047,5369.492279064227
176.6439,5285.312315879967
178.8825,5212.371082161037
181.1206,5152.771203952498
183.3582,5104.165255175702
185.5954,5040.555758224293
187.832,4972.395184450255
190.0681,4949.335954800027
192.3037,4929.7304404960905
194.5388,4871.4809632675715
196.7734,4838.289795546294
199.0075,4827.30916104927
201.2411,4810.441235110622
203.4742,4763.038144791373
205.7068,4736.651969048143
207.9389,4720.484739207168
210.1704,4682.138439228169
212.4015,4632.465005866018
214.632,4615.116329054207
216.862,4544.494252401575
219.0915,4525.700573365804
221.3205,4476.037043959632
223.549,4459.8553709387925
225.777,4418.407216298647
228.0044,4391.594197436007
230.2314,4334.617887563612
232.4578,4278.979815978262
234.6837,4216.83146863058
236.909,4164.924288681392
239.1339,4120.759677123211
241.3582,4095.788993299312
243.582,4047.6135553453723
245.8053,3994.98464043918
248.0281,3956.2034852823904
250.2503,3894.3712866268083
252.472,3874.189201662208
254.6932,3850.858348634652
256.9139,3802.929807048313
259.134,3770.6046178987813
261.3536,3743.833784152349
263.5727,3716.1182710692656
265.7912,3693.309006471445
268.0092,3708.1568810196177
270.2267,3677.262748441427
272.4436,3671.4774253829487
274.6601,3630.8016917176333
276.8759,3601.786290604154
279.0913,3614.1819288931742
281.3061,3581.139277417493
283.5204,3573.8089708680914
285.7341,3534.3416081245623
287.9473,3521.1877523284074
290.16,3495.3479312777163
292.3721,3410.9726375587024
294.5837,3347.2123288041016
296.7947,3290.867428536926
299.0052,3232.688326808071
301.2152,3191.2753807597564
303.4246,3157.4789152073245
305.6334,3091.149223053365
307.8418,3042.1865656256805
310.0495,2988.4411733405905
312.2568,2922.0132461925496
314.4635,2849.9529542916025
316.6696,2779.9104385276623
318.8752,2709.685811291116
321.0802,2663.079157173247
323.2847,2612.2405336684824
325.4887,2567.469971640463
327.692,2535.317475830425
329.8949,2552.2330253049067
332.0972,2520.8665737772735
334.2989,2518.6180494385617
336.5001,2493.337355271142
338.7007,2444.0243690712077
340.9008,2400.3289437015783
343.1003,2332.800907584835
345.2992,2260.7400651402686
347.4976,2185.1961974591704
349.6955,2136.919063025427
351.8927,2124.25839847097
354.0895,2055.663919058541
356.2856,2061.3853188083003
358.4812,1976.922271183772
360.6763,1981.5744290346329
362.8707,1940.191425441335
365.0646,1938.4228736685936
367.258,1883.3683675792072
369.4508,1840.92748165175
371.643,1844.2497715311156
373.8346,1820.3347744529228
376.0257,1843.082009210295
378.2162,1798.190976393008
380.4062,1804.211158160022
382.5956,1725.642018688388
384.7844,1677.1330041130504
386.9726,1618.9335433125361
389.1603,1566.143048394043
391.3474,1520.3109152754414
393.5339,1522.086524213173
395.7199,1466.4192402605722
397.9052,1454.7084132501122
400.09,1462.2033783500729
402.2743,1459.4034561816516
404.4579,1461.157952744018
406.641,1479.3161594423082
408.8235,1489.1273530700819
411.0054,1512.5407956277459
413.1868,1572.7557342244327
415.3675,1636.1714008438748
417.5477,1623.9370117422459
419.7273,1543.0017668140108
421.9064,1406.1648497142678
424.0848,1318.9754286681
426.2627,1252.0826578389397
428.4399,1171.9356782004697
430.6166,1136.1336182055447
432.7928,1053.8255945876645
434.9683,994.2107127189965
437.1432,959.2380674334581
439.3176,928.2067436228572
441.4914,872.4658165866304
443.6645,851.8143523421477
445.8371,823.3514081821231
448.0091,796.52603288113
450.1806,749.4372669802369
452.3514,724.0341430552544
454.5216,710.8656861876234
456.6913,656.9809142184431
458.8603,655.7788378801606
461.0288,659.0584613354167
463.1967,627.0187821890604
465.3639,634.5087914553624
467.5306,594.4774738784081
469.6967,560.6238078571932
471.8622,522.9967658459436
474.0271,513.8453146926458
476.1914,512.7684160153267
478.3551,481.01502629355946
480.5182,491.8840968792383
482.6807,489.1745743141082
484.8426,476.5854002210799
487.0039,517.7655113313185
489.1647,537.6138396101378
491.3248,561.0293118451964
493.4843,560.9108494480179
495.6432,538.8573682198366
497.8015,496.8677783527837
499.9592,485.440984650415
502.1163,420.17588694761525
504.2728,394.1213802248585
506.4287,385.8763552608616
508.5839,339.98969889312684
510.7386,364.31029410039537
512.8927,330.5370204615101
515.0461,335.31875391221365
517.199,341.3543670828858
519.3512,357.04272925071837
521.5029,392.2327062793711
523.6539,400.37316046207434
525.8043,408.46295016973454
527.9541,385.1509297695311
530.1033,301.4359495440158
532.2519,270.11685592423146
534.3999,255.0424923268729
536.5472,263.6116994674603
538.694,255.0233155110982
540.8401,240.0761759867737
542.9856,276.4691138732469
545.1305,278.70095974851574
547.2748,279.9205414258913
549.4185,264.4266839316715
551.5615,264.26820949295325
553.704,257.3439376925653
555.8458,272.0526854706568
557.987,277.09326719394267
560.1276,305.7644945086113
562.2675,347.66517628991915
564.4069,358.9441183554836
566.5456,409.0001230462685
568.6837,400.2819891137997
570.8212,323.7385112196098
572.958,260.9184800224102
575.0942,239.17068294353066
577.2299,197.8939047951235
579.3648,157.9369279976363
581.4992,136.79853299257957
583.6329,135.07749864210018
585.766,125.22260244035806
587.8985,137.58262053074395
590.0304,158.60632780442484
592.1616,176.59249777674358
594.2922,197.5399023769869
596.4222,138.49731176851492
598.5515,112.66349413929584
600.6802,76.88721629232532
602.8083,2.367243903969211
604.9358,-7.6984254526996665
607.0626,-16.311817853375942
609.1888,2.875117533512821
611.3144,23.060594494594625
613.4393,35.69279809407453
615.5636,67.86968302081277
617.6873,117.63884739261539
619.8103,125.59788864859365
621.9327,118.94440305147873
624.0544,115.67598560801889
626.1756,102.34023013552542
628.2961,57.08472929455456
630.4159,27.30707472226368
632.5351,27.954857484964123
634.6537,24.025395851283974
636.7716,32.515728820823824
638.8889,35.37265537947769
641.0056,46.742974187986874
643.1216,52.52348355336562
645.237,70.81098131520775
647.3518,46.552264787873355
649.4659,32.29413057761758
651.5793,25.58337482517527
653.6922,-2.283206651653927
655.8043,12.241181709096963
657.9159,15.703358278622545
660.0268,-7.199858694294562
662.137,-21.771651117902366
664.2466,-7.115128973869105
666.3556,-19.283184745067047
668.4639,-15.428639834232854
670.5716,-15.55412300509306
672.6786,-9.462108889263618
674.785,-23.15491673267843
676.8907,-54.53486568664539
678.9958,-17.604043584859937
681.1002,-44.6139934577086
683.204,-17.366082471186928
685.3072,-30.11123209750076
687.4097,-29.950363635190115
689.5115,-19.834097571589155
691.6127,-7.462755189898417
693.7132,-8.886657574981655
695.8131,-25.65612573706403
697.9123,11.87851940249584
700.0109,28.91695717890252
702.1089,25.90886680858239
704.2061,33.103927218794524
706.3028,47.25181707771026
708.3987,65.45221472246521
710.4941,72.20479801768124
712.5887,76.30924417345886
714.6827,81.86522967785095
716.7761,70.77243025581811
718.8688,96.83052081367077
720.9608,77.03917554999771
723.0522,115.89806769508232
725.1429,111.70686970882343
727.233,157.76525289213805
729.3224,210.77288742887777
731.4112,242.47944192524483
733.4993,249.28458287971443
735.5867,208.98797436597397
737.6735,170.2892779648655
739.7596,162.088153167354
741.845,146.6342577615169
743.9298,154.32724791454802
746.014,158.51677832730638
748.0974,179.5025021573765
750.1802,187.43407097718136
752.2624,140.41113456412404
754.3439,139.4333408212642
756.4247,131.3003362475547
758.5048,103.66176594761873
760.5843,86.26727371307243
762.6631,125.76650229892039
764.7413,144.00909359749312
766.8188,206.64468824346295
768.8956,251.07292543141102
770.9718,282.8934422894745
773.0473,286.1558734350647
775.1221,252.55985065666027
777.1962,241.3050028811822
779.2697,269.8409565099546
781.3426,349.1673355312478
783.4147,392.28376123493126
785.4862,408.939851419198
787.557,349.08521995940464
789.6271,260.71947664151594
791.6966,203.19222776064635
793.7654,115.65307700471749
795.8335,92.0016260297316
797.901,82.13747533516016
799.9678,63.41022450046239
802.0339,64.96947228371937
804.0993,90.9648168089152
806.1641,62.54585555034009
808.2282,70.2121850726362
810.2916,56.013401314989096
812.3544,43.99909951446534
814.4164,45.71887434799737
816.4778,63.27232005253518
818.5385,53.609030407836144
820.5986,95.07859856094183
822.658,119.53061712280669
824.7166,176.81467775359852
826.7747,230.7803709181917
828.832,274.4272853133052
830.8886,313.7550073278644
832.9446,344.1131206065247
834.9999,311.15120565639063
837.0545,266.8188395434354
839.1085,238.91559622212299
841.1618,183.94104697872808
843.2143,155.8947607103728
845.2662,123.92630447477313
847.3175,117.33524377069534
849.368,94.5211428576431
851.4179,87.18356482177478
853.467,77.42207180403602
855.5155,114.38622507353557
857.5633,122.2755851251668
859.6105,127.53971130995706
861.6569,108.52816175618955
863.7027,105.79049331675014
865.7478,112.37626175924652
867.7922,104.68502179338157
869.8359,91.71632700509781
871.8789,92.96972993349209
873.9212,84.3447822004955
875.9629,90.84103449834765
878.0039,123.10803667584514
880.0441,133.74533767337653
882.0837,131.85248520025198
884.1226,168.52902562832696
886.1609,184.02450401093665
888.1984,221.8384637161289
890.2352,258.22044627170544
892.2714,288.61999098708657
894.3069,272.53663458948813
896.3416,234.96991091992913
898.3757,199.5193510940635
900.4091,193.98448387785265
902.4418,187.01483604206533
904.4739,219.9599324176279
906.5052,232.41929596531827
908.5358,225.44244744631396
910.5658,211.3789052976008
912.595,200.22818570174059
914.6236,177.08980272750978
916.6515,152.7132684414064
918.6786,145.19809313902897
920.7051,137.39378558884982
922.7309,134.59985310736056
924.756,133.16580163711706
926.7804,142.0911357746786
928.8041,114.42535878494846
930.8272,164.9179725119202
932.8495,150.1184776553364
934.8711,155.12637326576032
936.892,157.69115689257478
938.9123,172.91232453389875
940.9318,200.08937061094412
942.9506,194.77178781579732
944.9688,191.70906683965813
946.9862,191.45069642600447
949.003,161.24616340122884
951.019,151.49495267721522
953.0344,137.69654755338752
955.0491,127.85042981422248
957.063,123.8060798672318
959.0763,136.76297684142583
961.0888,126.57059862775623
963.1007,148.3784217495463
965.1119,140.5859214644156
967.1223,137.6425715462019
969.1321,132.54784436288355
971.1412,134.95121090601742
973.1495,127.10214084168229
975.1572,113.5501024864484
977.1641,157.19456288586161
979.1704,131.13498794997258
981.1759,121.12084201688685
983.1808,137.05158811335968
985.1849,129.0266880549425
987.1884,105.24560228667087
989.1911,125.05778996331537
991.1932,130.312709187192
993.1945,135.20981681004287
995.1951,128.9485683804819
997.1951,134.42841809502897
999.1943,120.29881886071871
1001.1928,114.70922224030255
1003.1906,123.45907859354793
1005.1877,120.44783713312972
1007.1841,151.47494583713478
1009.1798,154.13985147917128
1011.1748,139.44199931810226
1013.1691,133.98083307139268
1015.1627,119.95579506208969
1017.1556,87.71632627343342
1019.1477,61.91186648910707
1021.1392,59.99185461563684
1023.1299,35.105728940430254
1025.12,36.952927150979576
1027.1093,26.232886583722575
1029.0979,38.14504420556841
1031.0859,47.43883672109814
1033.0731,63.613700453445745
1035.0596,71.86907125135713
1037.0454,34.754384327442494
1039.0304,39.21907417562261
1041.0148,33.21257494227666
1042.9985,25.034320381597354
1044.9814,9.533743915649666
1046.9636,-0.4397212838421183
1048.9452,-2.2366421404917673
1050.926,14.04241442648572
1052.9061,16.59688152024046
1054.8855,21.576192103502308
1056.8642,4.929778973034445
1058.8421,34.50707470984025
1060.8194,13.957511845624595
1062.7959,14.28052256702722
1064.7717,27.725538921113184
1066.7469,23.54199281214096
1068.7213,29.029315867118385
1070.695,21.386939477632495
1072.6679,42.614294744978906
1074.6402,63.2108125565851
1076.6117,66.12592337373917
1078.5826,77.9090570256194
1080.5527,44.40964268014932
1082.5221,26.62710872616117
1084.4908,4.660883108391772
1086.4587,8.010393505307093
1088.426,-4.074932451232598
1090.3925,-33.14566720947005
1092.3584,4.1976168231017255
1094.3235,2.204678364206302
1096.2879,-6.524723910409648
1098.2515,30.509168652957214
1100.2145,45.65611477325683
1102.1767,65.36587286435179
1104.1382,82.6882008835446
1106.099,125.22285613448048
1108.0591,144.91959509392473
1110.0185,173.07817298641385
1111.9771,225.49834358728822
1113.9351,251.8798589411099
1115.8923,285.82246883745756
1117.8488,309.97592054711185
1119.8045,290.78995848263276
1121.7596,226.1143239568205
1123.7139,161.19875537457847
1125.6675,110.19298887966806
1127.6204,120.74675900386364
1129.5726,120.05979917701325
1131.524,117.83184162149746
1133.4748,107.41261735910075
1135.4248,57.80185623328907
1137.3741,38.84928701340232
1139.3226,27.954637890763934
1141.2705,27.617636668204796
1143.2176,18.538010869010122
1145.164,33.06548774029034
1147.1097,36.2497943437761
1149.0546,17.440657410544645
1150.9989,9.03780330917516
1152.9424,-7.559041766158316
1154.8852,-6.950151711658691
1156.8272,-3.8857249087009222
1158.7686,-5.41589030664818
1160.7092,-11.090738036467883
1162.6491,-9.660304124388404
1164.5883,-2.2245138001635496
1166.5267,2.066804212885927
1168.4644,41.96384341433259
1170.4014,49.46679728308072
1172.3377,93.52585887839905
1174.2732,117.79122076489011
1176.2081,179.71307457189914
1178.1421,257.5416107508595
1180.0755,348.2770179560739
1182.0082,390.46948226643144
1183.9401,390.3191862780541
1185.8713,325.7263086823691
1187.8017,244.89102426761428
1189.7315,173.76350456476848
1191.6605,109.49391865589723
1193.5888,63.48243388543369
1195.5163,61.629216502871714
1197.4432,39.184432122879116
1199.3693,17.448245743834832
1201.2947,11.370821972270733
1203.2193,-7.497674759758411
1205.1432,-6.607080133906948
1207.0664,0.04284506993917603
1208.9889,-1.6975939233761892
1210.9106,-8.328092317032315
1212.8316,-6.248328355246485
1214.7519,-2.007897084592969
1216.6715,5.343668869154499
1218.5903,17.306856939115278
1220.5084,18.882154504972732
1222.4257,35.620048773344934
1224.3424,45.82102676202703
1226.2583,53.035575132619215
1228.1735,74.96418008851015
1230.0879,99.75732730273194
1232.0016,117.71550169867578
1233.9146,151.28918720216052
1235.8269,153.578866561852
1237.7384,170.53502101352524
1239.6492,166.5081302571666
1241.5592,179.59867228741587
1243.4686,194.9071234338312
1245.3772,249.3339582299859
1247.285,317.22964926038276
1249.1922,380.19466661618753
1251.0986,433.1294772162719
1253.0042,465.6345441775611
1254.9092,526.1103262856868
1256.8134,579.5072776699353
1258.7169,651.0758471984914
1260.6196,684.8164779444669
1262.5216,706.0796064702176
1264.4229,698.1656624899351
1266.3234,681.0750686570173
1268.2232,652.4582406432037
1270.1223,612.815587309487
1272.0207,575.1975109922769
1273.9183,561.3044078998287
1275.8151,574.2366684884246
1277.7113,597.9446776013037
1279.6067,663.5288143393391
1281.5014,757.6894518239583
1283.3953,879.7769565413018
1285.2885,1018.6416874006172
1287.181,1115.083994513382
1289.0727,1172.0042178046592
1290.9637,1133.502686048671
1292.854,1090.5797162996005
1294.7435,992.4356142766023
1296.6323,935.5706747930353
1298.5204,854.435182737905
1300.4077,801.9794136445089
1302.2943,771.7536345017934
1304.1802,750.9081042789126
1306.0653,712.593074227485
1307.9497,697.9087880900502
1309.8333,691.205482483218
1311.7162,658.4333870445112
1313.5984,651.9927244993969
1315.4798,634.0337109890102
1317.3605,642.7565561345587
1319.2405,635.0614632169145
1321.1197,622.598629089385
1322.9982,610.3682442546631
1324.876,572.5204929894571
1326.753,508.4555534667945
1328.6293,436.5735981344992
1330.5048,387.1747943558403
1332.3796,333.3593051283524
1334.2537,301.27728957782347
1336.127,271.82890349645004
1337.9996,255.2642996636564
1339.8714,250.88362814057723
1341.7426,224.2870364357052
1343.6129,225.12466954869979
1345.4826,217.19667023634997
1347.3515,210.75317900419805
1349.2196,211.49433418581998
1351.087,198.57027200726043
1352.9537,206.2811265796213
1354.8197,197.07703002830112
1356.6849,214.20811241588945
1358.5493,233.22450183420597
1360.4131,256.5763242329908
1362.276,267.5137032297389
1364.1383,302.5867598761829
1365.9998,311.1456125489183
1367.8606,313.8903765986745
1369.7206,313.72116426472576
1371.5799,305.8380846474438
1373.4384,284.6412437099889
1375.2962,288.1807443571438
1377.1533,248.90668664727718
1379.0096,204.069167756953
1380.8652,202.76828237366817
1382.7201,172.35412314422888
1384.5742,149.8267806877584
1386.4275,137.28634389984018
1388.2802,119.63290017778968
1390.132,96.66653554606023
1391.9832,100.63733483277656
1393.8336,94.69538189939885
1395.6832,86.09075960101586
1397.5322,84.32354984576386
1399.3803,77.9438336808721
1401.2278,71.40169131033508
1403.0745,69.24720215870866
1404.9204,56.83044493653256
1406.7656,54.30149766187583
1408.6101,61.11043778450403
1410.4538,55.15734221116736
1412.2968,60.19228723751303
1414.139,56.06534860761599
1415.9805,62.27660146362837
1417.8213,54.67612038704851
1419.6613,88.21397933661024
1421.5006,99.04025172428578
1423.3391,139.30501007990733
1425.1769,153.95832594290437
1427.0139,216.10026945965615
1428.8502,271.73090923695963
1430.6858,325.75031172060835
1432.5206,347.7585406390881
1434.3547,346.2056564633831
1436.188,335.9417161868937
1438.0206,321.7667733409644
1439.8524,320.3808780975214
1441.6835,321.23407741082474
1443.5139,325.3764150313275
1445.3435,330.9079314971425
1447.1724,332.8286640926192
1449.0005,332.23864679302847
1450.8279,325.4879102453542
1452.6545,321.1764817741946
1454.4804,333.0043854492699
1456.3056,326.0716421285358
1458.13,321.928269339905
1459.9536,300.5242813505745
1461.7766,279.4596892084587
1463.5987,243.18450095622939
1465.4202,240.74872184196397
1467.2409,210.8523546818942
1469.0608,176.29539988476427
1470.88,171.57785575079652
1472.6984,151.3497188172612
1474.5161,122.11098390564939
1476.3331,110.6616443239568
1478.1493,118.60169215907013
1479.9648,128.38111839126032
1481.7795,121.64991281478274
1483.5935,125.9580639400815
1485.4067,132.6055590611038
1487.2192,136.2423842122157
1489.031,126.21852410172755
1490.842,137.1839620755261
1492.6522,140.33868021731428
1494.4618,127.53265923895651
1496.2705,142.5158784489313
1498.0785,134.8883158803901
1499.8858,136.24994814132833
1501.6924,114.50075049085717
1503.4981,120.99069682559002
1505.3032,125.56975989713192
1507.1075,123.23791124718196
1508.911,117.94512116174155
1510.7138,119.1413586944318
1512.5159,108.87659171942528
1514.3172,108.30078691948006
1516.1178,100.81390988858902
1517.9176,102.46592513773749
1519.7166,99.80679616977432
1521.515,88.23648546288837
1523.3126,85.00495449720302
1525.1094,94.66216387047871
1526.9055,85.70807333042535
1528.7008,76.89264167813212
1530.4954,70.51582685760695
1532.2893,81.97758604393289
1534.0824,76.37787570703381
1535.8747,73.21665149705768
1537.6663,76.24386830037406
1539.4572,76.05948027118711
1541.2473,85.5134408012641
1543.0367,82.80570252177631
1544.8253,74.18621720876263
1546.6132,85.65493581020473
1548.4003,81.96180853222495
1550.1867,102.20678472439567
1551.9723,96.23981291667224
1553.7572,107.16084061694323
1555.5414,132.31981437069817
1557.3247,142.51667965181832
1559.1074,160.50138061098596
1560.8893,183.37385997371666
1562.6705,214.68405886051278
1564.4509,245.73191655813775
1566.2305,248.26737020651467
1568.0094,257.74035448824657
1569.7876,251.8508016032631
1571.565,236.09864117409074
1573.3417,251.2838003047484
1575.1176,254.25620373826632
1576.8928,275.91577370483856
1578.6672,295.3624298920979
1580.4409,307.0960892285211
1582.2138,323.6166656889611
1583.986,351.3740701773106
1585.7575,384.91821036129636
1587.5282,411.44899039490497
1589.2981,432.1663105829409
1591.0673,446.3700671157203
1592.8358,451.6601518618975
1594.6035,449.1864522264268
1596.3704,446.79885109765905
1598.1366,422.6472268720818
1599.9021,403.3314534781937
1601.6668,400.6014006180196
1603.4308,393.10693396027114
1605.194,387.54791516764567
1606.9564,406.72420197177144
1608.7182,448.33564822879794
1610.4791,498.68210372763383
1612.2394,576.8634137738302
1613.9988,659.4794186861175
1615.7576,714.279953014593
1617.5156,748.4148447145617
1619.2728,738.783914598529
1621.0293,673.4369759948513
1622.785,587.6738348440442
1624.54,503.4442903522547
1626.2942,421.0481358488896
1628.0477,342.5851596289144
1629.8005,273.7551457768134
1631.5525,226.95787495121908
1633.3037,196.34312507321306
1635.0542,168.2606717942988
1636.804,150.71028880254767
1638.553,120.84174810342608
1640.3013,125.75482019529738
1642.0488,101.3992743681074
1643.7955,89.62487865425464
1645.5416,81.53140007214472
1647.2868,77.71860474393452
1649.0313,76.93625797646689
1650.7751,76.08412429939915
1652.5181,72.21196747302633
1654.2604,70.26955049680225
1656.0019,71.25663564806132
1657.7427,78.77298450144303
1659.4828,106.3183579190212
1661.222,127.34251597514083
1662.9606,150.69521768096308
1664.6984,175.47622077422454
1666.4354,195.5852814857103
1668.1717,180.17215429144323
1669.9072,147.13659171159463
1671.642,113.92834446461416
1673.3761,83.79716179758589
1675.1094,71.44279181831098
1676.8419,55.86498179661885
1678.5737,44.1634782879114
1680.3048,30.188027288942067
1682.0351,19.838374354829398
1683.7646,14.06426473881163
1685.4934,10.365443495743989
1687.2215,-3.3583444601609926
1688.9488,11.992645681654722
1690.6754,9.118192281609822
1692.4012,3.518073580196642
1694.1263,0.04206772672580428
1695.8506,5.989952835328268
1697.5742,11.311506599877362
1699.297,4.106506654347186
1701.0191,5.274730519596801
1702.7404,-1.5840443245791676
1704.461,2.429959548866691
1706.1808,0.36653539158419335
1707.8999,-15.274523569076223
1709.6182,1.0565758905712528
1711.3358,-0.3902204132981524
1713.0527,-4.7649666750739925
1714.7688,0.1822868091556984
1716.4841,4.9515373453199345
1718.1987,-3.3572177624749884
1719.9126,3.1560187403614464
1721.6257,-10.2587223529747
1723.338,-2.70141028084754
1725.0496,-0.5219117969853642
1726.7605,8.029933331972984
1728.4706,5.854290553286432
1730.18,1.3013252339148949
1731.8886,6.421202682276089
1733.5964,1.7140881937746144
1735.3036,13.23014699960379
1737.0099,19.169544313816118
1738.7156,10.18244521816257
1740.4204,8.919014602698667
1742.1246,16.779417255655744
1743.8279,19.26381787607579
1745.5306,19.972380995207004
1747.2325,22.455270951659486
1748.9336,17.512651884319894
1750.634,19.09468770752244
1752.3336,24.901542160474946
1754.0325,30.433378791439054
1755.7307,27.39036089966089
1757.4281,32.97265148005317
1759.1247,34.18041325362492
1760.8206,27.463808611659147
1762.5158,31.722999603636026
1764.2102,32.00814800439741
1765.9039,34.519415271555886
1767.5968,37.35696254264258
1769.289,41.370950609994
1770.9804,40.16153989237864
1772.6711,45.82889039485394
1774.361,45.673161720862936
1776.0502,35.39451301555994
1777.7386,39.89310296736721
1779.4263,40.569089910762045
1781.1132,49.57263178128994
1782.7994,39.60388610880557
1784.4849,48.2130099274367
1786.1696,42.80015987527236
1787.8535,46.11549210827184
1789.5367,51.259162354392856
1791.2192,44.981325880438476
1792.9009,43.432137440620636
1794.5818,47.01175133933805
1796.2621,47.37032144666898
1797.9415,42.15800116257401
1799.6202,50.624943413310916
1801.2982,54.421300703557904
1802.9755,59.247225031743824
1804.6519,50.352867852084955
1806.3277,48.538380026325854
1808.0027,46.803911912682224
1809.6769,56.599613383986934
1811.3504,45.77563384503355
1813.0231,48.88212213461975
1814.6951,53.01922663378684
1816.3664,51.087095234755566
1818.0369,52.18587529955482
1819.7067,56.915713679342616
1821.3757,50.42675670341862
1823.044,54.91915013192511
1824.7115,54.54303922073723
1826.3783,60.19856867653937
1828.0443,57.935882660585094
1829.7096,58.855124732143054
1831.3741,56.056437871123535
1833.0379,61.03996446888516
1834.701,54.05584635622267
1836.3633,55.004224753531844
1838.0248,62.53524034065026
1839.6856,64.14903324737429
1841.3457,53.59574297814811
1843.005,67.12550839592586
1844.6636,69.738467827705
1846.3214,64.88475892922793
1847.9785,62.51451865885292
1849.6349,62.72788332609127
1851.2904,60.32498861530894
1852.9453,63.05596958359354
1854.5994,60.37096068478286
1856.2528,53.47009574215542
1857.9054,59.50350797528063
1859.5572,62.82133006902734
1861.2083,67.2236941132295
1862.8587,63.510731569508266
1864.5084,65.48257322724794
1866.1572,69.83934924072594
1867.8054,56.08118910939413
1869.4528,67.00822163431098
1871.0994,72.22057505572343
1872.7453,64.91837694379649
1874.3905,63.351754146489725
1876.0349,64.17083286257946
1877.6786,65.22573865732454
1879.3215,63.916596454275805
1880.9637,62.843530524726475
1882.6051,75.20666450080444
1884.2458,58.506121386201926
1885.8858,68.5920234325456
1887.525,58.46449230640064
1889.1634,58.723648988412606
1890.8011,66.61961387458217
1892.4381,66.15250677367357
1894.0743,69.07244682825541
1895.7098,63.679552519371214
1897.3446,72.3739416373403
1898.9786,64.45573133568729
1900.6118,59.725038044197106
1902.2443,68.28197754809793
1903.8761,65.27666503536773
1905.5071,65.45921501116487
1907.1374,66.57974132788144
1908.7669,64.13835718331723
1910.3957,67.33517510947524
1912.0237,61.620306996974534
1913.651,63.89386406308324
1915.2776,67.65595690886624
1916.9034,63.85669549644973
1918.5285,65.64618911140076
1920.1528,66.8245464007195
1921.7764,60.59187535494448
1923.3992,61.19828329636931
1925.0213,54.693876941368615
1926.6427,60.32876239433432
1928.2633,54.00304521271971
1929.8832,54.566830350690964
1931.5023,57.57022222238362
1933.1207,62.46332469626566
1934.7383,58.09624106510307
1936.3552,62.8190739970284
1937.9714,61.38192557921252
1939.5868,59.33489727063551
1941.2015,59.37808991645812
1942.8154,58.461603768492694
1944.4286,58.78553848477014
1946.041,53.749993138706486
1947.6528,55.60506621586194
1949.2637,54.300855664297785
1950.8739,55.18745887602455
1952.4834,61.41497270004464
1954.0921,55.583493433485955
1955.7001,49.14311675932652
1957.3074,59.54393780470991
1958.9139,53.93605120534892
1960.5197,48.219551001517004
1962.1247,51.49453069412749
1963.729,57.761083301898225
1965.3325,58.11930132860209
1966.9353,57.469276700401
1968.5374,52.81110076226406
1970.1387,57.44486428446754
1971.7393,56.170657509176976
1973.3392,44.88857010410953
1974.9383,49.048691175276076
1976.5366,51.5511093798018
1978.1342,50.245912884325605
1979.7311,45.28318933997514
1981.3273,45.36302589541941
1982.9227,46.035509246495394
1984.5173,47.45072563540998
1986.1112,49.508760844015455
1987.7044,51.109700179656954
1989.2968,48.75362845459199
1990.8885,43.890629969981205
1992.4795,53.02078853944954
1994.0697,49.99418753771579
1995.6592,45.31090980929105
1997.2479,47.37103769874483
1998.8359,48.924653097538
2000.4232,47.47183742342088
2002.0097,45.062671604897446
2003.5955,50.14723609575367
2005.1805,49.07561089914833
2006.7648,45.64787551676835
2008.3484,48.96410895954455
2009.9312,45.124389781928755
2011.5133,46.52879604873209
2013.0946,45.97740537352183
2014.6752,55.720294904577486
2016.2551,53.95754133040464
2017.8342,44.38922078230604
2019.4126,45.26540885200916
2020.9902,50.73618068734953
2022.5672,42.951610983509
2024.1433,45.911773928307866
2025.7188,51.166743280050525
2027.2935,47.466592337923714
2028.8674,50.41139388944691
2030.4406,47.30122024747402
2032.0131,46.58614322074487
2033.5849,40.51623414498715
2035.1559,46.14156389006723
2036.7261,51.16220292068937
2038.2957,45.72822124014215
2039.8645,46.18968834009257
2041.4325,51.296673254925395
2042.9998,49.74924455712869
2044.5664,49.19747030622432
2046.1323,48.39141806424175
2047.6974,48.33115490123589
2049.2617,51.966747403347824
2050.8254,48.69826167340739
2052.3883,47.07576329457726
2053.9504,46.649317363037255
2055.5118,49.16898850421012
2057.0725,53.884840877025454
2058.6325,47.94693814872312
2060.1917,47.50534344769454
2061.7502,48.060119422862044
2063.3079,49.21132824809456
2064.8649,51.95903161666024
2066.4212,47.0032907297138
2067.9767,47.29416626882005
2069.5315,53.63171844551107
2071.0856,46.31600699837719
2072.6389,48.9470911296919
2074.1915,45.175029578569365
2075.7433,48.49988059465295
2077.2945,47.82170197583639
2078.8448,45.89055103501471
2080.3945,44.95648460686601
2081.9434,46.66955906716288
2083.4916,50.97983034211319
2085.039,41.83735389122933
2086.5857,53.99218466422565
2088.1317,50.79437719244294
2089.677,46.3439854673004
2091.2215,51.54106297227389
2092.7652,46.78566272739954
2094.3083,52.62783723730308
2095.8506,51.66763853875352
2097.3921,50.7551181422416
2098.933,52.89032704158183
2100.4731,55.973315723037615
2102.0124,52.104134143969304
2103.5511,48.482831702004205
2105.089,55.20945727372839
2106.6261,50.034059250899986
2108.1626,50.90668547318239
2109.6983,54.12738327989899
2111.2332,48.946199501306296
2112.7675,52.51318042638701
2114.301,48.02837185466217
2115.8337,52.641819060521414
2117.3657,48.70356683807063
2118.897,63.963659454998094
2120.4276,48.62214069195636
2121.9575,51.779053689961586
2123.4866,57.28444110380849
2125.0149,57.73834507050174
2126.5426,48.890807154201354
2128.0695,51.44186834168403
2129.5956,46.7915691308188
2131.1211,52.88994950505588
2132.6458,48.3370489799301
2134.1698,51.18290654207698
2135.693,49.67756069476138
2137.2155,55.67104942941961
2138.7373,54.11341024071265
2140.2584,52.804680066591175
2141.7787,54.49489530387211
2143.2983,52.984091821325705
2144.8171,52.97230494277329
2146.3353,46.5095694621956
2147.8527,49.39591964385079
2149.3693,52.73138928690105
2150.8853,51.06601169654965
2152.4005,51.84981965068624
2153.9149,49.43284541654049
2155.4287,44.96512074284436
2156.9417,48.24667688400143
2158.454,46.82754464476437
2159.9655,52.457754347418984
2161.4764,51.887335845976
2162.9865,53.96631846986838
2164.4958,57.894731029655986
2166.0045,46.47260179623555
2167.5124,45.34995846155664
2169.0195,50.52682825284313
2170.526,48.30323794381974
2172.0317,52.22921380294298
2173.5367,45.30478161563741
2175.0409,48.129966645035495
2176.5445,51.20479370122223
2178.0473,45.879287112982695
2179.5494,48.50347069705424
2181.0507,48.97736781138184
2182.5513,48.15100132887568
2184.0512,48.224393632672445
2185.5504,46.34756662439895
2187.0488,47.12054172343835
2188.5465,44.8933398856982
2190.0435,45.36598159588095
2191.5397,47.23848688975602
2193.0353,47.96087534943251
2194.5301,47.13316608463549
2196.0241,44.255377725481026
2197.5175,46.07752843075366
2199.0101,47.64963591668436
2200.502,44.22171743872906
2201.9931,44.99378977584735
2203.4835,40.2158692647821
2204.9733,36.6879717923382
2206.4622,39.01011284316189
2207.9505,37.43230753501996
2209.438,35.504570595577945
2210.9248,33.87691637817841
2212.4109,42.299358881118394
2213.8962,33.42191176392595
2215.3809,33.894588263135745
2216.8648,35.21740128106353
2218.3479,36.09036338107933
2219.8304,39.61348677437928
2221.3121,38.236783311256204
2222.7931,33.71026444586795
2224.2733,35.88394125000451
2225.7529,33.75782445835364
2227.2317,32.381924446763605
2228.7098,32.256251253504615
2230.1872,35.28081459302791
2231.6638,38.95562385722246
2233.1397,32.180688085168924
2234.6149,35.80601592639198
2236.0894,37.33161570860949
2237.5632,27.00749540147922
2239.0362,39.63366260134262
2240.5085,33.21012463446664
2241.9801,33.886888430781426
2243.4509,30.463960588116038
2244.921,32.59134736543098
2246.3904,31.269054717047425
2247.8591,30.047088271373184
2249.3271,29.825453344125435
2250.7943,32.90415495055089
2252.2608,28.08319780764174
2253.7266,26.51258630334854
2255.1917,27.89232454478997
2256.656,26.02241637395906
2258.1197,28.85286535392561
2259.5826,32.28367478753535
2261.0447,32.21484768910591
2262.5062,28.996386750118404
2263.9669,24.77829433990547
2265.4269,30.21057253783607
2266.8862,23.34322317549612
2268.3448,22.82624778236618
2269.8026,26.709647654494518
2271.2598,23.99342385966736
2272.7162,26.577577198574545
2274.1719,28.21210823197208
2275.6268,27.247017254840387
2277.0811,30.082304280038613
2278.5346,21.717969047955876
2279.9874,21.004010998158265
2281.4395,26.040429353032437
2282.8908,31.027223124924944
2284.3414,26.61439106577842
2285.7914,19.70193161726337
2287.2406,22.339842954906544
2288.689,28.078123057215578
2290.1368,28.01676967930007
2291.5838,18.555780295488546
2293.0302,24.245152099942004
2294.4758,22.234882101263793
2295.9206,27.62496706560563
2297.3648,25.91540353677067
2298.8082,24.556187782312577
2300.251,31.147315810630744
2301.693,21.188783384563408
2303.1343,22.48058595547542
2304.5748,18.3727187628441
2306.0147,24.61517682134098
2307.4538,27.20795496191056
2308.8922,18.35104776934537
2310.3299,24.994449556358802
2311.7669,24.838154452153844
2313.2031,20.082156335989282
2314.6387,17.826448838742294
2316.0735,19.87102539046856
2317.5076,26.11587924295941
2318.941,22.71100344929613
2320.3737,24.70639080140097
2321.8056,24.5020338640864
2323.2369,22.697924955101314
2324.6674,26.644056147174126
2326.0972,23.340419286054157
2327.5263,25.237005951050435
2328.9547,27.883807488068044
2330.3823,26.030814990642227
2331.8092,23.878019273470272
2333.2355,22.825410890941612
2334.661,19.722980158665223
2336.0858,13.570717163995937
2337.5098,19.26861179705884
2338.9332,24.81665381227208
2340.3558,22.164832771367855
2341.7778,15.763137987911875
2343.199,20.761558553821573
2344.6195,18.910083403383084
2346.0393,20.45870126326713
2347.4583,15.557400671043695
2348.8767,16.356169959695933
2350.2943,22.554997306632885
2351.7113,20.05387072570207
2353.1275,16.70277800520151
2354.543,16.501706732890455
2355.9578,19.15064432950038
2357.3718,16.249578050745583
2358.7852,17.3984949608342
2360.1978,16.947381961478612
2361.6098,20.79622578040616
2363.021,18.04501297587069
2364.4315,14.643729898163542
2365.8413,16.092362717126292
2367.2504,9.14089745616323
2368.6587,14.189319977755275
2370.0664,16.58761605297454
2371.4733,14.835771311000002
2372.8795,15.083771215134362
2374.285,10.881601080322895
2375.6899,19.529246070672855
2377.0939,12.62669124147564
2378.4973,7.973921452730281
2379.9,9.270921438169097
2381.3019,8.867675851785435
2382.7032,19.214169254863748
2384.1037,14.660386120011708
2385.5035,15.756310727695478
2386.9027,15.851927211777308
2388.3011,7.997219548557126
2389.6987,12.192171555815747
2391.0957,11.936766971361692
2392.492,11.480989411082476
2393.8876,6.774822371497777
2395.2824,11.018249234317295
2396.6765,13.311253313502903
2398.07,7.503817812833802
2399.4627,7.895925802976876
2400.8547,4.737560279561023
2402.246,9.078704159256006
2403.6366,2.869340311356183
2405.0265,9.25945151436892
2406.4156,5.249020518108438
2407.8041,11.788029979794544
2409.1918,6.826462504156979
2410.5789,3.9643005780452825
2411.9652,7.051526620044342
2413.3508,7.638123009096233
2414.7358,2.024072053627691
2416.12,7.459355985684397
2417.5035,2.5939570170714603
2418.8863,9.72785728500034
2420.2684,3.2110389007431763
2421.6497,4.1434838782935515
2423.0304,3.225174199534848
2424.4104,7.0560918049156385
2425.7896,-1.4137813973671598
2427.1682,7.815536430322567
2428.546,5.894041249296947
2429.9232,7.621728942712991
2431.2996,5.848595334787234
2432.6753,5.274636173519241
2434.0503,4.649847148422651
2435.4246,6.024223896264743
2436.7982,6.447762007314509
2438.1711,3.9204570115988417
2439.5433,5.042304374666912
2440.9148,0.2132995228634229
2442.2856,3.6834378321101724
2443.6557,12.052714676195933
2445.025,3.0711253920753734
2446.3937,7.088665196176066
2447.7617,1.1053292742144265
2449.1289,6.971112741020363
2450.4955,4.636010700370633
2451.8613,4.250018186330976
2453.2265,6.5631301866069975
2454.5909,1.8253416464042687
2455.9546,6.536647445297007
2457.3177,3.397042444606086
2458.68,3.306521440285792
2460.0416,8.865079194320174
2461.4025,4.322710435628295
2462.7627,7.679409804478411
2464.1222,4.335171897911863
2465.4811,3.989991236175854
2466.8392,4.443862296166174
2468.1966,3.6967795148786706
2469.5533,2.9987372848706286
2470.9093,6.449729961731663
2472.2645,4.799751871063876
2473.6191,11.94879727397236
2474.973,3.296860383564649
2476.3262,6.093935293460504
2477.6787,7.590016064311186
2479.0305,4.435096695828747
2480.3816,6.479171111825053
2481.7319,4.472233191761234
2483.0816,7.864276750306772
2484.4306,8.005295557408857
2485.7789,7.745283304371981
2487.1264,1.4342336024477618
2488.4733,2.0221399854349613
2489.8195,1.8089959727900862
2491.165,5.244795063748313
2492.5097,2.029530739454941
2493.8538,5.263196428607358
2495.1972,2.345785539607533
2496.5398,3.927291428225459
2497.8818,5.607707426773629
2499.2231,6.037026828291346
2500.5637,6.665242869741178
2501.9035,2.8423487277153754
2503.2427,1.9183375121537836
2504.5812,3.9932023045730034
2505.919,5.466936167306187
2507.256,3.7895321227545935
2508.5924,3.210983138650249
2509.9281,0.4812821448298621
2511.2631,5.750422039020464
2512.5974,5.968395714136307
2513.9309,10.885196005587574
2515.2638,4.450815689100523
2516.596,4.565247431549551
2517.9275,4.678483855300925
2519.2583,4.990517537068513
2520.5884,2.5513410067814846
2521.9178,3.6609467444638426
2523.2465,6.969327204626296
2524.5745,8.97647480517017
2525.9018,2.9823818943035576
2527.2284,5.287040730469926
2528.5543,5.190443542288989
2529.8796,5.542582505510069
2531.2041,2.9934497439781182
2532.5279,3.343037326112409
2533.851,5.341337290397718
2535.1735,4.88834164188853
2536.4952,1.8340423322260904
2537.8163,1.428431264168296
2539.1366,1.42150032213263
2540.4562,2.713241376252256
2541.7752,1.703646282445419
2543.0935,5.5427068694980335
2544.411,2.7804149491595638
2545.7279,4.466762277752537
2547.0441,3.5017405837953106
2548.3596,6.835341551138754
2549.6744,6.217556828616324
2550.9885,2.848377996708223
2552.3019,5.977796573719104
2553.6146,6.5558040494700265
2554.9266,8.232391854004078
2556.2379,3.9075513518062905
2557.5485,6.431273825038005
2558.8585,3.4535505167850147
2560.1677,4.924372605820395
2561.4762,6.24373123638199
2562.7841,5.311617503463822
2564.0913,4.328022439622686
2565.3977,2.4929370242992377
2566.7035,2.7563521936539814
2568.0086,-0.7317411410818977
2569.313,9.528647903759236
2570.6167,8.737517521938912
2571.9197,5.144865811932306
2573.222,4.600690784839514
2574.5236,4.754990400311868
2575.8246,12.257762571993965
2577.1248,9.409005165980489
2578.4244,11.758715925788607
2579.7232,6.25689250084551
2581.0214,6.103532422991151
2582.3189,5.998633161496798
2583.6157,11.49219212459829
2584.9118,11.484206660545254
2586.2072,6.374674002665529
2587.5019,7.863591269444811
2588.7959,11.000955515622223
2590.0893,9.386763717301022
2591.3819,10.771012740575003
2592.6739,7.003699357670428
2593.9652,11.63482023310354
2595.2557,9.61437196135364
2596.5456,11.592351020551888
2597.8348,11.368753792685766
2599.1234,14.243576543819245
2600.4112,10.016815426328861
2601.6983,8.588466450155465
2602.9848,5.858525525071798
2604.2705,11.676988474965924
2605.5556,11.24385106514083
2606.84,8.159108944129656
2608.1237,11.272757648027095
2609.4067,9.63479263133695
2610.689,13.39520923583541
2611.9707,11.304002706950769
2613.2516,6.96116815615926
2614.5319,9.166700581897118
2615.8115,10.470594912988986
2617.0903,12.17284598659242
2618.3685,8.423448535159267
2619.6461,6.2723971694129546
2620.9229,8.069686415842398
2622.199,5.965310738212423
2623.4745,6.209264519591088
2624.7493,9.451542083393278
2626.0234,8.042137690941459
2627.2968,7.58104550904288
2628.5695,9.418259624083348
2629.8415,5.353774046638364
2631.1128,11.387582693100867
2632.3835,5.069679426326076
2633.6535,4.750057995293474
2634.9228,6.77871209828578
2636.1914,8.555635386085257
2637.4593,2.9308214416869305
2638.7265,9.404263762529624
2639.9931,6.075955816743971
2641.259,2.745890978418089
2642.5242,9.814062560880558
2643.7887,7.280463850001155
2645.0525,4.7950880335091455
2646.3156,8.757928226329213
2647.5781,9.1689774954352
2648.8398,4.128228820221807
2650.1009,6.185675088394021
2651.3613,8.141309146374653
2652.6211,6.245123778729848
2653.8801,4.897111688612696
2655.1385,6.547265516725091
2656.3961,10.4955778547979
2657.6531,6.292041229089321
2658.9094,7.736648060901842
2660.1651,6.829390708617581
2661.42,8.020261453252274
2662.6743,11.209252507527808
2663.9279,3.2463560039634842
2665.1808,4.681563962986175
2666.433,6.814868372559204
2667.6846,9.896261173830283
2668.9354,7.675734239798473
2670.1856,10.453279344500288
2671.4351,7.428888185215001
2672.6839,8.602552354689067
2673.9321,7.0742633713801695
2675.1795,8.99401266772044
2676.4263,10.96179160539937
2677.6724,8.727591456166394
2678.9179,8.041403382153149
2680.1626,5.353218458215352
2681.4067,8.41302767879479
2682.6501,8.57082198480117
2683.8928,14.876592233013909
2685.1348,6.280329194504262
2686.3761,4.032023491577576
2687.6168,8.531665683735966
2688.8568,2.3792462901612623
2690.0961,9.974755744718706
2691.3348,8.618184457481078
2692.5727,8.509522738773697
2693.81,9.698760812740147
2695.0466,7.285888818428774
2696.2826,5.470896797900338
2697.5178,8.903774720356765
2698.7524,6.934512500291021
2699.9863,7.063099963158436
2701.2195,4.389526865069186
2702.452,5.763782891502473
2703.6839,8.285857684042298
2704.9151,9.205740826634866
2706.1456,8.673421820367892
2707.3755,11.838890074271688
2708.6046,7.652134910642388
2709.8331,12.613145533387282
2711.0609,9.721911069892343
2712.2881,12.728420521412076
2713.5145,11.382662791981986
2714.7403,11.534626658353403
2715.9654,8.484300783450934
2717.1899,9.531673714853028
2718.4136,11.2267339152951
2719.6367,14.069469752195857
2720.8591,18.10986948070675
2722.0809,18.797921215284504
2723.3019,14.13361288928725
2724.5223,15.716932248093897
2725.7421,16.047866895747305
2726.9611,14.126404279121061
2728.1795,19.25253168461022
2729.3972,14.07623625734577
2730.6142,10.947504949933432
2731.8306,13.316324574216623
2733.0462,6.182681832563716
2734.2612,14.296563294179919
2735.4756,10.457955466443735
2736.6892,10.166844713768072
2737.9022,10.22321729598633
2739.1145,10.777059371263519
2740.3262,9.77835699553249
2741.5372,9.527096116955619
2742.7475,5.423262585911672
2743.9571,6.066842157508518
2745.1661,5.5078205326213805
2746.3744,6.8461833514572135
2747.582,4.931916199144737
2748.7889,5.165004592350968
2749.9952,8.845433998423687
2751.2008,7.423189833060746
2752.4057,3.198257423505666
2753.61,2.6206220227700356
2754.8136,4.940268851882976
2756.0165,4.6571831056674
2757.2188,-0.1786500704564702
2758.4204,3.6827544223597357
2759.6213,5.641383467678651
2760.8215,3.7972239122353386
2762.0211,4.050262546351121
2763.22,4.700486122375096
2764.4182,5.797881352153738
2765.6158,5.842434900528772
2766.8127,3.98413337436304
2768.009,3.1229633220952593
2769.2045,3.05891125232273
2770.3994,0.19196364241315678
2771.5936,1.7721069391452176
2772.7872,1.399327587377897
2773.9801,5.023612014249224
2775.1723,7.044946632903887
2776.3639,-0.1866821937494052
2777.5548,2.1287118267485425
2778.745,3.7411168518120235
2779.9346,0.5005210175682748
2781.1235,-1.29308757726659
2782.3117,0.5602791610184141
2783.4992,0.6606222440791214
2784.6861,1.257942677968643
2785.8723,2.552241462133864
2787.0579,-0.20648041655775273
2788.2428,1.681778003238918
2789.427,-1.732980254391677
2790.6106,-0.5007521821828504
2791.7935,-2.821517460395171
2792.9757,0.10474923322503571
2794.1573,0.5781014078908555
2795.3382,-1.5514074282321246
2796.5184,1.1162762272407747
2797.698,1.5812213752543869
2798.8769,0.34349700559083374
2800.0551,1.3531720922200776
2801.2327,4.860315605677101
2802.4096,2.9149965029652094
2803.5859,0.5672836924846365
2804.7615,1.6172460534856725
2805.9364,0.7649524595458246
2807.1106,3.9104717680701526
2808.2842,6.203872828814241
2809.4572,4.44522445242896
2810.6294,9.434595387526556
2811.801,4.722054338267071
2812.972,8.207669914464645
2814.1423,5.991510678713013
2815.3119,8.373645111529243
2816.4808,13.90414163351548
2817.6491,8.183068581537398
2818.8167,17.81049415341927
2819.9837,20.886486465154718
2821.15,22.861113454632417
2822.3157,31.3344428508762
2823.4807,29.356542154298708
2824.645,38.87747855196825
2825.8086,38.14731893738768
2826.9716,48.4161298152851
2828.134,55.533977308915524
2829.2957,57.150927057372584
2830.4567,65.71704414441021
2831.617,65.23239308227312
2832.7767,68.5470377260356
2833.9358,67.26104127844809
2835.0941,71.27446625679069
2836.2519,66.53737450573307
2837.4089,64.04982715720033
2838.5653,58.561884677743805
2839.7211,59.473606893416644
2840.8761,53.885053044653205
2842.0306,54.24628177715172
2843.1843,55.15735119775998
2844.3374,56.618318870862964
2845.4899,56.97924180927215
2846.6417,62.09017645961585
2847.7928,59.5511786987299
2848.9433,58.26230378254843
2850.0931,61.37360637149382
2851.2422,68.03514054336546
2852.3907,62.69695976222667
2853.5385,61.75911681178958
2854.6857,63.071663848796575
2855.8323,64.23465241239904
2856.9781,64.9481334110317
2858.1233,73.66215711078283
2859.2679,72.17677312825948
2860.4118,72.49203034344714
2861.555,75.30797691456362
2862.6976,81.4746602749064
2863.8395,81.29212710469334
2864.9808,85.26042326939557
2866.1214,82.27959382156305
2867.2614,85.69968296114146
2868.4007,85.87073406528062
2869.5393,88.09278965413345
2870.6773,87.41589138914568
2871.8146,88.0900800508351
2872.9513,87.56539554556059
2874.0874,91.84187689878034
2875.2227,93.46956226029855
2876.3574,94.29848886150067
2877.4915,94.67869299907666
2878.6249,102.21021002673157
2879.7577,101.39307435138356
2880.8898,102.32731935784867
2882.0212,102.36297741701229
2883.152,104.75007987648661
2884.2821,107.08865706025414
2885.4116,109.6287382447965
2886.5405,109.42035163570891
2887.6686,111.11352434229914
2888.7962,112.90828237967145
2889.923,111.05465065179494
2891.0493,111.95265293355591
2892.1748,112.80231188929415
2893.2997,106.40364906382298
2894.424,107.90668487393268
2895.5476,110.66143867237696
2896.6706,110.41792873284284
2897.7929,112.32617222240299
2898.9145,110.33618520395083
2900.0355,111.34798261711809
2901.1559,110.96157829817469
2902.2756,112.7269849699107
2903.3946,107.59421424550058
2904.513,104.36327661084891
2905.6308,114.48418147591815
2906.7479,110.15693720703808
2907.8643,107.43155102569669
2908.9801,106.30802905181264
2910.0953,112.18637633098906
2911.2098,106.3165968457489
2912.3236,108.6486934567513
2913.4368,107.78266796148951
2914.5494,107.3185210709698
2915.6613,110.70625241837186
2916.7725,105.09586056369022
2917.8831,102.08734295985685
2918.9931,99.58069600884527
2920.1024,99.22591509175541
2921.211,95.92299459388039
2922.319,92.97192790825413
2923.4264,93.62270746868066
2924.5331,90.22532477924466
2925.6391,95.62977040780385
2926.7445,93.58603401996277
2927.8493,95.0441043250282
2928.9534,95.7039690964466
2930.0569,95.06561515722343
2931.1597,99.57902837332446
2932.2619,98.39419366005934
2933.3634,97.51109493694747
2934.4643,96.67971513956633
2935.5645,99.9500362283825
2936.6641,99.57203919706541
2937.763,105.74570403978413
2938.8613,104.12100975498744
2939.959,98.79793428366702
2941.056,93.82645452560459
2942.1523,92.00654639260246
2943.248,90.73818485819852
2944.3431,80.22134397586518
2945.4375,76.3559968916931
2946.5313,70.44211594955945
2947.6244,63.92967272978151
2948.7169,61.118638108255396
2949.8087,59.05898232158051
2950.8999,52.15067499516991
2951.9904,48.54368516384688
2953.0803,44.83798134092794
2954.1696,41.0835315542928
2955.2582,35.78030338344135
2956.3462,36.97826399703821
2957.4335,32.97738020594502
2958.5202,34.57761845124078
2959.6062,31.078944844230747
2960.6916,37.18132515044395
2961.7764,37.83472482462003
2962.8605,36.589108949685425
2963.9439,36.49444223021936
2965.0267,34.95068900490998
2966.1089,37.90781324750101
2967.1905,36.465778582229404
2968.2714,36.924548254253914
2969.3516,37.784085144075625
2970.4312,35.94435176295013
2971.5102,31.70531024429225
2972.5885,33.716922362073284
2973.6662,33.67914957321144
2974.7432,32.291952997455724
2975.8196,32.40529341776365
2976.8954,33.769131294173285
2977.9705,35.98342676266974
2979.045,34.69813962154685
2980.1188,33.01322930926417
2981.192,33.92865491729993
2982.2645,31.74437520700007
2983.3364,33.36034860042404
2984.4077,33.076533202187576
2985.4783,32.14288678330295
2986.5483,29.059366784017115
2987.6177,28.375930323148168
2988.6864,28.99253422892059
2989.7545,24.259135045799546
2990.8219,20.375689028324906
2991.8887,22.99215218844524
2992.9548,23.958480334352217
2994.0204,17.074629044316026
2995.0852,16.540553657022095
2996.1495,12.806209340409566
2997.2131,11.421551097012063
2998.276,10.836533801301194
2999.3383,10.601112213533035
3000.4,7.215240985598371
3001.4611,6.828874663376872
3002.5215,3.341967720595825
3003.5812,3.8044745626938052
3004.6404,7.216349561689718
3005.6989,2.6775470515577453
3006.7567,1.3380212941085716
3007.8139,5.3477265243774355
3008.8705,3.2566169640193934
3009.9264,-2.1853532187877747
3010.9818,2.671770111567575
3012.0364,0.32796292237573255
3013.0905,2.1832011542092715
3014.1439,2.3874607443612135
3015.1966,3.0907176082925787
3016.2487,2.2929476375897835
3017.3002,0.5441266929321316
3018.3511,0.9442306120694326
3019.4013,0.4932352273102367
3020.4509,-0.5588836384791875
3021.4998,-0.8621501673648666
3022.5481,2.4834170418346844
3023.5958,0.7278080031811243
3024.6428,3.4210127059019726
3025.6892,0.06302113194672643
3026.735,2.753823229054717
3027.7802,2.093408944335124
3028.8247,3.7817681973589146
3029.8685,0.06889088676295074
3030.9118,1.5547668733664324
3031.9544,-1.9106139827003403
3032.9963,2.22273816314528
3034.0376,2.7048322425196147
3035.0783,2.385677164811618
3036.1184,2.865281812361985
3037.1578,0.693655043654644
3038.1966,0.2708056885207384
3039.2348,3.846742569854868
3040.2723,0.12147450784357261
3041.3092,4.345010284205998
3042.3455,4.2173586794465265
3043.3811,3.5385284306195075
3044.4161,4.608528232605728
3045.4505,4.077366744900679
3046.4842,1.39505258091463
3047.5173,4.611594313284172
3048.5498,5.077000500695391
3049.5816,4.991279655718451
3050.6128,6.454440240153524
3051.6434,4.666490665888006
3052.6734,6.0774392802648975
3053.7027,7.687294383962268
3054.7314,6.046064216883767
3055.7594,5.053756942060126
3056.7868,5.910380662061414
3057.8136,8.765943428920203
3058.8398,4.970453235565259
3059.8653,6.573917987265929
3060.8902,8.27634553958703
3061.9145,7.777743682354227
3062.9381,6.628120122629738
3063.9612,6.827482489698372
3064.9835,7.075838346563742
3066.0053,7.523195187954649
3067.0264,8.91956043784154
3068.0469,9.064941444962905
3069.0668,7.109345468861662
3070.086,10.202779678431291
3071.1046,10.845251171471858
3072.1226,6.386766943755628
3073.1399,6.577333882602389
3074.1567,7.216958811464252
3075.1727,7.905648488020027
3076.1882,7.0934095977789084
3077.203,6.930248747193634
3078.2173,11.016172471782824
3079.2308,5.951187237762646
3080.2438,5.385299401187552
3081.2561,7.368515258600134
3082.2678,3.5008410526900207
3083.2789,4.932282952461687
3084.2893,6.212847091911197
3085.2991,2.2425395557118186
3086.3083,9.271366366408355
3087.3169,7.349333524120244
3088.3248,5.676446936253271
3089.3321,5.9027124367198915
3090.3388,5.078135802668093
3091.3449,4.552722752218756
3092.3503,5.126478952711402
3093.3551,5.94941002595834
3094.3593,6.521521542507102
3095.3629,5.292819013411133
3096.3658,5.463307884508673
3097.3681,5.882993548709788
3098.3698,3.3018813442914876
3099.3708,1.1699765507008628
3100.3713,2.8872844143662135
3101.3711,4.303810170016071
3102.3702,5.269559023506133
3103.3688,4.034536137654012
3104.3667,7.998746622581709
3105.364,3.0621955480658976
3106.3607,7.17488790389578
3107.3568,5.986828649238618
3108.3522,3.548022671512779
3109.347,5.708474798268394
3110.3412,4.718189821575365
3111.3348,5.377172476418838
3112.3277,3.2354274506020886
3113.32,0.6429593781566609
3114.3117,2.399772860759832
3115.3028,3.505872493659286
3116.2932,4.861262848104992
3117.2831,4.215948460288221
3118.2723,1.6199338177876292
3119.2608,4.623223366022412
3120.2488,3.0758215342124373
3121.2361,3.77773270534534
3122.2229,1.0289612316505732
3123.209,2.8795114275802476
3124.1944,5.529387597296882
3125.1793,1.7785940161678795
3126.1635,0.4771349042667623
3127.1471,2.325014463881125
3128.1301,1.4722368925272207
3129.1125,3.6188063644711654
3130.0942,2.6647270392567144
3131.0753,5.360003040239583
3132.0558,-0.24536153587177623
3133.0357,1.1486373540310808
3134.015,0.7920062042183247
3134.9936,4.084751497473768
3135.9716,2.27687970866117
3136.949,3.518397271796786
3137.9258,2.959310598128095
3138.902,5.29962606371862
3139.8775,4.739350015038781
3140.8524,2.828488745562737
3141.8267,4.667048501371163
3142.8004,1.3550355002598486
3143.7735,3.3924559133540946
3144.7459,4.279315898228862
3145.7178,1.1156215785345474
3146.689,2.551379035128395
3147.6596,3.2865943377114366
3148.6295,2.9212735304709128
3149.5989,5.05542262472812
3150.5676,2.0390476025916264
3151.5357,2.372154395615782
3152.5032,4.854748914964457
3153.4701,3.3368370480799996
3154.4364,3.268424633857265
3155.402,3.9495174778227558
3156.367,2.430121352818743
3157.3315,8.260241992192316
3158.2952,4.039885104989365
3159.2584,4.869056317653353
3160.221,4.497761216228909
3161.1829,4.376005338070097
3162.1442,2.953794175553382
3163.105,0.631133177295176
3164.065,3.4080277623739494
3165.0245,2.284483343556868
3165.9834,4.360505299530818
3166.9416,4.886098986137863
3167.8993,-0.13873028438497492
3168.8563,5.986022751338343
3169.8127,5.260364742599396
3170.7684,3.5343022788295286
3171.7236,4.757841896856457
3172.6782,5.930990098164868
3173.6321,6.453753336661045
3174.5854,5.926138006941375
3175.5381,0.04815043906471672
3176.4902,3.919796903828553
3177.4417,2.341083671548871
3178.3926,3.9120169733436914
3179.3428,1.582603016920208
3180.2924,5.20284797086544
3181.2415,5.42275798794039
3182.1899,5.742339168877582
3183.1377,5.361597560181975
3184.0848,4.230539150935137
3185.0314,3.3991698766026612
3185.9773,6.017495630344753
3186.9227,3.935522271329921
3187.8674,3.753255598551725
3188.8115,6.270701371648503
3189.755,2.737865312726047
3190.6979,7.904753081183129
3191.6402,3.97137030903988
3192.5818,2.737722549268913
3193.5229,4.703815315129132
3194.4633,5.71965409250223
3195.4031,4.835244320231743
3196.3423,3.650591379964675
3197.2809,4.765700604995594
3198.2189,7.180577292113156
3199.1563,3.4952266904490283
3200.0931,6.8096539773290985
3201.0292,4.023864295126989
3201.9648,4.687862718119796
3202.8997,6.9516542803459735
3203.834,2.915243968965349
3204.7677,5.6786367016212225
3205.7008,3.291837366804449
3206.6333,3.5048507962195323
3207.5652,3.9676817886526123
3208.4964,6.23033510784132
3209.4271,5.3428154778464805
3210.3571,5.055127560425569
3211.2865,5.9672759639079045
3212.2154,5.179265246071547
3213.1436,4.8410999050217915
3214.0712,7.202784387071285
3214.9982,5.464323090121674
3215.9246,4.375720340046764
3216.8503,6.486980408077139
3217.7755,5.498107521686174
3218.7001,4.859105843477421
3219.624,6.01997948107336
3220.5473,7.430732493505387
3221.4701,7.241368879605114
3222.3922,5.601892563896827
3223.3137,9.362307398491133
3224.2346,3.9726171794797063
3225.1549,4.382825609331162
3226.0746,6.692936350787945
3226.9937,5.952953022764241
3227.9121,7.4128791772448865
3228.83,3.2727183066851806
3229.7473,7.482473829411638
3230.6639,6.992149131023592
3231.5799,6.901747522295643
3232.4954,6.261272244080902
3233.4102,8.27072646821501
3234.3244,7.48011330392088
3235.238,6.689435777714167
3236.151,6.4986968413093935
3237.0634,7.107899379526721
3237.9752,8.017046212199345
3238.8864,7.176140088081472
3239.797,5.635183675756845
3240.7069,9.64417957204781
3241.6163,3.103130317424873
3242.5251,6.012038355916755
3243.4332,8.320906100520869
3244.3408,6.879735904114245
3245.2477,4.238530036364858
3246.154,7.247290698143324
3247.0598,7.706020047934965
3247.9649,6.014720171752186
3248.8694,7.173393078547207
3249.7733,4.482040717125037
3250.6766,7.290664964556759
3251.5793,6.499267653093055
3252.4814,6.907850542077949
3253.3829,8.516415325862798
3254.2838,4.074963629720449
3255.1841,10.483496993759594
3256.0838,5.892016917339298
3256.9829,9.350524794983649
3257.8814,8.059021962296573
3258.7792,9.717509661376749
3259.6765,6.025989053732632
3260.5731,6.384461203697588
3261.4692,8.392927115345092
3262.3647,4.351387728904005
3263.2595,8.509843900673923
3264.1538,6.66829644344056
3265.0474,9.676746084891194
3265.9404,7.1351934860301425
3266.8329,9.04363921109426
3267.7247,7.0520837529684615
3268.616,11.260527514101279
3269.5066,5.8689708264204015
3270.3966,9.177413909248248
3271.286,6.885856923217524
