RamanShift,CorrectedData
30.1047,6727.417645497554
32.3739,6283.257363495244
34.6426,5836.647014218757
36.9109,5387.036467561344
39.1787,4947.525535049781
41.4461,4504.413974340483
43.7131,4065.701493614603
45.9796,3629.437756009157
48.2456,3195.6723840041404
50.5112,2757.7049637851665
52.7764,2316.2850495811267
55.0411,1888.5121680438606
57.3054,1461.5858226623563
59.5692,1028.3054980404793
61.8326,607.4706641662372
64.0955,185.78078074458182
66.3579,-231.41469859424137
68.6199,-631.6663220777943
70.8815,-985.5723261008008
73.1426,-1222.024636711427
75.4032,-1140.1053340903034
77.6634,-200.68429039194098
79.9231,2891.2800118814343
82.1824,10597.53109506366
84.4412,31356.312452575767
86.6995,58296.56747186349
88.9574,59357.03922680942
91.2148,58867.7202083305
93.4717,58384.15231377327
95.7282,57916.37685180707
97.9842,57450.0345472597
100.2398,56989.865545795226
102.4949,56527.609418577355
104.7495,56066.255166871146
107.0036,55609.84122666558
109.2573,55158.455473287075
111.5105,54693.08522596364
113.7632,54237.967252338756
116.0154,53769.78777312505
118.2672,53324.182466655475
120.5185,52870.83647356511
122.7693,52419.034401247234
125.0197,51960.610328386734
127.2696,51509.747809478155
129.519,51056.37987940997
131.7679,50602.73905797316
134.0163,50149.907354394905
136.2642,49696.06627187504
138.5117,49248.59681211428
140.7587,48805.229479852744
143.0052,48361.34428734454
145.2512,47919.220758791496
147.4967,47483.48793478201
149.7417,47039.774376712274
151.9863,46597.408171143616
154.2304,46156.06693423959
156.4739,45714.82781618972
158.717,45279.41750562284
160.9596,44838.21223401951
163.2017,44409.28778006612
165.4433,43979.769474066954
167.6844,43546.58220223338
169.925,43117.100410979154
172.1651,42692.248111252135
174.4047,42268.34888282926
176.6439,41843.425878564914
178.8825,41413.05182863005
181.1206,40987.499044761345
183.3582,40568.48942456494
185.5954,40146.39445577201
187.832,39735.18522042887
190.0681,39318.33239911786
192.3037,38904.70627506953
194.5388,38492.576738331096
196.7734,38076.913289902746
199.0075,37665.48504585889
201.2411,37258.76074150484
203.4742,36854.508735491065
205.7068,36456.447013880446
207.9389,36059.643194190794
210.1704,35659.36452937545
212.4015,35257.52791179137
214.632,34861.04987720185
216.862,34478.49660879493
219.0915,34099.38394114816
221.3205,33711.62736405416
223.549,33330.1920263117
225.777,32945.44273960327
228.0044,32559.493982309446
230.2314,32190.50990335643
232.4578,31803.25432607547
234.6837,31424.79075189273
236.909,31046.682364201864
239.1339,30650.29203214866
241.3582,30293.43231441207
243.582,29892.015463168165
245.8053,29543.403427658697
248.0281,29182.807858205255
250.2503,28820.1401096954
252.472,28445.211245188606
254.6932,28092.282039543003
256.9139,27733.662983164628
259.134,27377.41428553668
261.3536,27026.99587880575
263.5727,26674.167421344304
265.7912,26328.588301254887
268.0092,25980.267639898375
270.2267,25641.464295349768
272.4436,25297.436865881413
274.6601,24954.493693351018
276.8759,24623.542866641925
279.0913,24285.24222509259
281.3061,23954.599361806024
283.5204,23619.271627032846
285.7341,23292.86613147772
287.9473,22952.639749652575
290.16,22634.24912314072
292.3721,22323.650663999077
294.5837,22001.10055794211
296.7947,21688.3047674478
299.0052,21369.66903498317
301.2152,21058.998886132213
303.4246,20749.399632782268
305.6334,20446.026376230708
307.8418,20134.38401028094
310.0495,19832.82722427618
312.2568,19531.160506215827
314.4635,19236.388145771023
316.6696,18934.86423730132
318.8752,18631.29268280243
321.0802,18345.677194921394
323.2847,18058.871299992396
325.4887,17770.778340892874
327.692,17486.60147991155
329.8949,17204.693701629425
332.0972,16923.95781576146
334.2989,16638.196459975712
336.5001,16369.51210270066
338.7007,16094.907045982858
340.9008,15821.383428173714
343.1003,15548.04322667564
345.2992,15288.588260677221
347.4976,15025.120193886643
349.6955,14759.590537126249
351.8927,14497.150650967196
354.0895,14234.151748384786
356.2856,13988.944897382804
358.4812,13742.68102362359
360.6763,13487.51091288004
362.8707,13240.035213498297
365.0646,12995.95443894939
367.258,12745.96897030402
369.4508,12508.129058673396
371.643,12271.984827709035
373.8346,12030.6862759812
376.0257,11797.033279340292
378.2162,11569.225593329895
380.4062,11340.462855523263
382.5956,11109.694587801438
384.7844,10887.820198640868
386.9726,10666.188985421082
389.1603,10447.500136643444
391.3474,10199.402734147458
393.5339,10014.795755297688
395.7199,9809.978075464707
397.9052,9610.24846987112
400.09,9402.155615639778
402.2743,9200.148093791067
404.4579,8998.674391323868
406.641,8799.582903235583
408.8235,8600.671934536942
411.0054,8402.089702242884
413.1868,8204.384337361691
415.3675,8011.203886880765
417.5477,7826.496315743687
419.7273,7638.159508782053
421.9064,7448.091272562524
424.0848,7269.2393372701845
426.2627,7086.951358609214
428.4399,6909.974919591412
430.6166,6725.007532359079
432.7928,6560.146639954772
434.9683,6389.989618170999
437.1432,6225.683777198894
439.3176,6069.026363329664
441.4914,5899.664560597761
443.6645,5736.29549234741
445.8371,5577.766222926191
448.0091,5420.77375931877
450.1806,5269.065052732258
452.3514,5119.037000166034
454.5216,4963.636445928882
456.6913,4820.360183139201
458.8603,4675.204955279092
461.0288,4538.717457627048
463.1967,4399.0443387095365
465.3639,4257.532201665868
467.5306,4122.027605644944
469.6967,3991.527067220348
471.8622,3861.7270617454124
474.0271,3727.7740246582325
476.1914,3594.1143527796376
478.3551,3472.0944056528024
480.5182,3350.4105068797653
482.6807,3238.8089453416396
484.8426,3124.7359764155117
487.0039,3009.2378230903632
489.1647,2886.410677107873
491.3248,2777.100700117313
493.4843,2671.4040249039244
495.6432,2562.0167564819567
497.8015,2449.134973151675
499.9592,2340.604727593185
502.1163,2247.4220479952637
504.2728,2146.582939140695
506.4287,2068.533383337999
508.5839,1971.4693414299327
510.7386,1876.536753573877
512.8927,1778.3315402125518
515.0461,1691.8496030233073
517.199,1604.8368259002455
519.3512,1521.0390758190624
521.5029,1440.3022037070987
523.6539,1367.472045281349
525.8043,1287.3944218558026
527.9541,1210.2651410697654
530.1033,1139.3799976886366
532.2519,1070.0847743752165
534.3999,1000.8252423985396
536.5472,940.1471623267862
538.694,879.596284719948
540.8401,809.418350736596
542.9856,741.5590927393496
545.1305,684.7142349966962
547.2748,623.1294943615358
549.4185,576.3005808396047
551.5615,522.2231982054
553.704,478.137292990541
555.8458,433.7275947169328
557.987,391.7240563148807
560.1276,348.4022977760469
562.2675,307.03402576870576
564.4069,272.13746642219485
566.5456,234.87777859585185
568.6837,202.41740249572467
570.8212,173.26643189880997
572.958,138.63293843223073
575.0942,114.07326279149129
577.2299,92.29236072897038
579.3648,77.34404840512434
581.4992,60.931219979749585
583.6329,34.00599694549601
585.766,13.719892092114605
587.8985,-12.925921510628541
590.0304,-54.880407854732766
592.1616,-64.24240180228662
594.2922,-83.61018996009079
596.4222,-95.83141715339298
598.5515,-114.70289294161921
600.6802,-121.0204695283901
602.8083,-130.6788532355058
604.9358,-143.27154139022605
607.0626,-150.99072583809175
609.1888,-167.22716714198032
611.3144,-172.62011746742064
613.4393,-173.45715838060278
615.5636,-181.27414697271888
617.6873,-179.80520749800053
619.8103,-182.53265328199632
621.9327,-184.38700139631692
624.0544,-179.6469454113394
626.1756,-179.28933687139943
628.2961,-181.13923264785262
630.4159,-175.96989851164108
632.5351,-181.4027906527699
634.6537,-179.4076073220349
636.7716,-178.35223455634696
638.8889,-180.10276611063455
641.0056,-173.87351400104671
643.1216,-166.27699101711187
645.237,-158.57397295203555
647.3518,-144.62357449184492
649.4659,-135.78332616861735
651.5793,-127.3593137249627
653.6922,-120.10626642809075
655.8043,-108.37764122565568
657.9159,-105.67569520376128
660.0268,-99.05160275584785
662.137,-89.00548257525224
664.2466,-84.43646382981387
666.3556,-69.04367479724169
668.4639,-49.97624291089596
670.5716,-34.38329491363402
672.6786,-22.413957048505836
674.785,-15.167355214718555
676.8907,-1.7926150873026927
678.9958,18.811137810414948
681.1002,31.744777973071905
683.204,38.45917970721348
685.3072,60.60521700193931
687.4097,81.83376346177101
689.5115,95.74569208523462
691.6127,116.69187505256559
693.7132,141.3231835865372
695.8131,141.99048774308176
697.9123,171.8946561649209
700.0109,189.186556074892
702.1089,214.26705297690933
704.2061,238.08701048308285
706.3028,261.39729006290145
708.3987,279.4487508049788
710.4941,312.04224918399996
712.5887,332.42863888011925
714.6827,361.1587704531339
716.7761,385.88349113856384
718.8688,414.5536445604157
720.9608,429.67007048389496
723.0522,452.4836045286647
725.1429,485.8950780176965
727.233,520.4553177491835
729.3224,547.2651456623498
731.4112,580.6253784919099
733.4993,606.4868274999972
735.5867,639.7502981425278
737.6735,671.3165898105508
739.7596,702.1864954976554
741.845,734.4108014842641
743.9298,770.3402870289938
746.014,806.1757240463849
748.0974,831.567876747562
750.1802,866.1675012819542
752.2624,907.8253454833248
754.3439,942.5921485238214
756.4247,971.6686404973443
758.5048,1018.155542071836
760.5843,1053.6035641986236
762.6631,1093.9634076474613
764.7413,1135.7357626521043
766.8188,1171.2713085067007
768.8956,1216.6707131480507
770.9718,1258.0846328002663
773.0473,1302.1137115207384
775.1221,1339.9585807860421
777.1962,1383.4198590516025
779.2697,1424.0481513733102
781.3426,1450.694048972924
783.4147,1516.0581288317771
785.4862,1562.0909534243037
787.557,1611.2930700643992
789.6271,1657.1150104451226
791.6966,1706.9072901465843
793.7654,1752.9204081778007
795.8335,1805.254846478725
797.901,1854.961069460158
799.9678,1899.0395234803946
802.0339,1952.040636348116
804.0993,1994.6148168816653
806.1641,2054.8624543790065
808.2282,2108.5839181919655
810.2916,2158.229557123799
812.3544,2216.49969889193
814.4164,2271.8946496314675
816.4778,2320.8646933126
818.5385,2375.5600911865477
820.5986,2436.5310812958924
822.658,2489.4778779276094
824.7166,2549.4006710034373
826.7747,2610.3996255503007
828.832,2663.9748811011887
830.8886,2723.3765510851154
832.9446,2784.204722291368
834.9999,2844.909454275534
837.0545,2904.540778751172
839.1085,2968.598698982816
841.1618,3023.483189189603
843.2143,3096.9441939047465
845.2662,3156.181627426624
847.3175,3221.0453730842273
849.368,3288.935282644765
851.4179,3355.9511756650827
853.467,3417.842838812663
855.5155,3486.560025195482
857.5633,3558.1024537430785
859.6105,3624.6698085194075
861.6569,3690.661738007402
863.7027,3756.2278544433866
865.7478,3833.317733157106
867.7922,3901.980911916071
869.8359,3973.7168901546684
871.8789,4044.3751282874873
873.9212,4089.005046991988
875.9629,4191.256026501898
878.0039,4263.977406160913
880.0441,4338.6684834001935
882.0837,4419.178513011175
884.1226,4490.856706398634
886.1609,4569.2022307755615
888.1984,4648.314208446434
890.2352,4722.54171602377
892.2714,4796.633783636942
894.3069,4876.839394189963
896.3416,4955.407482620547
898.3757,5033.8369350980065
900.4091,5081.3765882376465
902.4418,5191.325228316411
904.4739,5266.531590797436
906.5052,5348.944359230663
908.5358,5421.66216450074
910.5658,5487.083584002845
912.595,5570.6071409155775
914.6236,5491.031303546726
916.6515,5767.65448449806
918.6786,5665.525041461078
920.7051,5847.841274450744
922.7309,5882.801426826802
924.756,6013.253683470604
926.7804,6025.196170435491
928.8041,5829.626953642328
930.8272,6134.494038760036
932.8495,6244.095373161304
934.8711,6123.478842873868
936.892,5973.24227148456
938.9123,6192.833421345487
940.9318,6085.949995076357
942.9506,6156.639633368577
944.9688,6264.499916054105
946.9862,5828.978361398491
949.003,6194.372425022324
951.019,5806.729504256429
953.0344,6024.796934487953
955.0491,6055.621993036781
957.063,6322.7018969748315
959.0763,6470.933802817854
961.0888,6163.264803854574
963.1007,6562.991928664429
965.1119,6690.712144194193
967.1223,6457.522351760774
969.1321,6935.869385774007
971.1412,6526.150016068546
973.1495,6421.660943120296
975.1572,6754.398802143747
977.1641,6630.710164136799
979.1704,6665.741532553351
981.1759,6780.389344540228
983.1808,6539.0499705868715
985.1849,6705.519713378861
987.1884,7024.444810211251
989.1911,7399.171431323935
991.1932,6483.495676712388
993.1945,6875.56357238043
995.1951,7298.571079496964
997.1951,6763.964090475245
999.1943,6753.838424742906
1001.1928,6599.489834087923
1003.1906,6924.164002759935
1005.1877,6085.00654901372
1007.1841,5954.713021862444
1009.1798,6013.178909469236
1011.1748,6080.349640450113
1013.1691,5952.470583289338
1015.1627,4215.6870456677425
1017.1556,4999.544275741457
1019.1477,5390.137479509802
1021.1392,4584.011812976671
1023.1299,3710.562378244591
1025.12,4420.284231576035
1027.1093,4032.722392127813
1029.0979,4146.271834853927
1031.0859,4111.1774943811615
1033.0731,3411.3342638735558
1035.0596,3749.4369953834175
1037.0454,3624.9805068497662
1039.0304,3179.3095787172642
1041.0148,2509.11895518082
1042.9985,2707.5533486422646
1044.9814,3153.607446412265
1046.9636,2492.4259087259925
1048.9452,2569.6533642825525
1050.926,2477.784416856848
1052.9061,2506.9136445272743
1054.8855,2618.6356005944253
1056.8642,2263.844813289761
1058.8421,2220.1857846583953
1060.8194,2324.402994107033
1062.7959,2171.090898840521
1064.7717,2466.3439328197055
1066.7469,2299.256508294551
1068.7213,2332.4730128516094
1070.695,2175.637811084911
1072.6679,1859.4952442637805
1074.6402,2020.339631901188
1076.6117,1785.665274915169
1078.5826,1847.6664540203637
1080.5527,1986.1874320747957
1082.5221,2018.372453459844
1084.4908,2316.7157426950216
1086.4587,2468.811504116158
1088.426,2672.8039188919283
1090.3925,2512.537143502952
1092.3584,2505.605307701793
1094.3235,2053.302516115662
1096.2879,1959.1728483157422
1098.2515,1973.7603633401595
1100.2145,1966.059100635357
1102.1767,1974.6630799101622
1104.1382,2083.266301212854
1106.099,2221.9127448450818
1108.0591,2348.646370275863
1110.0185,2259.0111147550997
1111.9771,2552.400892046324
1113.9351,2175.0595933229197
1115.8923,1739.8310842343344
1117.8488,1422.8092086794131
1119.8045,920.9877931586816
1121.7596,891.9606499446236
1123.7139,737.9715820998754
1125.6675,746.7143837675103
1127.6204,895.5328417109049
1129.5726,832.1207352263154
1131.524,973.121834654703
1133.4748,1093.8799020158185
1135.4248,1002.5386895982301
1137.3741,1119.3419387517424
1139.3226,1077.3333808007883
1141.2705,1059.8567358764121
1143.2176,922.6057133363211
1145.164,908.774011939684
1147.1097,914.8053212196319
1149.0546,993.8933216215592
1150.9989,993.3316844428118
1152.9424,890.6140710418767
1154.8852,693.9341328439114
1156.8272,572.5855123680012
1158.7686,576.5118451938761
1160.7092,413.0067611755003
1162.6491,354.5138844016983
1164.5883,492.1268348312806
1166.5267,534.4392288778836
1168.4644,793.744678033916
1170.4014,895.2367884473933
1172.3377,1227.8091583288915
1174.2732,1444.6553769366146
1176.2081,1649.4190212507092
1178.1421,1839.1936538047376
1180.0755,2011.3728206381056
1182.0082,1866.6000493983302
1183.9401,1851.2188476192168
1185.8713,1585.92270416861
1187.8017,1400.555089402158
1189.7315,1243.4094578163204
1191.6605,855.5792499019735
1193.5888,645.4078937159575
1195.5163,554.2888087592873
1197.4432,400.9154080789376
1199.3693,314.63109917900874
1201.2947,199.87928555443796
1203.2193,165.45336755388416
1205.1432,230.3467435272396
1207.0664,248.10281016993395
1208.9889,287.5649618738971
1210.9106,294.12659055009135
1212.8316,315.4810852337978
1214.7519,446.17183201910666
1216.6715,397.44221384528646
1218.5903,428.98560918992007
1220.5084,380.74539255620766
1222.4257,422.764934157487
1224.3424,255.9876003996469
1226.2583,321.80675346098724
1228.1735,401.0657529599339
1230.0879,510.3079552968702
1232.0016,598.4767128615204
1233.9146,659.9153729405298
1235.8269,520.9172768357967
1237.7384,439.8757592500697
1239.6492,252.98414967695862
1241.5592,185.8357732113218
1243.4686,61.42395241820486
1245.3772,-25.007991995691555
1247.285,-60.166739937936654
1249.1922,-168.85872148626368
1251.0986,-138.8897656526824
1253.0042,-188.4140145505953
1254.9092,-112.03422278464859
1256.8134,11.398737296462059
1258.7169,280.7351125659261
1260.6196,368.6751497830119
1262.5216,593.5190928996162
1264.4229,766.4671821809388
1266.3234,977.1696519569814
1268.2232,992.9767288931107
1270.1223,944.6386298830475
1272.0207,936.2555618907281
1273.9183,925.3277224337216
1275.8151,875.8052996670885
1277.7113,840.4384724926349
1279.6067,660.4274110541082
1281.5014,536.0222770909168
1283.3953,373.92322573819547
1285.2885,338.93040677087265
1287.181,293.09396622467466
1289.0727,387.16404674601654
1290.9637,399.59078805041645
1292.854,569.4743259817042
1294.7435,744.7147923878292
1296.6323,933.3623134220106
1298.5204,1238.4670077903502
1300.4077,1561.5789848653803
1302.2943,1837.148341634951
1304.1802,1950.8751594711866
1306.0653,1847.2595013747195
1307.9497,1806.1014108374438
1309.8333,1768.2009128786885
1311.7162,1765.9080144567706
1313.5984,1918.7227048480418
1315.4798,2022.9949556697902
1317.3605,2280.1247193520685
1319.2405,2544.8619280950006
1321.1197,2582.3064912974805
1322.9982,2504.408292909786
1324.876,2636.167191059183
1326.753,2568.1330188288557
1328.6293,2682.455582940318
1330.5048,2784.984664433796
1332.3796,2751.9200175249352
1334.2537,2788.7613685795804
1336.127,2754.6584164444066
1337.9996,2732.2608320784493
1339.8714,2707.7682588942043
1341.7426,2641.380312981564
1343.6129,2617.9465833527647
1345.4826,2577.3666326062375
1347.3515,2613.7399971609702
1349.2196,2588.366187662323
1351.087,2656.0946886182355
1352.9537,2693.2749586530263
1354.8197,2867.9064298300655
1356.6849,3186.7385072799734
1358.5493,3188.120567454309
1360.4131,3226.70195493726
1362.276,3118.431982431841
1364.1383,2978.8099303740455
1365.9998,2705.735048015573
1367.8606,2414.4565548200408
1369.7206,2195.4736431937454
1371.5799,2070.385481398411
1373.4384,1940.5412157410683
1375.2962,1921.139971824934
1377.1533,1630.0808558477838
1379.0096,1272.4129547960401
1380.8652,1066.1853393553101
1382.7201,892.2470674870783
1384.5742,653.3971864910018
1386.4275,477.68473474427446
1388.2802,378.1587440901494
1390.132,326.51824159506214
1391.9832,277.8122505438587
1393.8336,79.6397909562329
1395.6832,118.09988007378706
1397.5322,60.04153434171894
1399.3803,41.76376902426637
1401.2278,-48.98440121474778
1403.0745,23.696037870886357
1404.9204,-55.44541011848196
1406.7656,-60.55924181946102
1408.6101,-37.04539996900348
1410.4538,-67.75322231726386
1412.2968,18.518323469150346
1414.139,15.370946578324947
1415.9805,103.95635601317917
1417.8213,126.67626062292766
1419.6613,319.88236821722603
1421.5006,528.1263853389901
1423.3391,824.1100153323241
1425.1769,1149.7849562600713
1427.0139,1693.2528979439703
1428.8502,2401.615518707924
1430.6858,2971.8744799433043
1432.5206,3323.531419025334
1434.3547,3671.4879436105184
1436.188,3746.0956281200524
1438.0206,3692.506010260251
1439.8524,3520.9205902765134
1441.6835,3510.440831489177
1443.5139,3413.6181620093957
1445.3435,3346.253974843923
1447.1724,3353.89962886335
1449.0005,3325.006449475739
1450.8279,3226.5757285501895
1452.6545,3241.6587247057323
1454.4804,3340.7066642956597
1456.3056,3367.1207412566837
1458.13,3257.7021161184566
1459.9536,3111.501915739431
1461.7766,2798.421234401034
1463.5987,2351.711135269692
1465.4202,2023.2726535276379
1467.2409,1602.8568008399961
1469.0608,1454.8645686391683
1470.88,1271.346932329001
1472.6984,1028.1548527646846
1474.5161,848.2892780879556
1476.3331,702.351146159006
1478.1493,646.5913863551395
1479.9648,558.9109210301649
1481.7795,520.9106660719772
1483.5935,508.79153177938497
1485.4067,470.00442324209143
1487.2192,458.40024046190956
1489.031,477.17987874060054
1490.842,408.09422879596605
1492.6522,482.24417657398226
1494.4618,466.7806039397292
1496.2705,471.554387935852
1498.0785,462.66640093719616
1499.8858,473.5175106030765
1501.6924,433.4085799661698
1503.4981,500.89046732395946
1505.3032,499.01402663987756
1507.1075,491.630106868437
1508.911,483.7395519740312
1510.7138,479.69320100476034
1512.5159,456.2418881713347
1514.3172,436.4864428875444
1516.1178,410.1276900047851
1517.9176,445.51645000958524
1519.7166,401.35353928721815
1521.515,411.5897697678083
1523.3126,380.52594936793685
1525.1094,413.81288188830877
1526.9055,369.00136732438114
1528.7008,363.9422015335076
1530.4954,258.68617668302977
1532.2893,294.0840813008763
1534.0824,243.68670132814077
1535.8747,296.84481976508323
1537.6663,276.7092171751174
1539.4572,280.48067115321464
1541.2473,273.65995652726997
1543.0367,279.6978453203701
1544.8253,213.29510681900138
1546.6132,315.1025075126854
1548.4003,220.47081175799394
1550.1867,313.7507807605034
1551.9723,299.99317352107755
1553.7572,332.4987459030963
1555.5414,368.56825077001486
1557.3247,391.70243766031854
1559.1074,473.4020524268126
1560.8893,560.1678370052905
1562.6705,575.3505285975407
1564.4509,666.300858803701
1566.2305,702.0195534704144
1568.0094,873.557331781325
1569.7876,1024.364905899889
1571.565,1107.3929792540257
1573.3417,1199.542245028002
1575.1176,1207.6133853321553
1576.8928,1199.8570702814177
1578.6672,1118.8239579145957
1580.4409,1045.6146942719279
1582.2138,860.2799142054391
1583.986,768.0702421110036
1585.7575,729.536293781719
1587.5282,625.628677329998
1589.2981,651.3479935728901
1591.0673,552.6448370711805
1592.8358,582.8697958721932
1594.6035,566.9234524968087
1596.3704,580.9563836372326
1598.1366,527.2691603164349
1599.9021,574.5123477478446
1601.6668,626.7865058722127
1603.4308,707.642188885191
1605.194,764.6299447145502
1606.9564,806.9503142116591
1608.7182,942.6038305816073
1610.4791,1078.5910189599708
1612.2394,1192.812395056324
1613.9988,1394.968463794332
1615.7576,1661.909718169536
1617.5156,1918.7866372278113
1619.2728,2205.049683395955
1621.0293,2448.699299912896
1622.785,2533.7359079670823
1624.54,2430.959904259991
1626.2942,2329.1716601557528
1628.0477,2051.571522708895
1629.8005,1821.009815682246
1631.5525,1590.936842322928
1633.3037,1410.7028876679833
1635.0542,1296.5082208450804
1636.804,1120.4530968748732
1638.553,1048.3877578129286
1640.3013,987.4124345102828
1642.0488,933.7273473341156
1643.7955,944.1327067774837
1645.5416,962.6787139961889
1647.2868,1050.0655607047083
1649.0313,1080.8434289907418
1650.7751,1287.762490441335
1652.5181,1451.7729058351106
1654.2604,1682.3748230730635
1656.0019,2006.3683755384736
1657.7427,2417.1536797908666
1659.4828,2780.280832326105
1661.222,3062.5999054685126
1662.9606,3116.960943739614
1664.6984,3044.113961034942
1666.4354,2740.508940080428
1668.1717,2286.1458331608883
1669.9072,1839.7745651560363
1671.642,1473.0950380841423
1673.3761,1234.6071355657223
1675.1094,993.6107264903549
1676.8419,848.6056674015526
1678.5737,698.3918049067361
1680.3048,602.0189771272599
1682.0351,541.8370152005918
1683.7646,429.79574424399107
1685.4934,430.394983956372
1687.2215,385.684549738693
1688.9488,339.91425268796957
1690.6754,294.13390004439134
1692.4012,283.64329564901345
1694.1263,267.74224040155605
1695.8506,270.23053236532724
1697.5742,254.5079669262159
1699.297,232.8743367678253
1701.0191,174.129432028687
1702.7404,156.473040518591
1704.461,78.55494830606767
1706.1808,89.07493989491559
1707.8999,91.68279900339985
1709.6182,96.22830845904173
1711.3358,107.66125017253944
1713.0527,126.43140509231307
1714.7688,80.988553090192
1716.4841,75.18247277368573
1718.1987,106.11294194043512
1719.9126,63.379737636270875
1721.6257,29.982635845903133
1723.338,84.62141192025956
1725.0496,5.845840910440529
1726.7605,48.80569702134562
1728.4706,33.950754399422294
1730.18,-37.86921329693541
1731.8886,-28.704432748816544
1733.5964,-22.104752323888533
1735.3036,37.680266367462536
1737.0099,35.95128254132214
1738.7156,55.85895503697975
1740.4204,-35.446057665780245
1742.1246,1.586902354241829
1743.8279,26.708847124360545
1745.5306,68.22078865603362
1747.2325,74.22373869363219
1748.9336,42.068708299311766
1750.634,10.706707793000533
1752.3336,50.638747073944614
1754.0325,86.01583593433497
1755.7307,72.88898365998284
1757.4281,130.0091986765492
1759.1247,110.32748868081762
1760.8206,143.19486006948318
1762.5158,170.21231813597478
1764.2102,155.83086674176775
1765.9039,121.40150804622499
1767.5968,109.17524265039901
1769.289,107.00306994133098
1770.9804,134.78598821431478
1772.6711,186.17499469461836
1774.361,162.52108525966105
1776.0502,179.7252539251076
1777.7386,206.88849308142926
1779.4263,173.71179332184147
1781.1132,195.89614317069208
1782.7994,166.84252941521663
1784.4849,218.001936883702
1786.1696,184.87534873600998
1787.8535,189.06374595199486
1789.5367,214.2681076627632
1791.2192,268.7394111087997
1792.9009,185.52863138790963
1794.5818,196.23674091052635
1796.2621,237.46471023180493
1797.9415,246.86350794453574
1799.6202,280.88410026688143
1801.2982,271.72745094839956
1802.9755,303.4945209298021
1804.6519,296.0862684345484
1806.3277,280.2036486511661
1808.0027,239.44761380735326
1809.6769,296.0191133287717
1811.3504,274.11909424661826
1813.0231,294.7985006318977
1814.6951,307.3582738144323
1816.3664,321.79935217606544
1818.0369,345.82267102506194
1819.7067,337.729162451702
1821.3757,353.36975508804244
1823.044,337.5453741888614
1824.7115,382.30694147524446
1826.3783,361.65537529283574
1828.0443,384.6415901642158
1829.7096,326.76649699541304
1831.3741,380.18100284604407
1833.0379,394.9860115080719
1834.701,376.632422971652
1836.3633,396.97113327709303
1838.0248,396.4030346983873
1839.6856,393.1290155398183
1841.3457,423.4499601416428
1843.005,436.266748912838
1844.6636,430.88025802788616
1846.3214,423.7913592986115
1847.9785,491.50092022804347
1849.6349,491.20980408129435
1851.2904,512.9688692084837
1852.9453,487.9789690476373
1854.5994,485.84095190710104
1856.2528,534.3556612154371
1857.9054,546.1739355428035
1859.5572,562.3966081158142
1861.2083,551.3245066993495
1862.8587,571.0084534343223
1864.5084,550.6992649484091
1866.1572,553.6977521591998
1867.8054,539.1547204773124
1869.4528,564.0209697763876
1871.0994,563.147294538534
1872.7453,589.6344836056505
1874.3905,567.4333201881727
1876.0349,570.094581600204
1877.6786,595.8190394815192
1879.3215,620.1574597709587
1880.9637,598.8606024491746
1882.6051,639.5792212952529
1884.2458,641.7640640996724
1885.8858,616.965872257133
1887.525,649.3353807446983
1889.1634,611.6233183697677
1890.8011,604.9804074464028
1892.4381,611.7573641724284
1894.0743,641.9548986958835
1895.7098,626.023715047233
1897.3446,653.2645108373963
1898.9786,644.4779774170565
1900.6118,666.1647996042611
1902.2443,583.475655772274
1903.8761,630.5112176327202
1905.5071,582.0721510624699
1907.1374,591.4091156333034
1908.7669,598.7227650962795
1910.3957,604.763747288378
1912.0237,547.6327040593605
1913.651,574.4802712113615
1915.2776,561.8070790701895
1916.9034,554.3137522168618
1918.5285,562.4509096143393
1920.1528,532.7191646824467
1921.7764,564.469125216503
1923.3992,559.6513936846386
1925.0213,553.866566910292
1926.6427,504.3152361203938
1928.2633,493.0479870032268
1929.8832,506.1154002039184
1931.5023,500.36805143713536
1933.1207,475.35651135639637
1934.7383,481.83134561154657
1936.3552,478.1931150988694
1937.9714,486.39237589634286
1939.5868,469.72967930001323
1941.2015,460.70557174202077
1942.8154,438.87059495720314
1944.4286,409.57528607335917
1946.041,404.62017782958355
1947.6528,394.85579886921914
1949.2637,392.4826737894109
1950.8739,365.25132323875187
1952.4834,410.8622639409987
1954.0921,401.8160089674093
1955.7001,396.61306728061754
1957.3074,353.10394382510276
1958.9139,338.6391395792234
1960.5197,348.5691519903012
1962.1247,340.8444751192801
1963.729,310.965599541405
1965.3325,323.7830124234897
1966.9353,350.44719782268476
1968.5374,331.2586365583247
1970.1387,288.9178059452697
1971.7393,290.0751799858008
1973.3392,263.2812297930286
1974.9383,294.9864235793084
1976.5366,259.0912269241926
1978.1342,287.0461024573633
1979.7311,305.3015102176105
1981.3273,293.5079073732595
1982.9227,247.9157480396243
1984.5173,255.47548339694367
1986.1112,241.98756214630885
1987.7044,257.25243043405317
1989.2968,239.72053198664798
1990.8885,250.24230795805306
1992.4795,274.4181971050184
1994.0697,258.1486356818841
1995.6592,219.88405719880393
1997.2479,242.72489258445057
1998.8359,251.5715705686598
2000.4232,237.87451745402177
2002.0097,239.1341570274235
2003.5955,212.70091069700356
2005.1805,233.9251974795643
2006.7648,225.057434264907
2008.3484,245.34803560358523
2009.9312,278.8974137955847
2011.5133,244.40597868741315
2013.0946,231.72413733660687
2014.6752,250.55229435665206
2016.2551,262.49085204379116
2017.8342,250.6402101887452
2019.4126,223.70076595732462
2020.9902,190.67291400895192
2022.5672,237.85704676603564
2024.1433,245.70355474426106
2025.7188,214.61282608074907
2027.2935,212.38524645558755
2028.8674,187.82119940274606
2030.4406,191.2710663323378
2032.0131,179.88522677627225
2033.5849,192.06405835375335
2035.1559,180.0079368851366
2036.7261,212.21723627014762
2038.2957,190.5923286084344
2039.8645,205.98358387747248
2041.4325,243.1913701488229
2042.9998,194.2160534342147
2044.5664,227.00799731346342
2046.1323,203.9175634242347
2047.6974,192.9951111341161
2049.2617,221.14099777152478
2050.8254,226.90557873493162
2052.3883,235.68920721140057
2053.9504,233.99223411895218
2055.5118,214.81500801871516
2057.0725,184.80787513189716
2058.6325,230.02117953156085
2060.1917,208.30526344269674
2061.7502,237.61046679008723
2063.3079,214.5371274154695
2064.8649,190.93558078447677
2066.4212,187.25616021737915
2067.9767,196.24919712509472
2069.5315,213.5650210459862
2071.0856,193.45395955592176
2072.6389,170.96633809512787
2074.1915,153.50248016929072
2075.7433,112.66270757444181
2077.2945,163.49734057159003
2078.8448,147.00669829512753
2080.3945,135.0410982444755
2081.9434,152.7008564489861
2083.4916,121.68628758761042
2085.039,130.34770481229316
2086.5857,145.98542005811942
2088.1317,149.49974395670324
2089.677,142.94098567980564
2091.2215,149.05945290419822
2092.7652,121.90545187724638
2094.3083,149.37928735572405
2095.8506,149.68126287736595
2097.3921,186.56168048611562
2098.933,170.4708407291073
2100.4731,174.05904228786403
2102.0124,199.3765821392053
2103.5511,209.67375551936493
2105.089,219.25085567080896
2106.6261,210.70817373927275
2108.1626,211.54599867798333
2109.6983,191.5146173330968
2111.2332,226.71431443530855
2112.7675,189.29537280017485
2114.301,200.00807297611027
2115.8337,198.25269361857954
2117.3657,206.17951138297394
2118.897,221.73880094215656
2120.4276,211.28083490719928
2121.9575,188.90588367179316
2123.4866,195.61421551682542
2125.0149,207.10609683412713
2126.5426,184.03179205938977
2128.0695,201.69156355724408
2129.5956,200.33567185200445
2131.1211,191.81437545107383
2132.6458,190.0779308584988
2134.1698,187.026592660186
2135.693,216.1606135412676
2137.2155,225.53024431661743
2138.7373,223.48573363949527
2140.2584,208.3773279078614
2141.7787,193.7052712848208
2143.2983,192.9198058497086
2144.8171,185.7211717448099
2146.3353,192.95960718321385
2147.8527,171.28534852079883
2149.3693,191.79863018385004
2150.8853,171.69968488580434
2152.4005,189.03874342211384
2153.9149,180.1660348712312
2155.4287,154.78178642122566
2156.9417,204.03622345850727
2158.454,195.62956982167452
2159.9655,193.8620473089668
2161.4764,193.53387576232672
2162.9865,190.8952730850824
2164.4958,196.19645524523276
2166.0045,183.48763630182475
2167.5124,185.3690283519427
2169.0195,185.59084165779495
2170.526,222.35328462790403
2172.0317,220.5065638148808
2173.5367,176.7008835478091
2175.0409,200.53644595070364
2176.5445,219.7634513805806
2178.0473,208.98209818909254
2179.5494,186.1925825302642
2181.0507,200.94509846830624
2182.5513,199.88983820550584
2184.0512,210.27699193469743
2185.5504,194.7067478498193
2187.0488,173.67929204204393
2188.5465,177.3948086554774
2190.0435,177.05348009743648
2191.5397,161.55548700128475
2193.0353,167.80100822985787
2194.5301,143.2402210304317
2196.0241,163.92330097228114
2197.5175,181.75042219227453
2199.0101,149.27175718805665
2200.502,133.58747663976555
2201.9931,145.647749734826
2203.4835,140.20274432478527
2204.9733,117.10262680471897
2206.4622,132.84756216767892
2207.9505,132.7377142356927
2209.438,122.72324550231951
2210.9248,112.10431713373873
2212.4109,117.58108906889902
2213.8962,134.90372012570788
2215.3809,121.52236794626515
2216.8648,135.18718882363464
2218.3479,130.89833783566246
2219.8304,140.65596870832178
2221.3121,128.160233858609
2222.7931,115.76128429696291
2224.2733,115.35926975222628
2225.7529,104.85433879562879
2227.2317,78.24663884481379
2228.7098,110.43631626887964
2230.1872,89.22351665445876
2231.6638,118.60838448382492
2233.1397,81.24106334702083
2234.6149,84.17169564800679
2236.0894,109.00042297833897
2237.5632,109.72738608785676
2239.0362,108.8027246363963
2240.5085,111.17657718652845
2241.9801,84.74908121279441
2243.4509,77.62037307797527
2244.921,91.09058829736477
2246.3904,77.05986161004967
2247.8591,71.22832684422247
2249.3271,62.24611705747884
2250.7943,83.56336459513568
2252.2608,70.53020118005406
2253.7266,71.69675769946207
2255.1917,83.36316433528464
2256.656,76.77955055248549
2258.1197,51.69604498240005
2259.5826,58.91277548856942
2261.0447,73.72986941757881
2262.5062,73.0474535268877
2263.9669,106.26565383666184
2265.4269,95.23459563659344
2266.8862,84.30440315371561
2268.3448,78.12519966271884
2269.8026,103.84710759525115
2271.2598,89.17024860171296
2272.7162,101.49474329403438
2274.1719,84.92071139245036
2275.6268,96.44827160224759
2277.0811,101.27754177950828
2278.5346,94.25863881583427
2279.9874,101.74167859005229
2281.4395,111.8767760384053
2282.8908,93.11404507972384
2284.3414,105.2035985140692
2285.7914,84.19554821036672
2287.2406,99.49000498550777
2288.689,99.93707881442788
2290.1368,103.13687867717272
2291.5838,113.83951255441389
2293.0302,116.44508739545836
2294.4758,100.50370901122187
2295.9206,94.91548204816718
2297.3648,122.13051014772827
2298.8082,105.8488960021823
2300.251,99.87074108250727
2301.693,102.89614580119087
2303.1343,122.17520957201577
2304.5748,96.50803077980436
2306.0147,108.99470658762948
2307.4538,94.18533319348353
2308.8922,107.68000570541699
2310.3299,112.17881828962618
2311.7669,107.7318640355088
2313.2031,92.88923491067726
2314.6387,99.65102180543181
2316.0735,81.46731468118014
2317.5076,74.43820250282442
2318.941,105.91377342059786
2320.3737,100.44411484035845
2321.8056,103.02931310882377
2323.2369,98.4194535682791
2324.6674,107.56462053071209
2326.0972,90.11489732391965
2327.5263,98.17036620005456
2328.9547,97.23110851012007
2330.3823,93.9972046234252
2331.8092,127.41873393696733
2333.2355,88.84577490777792
2334.661,111.72840471870131
2336.0858,98.71669966412719
2337.5098,117.31073492116138
2338.9332,104.5105846797469
2340.3558,106.66632195672264
2341.7778,106.12801872382079
2343.199,113.79574588611013
2344.6195,113.06957328737826
2346.0393,111.79956963346285
2347.4583,111.13580249950519
2348.8767,126.57833834265148
2350.2943,128.42724250869287
2351.7113,132.8825790776391
2353.1275,126.94441084522805
2354.543,118.36279927837131
2355.9578,121.03780457453922
2357.3718,98.71948574757516
2358.7852,92.95790060094805
2360.1978,98.10310595093506
2361.6098,105.00515768423884
2363.021,114.66411070653521
2364.4315,111.28001887344817
2365.8413,107.35293489396008
2367.2504,107.53291036426072
2368.6587,92.0199958070134
2370.0664,89.06424066955151
2371.4733,84.1156934790124
2372.8795,99.37440187189168
2374.285,82.94041264353746
2375.6899,73.71377159554959
2377.0939,71.74452370013205
2378.4973,76.43271319235555
2379.9,63.72838358984609
2381.3019,70.43157764590524
2382.7032,69.04233747655326
2384.1037,73.6107044934979
2385.5035,53.43671941802768
2386.9027,62.62042223532535
2388.3011,68.66185239620563
2389.6987,60.86104872527994
2391.0957,74.26804936054577
2392.492,60.132891831390225
2393.8876,38.05561292452148
2395.2824,37.83624882531831
2396.6765,46.62483533860768
2398.07,42.82140789085406
2399.4627,46.326001442278994
2400.8547,29.388650524886998
2402.246,40.00938920742283
2403.6366,48.48825126474412
2405.0265,20.125270071615432
2406.4156,44.17047851792222
2407.8041,22.27390929228568
2409.1918,20.335594641635907
2410.5789,45.25556659016138
2411.9652,27.283856958698834
2413.3508,52.720497115530634
2414.7358,30.615518156102553
2416.12,22.568950648654663
2417.5035,33.23082485527493
2418.8863,24.10117081236058
2420.2684,17.980018224005107
2421.6497,35.06739655328738
2423.0304,15.663335083491347
2424.4104,24.067862747225263
2425.7896,23.98100832047112
2427.1682,11.702800338532597
2428.546,7.633267096905456
2429.9232,23.522436774059315
2431.2996,21.170337472131905
2432.6753,20.126997058037432
2434.0503,37.292443186988294
2435.4246,31.51670331293235
2436.7982,20.849804516893073
2438.1711,26.041773564728373
2439.5433,12.54263701380114
2440.9148,20.05242116105501
2442.2856,25.921152178009834
2443.6557,15.398856035663357
2445.025,-3.864441554197583
2446.3937,13.381284966227668
2447.7617,16.186099760509933
2449.1289,24.450066858410082
2450.4955,45.07325012783258
2451.8613,38.25571319217897
2453.2265,36.6975192241207
2454.5909,31.498731013772613
2455.9546,49.00941098427393
2457.3177,37.82962124377946
2458.68,45.4094234103527
2460.0416,41.29887872376048
2461.4025,46.698047969679465
2462.7627,47.556991520797055
2464.1222,58.425769282824604
2465.4811,46.90444068590523
2466.8392,49.443064575925746
2468.1966,50.59169932972736
2469.5533,67.8504028297225
2470.9093,70.06923245240796
2472.2645,66.84824489577977
2473.6191,75.63749615714096
2474.973,56.637041565314576
2476.3262,78.54693569275105
2477.6787,53.967232545530806
2479.0305,53.39798534426791
2480.3816,49.28924676990482
2481.7319,57.44106896940775
2483.0816,56.70350359685108
2484.4306,47.52660173190043
2485.7789,40.46041388718777
2487.1264,56.804990100080886
2488.4733,38.41038000334356
2489.8195,52.476632661694566
2491.165,43.353796755750864
2492.5097,51.691920441364346
2493.8538,51.49105144084888
2495.1972,38.501236959602466
2496.5398,32.72252368811223
2497.8818,24.55495793185446
2499.2231,41.34858566908406
2500.5637,31.453452632506924
2501.9035,25.719604141345826
2503.2427,34.14708520028944
2504.5812,37.48594055683043
2505.919,40.48621461699122
2507.256,27.247951411936356
2508.5924,49.021194567970724
2509.9281,40.955987438921966
2511.2631,26.352372888404716
2512.5974,41.56039337047923
2513.9309,36.38009107568132
2515.2638,32.76150777894418
2516.596,42.654684891399484
2517.9275,49.25966349656619
2519.2583,34.426484251417605
2520.5884,32.15518732032979
2521.9178,26.49581252341659
2523.2465,35.89839935924056
2524.5745,49.0629870614066
2525.9018,30.489614504535894
2527.2284,27.3783200726225
2528.5543,35.979141844764854
2529.8796,49.29211762628074
2531.2041,40.11728486269703
2532.5279,45.104680506623026
2533.851,31.45434110949509
2535.1735,43.96630277170334
2536.4952,45.54060127909497
2537.8163,55.8772719778558
2539.1366,42.2263497587669
2540.4562,50.687868953838006
2541.7752,57.91186347281564
2543.0935,67.29836671856992
2544.411,72.49741151485432
2545.7279,66.10903001243878
2547.0441,85.38325363712238
2548.3596,90.37011315361451
2549.6744,76.26963847279285
2550.9885,75.23185860183457
2552.3019,85.95680178522025
2553.6146,86.94449551511252
2554.9266,74.54496642410777
2556.2379,78.60824027535637
2557.5485,81.38434208656236
2558.8585,62.723296089346604
2560.1677,88.7251257014891
2561.4762,84.88985371353647
2562.7841,86.61750202878511
2564.0913,91.35809170163338
2565.3977,94.0116429203058
2566.7035,97.22817495944719
2568.0086,94.05770615358779
2569.313,108.6502538649761
2570.6167,103.60583451528692
2571.9197,98.17446343969186
2573.222,111.75615493730584
2574.5236,120.25092232549969
2575.8246,117.50877780408246
2577.1248,132.0797323703555
2578.4244,123.5637958465336
2579.7232,130.2109767340362
2581.0214,118.32128229864475
2582.3189,149.2947185040307
2583.6157,141.481290130655
2584.9118,142.38100046603176
2586.2072,139.54385138286352
2587.5019,136.91984333004575
2588.7959,146.5589753610334
2590.0893,146.11124516008704
2591.3819,160.92664894587688
2592.6739,153.85518147596167
2593.9652,169.94683589863507
2595.2557,168.1016038236421
2596.5456,154.56947516125865
2597.8348,168.5504381407486
2599.1234,168.39447944568064
2600.4112,158.90158407412127
2601.6983,167.32173534019284
2602.9848,171.55491496900322
2604.2705,160.4011030124425
2605.5556,168.5602778068528
2606.84,156.33241608456638
2608.1237,164.51749289231248
2609.4067,167.5654817134964
2610.689,154.4263543863508
2611.9707,157.20008107345393
2613.2516,159.08663039312296
2614.5319,158.98596939167328
2615.8115,157.34806352455553
2617.0903,156.8728766573622
2618.3685,144.16037108220735
2619.6461,167.91050752247656
2620.9229,157.4232452599531
2622.199,146.9485418973154
2623.4745,158.28635346301098
2624.7493,159.4866345160017
2626.0234,161.54933803238873
2627.2968,156.67441539340598
2628.5695,143.56181636479369
2629.8415,151.5614891455507
2631.1128,150.62338049905838
2632.3835,137.9474356730857
2633.6535,147.38359840916655
2634.9228,149.4318110693648
2636.1914,145.79201454190706
2637.4593,152.76414822070046
2638.7265,146.79815004173497
2639.9931,159.14395641336
2641.259,160.451502275944
2642.5242,137.42072097841583
2643.7887,142.60154426519193
2645.0525,143.2439025064807
2646.3156,143.4477246464753
2647.5781,136.31293819692928
2648.8398,144.4894692351204
2650.1009,121.47724247519818
2651.3613,128.97618118641913
2652.6211,141.38620742326884
2653.8801,141.60724195047214
2655.1385,139.5892041188922
2656.3961,144.8320118633219
2657.6531,147.78558172266548
2658.9094,153.89982878750584
2660.1651,149.17466667057283
2661.42,134.71000744559547
2662.6743,147.25576169455826
2663.9279,158.11183865234602
2665.1808,165.67814608128856
2666.433,170.05459016259942
2667.6846,165.04107542071029
2668.9354,155.8875046795074
2670.1856,162.69377911246715
2671.4351,178.45979833419233
2672.6839,169.58546033234916
2673.9321,180.47066131000656
2675.1795,180.2652957743801
2676.4263,184.2192564279801
2677.6724,178.8824341706652
2678.9179,176.5047180601032
2680.1626,193.3359953651368
2681.4067,178.17615158956278
2682.6501,173.32507030381907
2683.8928,186.1326332965832
2685.1348,170.04872062328218
2686.3761,175.47321047801893
2687.6168,170.95597935441015
2688.8568,165.19690199134175
2690.0961,161.64585141814086
2691.3348,161.6026990121652
2692.5727,152.91731453431544
2693.81,165.13956612946663
2695.0466,145.3193204133206
2696.2826,155.5064423501833
2697.5178,154.85079545116878
2698.7524,151.80224167232745
2699.9863,164.660641421204
2701.2195,146.6758535873198
2702.452,168.54773541359214
2703.6839,170.17614267618092
2704.9151,181.66092946576964
2706.1456,165.55194817128017
2707.3755,178.99904936502594
2708.6046,184.1520819638008
2709.8331,198.4108930944085
2711.0609,191.97532804213256
2712.2881,200.34523010814928
2713.5145,205.82044067388188
2714.7403,228.1007991173019
2715.9654,220.53614275817858
2717.1899,227.32630663527289
2718.4136,260.57112358198447
2719.6367,253.07042415845126
2720.8591,262.5240363191001
2722.0809,283.3317854876543
2723.3019,287.193494462598
2724.5223,281.25898320909755
2725.7421,299.37806882038535
2726.9611,299.8505655771032
2728.1795,296.5762847661126
2729.3972,284.85503467576996
2730.6142,268.63662062866797
2731.8306,251.8708450988504
2733.0462,226.7075078739947
2734.2612,218.7964062230701
2735.4756,196.98733514797254
2736.6892,189.58008746263317
2737.9022,168.17445401111127
2739.1145,163.42022374166413
2740.3262,150.86718392080638
2741.5372,129.71512018085036
2742.7475,107.11381664543774
2743.9571,114.71305614105813
2745.1661,103.96262042306489
2746.3744,85.51229009968051
2747.582,85.71184473950211
2748.7889,84.21106305600438
2749.9952,69.70972290554437
2751.2008,57.20760130236954
2752.4057,52.104474563630674
2753.61,47.95011843440261
2754.8136,41.99430813871686
2756.0165,37.93681842110368
2757.2188,35.02742360615139
2758.4204,43.81589763908187
2759.6213,29.302014114843132
2760.8215,40.13554619022534
2762.0211,29.5162667289992
2763.22,24.64394819358199
2764.4182,26.418362751228642
2765.6158,17.83928232275639
2766.8127,-3.7435214352012736
2768.009,14.219722955597717
2769.2045,3.8788243711742325
2770.3994,5.083591545351965
2771.5936,-4.816166826832159
2772.7872,-3.0206421011766906
2773.9801,-15.929977519973818
2775.1723,-11.594286149302206
2776.3639,-18.61352191476658
2777.5548,-3.3875229150530686
2778.745,-20.415941299766246
2779.9346,-13.048395377157476
2781.1235,-18.084299500225143
2782.3117,-10.622937668498707
2783.4992,-12.46341321935779
2784.6861,-10.20472336703483
2785.8723,-6.895740816263924
2787.0579,-9.335236326593304
2788.2428,1.1280882308797118
2789.427,14.845624244066812
2790.6106,9.06876308959977
2791.7935,16.298895995654448
2792.9757,32.137414099720445
2794.1573,33.53570837629832
2795.3382,40.8451694785158
2796.5184,67.16718772414538
2797.698,67.05315302250642
2798.8769,90.00445461124764
2800.0551,95.17248105748604
2801.2327,110.00862002829604
2802.4096,131.51425823902696
2803.5859,147.69078130494313
2804.7615,167.53957352616658
2805.9364,194.06201772591066
2807.1106,214.3094950519951
2808.2842,248.38338471161887
2809.4572,280.8350637688875
2810.6294,301.2659068040739
2811.801,342.8272855891032
2812.972,398.4705688832405
2814.1423,431.49712201747957
2815.3119,468.3083063381082
2816.4808,521.3054788764457
2817.6491,575.0399919807264
2818.8167,619.2631927861335
2819.9837,656.9764226774496
2821.15,698.681016846828
2822.3157,745.3283039166529
2823.4807,799.9196055225027
2824.645,834.6062358466711
2825.8086,873.3895010722583
2826.9716,910.4706990363011
2828.134,939.9011188419413
2829.2957,978.982040487615
2830.4567,987.6147345727477
2831.617,1017.9004619069456
2832.7767,1023.290473423669
2833.9358,1019.586009877374
2835.0941,1020.3883017896123
2836.2519,1008.1485694860762
2837.4089,1001.2180230885751
2838.5653,1004.247862637433
2839.7211,989.4892781607957
2840.8761,994.7434496443275
2842.0306,1026.8115471788026
2843.1843,1057.0447309075605
2844.3374,1105.944150705827
2845.4899,1162.31094587838
2846.6417,1248.0962446705594
2847.7928,1311.8511637045954
2848.9433,1403.426807121757
2850.0931,1473.2242659448013
2851.2422,1543.6446171622185
2852.3907,1618.6389230302568
2853.5385,1696.0082303687186
2854.6857,1744.3535698110175
2855.8323,1779.4759550304868
2856.9781,1846.0763822569245
2858.1233,1893.1058299253693
2859.2679,1920.765258010098
2860.4118,1981.8056075543304
2861.555,2001.4278003936345
2862.6976,2051.482738545523
2863.8395,2060.571304013229
2864.9808,2089.494358285163
2866.1214,2108.352742244021
2867.2614,2132.2972758775577
2868.4007,2135.8287580900005
2869.5393,2128.247966462604
2870.6773,2156.0056572183366
2871.8146,2165.652565297687
2872.9513,2155.7394040810905
2874.0874,2178.1168652924566
2875.2227,2138.6856190983026
2876.3574,2129.096313883979
2877.4915,2116.649576647977
2878.6249,2094.696013097831
2879.7577,2054.0362077745767
2880.8898,2032.5207242722931
2882.0212,2006.2501056446963
2883.152,2000.4248746202966
2884.2821,1988.495533865104
2885.4116,1986.1625660408802
2886.5405,1980.7764339244316
2887.6686,1996.8875804309403
2888.7962,1982.0464286678225
2889.923,2003.3533817736204
2891.0493,2006.8588230664134
2892.1748,2021.8631158307471
2893.2997,2046.1166032825786
2894.424,2037.4196084192365
2895.5476,2052.1724337768824
2896.6706,2104.5753615174817
2897.7929,2114.978653281277
2898.9145,2155.7325496627577
2900.0355,2178.0372701066262
2901.1559,2215.193012500262
2902.2756,2243.84995295067
2903.3946,2283.2082454129286
2904.513,2297.068021403614
2905.6308,2334.4793896072215
2906.7479,2345.8924357375695
2907.8643,2371.007222163681
2908.9801,2382.1737877956557
2910.0953,2400.6421478335224
2911.2098,2397.16229365557
2912.3236,2378.5341926336705
2913.4368,2369.457788168071
2914.5494,2367.1829998736794
2915.6613,2320.4597236708246
2916.7725,2313.087831808006
2917.8831,2270.417173329126
2918.9931,2259.24757414721
2920.1024,2230.7288374711097
2921.211,2204.5607439172045
2922.319,2196.7930517945833
2923.4264,2169.6754973667303
2924.5331,2172.9577949292
2925.6391,2145.539637080791
2926.7445,2146.5706946907267
2927.8493,2152.6006171728313
2928.9534,2133.329032475226
2930.0569,2117.655547020025
2931.1597,2124.8797458960526
2932.2619,2109.2011930155777
2933.3634,2102.869431042073
2934.4643,2099.6339815469987
2935.5645,2066.094345073121
2936.6641,2036.200001166869
2937.763,2006.3504087137253
2938.8613,1961.3950062371753
2939.959,1898.9332121972002
2941.056,1820.9644254398336
2942.1523,1748.688025821777
2943.248,1633.5533749900894
2944.3431,1558.7598171049497
2945.4375,1459.5566799910048
2946.5313,1368.743275885303
2947.6244,1253.8689024293271
2948.7169,1157.4328435771263
2949.8087,1072.834370744061
2950.8999,981.0727437711641
2951.9904,896.9472117711248
2953.0803,842.6570140459037
2954.1696,766.3013809279912
2955.2582,714.6795343233073
2956.3462,670.0906884747583
2957.4335,639.884050478455
2958.5202,604.0088207296033
2959.6062,585.264193224567
2960.6916,568.949355919623
2961.7764,546.5134909184071
2962.8605,532.4057746350616
2963.9439,534.0253780185947
2965.0267,523.5714666939575
2966.1089,516.5432009458486
2967.1905,522.539735823251
2968.2714,516.4102212097173
2969.3516,515.3538017634044
2970.4312,510.5696169783664
2971.5102,502.3068011951202
2972.5885,527.214483648487
2973.6662,517.0917885502204
2974.7432,527.8878348399301
2975.8196,522.6017362863074
2976.8954,528.532601379166
2977.9705,517.3295333823028
2979.045,502.0916302741898
2980.1188,482.91798486000346
2981.192,472.45768492400464
2982.2645,448.0598134212746
2983.3364,433.67344858231877
2984.4077,405.09766415704394
2985.4783,390.4815295586229
2986.5483,344.4741101492523
2987.6177,327.9244673863136
2988.6864,290.931659282448
2989.7545,270.6947405710516
2990.8219,229.56276307620612
2991.8887,201.63477591504522
2992.9548,182.70982590907659
2994.0204,148.53695786345975
2995.0852,137.06521475625664
2996.1495,100.79363808016001
2997.2131,94.87126795721076
2998.276,68.447143501514
2999.3383,56.22030287846269
3000.4,43.8897835689786
3001.4611,35.454622491780924
3002.5215,21.56385612669135
3003.5812,12.166520598986494
3004.6404,4.211651818305313
3005.6989,-0.2017144273777376
3006.7567,-10.274542392204353
3007.8139,-8.107794315189267
3008.8705,-19.302329792668957
3009.9264,-16.8089274241147
3010.9818,-12.92817297872341
3012.0364,-8.5604843045071
3013.0905,-8.656150097030263
3014.1439,3.034626467380349
3015.1966,0.06172868733710857
3016.2487,-0.6749601688932216
3017.3002,1.2744431663388696
3018.3511,12.259828703535504
3019.4013,21.231086440454078
3020.4509,18.03810625225435
3021.4998,24.280777801785916
3022.5481,22.558990571517597
3023.5958,30.022633801111397
3024.6428,34.17159650463907
3025.6892,48.50576739594658
3026.735,54.025034847164534
3027.7802,58.27928674536622
3028.8247,58.86841043737468
3029.8685,66.69229268722108
3030.9118,77.30081967025285
3031.9544,78.49387689489492
3032.9963,90.97134909656495
3034.0376,102.53312022574062
3035.0783,108.67907332318623
3036.1184,111.00909040433567
3037.1578,118.97305239783248
3038.1966,138.57083912223015
3039.2348,135.80232920635092
3040.2723,134.76739989330974
3041.3092,135.51592706819793
3042.3455,130.4977852684334
3043.3811,144.1628476762752
3044.4161,142.06098616900465
3045.4505,137.04207118227532
3046.4842,131.2059717311315
3047.5173,134.7025554601977
3048.5498,129.73168870203824
3049.5816,133.5432364421929
3050.6128,126.33706236888372
3051.6434,124.11302883490077
3052.6734,117.87099692966444
3053.7027,125.56082650146413
3054.7314,119.43237621988055
3055.7594,118.68550349888608
3056.7868,114.97006455812993
3057.8136,109.13591443040627
3058.8398,109.98290699880909
3059.8653,100.66089505507364
3060.8902,107.76973029110638
3061.9145,109.25926339220484
3062.9381,104.0293439659697
3063.9612,101.17982052740854
3064.9835,96.51054055123632
3066.0053,100.12135050036977
3067.0264,83.71209587262103
3068.0469,87.18262116458868
3069.0668,83.68277003575088
3070.086,82.3123852737599
3071.1046,68.37130882944041
3072.1226,72.2093818304943
3073.1399,57.226444720909626
3074.1567,49.322337222581496
3075.1727,55.99689848514038
3076.1882,38.59996716499393
3077.203,37.48138135858096
3078.2173,35.69097877634067
3079.2308,32.928596753899
3080.2438,29.44407226997174
3081.2561,22.487241973988944
3082.2678,16.057942220939992
3083.2789,17.15600914094165
3084.2893,15.431278703531405
3085.2991,2.033586706686549
3086.3083,3.462768794071849
3087.3169,6.5686605890160195
3088.3248,7.101097680220505
3089.3321,5.309915590700257
3090.3388,-6.005050227540551
3091.3449,-2.7939643755967154
3092.3503,-4.90693146411121
3093.3551,-0.2940281920230632
3094.3593,-3.3552822380264615
3095.3629,-2.1407183434744184
3096.3658,-0.6503277304502149
3097.3681,1.1159197647384644
3098.3698,0.9080608025579977
3099.3708,-5.67386796768443
3100.3713,-2.029829905761801
3101.3711,-1.8097316895062363
3102.3702,-4.863459718749027
3103.3688,7.159117685897854
3104.3667,1.7081807897843646
3105.364,8.783909786669597
3106.3607,6.336484853231127
3107.3568,2.816086078307592
3108.3522,-1.4271065126272333
3109.347,11.357087077739834
3110.3412,7.168861103515951
3111.3348,7.208409705237557
3112.3277,-0.27407304824737366
3113.32,9.771606839825267
3114.3117,15.395646104209106
3115.3028,10.698241381941727
3116.2932,7.529589156104919
3117.2831,11.789885802797812
3118.2723,18.929327622824076
3119.2608,18.298110799088647
3120.2488,21.74643132520322
3121.2361,28.17448501179871
3122.2229,25.932467452041635
3123.209,20.3205739573537
3124.1944,22.58899957983209
3125.1793,23.187939168368302
3126.1635,23.267587345964216
3127.1471,27.77813850374247
3128.1301,36.369786800150166
3129.1125,31.64272611585301
3130.0942,31.34714996781952
3131.0753,38.08325155659054
3132.0558,36.101223769235844
3133.0357,35.401259111992886
3134.015,32.08354973008721
3134.9936,39.848287414731715
3135.9716,39.9956636363043
3136.949,39.02586946669993
3137.9258,42.98909557785714
3138.902,45.03553225145589
3139.8775,47.56536933928538
3140.8524,51.37879624277963
3141.8267,50.07600188771909
3142.8004,49.057174686096346
3143.7735,52.02250254914418
3144.7459,57.97217289752359
3145.7178,47.006372631670615
3146.689,52.5752880723
3147.6596,56.229105070062786
3148.6295,55.568008949857074
3149.5989,58.79218447429011
3150.5676,62.20181585028925
3151.5357,63.69708669686008
3152.5032,62.478180010990144
3153.4701,59.19527815269615
3154.4364,59.39856285721325
3155.402,58.0382152678236
3156.367,59.014415933824125
3157.3315,64.1273448241295
3158.2952,66.1271813175104
3159.2584,65.9141041514641
3160.221,70.33829140221627
3161.1829,71.34992048685169
3162.1442,71.54916811907233
3163.105,73.736210299081
3164.065,76.96122231158873
3165.0245,71.87437870394461
3165.9834,71.22585325388579
3166.9416,80.4658190204056
3167.8993,78.29444835023892
3168.8563,78.2119127854626
3169.8127,79.56838308520926
3170.7684,84.21402922649247
3171.7236,76.64902039064202
3172.6782,82.32352491684753
3173.6321,86.83771037780838
3174.5854,89.94174352298887
3175.5381,88.48579023347637
3176.4902,90.12001549094077
3177.4417,88.64458339219433
3178.3926,92.95965713284906
3179.3428,93.71539902207113
3180.2924,97.16197043943032
3181.2415,94.29953182734258
3182.1899,95.6282426566041
3183.1377,96.99826145501603
3184.0848,101.109745794097
3185.0314,96.01285227538321
3185.9773,98.65773648931338
3186.9227,105.49455306619774
3187.8674,107.02345564976923
3188.8115,107.04459682881532
3189.755,111.258128121889
3190.6979,111.26419997709732
3191.6402,109.61296172996606
3192.5818,115.104561603379
3193.5229,114.28914672409034
3194.4633,113.5668630678088
3195.4031,118.03785546735153
3196.3423,118.7522676198673
3197.2809,122.06024204212618
3198.2189,122.06192006337581
3199.1563,118.95744179226136
3200.0931,124.296946116809
3201.0292,124.38057073547049
3201.9648,127.95845210372812
3202.8997,124.18072543325857
3203.834,129.9975246561541
3204.7677,129.60898246269971
3205.7008,128.6652302432053
3206.6333,131.36639809189091
3207.5652,131.51261481632434
3208.4964,134.45400791040947
3209.4271,140.14070355292424
3210.3571,131.62282657810644
3211.2865,143.00050041878694
3212.2154,138.07384719156832
3213.1436,145.7429875830483
3214.0712,137.65804089908607
3214.9982,146.8691249881112
3215.9246,139.77635632197274
3216.8503,144.92984990382848
3217.7755,151.37971933907284
3218.7001,153.62607678380158
3219.624,150.6190328803134
3220.5473,157.10869673464623
3221.4701,154.09517594664777
3222.3922,161.42857654507867
3223.3137,157.75900301774794
3224.2346,158.0365582381788
3225.1549,161.61134350230446
3226.0746,157.23345852569258
3226.9937,162.30300140779747
3227.9121,160.3200686757387
3228.83,166.28475523360595
3229.7473,168.2471543822882
3230.6639,171.05735775982683
3231.5799,165.5154553217918
3232.4954,170.17153531317942
3233.4102,166.57568432383147
3234.3244,172.07798724187435
3235.238,170.8285272896777
3236.151,175.3273859688312
3237.0634,179.7246430726393
3237.9752,182.8703766411326
3238.8864,177.71466291709518
3239.797,181.05757631460745
3240.7069,189.34918947060316
3241.6163,188.88957321144025
3242.5251,187.42879646998477
3243.4332,191.3669262902071
3244.3408,188.3040278417896
3245.2477,191.89016438074532
3246.154,194.27539728004712
3247.0598,194.7097859937661
3247.9649,190.79338803321943
3248.8694,196.42625896262643
3249.7733,197.7584524382725
3250.6766,199.79002015218052
3251.5793,199.27101181878874
3252.4814,204.7014751546353
3253.3829,199.78145588354812
3254.2838,204.91099768234037
3255.1841,202.6401422300106
3256.0838,203.21892915644736
3256.9829,205.69739606513787
3257.8814,211.0755785273798
3258.7792,205.4035100574971
3259.6765,207.2312220590577
3260.5731,208.8587438815946
3261.4692,217.03610280232834
3262.3647,211.3133240098921
3263.2595,207.890430522558
3264.1538,209.46744324546484
3265.0474,212.0443810048471
3265.9404,209.8212605322649
3266.8329,210.94809643883434
3267.7247,209.72490123745908
3268.616,208.65168533156168
3269.5066,208.9284570273157
3270.3966,208.20522254437782
3271.286,204.83198601312006
