RamanShift,CorrectedData
30.1047,6678.412186741428
32.3739,6249.655492964506
34.6426,5818.998732403463
36.9109,5388.5917757776215
39.1787,4963.234435616314
41.4461,4535.326470562956
43.7131,4111.417589628621
45.9796,3685.2574564711076
48.2456,3261.145693634041
50.5112,2834.9318868084656
52.7764,2416.4155890739708
55.0411,1994.746325160823
57.3054,1573.6235956351343
59.5692,1152.0968811155508
61.8326,742.4156464844829
64.0955,327.72934510337194
66.3579,-78.66257709049688
68.6199,-480.5606774371321
70.8815,-856.8647274373973
73.1426,-1130.619697790989
75.4032,-1171.4619991189772
77.6634,-604.7667471516534
79.9231,1460.9526452860614
82.1824,6745.2888069890505
84.4412,17661.53435214267
86.6995,37956.73182747939
88.9574,51266.623603116335
91.2148,56395.951669603324
93.4717,56732.75750482393
95.7282,56556.232022702214
97.9842,56223.66556983466
100.2398,55727.397927255435
102.4949,55296.61831376207
104.7495,54793.4653908781
107.0036,54266.077267160894
109.2573,53911.091503233154
111.5105,53354.69511705684
113.7632,52883.974587483
116.0154,52464.265859815714
118.2672,52120.254350519346
120.5185,51666.224951415585
122.7693,51200.21203312359
125.0197,50559.94944960028
127.2696,50457.12054280043
129.519,49933.30814907936
131.7679,49618.494600221165
134.0163,48889.961728676855
136.2642,48566.74087071252
138.5117,48286.51287369465
140.7587,47802.45809932231
143.0052,47339.00642642946
145.2512,46743.68725582546
147.4967,46518.47951492961
149.7417,46033.461663724374
151.9863,45605.461697007384
154.2304,45085.0071492417
156.4739,44668.62509883573
158.717,44400.14217334785
160.9596,43875.28455365018
163.2017,43272.527976613404
165.4433,43006.99774035538
167.6844,42475.31871026868
169.925,42134.61532167591
172.1651,41559.01158514651
174.4047,41252.43108990377
176.6439,40783.64700958082
178.8825,40256.78210528654
181.1206,40089.20873029331
183.3582,39576.8488353057
185.5954,39120.97397013618
187.832,38720.155288828784
190.0681,38139.313554217784
192.3037,37983.61914193594
194.5388,37838.59204622288
196.7734,36782.95188148207
199.0075,37047.66788373104
201.2411,36429.75892115786
203.4742,36338.79349147389
205.7068,35885.589728092935
207.9389,35499.165401040904
210.1704,35099.13792148778
212.4015,34882.024345611935
214.632,34336.741378600374
216.862,34182.55537681986
219.0915,33651.38235326976
221.3205,33328.73797912391
223.549,33157.13758904229
225.777,32743.24618439757
228.0044,32493.828434990988
230.2314,32089.54868319138
232.4578,31744.62094642929
234.6837,31401.708921239802
236.909,31279.275986711804
239.1339,30548.835207917113
241.3582,30359.649337134837
243.582,29974.03082115572
245.8053,29593.49180317403
248.0281,29271.844126643715
250.2503,28959.349339083812
252.472,28478.218695294927
254.6932,28240.413160484197
256.9139,27866.343415076582
259.134,27719.16985709295
261.3536,27163.602605890723
263.5727,26927.10150363562
265.7912,26542.4761208574
268.0092,26250.135758814788
270.2267,25963.58945334179
272.4436,25496.395977771033
274.6601,25279.363845799293
276.8759,25018.751316159352
279.0913,24623.866394790428
281.3061,24341.66683744421
283.5204,24019.760153633717
285.7341,23684.303609455383
287.9473,23470.704230808013
290.16,23135.018806747386
292.3721,22866.00389162227
294.5837,22501.01580843128
296.7947,22155.110651512994
299.0052,22031.89429019591
301.2152,21651.222372257405
303.4246,21387.15032515597
305.6334,21096.283359837857
307.8418,20663.026473377897
310.0495,20350.18445188811
312.2568,20048.111874850314
314.4635,19758.563118244456
316.6696,19544.6923575694
318.8752,19298.653570738417
321.0802,18778.200540217826
323.2847,18645.38685548748
325.4887,18342.815918245222
327.692,18016.44094373509
329.8949,17818.564963772937
332.0972,17473.490830010254
334.2989,17255.721215912876
336.5001,17072.85862021176
338.7007,16567.105369080637
340.9008,16461.16361796468
343.1003,16206.385356638042
345.2992,16020.37241026327
347.4976,15641.076441939083
349.6955,15450.948954560503
351.8927,15102.841294611833
354.0895,14948.554654067877
356.2856,14717.940073875085
358.4812,14578.948445494352
360.6763,14150.580513207271
362.8707,14114.986875505914
365.0646,13752.767989376596
367.258,13539.07417065579
369.4508,13181.355597652284
371.643,13163.862313284197
373.8346,12823.144228656063
376.0257,12641.851123233828
378.2162,12386.332648251991
380.4062,11990.388328526577
382.5956,11919.46756501033
384.7844,11675.969638752125
386.9726,11558.79371160618
389.1603,11342.988828667068
391.3474,10973.003919441464
393.5339,10910.587800006186
395.7199,10515.689176708052
397.9052,10374.606646788008
400.09,10234.838702330111
402.2743,10168.933731672405
404.4579,9789.140020804545
406.641,9649.505754026912
408.8235,9581.229017748497
411.0054,9436.407801883302
413.1868,9278.090000533077
415.3675,9059.573413435544
417.5477,8898.555747547507
419.7273,8733.284619230108
421.9064,8535.707555858957
424.0848,8375.271997476826
426.2627,8291.125298769424
428.4399,7944.714730669766
430.6166,7526.137481199592
432.7928,7624.890658933553
434.9683,7282.621297184916
437.1432,7067.876353018102
439.3176,7103.302710671349
441.4914,6634.997183704159
443.6645,6551.906514643095
445.8371,6439.027379664687
448.0091,6137.506389426497
450.1806,5891.790090195849
452.3514,5809.5249668650795
454.5216,5459.907445408608
456.6913,5595.033893705651
458.8603,5516.400625036375
461.0288,5090.603896730623
463.1967,5243.639910954218
465.3639,5086.954818967002
467.5306,4461.24471959244
469.6967,4704.055660784434
471.8622,4769.53364588449
474.0271,4453.574631193558
476.1914,4404.524525317283
478.3551,4302.179192325631
480.5182,4446.634452243328
482.6807,3980.4860820733447
484.8426,3968.6798143523483
487.0039,4185.911341812156
489.1647,4107.226317497822
491.3248,3677.2703525952893
493.4843,3961.0890172182844
495.6432,3890.227844707835
497.8015,3397.732328794169
499.9592,3555.3479243051916
502.1163,3410.9200520915692
504.2728,3272.194097450476
506.4287,3115.0154115699042
508.5839,2832.129312915902
510.7386,2894.381088804381
512.8927,2810.9159982299534
515.0461,2662.5292712434457
517.199,2751.816109786574
519.3512,2459.4216891758406
521.5029,2444.9411572095996
523.6539,2417.6696370920326
525.8043,1990.9522275779382
527.9541,2249.2840032454333
530.1033,2187.710018763173
532.2519,1980.5253063069758
534.3999,2174.074876175633
536.5472,2272.453718862678
538.694,1891.606803120936
540.8401,2124.1290749787295
542.9856,2145.765461548348
545.1305,2225.11086870086
547.2748,1891.6601808496125
549.4185,1801.258260156901
551.5615,1945.449949868409
553.704,1804.9800752172523
555.8458,1621.6934419820827
557.987,1631.8848378917537
560.1276,1700.44903445823
562.2675,1566.0807868746415
564.4069,1617.924833329671
566.5456,1739.075896351169
568.6837,1399.9286822878057
570.8212,1490.1778800975299
572.958,912.76816473902
575.0942,1323.1441962692115
577.2299,970.0915161910816
579.3648,897.5456527761489
581.4992,818.6421245950914
583.6329,816.666441243171
585.766,881.8959340807342
587.8985,1044.8579263014908
590.0304,448.2297322801751
592.1616,862.7886559430117
594.2922,590.7075234011791
596.4222,238.7091521379989
598.5515,312.5663537297296
600.6802,579.9495550481151
602.8083,87.57606042698899
604.9358,40.163168400707946
607.0626,433.0273026187351
609.1888,-211.51551449955878
611.3144,239.3007351349952
613.4393,48.294182651501615
615.5636,-234.01943143530661
617.6873,59.27515093039983
619.8103,-342.4044743414779
621.9327,111.0086965001392
624.0544,171.33508782700665
626.1756,-61.90598496608436
628.2961,-68.69520819764875
630.4159,-267.11264974543155
632.5351,-371.4876912220934
634.6537,383.0529542150689
636.7716,-354.21371542927227
638.8889,-123.01070598090155
641.0056,-144.0574846706295
643.1216,32.227710147701146
645.237,217.5780792545047
647.3518,-156.17317689205083
649.4659,-35.29286000956927
651.5793,40.65222974604694
653.6922,169.8952925717822
655.8043,-290.58047174180683
657.9159,396.9081348969048
660.0268,-760.552786521519
662.137,8.122861024421582
664.2466,117.07877247854776
666.3556,-85.69135729651316
668.4639,138.45616539109324
670.5716,-97.38496490984835
672.6786,192.32894496489462
674.785,-144.3084108465555
676.8907,-47.85334012936801
678.9958,204.78785077443172
681.1002,352.2088560013144
683.204,-48.49663236006745
685.3072,-259.9849257431124
687.4097,-18.462335096293828
689.5115,-109.13516876813082
691.6127,333.6902650775228
693.7132,-3.7423406317902845
695.8131,84.61070369456866
697.9123,240.64308768470073
700.0109,373.49850012062234
702.1089,-139.57937262203632
704.2061,125.40315209738037
706.3028,233.93975831534044
708.3987,390.5741288143181
710.4941,241.59994403739256
712.5887,667.5608805219599
714.6827,540.3006123894083
716.7761,951.8128070855237
718.8688,1125.3411266531111
720.9608,909.2292236168942
723.0522,1039.3207392482145
725.1429,686.1593057261634
727.233,1503.688544836623
729.3224,221.6020715039558
731.4112,714.3934856156338
733.4993,774.8563848431368
735.5867,803.0343597140381
737.6735,494.9709930073732
739.7596,226.45985947187
741.845,295.9445289065188
743.9298,767.4685688457685
746.014,382.8255438646229
748.0974,129.35901086342346
750.1802,870.3125229142897
752.2624,83.77963179581275
754.3439,298.5538805834658
756.4247,581.5788115149262
758.5048,317.34796384238143
760.5843,610.4548710022354
762.6631,942.0430632574426
764.7413,1042.0060647664068
766.8188,1334.1873902671578
768.8956,1756.030544077672
770.9718,1889.4290171740868
773.0473,1703.2262829722677
775.1221,1288.9157959937875
777.1962,1271.640993728004
779.2697,844.5953007751232
781.3426,1206.072129018983
783.4147,1432.2648818974485
785.4862,1496.3669507877348
787.557,1183.9217127443699
789.6271,1555.0725298582984
791.6966,1007.4127523812786
793.7654,490.83571501438564
795.8335,462.3847423846237
797.901,568.7531542106881
799.9678,371.2842655873974
802.0339,415.321385922085
804.0993,478.0078209092462
806.1641,410.9868720902523
808.2282,387.05183622639015
810.2916,371.34600596906967
812.3544,586.4626700992012
814.4164,165.0451136842894
816.4778,450.0366159272089
818.5385,447.6304543804363
820.5986,589.3199020960674
822.658,794.1982276499111
824.7166,971.6086937245564
826.7747,804.4445550606397
828.832,1200.8990566827051
830.8886,1574.3154355709266
832.9446,1653.5369166964592
834.9999,1077.9567092873476
837.0545,1389.118006036253
839.1085,1585.9139888562931
841.1618,1485.5378257694101
843.2143,1083.2326689384427
845.2662,1115.0916556708908
847.3175,1292.507912441928
849.368,820.224554575856
851.4179,1241.58468447192
853.467,925.2813963271547
855.5155,1125.807771922744
857.5633,843.5568837871178
859.6105,699.671793190646
861.6569,967.5455529681785
863.7027,608.0712089578519
865.7478,852.2417973223492
867.7922,810.0003481437088
869.8359,1131.389882981508
871.8789,752.6534152953755
873.9212,1118.0839472310472
875.9629,1294.0244734077205
878.0039,1430.3179772637377
880.0441,1446.407429297229
882.0837,1438.3857857031617
884.1226,1527.295988212456
886.1609,1521.6309641722255
888.1984,1393.4836256566268
890.2352,1888.3468695235497
892.2714,1423.6135786960294
894.3069,1676.376617213653
896.3416,1543.278834879915
898.3757,1563.7630647345504
900.4091,1213.1221243845794
902.4418,1748.948815799391
904.4739,1514.9359288172054
906.5052,1718.7262357867294
908.5358,1545.96249390734
910.5658,1377.937443191142
912.595,1371.5938081906716
914.6236,997.0742996791014
916.6515,1581.421614713654
918.6786,1025.978440380888
920.7051,1269.4374479531543
922.7309,1371.0912984430252
924.756,1481.1326401687475
926.7804,1428.6041077376794
928.8041,1036.898320945853
930.8272,1410.1078853033177
932.8495,1393.7753959511247
934.8711,1153.0934339293235
936.892,1042.9045663402285
938.9123,1136.4013487552584
940.9318,981.7263263167551
942.9506,934.972032803118
944.9688,1025.2809921754742
946.9862,668.4457190452667
949.003,712.7587177711757
951.019,509.362486027414
953.0344,602.2495143605993
955.0491,688.0122882237338
957.063,884.4432870473029
959.0763,1085.634983381693
961.0888,952.6798409329058
963.1007,1199.8703125505926
965.1119,1229.898841557646
967.1223,1206.7078592782855
969.1321,1394.7397847377215
971.1412,1269.3370248941428
973.1495,1277.591972758346
975.1572,1373.8470086477682
977.1641,1442.4445001039785
979.1704,1322.4768009300533
981.1759,1405.0862505046316
983.1808,1387.9151749816083
985.1849,1473.1058864640436
987.1884,1578.2506831758656
989.1911,1838.841848609918
991.1932,1710.621650476569
993.1945,1769.982338097776
995.1951,1679.2661436893031
997.1951,1681.3652817671027
999.1943,1581.2719500545427
1001.1928,1515.328329461343
1003.1906,1522.0265850845171
1005.1877,1559.2088668678334
1007.1841,1449.567309534832
1009.1798,1436.6440322169365
1011.1748,1297.1311395499506
1013.1691,1177.7207218032781
1015.1627,883.4048562750177
1017.1556,642.7756084860885
1019.1477,689.1750351233568
1021.1392,409.84518644592754
1023.1299,348.7781058211913
1025.12,432.015832518111
1027.1093,370.7504023178699
1029.0979,451.7238466815252
1031.0859,445.3781933626451
1033.0731,410.2554655975764
1035.0596,331.49768216888333
1037.0454,167.49685775658872
1039.0304,117.59500372577895
1041.0148,-54.31587023337488
1042.9985,-146.89375560663757
1044.9814,-77.19664333659603
1046.9636,-187.1310568972258
1048.9452,-233.20351899052912
1050.926,-81.71868287926918
1052.9061,-170.52887212309724
1054.8855,-115.93559391203598
1056.8642,-55.83865185271861
1058.8421,-17.08669135517266
1060.8194,46.471642728989536
1062.7959,-8.962294280921924
1064.7717,56.9628524697182
1066.7469,43.79843792515021
1068.7213,116.19581645999278
1070.695,158.40634201085777
1072.6679,121.63136735245644
1074.6402,89.2222436754746
1076.6117,89.88032095428207
1078.5826,182.90694827104744
1080.5527,110.60347380909661
1082.5221,81.47124392271508
1084.4908,220.56160386015836
1086.4587,392.3258980550163
1088.426,492.26546873527695
1090.3925,404.3316542057073
1092.3584,412.1757878484277
1094.3235,294.1991990022434
1096.2879,315.2032128842329
1098.2515,358.93915176947485
1100.2145,458.50833478107234
1102.1767,487.5120774527313
1104.1382,657.5516907330602
1106.099,858.0784806956071
1108.0591,981.1937468384131
1110.0185,1083.9487800787683
1111.9771,1168.9448615220244
1113.9351,983.7332614340557
1115.8923,766.7652383913082
1117.8488,583.1420411329163
1119.8045,361.76491073037323
1121.7596,347.7850824237321
1123.7139,225.15378783544293
1125.6675,225.77225511011056
1127.6204,397.8417101408195
1129.5726,306.6633765629449
1131.524,315.038474033463
1133.4748,352.7182191427419
1135.4248,266.0538253307459
1137.3741,260.0465025102967
1139.3226,195.74745793364127
1141.2705,278.30789625262696
1143.2176,82.12902016159933
1145.164,189.11202957184287
1147.1097,155.40812357337563
1149.0546,137.76849936507642
1150.9989,150.44435259178135
1152.9424,122.18687752063124
1154.8852,18.99726691431715
1156.8272,-40.82328768631123
1158.7686,25.576215476889047
1160.7092,9.89718598669424
1162.6491,-71.95922208054253
1164.5883,148.70804647866316
1166.5267,131.50076574040577
1168.4644,257.82070829373697
1170.4014,446.71964541270427
1172.3377,708.9493457932113
1174.2732,864.9115736639505
1176.2081,1177.2580861641036
1178.1421,1447.6406317837973
1180.0755,1690.5609472405704
1182.0082,1773.5207547755708
1183.9401,1849.3217597243347
1185.8713,1723.915649687202
1187.8017,1543.554093771294
1189.7315,1411.9887438446094
1191.6605,1104.021236339613
1193.5888,937.3031935688923
1195.5163,854.8862268048106
1197.4432,772.3219379467155
1199.3693,734.311920345106
1201.2947,665.9577596272502
1203.2193,644.3610340773012
1205.1432,728.6733153198729
1207.0664,680.9461685359784
1208.9889,653.0311516199326
1210.9106,701.229815656603
1212.8316,594.3437052005429
1214.7519,661.824357794063
1216.6715,682.8233050360141
1218.5903,774.6920719070331
1220.5084,734.2821765595254
1222.4257,816.1951293990205
1224.3424,692.8324334882127
1226.2583,756.7455837278685
1228.1735,855.4360680904429
1230.0879,904.605366980948
1232.0016,1038.4549522500674
1233.9146,1066.2362867024494
1235.8269,1014.9008227582162
1237.7384,989.8500021751461
1239.6492,784.5352565620087
1241.5592,781.3580076290818
1243.4686,707.6196692413214
1245.3772,769.0716474501169
1247.285,726.1653412306623
1249.1922,776.052141867458
1251.0986,865.2334333833787
1253.0042,813.1105920407826
1254.9092,834.7849854497144
1256.8134,900.0079730891266
1258.7169,1102.4809060901352
1260.6196,1210.2051265837836
1262.5216,1391.8819656763299
1264.4229,1501.0127423719823
1266.3234,1733.048761756152
1268.2232,1785.391313904147
1270.1223,1853.141671560792
1272.0207,1883.6010896170192
1273.9183,1846.9208044323277
1275.8151,1792.9020335302594
1277.7113,1761.495975965132
1279.6067,1679.7038128622517
1281.5014,1661.8767077319899
1283.3953,1773.3158072877159
1285.2885,1959.5722416240533
1287.181,2092.9471231024763
1289.0727,2351.241544488781
1290.9637,2460.356577619292
1292.854,2634.4432708179484
1294.7435,2616.9526478051193
1296.6323,2733.7857059567395
1298.5204,2833.493416479265
1300.4077,2928.8267232412873
1302.2943,2952.2365417764922
1304.1802,2973.0737583303307
1306.0653,2708.789229625876
1307.9497,2590.683782655491
1309.8333,2482.5582173236435
1311.7162,2394.1633076279504
1313.5984,2420.0498027404537
1315.4798,2372.4184278915745
1317.3605,2376.1698841112266
1319.2405,2527.404848705155
1321.1197,2439.4739752174064
1322.9982,2311.377891918015
1324.876,2309.9172026822707
1326.753,2191.7424882717314
1328.6293,2198.354306348796
1330.5048,2238.903192658472
1332.3796,2170.9396609622454
1334.2537,2195.8642026325724
1336.127,2158.127287332518
1337.9996,2151.8793627665036
1339.8714,2187.3708550577103
1341.7426,2163.1021688105466
1343.6129,2164.5736867557243
1345.4826,2147.285769992948
1347.3515,2245.038757976188
1349.2196,2257.28296868657
1351.087,2319.4686976548473
1352.9537,2329.34621783896
1354.8197,2495.215779002192
1356.6849,2640.52760761436
1358.5493,2728.7319051931663
1360.4131,2862.7788468510334
1362.276,2862.9685804130895
1364.1383,2818.851225076676
1365.9998,2618.0768714094847
1367.8606,2349.2455817906666
1369.7206,2147.0573924186465
1371.5799,1953.5623159994066
1373.4384,1783.4603437683618
1375.2962,1745.501447425344
1377.1533,1445.9855808355605
1379.0096,1194.3626804092419
1380.8652,995.5826680967439
1382.7201,792.3954539048245
1384.5742,598.4509378844268
1386.4275,428.3990121625502
1388.2802,358.2895628816914
1390.132,275.2224719003789
1391.9832,207.5476174942196
1393.8336,152.41487518663416
1395.6832,84.5241184255683
1397.5322,43.97521913483797
1399.3803,70.2680483930344
1401.2278,-11.897523160994751
1403.0745,8.728374408921809
1404.9204,-45.05427010479616
1406.7656,3.954532002990163
1408.6101,-17.094780470422847
1410.4538,-26.65180823352057
1412.2968,55.23401878207733
1414.139,8.263536896291043
1415.9805,158.3875818767192
1417.8213,159.75698940833172
1419.6613,237.02259359222808
1421.5006,401.6352269319286
1423.3391,607.1457195607727
1425.1769,809.504897595747
1427.0139,1179.863581082398
1428.8502,1586.7725819712323
1430.6858,2030.132700414135
1432.5206,2346.8947206952653
1434.3547,2569.609406797488
1436.188,2564.8774992347244
1438.0206,2520.89971282483
1439.8524,2394.4267367368884
1441.6835,2336.3092349310027
1443.5139,2329.6978474230236
1445.3435,2263.4431908657243
1447.1724,2256.245858614897
1449.0005,2220.356421391931
1450.8279,2186.725427355752
1452.6545,2221.553402461748
1454.4804,2279.840850798053
1456.3056,2295.888254237263
1458.13,2295.09607185359
1459.9536,2195.0647397623507
1461.7766,1964.644671127946
1463.5987,1680.1862571641213
1465.4202,1437.239869438181
1467.2409,1200.4558627155893
1469.0608,1021.1845773894165
1470.88,828.3263418481911
1472.6984,729.7314742686103
1474.5161,542.8002845441151
1476.3331,432.5830752708571
1478.1493,388.2301436169946
1479.9648,348.5917824248463
1481.7795,321.01828065445443
1483.5935,296.5599237799506
1485.4067,247.5669940652806
1487.2192,281.03977080880577
1489.031,301.1785308332219
1490.842,219.68354815083876
1492.6522,293.00509376219634
1494.4618,231.99343647098794
1496.2705,266.89884215088387
1498.0785,297.82157435563204
1499.8858,273.66189396999835
1501.6924,208.82005890055007
1503.4981,302.8463243172155
1505.3032,291.54094330173757
1507.1075,279.05416590741515
1508.911,297.53623927213266
1510.7138,266.3374077432345
1512.5159,264.00791269271576
1514.3172,242.24799282919776
1516.1178,180.25788422125697
1517.9176,247.78782051498274
1519.7166,195.438033553859
1521.515,169.05875270349497
1523.3126,176.20020537512755
1525.1094,171.162617289403
1526.9055,155.04621240497363
1528.7008,164.8512129688861
1530.4954,89.12783967771975
1532.2893,123.57631157954529
1534.0824,38.446846831178846
1535.8747,114.98966235366606
1537.6663,76.10497468359972
1539.4572,92.14299920767735
1541.2473,130.60395055156187
1543.0367,109.43804241949692
1544.8253,45.34548720971361
1546.6132,129.87649622604658
1548.4003,142.23128031889428
1550.1867,163.1100490398967
1551.9723,209.41301051838673
1553.7572,260.0903712526124
1555.5414,282.69233564669776
1557.3247,370.9191055038682
1559.1074,460.87087980045544
1560.8893,540.5978538035924
1562.6705,604.1502181717333
1564.4509,707.278158157329
1566.2305,742.0318529713659
1568.0094,830.8614747520332
1569.7876,913.4671882172297
1571.565,911.8491497762261
1573.3417,966.1575067036356
1575.1176,997.6423971555814
1576.8928,979.8039496266028
1578.6672,945.6422826348207
1580.4409,890.5575049003382
1582.2138,846.749715686823
1583.986,811.46900535241
1585.7575,839.9654557877111
1587.5282,806.1391407686824
1589.2981,861.3901256716345
1591.0673,870.6684678114798
1592.8358,904.2242158892404
1594.6035,961.2074098992525
1596.3704,974.5680807936151
1598.1366,1026.4062499123684
1599.9021,1035.7719288498665
1601.6668,1088.7151189364267
1603.4308,1194.3858111446425
1605.194,1320.8339855599697
1606.9564,1451.2596103240212
1608.7182,1577.912640370072
1610.4791,1741.8430161188116
1612.2394,1909.200662211806
1613.9988,2075.235485872221
1615.7576,2247.9973752311926
1617.5156,2457.2361976675165
1619.2728,2593.1517980800163
1621.0293,2698.343996795171
1622.785,2657.6625882079643
1624.54,2568.057339729934
1626.2942,2428.977992196018
1628.0477,2200.824260760586
1629.8005,1987.7958362882382
1631.5525,1822.392387635351
1633.3037,1681.8135637803425
1635.0542,1617.5089954777286
1636.804,1506.228296663885
1638.553,1494.8710651001147
1640.3013,1458.8868834854475
1642.0488,1433.8253195702127
1643.7955,1478.5859265158724
1645.5416,1541.568243145648
1647.2868,1600.271793496915
1649.0313,1711.8960861913802
1650.7751,1828.0406138480212
1652.5181,1960.6048519668911
1654.2604,2093.8382577676257
1656.0019,2277.7402688638085
1657.7427,2557.0103019306644
1659.4828,2759.447750866022
1661.222,2938.251983997605
1662.9606,2941.772342058677
1664.6984,2809.1581363999867
1666.4354,2556.0586489545713
1668.1717,2181.923133563898
1669.9072,1737.1008185088485
1671.642,1431.3909102510788
1673.3761,1189.5425978812546
1675.1094,1008.6050561761349
1676.8419,851.3274480170712
1678.5737,694.8589261993584
1680.3048,588.39863500502
1682.0351,484.44571176749923
1683.7646,416.74928793625986
1685.4934,400.8084901163129
1687.2215,386.2224407451831
1688.9488,321.6402582523333
1690.6754,271.7110572050078
1692.4012,266.73394895405363
1694.1263,236.6080421332208
1695.8506,231.1824427089232
1697.5742,209.50625428149397
1699.297,190.72857813945302
1701.0191,178.89851347625518
1702.7404,149.1651575780852
1704.461,85.62760594213978
1706.1808,57.28495257398572
1707.8999,81.03629062291293
1709.6182,92.13071266536826
1711.3358,57.517310467448624
1713.0527,53.79517487393605
1714.7688,49.8133961544645
1716.4841,30.121064040711644
1718.1987,55.46726776622381
1719.9126,67.70109626333942
1721.6257,38.471637909735364
1723.338,49.07798040609305
1725.0496,-17.080788931609277
1726.7605,26.49441672183457
1728.4706,26.5528548286984
1730.18,-19.806217413666673
1731.8886,-26.58354307342961
1733.5964,-20.179667354645062
1735.3036,-22.194869891785856
1737.0099,34.520771275545485
1738.7156,34.86739983449115
1740.4204,-12.804840873001012
1742.1246,13.20419214634967
1743.8279,16.294769806185286
1745.5306,35.16716288810858
1747.2325,2.2216420107888553
1748.9336,5.658477441222203
1750.634,-47.822060575803334
1752.3336,-10.569701852093203
1754.0325,48.86630154293562
1755.7307,33.83680313118384
1757.4281,59.19265594589706
1759.1247,64.13471268196554
1760.8206,92.51382544235094
1762.5158,129.98084568868398
1764.2102,94.53662395745414
1765.9039,84.28200948534322
1767.5968,77.71785056367298
1769.289,91.84499464094188
1770.9804,103.91428838849242
1772.6711,115.97657755921864
1774.361,79.33270686687865
1776.0502,144.8335198654804
1777.7386,143.2798593157131
1779.4263,144.37256652994074
1781.1132,160.062481387733
1782.7994,159.10044232493237
1784.4849,205.58728617678025
1786.1696,162.82384818751052
1787.8535,173.21096154548286
1789.5367,170.44945781082424
1791.2192,190.04016681155917
1792.9009,150.33391667123215
1794.5818,192.88153361299192
1796.2621,192.38384235669582
1797.9415,168.84166569338595
1799.6202,167.65582449027715
1801.2982,184.97713792616196
1802.9755,181.85642350327726
1804.6519,224.79449687409215
1806.3277,219.29217187252107
1808.0027,181.45026008453897
1809.6769,205.4695709032112
1811.3504,204.45091190710264
1813.0231,244.29508862008151
1814.6951,259.8529045215182
1816.3664,272.52516064782685
1818.0369,306.9126554368995
1819.7067,289.2661846013925
1821.3757,278.53654078484396
1823.044,292.4245137381313
1824.7115,302.5308904267731
1826.3783,274.1564548920451
1828.0443,301.1519881499262
1829.7096,284.3182684748317
1831.3741,323.7560711296628
1833.0379,304.91616853414234
1834.701,313.3993298704372
1836.3633,328.8563212715617
1838.0248,292.38790573653387
1839.6856,336.64484297581475
1841.3457,381.627889775993
1843.005,360.68779955720856
1844.6636,392.72532192333347
1846.3214,359.89120287136575
1847.9785,413.88618447105546
1849.6349,411.86100519324646
1851.2904,394.4163993699203
1852.9453,428.80309721445883
1854.5994,410.42182499608134
1856.2528,452.12330469597873
1857.9054,455.5582541911335
1859.5572,484.67738683730386
1861.2083,510.33141143466673
1862.8587,522.2710319366324
1864.5084,511.74694719329636
1866.1572,503.4098508320494
1867.8054,480.2104313628224
1869.4528,486.59937226144575
1871.0994,485.52735220165414
1872.7453,510.09504499119794
1874.3905,493.40311958255734
1876.0349,457.6022398272635
1877.6786,524.8430646428315
1879.3215,563.526248370752
1880.9637,548.1524401040897
1882.6051,573.6722833006534
1884.2458,541.0864159367356
1885.8858,550.7454702518971
1887.525,581.6500730748376
1889.1634,543.9508457268148
1890.8011,527.4984037125887
1892.4381,521.343357097423
1894.0743,575.9363106716064
1895.7098,568.4278640119956
1897.3446,578.2686109360784
1898.9786,551.3591395770836
1900.6118,568.8000322855532
1902.2443,537.8918658984403
1903.8761,542.4352115646998
1905.5071,522.4306350543739
1907.1374,516.9786967131586
1908.7669,524.1799516624524
1910.3957,537.5349498538635
1912.0237,500.0942359972014
1913.651,507.2583494269347
1915.2776,522.3778244765927
1916.9034,499.40319040711984
1918.5285,490.8349712556974
1920.1528,476.2236860654866
1921.7764,496.4698489712955
1923.3992,474.3239693457017
1925.0213,430.1865515965874
1926.6427,424.8080953886001
1928.2633,436.78909608451977
1929.8832,449.03004479905576
1931.5023,415.88142827903357
1933.1207,440.3437287809793
1934.7383,435.46742440260823
1936.3552,448.65298883820833
1937.9714,454.2008914273865
1939.5868,428.96159702322984
1941.2015,381.9855659368277
1942.8154,389.22325418964647
1944.4286,387.17511398330316
1946.041,338.69159362718347
1947.6528,333.07313755892756
1949.2637,364.9201868292548
1950.8739,363.68317915815896
1952.4834,351.26254861644156
1954.0921,360.8087256380695
1955.7001,363.3721371443917
1957.3074,346.95320644867934
1958.9139,345.9523532304811
1960.5197,332.0699936998244
1962.1247,319.5065406072081
1963.729,292.5624033824388
1965.3325,294.6379882602614
1966.9353,289.48369854980047
1968.5374,306.3499346138051
1970.1387,285.78709392019846
1971.7393,267.54557087339344
1973.3392,271.62575701994683
1974.9383,235.4280412309654
1976.5366,221.4528096612994
1978.1342,282.0004461115259
1979.7311,236.17133216770162
1981.3273,254.8158465958859
1982.9227,253.58436580042326
1984.5173,262.7772636375121
1986.1112,245.9449114275103
1987.7044,267.2376778630005
1989.2968,232.80592917712238
1990.8885,244.50002893063538
1992.4795,234.27033835624934
1994.0697,209.0172162416784
1995.6592,229.79101903193987
1997.2479,235.34210108187472
1998.8359,230.7208144484157
2000.4232,232.57750883507106
2002.0097,220.01253163814727
2003.5955,193.92622792817747
2005.1805,197.61894057557402
2006.7648,205.94101051149664
2008.3484,212.64277669090916
2009.9312,246.32457600936868
2011.5133,219.386743236013
2013.0946,227.87961067672768
2014.6752,229.45350844353925
2016.2551,220.15876436968574
2017.8342,213.44570399387158
2019.4126,231.9646506532181
2020.9902,187.21592555038933
2022.5672,209.6498475684175
2024.1433,206.91673371817797
2025.7188,208.3668989140533
2027.2935,195.25065600126163
2028.8674,200.16831574135358
2030.4406,201.4201869433855
2032.0131,177.4565764147319
2033.5849,181.9277889485693
2035.1559,185.3341275635148
2036.7261,202.8758934589123
2038.2957,189.55338598076924
2039.8645,198.01690244633664
2041.4325,195.66673827733757
2042.9998,187.5031869153263
2044.5664,205.47653984519548
2046.1323,205.23708667680694
2047.6974,199.98511496525953
2049.2617,201.37091021328433
2050.8254,223.64475592376857
2052.3883,215.5569335858927
2053.9504,200.7577224523966
2055.5118,196.64739962045496
2057.0725,191.07624017966737
2058.6325,196.0945172531674
2060.1917,181.80250205332504
2061.7502,212.1504638315737
2063.3079,188.68867002132265
2064.8649,183.86738593448354
2066.4212,213.83687499607913
2067.9767,199.6473987924619
2069.5315,184.99921677162274
2071.0856,177.29258638508236
2072.6389,184.82776323437974
2074.1915,137.80500114813003
2075.7433,108.72455210666976
2077.2945,130.33666671229275
2078.8448,131.64159448004557
2080.3945,134.03958362161484
2081.9434,127.1308810322771
2083.4916,133.46573226691817
2085.039,107.74438160912086
2086.5857,140.46707200781475
2088.1317,153.58404533448993
2089.677,146.4455420559716
2091.2215,144.00180110324527
2092.7652,126.15305994284518
2094.3083,137.6495546012884
2095.8506,166.49151984357013
2097.3921,174.2791890581948
2098.933,206.31279396875652
2100.4731,172.8425645560592
2102.0124,176.91872873778357
2103.5511,157.24151270318634
2105.089,184.1111408723409
2106.6261,182.17783609290836
2108.1626,177.14181937143985
2109.6983,172.30330989270897
2111.2332,176.51252507007302
2112.7675,179.56968059386054
2114.301,186.0249903892709
2115.8337,181.0786665858077
2117.3657,196.03091945272536
2118.897,192.08195744849309
2120.4276,179.03198707128104
2121.9575,158.4812128984413
2123.4866,163.37983771700328
2125.0149,192.52806272919224
2126.5426,180.9260875034288
2128.0695,185.72410968286204
2129.5956,177.4723251013811
2131.1211,174.07092773563454
2132.6458,182.22010978755407
2134.1698,191.27006171836547
2135.693,190.97097216710154
2137.2155,189.97302786009277
2138.7373,191.52641361396127
2140.2584,175.58131234560096
2141.7787,170.1879050566431
2143.2983,170.1963709929114
2144.8171,157.1568876983547
2146.3353,179.21963101495567
2147.8527,179.48477521312998
2149.3693,176.6524927710998
2150.8853,168.97295437224238
2152.4005,136.7463289334155
2153.9149,161.22278368175284
2155.4287,148.8024844769261
2156.9417,184.23559556637792
2158.454,157.42227970953172
2159.9655,155.76269782345844
2161.4764,183.10700925100718
2162.9865,175.65537177740225
2164.4958,175.6079413567977
2166.0045,142.71487218679704
2167.5124,167.0763167089235
2169.0195,176.69242593755735
2170.526,192.66334921631915
2172.0317,197.68923412190907
2173.5367,155.02022630439023
2175.0409,191.05646943693955
2176.5445,186.79810564253057
2178.0473,189.7452751335686
2179.5494,169.29811625448838
2181.0507,167.45676545227434
2182.5513,157.02135748092587
2184.0512,195.54202541988252
2185.5504,172.51890077836833
2187.0488,172.65211311019175
2188.5465,155.34179024397963
2190.0435,150.28805828183704
2191.5397,171.79104177245154
2193.0353,159.40086376163435
2194.5301,143.01764557728893
2196.0241,142.59150695330754
2197.5175,143.12256619341133
2199.0101,126.91094017540763
2200.502,118.90674434588345
2201.9931,133.46009288232017
2203.4835,115.47109877313233
2204.9733,110.38987367214122
2206.4622,118.76652807845403
2207.9505,96.30117138728838
2209.438,102.2439118061975
2210.9248,105.09485657972618
2212.4109,97.7541119299849
2213.8962,82.32178302814009
2215.3809,93.64797406781781
2216.8648,116.08278841942956
2218.3479,97.97632851691014
2219.8304,94.22869563336644
2221.3121,91.88999006214272
2222.7931,86.11031115429887
2224.2733,90.43975734199557
2225.7529,65.17842619628755
2227.2317,79.37641438383707
2228.7098,74.8838179195227
2230.1872,74.5007320244622
2231.6638,95.92725117094051
2233.1397,67.66346908623746
2234.6149,74.35947853836478
2236.0894,65.51537161870328
2237.5632,79.83123967503889
2239.0362,62.40717340001174
2240.5085,63.09326268795212
2241.9801,71.53959680911703
2243.4509,72.14626440283064
2244.921,55.06335339302041
2246.3904,51.74095098215366
2247.8591,54.979143822060905
2249.3271,64.22801804716528
2250.7943,44.68765924209856
2252.2608,49.90815234921047
2253.7266,64.8395818639774
2255.1917,45.382031782790364
2256.656,32.53558545364831
2258.1197,51.70032577073289
2259.5826,49.37633530287167
2261.0447,50.56369610189358
2262.5062,44.71248972586818
2263.9669,50.72279722722851
2265.4269,43.144699211284205
2266.8862,60.9782757761177
2268.3448,67.82360658836751
2269.8026,59.930770704890165
2271.2598,76.49984650430815
2272.7162,78.6309117659448
2274.1719,61.27404350412053
2275.6268,74.42931794685319
2277.0811,80.34681070942042
2278.5346,53.67659666281452
2279.9874,72.56874987456013
2281.4395,79.17334387542269
2282.8908,76.54045147048237
2284.3414,74.42014467309036
2285.7914,60.26249473119242
2287.2406,54.01757214853751
2288.689,72.43544682624906
2290.1368,81.26618812527613
2291.5838,86.55986468221636
2293.0302,78.36654432101477
2294.4758,49.38629400001537
2295.9206,61.16917989390731
2297.3648,66.11526768351541
2298.8082,85.424622437974
2300.251,75.8473085652713
2301.693,77.98338961914942
2303.1343,87.93292839487913
2304.5748,79.99598690790117
2306.0147,74.92262629432571
2307.4538,79.36290689030557
2308.8922,80.76688828277656
2310.3299,93.73462926504453
2311.7669,68.16618782274782
2313.2031,70.71162100418223
2314.6387,65.62098517598497
2316.0735,55.79433599768254
2317.5076,75.63172847259284
2318.941,78.58321704609443
2320.3737,84.44885540725409
2321.8056,75.3286964593035
2323.2369,78.72279226098999
2324.6674,91.58119411777534
2326.0972,79.60395254789546
2327.5263,71.44111715376766
2328.9547,50.39273674177366
2330.3823,71.40885940388489
2331.8092,96.73953272814288
2333.2355,68.68480358850229
2334.661,90.34471789152212
2336.0858,71.01932085691351
2337.5098,57.308656800944846
2338.9332,90.01276932969904
2340.3558,83.33170147617693
2341.7778,74.8654953732539
2343.199,81.81419232049029
2344.6195,95.22783286879348
2346.0393,81.05645675093638
2347.4583,80.40010274741235
2348.8767,98.608808828154
2350.2943,90.43261215909388
2351.7113,100.67154892007875
2353.1275,106.77565438662441
2354.543,87.24496282753807
2355.9578,97.32950744387472
2357.3718,82.12932056423915
2358.7852,87.84443354394443
2360.1978,80.37487691700971
2361.6098,84.42068033900978
2363.021,75.98187266177365
2364.4315,71.10848189292801
2365.8413,87.55053528027383
2367.2504,95.90805936053039
2368.6587,89.73107979491306
2370.0664,52.719621285555604
2371.4733,76.87370763727631
2372.8795,76.14336212770695
2374.285,71.72860726573754
2375.6899,62.129464798826575
2377.0939,55.44595575714766
2378.4973,56.07810054958509
2379.9,52.27591903055509
2381.3019,62.03943049369536
2382.7032,51.518653709887076
2384.1037,59.21360682961404
2385.5035,61.22430748817487
2386.9027,53.70077272873459
2388.3011,53.693018982210106
2389.6987,61.40106214251409
2391.0957,65.42491756663276
2392.492,38.614599997546975
2393.8876,29.620123523986877
2395.2824,37.49150184853261
2396.6765,33.12874837756772
2398.07,48.631876142562305
2399.4627,29.850897843696657
2400.8547,17.385825694835148
2402.246,30.686671611334077
2403.6366,35.45344733469801
2405.0265,12.936164299561824
2406.4156,28.984833586032437
2407.8041,25.59946614485125
2409.1918,29.380072636917248
2410.5789,11.726663467117305
2411.9652,19.33924874655213
2413.3508,12.467838469052822
2414.7358,28.912442435060257
2416.12,17.423070320337047
2417.5035,21.999731511521986
2418.8863,34.14243522102424
2420.2684,18.151190441258677
2421.6497,8.87600582321511
2423.0304,3.1168898363766857
2424.4104,2.9738508614691455
2425.7896,3.246897248051482
2427.1682,9.286037315947397
2428.546,8.49127935251363
2429.9232,10.712631552247785
2431.2996,13.950102024737134
2432.6753,19.10369877244466
2434.0503,-1.5265703416694123
2435.4246,4.809302354321517
2436.7982,3.9613397827802146
2438.1711,15.279564817980372
2439.5433,23.964000294582547
2440.9148,14.064668894455735
2442.2856,3.431593059828174
2443.6557,8.314795092287113
2445.025,8.764297259103841
2446.3937,15.280121744404823
2447.7617,0.5122906446763409
2449.1289,7.110825903602745
2450.4955,12.425744347084219
2451.8613,21.60706272991365
2453.2265,6.204797682627941
2454.5909,16.818965619694154
2455.9546,35.399582893530805
2457.3177,29.34666568836792
2458.68,26.710229834443
2460.0416,25.840290868528427
2461.4025,23.386864060297285
2462.7627,33.99996442101974
2464.1222,37.329606728101226
2465.4811,38.32580541894458
2466.8392,21.23857455765983
2468.1966,30.86792782510065
2469.5533,35.56387868973707
2470.9093,43.5764403113626
2472.2645,51.20562549412989
2473.6191,62.75144660643127
2474.973,49.163915504601846
2476.3262,39.693043417465105
2477.6787,47.138841082206454
2479.0305,33.70131883908107
2480.3816,38.680486556957476
2481.7319,35.37635376769276
2483.0816,34.1389296163411
2484.4306,34.56822289419506
2485.7789,29.964242051160454
2487.1264,38.37699519145963
2488.4733,34.6564901196748
2489.8195,32.452734256621625
2491.165,22.665734676550528
2492.5097,37.345498129187945
2493.8538,16.39203113760641
2495.1972,19.105339851422286
2496.5398,25.03543025633371
2497.8818,19.482308146986725
2499.2231,10.995979067675307
2500.5637,-3.2235516321279647
2501.9035,6.973721287089575
2503.2427,19.337835268120216
2504.5812,16.468827684021107
2505.919,25.866735714472725
2507.256,33.38159637446779
2508.5924,12.71344642033273
2509.9281,26.46232227457631
2511.2631,23.428260232575667
2512.5974,23.461296325084277
2513.9309,20.961466348575414
2515.2638,11.078805864911828
2516.596,27.413350226342118
2517.9275,24.565134674327965
2519.2583,29.4841941761988
2520.5884,19.87056345363453
2521.9178,2.4242769334719014
2523.2465,-1.3546311561563016
2524.5745,19.583873388641678
2525.9018,5.989838304519253
2527.2284,9.863311132296076
2528.5543,19.004339352891748
2529.8796,3.4129703485950813
2531.2041,15.03925131165306
2532.5279,12.233229400183518
2533.851,43.29495162191233
2535.1735,32.62446486223416
2536.4952,33.221815573594085
2537.8163,27.587049882195515
2539.1366,43.67021358202328
2540.4562,29.421352191194273
2541.7752,34.3905107911246
2543.0935,49.47773416901828
2544.411,50.58306676817574
2545.7279,37.70655253712221
2547.0441,34.648234918552134
2548.3596,56.25815697809685
2549.6744,66.1863614349063
2550.9885,49.782890445552766
2552.3019,50.29778550474475
2553.6146,70.98108760936066
2554.9266,65.93283725330457
2556.2379,58.25307422066862
2557.5485,59.741837636219316
2558.8585,55.49916604219061
2560.1677,58.52509738339904
2561.4762,55.169669049667846
2562.7841,58.13291784557259
2564.0913,81.66488002398955
2565.3977,70.51559125646781
2566.7035,67.53508639790789
2568.0086,80.12339959805422
2569.313,84.93056433130096
2570.6167,91.55661327080998
2571.9197,83.40157824043763
2573.222,83.91549014847578
2574.5236,94.59837906920075
2575.8246,90.30027423773572
2577.1248,92.77120394322083
2578.4244,98.01119557179481
2579.7232,105.32027558188292
2581.0214,94.09846945180425
2582.3189,115.04580160667365
2583.6157,111.5622955306244
2584.9118,109.19797355733226
2586.2072,110.75285690485225
2587.5019,108.9269656992592
2588.7959,110.8703189591024
2590.0893,134.03293461366275
2591.3819,128.91482948351904
2592.6739,119.31601904892204
2593.9652,132.78651750097288
2595.2557,118.47633783761512
2596.5456,121.68549172892699
2597.8348,127.66398966022325
2599.1234,125.76184089996514
2600.4112,118.17905343997563
2601.6983,136.86563401445983
2602.9848,135.6715881758323
2604.2705,127.54692010785357
2605.5556,131.39163263756745
2606.84,126.15572731654902
2608.1237,128.93920438245868
2609.4067,124.24206281140005
2610.689,112.11430029008443
2611.9707,113.655913262804
2613.2516,118.66689705270937
2614.5319,117.74724584639353
2615.8115,115.39695264378088
2617.0903,100.31600926732335
2618.3685,102.40440638550444
2619.6461,109.71213366364691
2620.9229,102.23917974303117
2622.199,105.68553216781766
2623.4745,113.30117745977532
2624.7493,116.88610108381931
2626.0234,108.39028737185572
2627.2968,109.26371948693054
2628.5695,104.50637950818827
2629.8415,114.01824842213682
2631.1128,103.54930617022046
2632.3835,102.79953155370231
2633.6535,99.5189023383532
2634.9228,105.4073952619483
2636.1914,97.56498606707396
2637.4593,98.24164944224458
2638.7265,103.88735910032528
2639.9931,108.05208777176472
2641.259,109.88580714813997
2642.5242,106.98848784050824
2643.7887,94.71009936106816
2645.0525,111.55061015213437
2646.3156,94.75998770892056
2647.5781,103.23819841113527
2648.8398,86.7352076908885
2650.1009,91.40097994791017
2651.3613,106.6854787145794
2652.6211,108.78866660926496
2653.8801,90.61050518348293
2655.1385,97.10095490086428
2656.3961,106.50997531893472
2657.6531,115.73752502421303
2658.9094,119.18356153811851
2660.1651,113.64804122469491
2661.42,105.33091925615145
2662.6743,120.48214966821706
2663.9279,116.25168544331291
2665.1808,110.48947835903846
2666.433,123.34547903047974
2667.6846,112.41963696782818
2668.9354,126.71190044782065
2670.1856,120.72221662299899
2671.4351,138.60053137878617
2672.6839,130.04678939338305
2673.9321,128.81093395898665
2675.1795,127.79290706732604
2676.4263,131.19264942202267
2677.6724,142.46010044876743
2678.9179,137.14519826132755
2680.1626,134.39787954887106
2681.4067,137.16807962911344
2682.6501,138.90573247579277
2683.8928,137.710770690966
2685.1348,133.43312548763333
2686.3761,138.97272670168718
2687.6168,129.32950283469017
2688.8568,125.00338099847795
2690.0961,149.2442870115915
2691.3348,114.152145442539
2692.5727,127.22687936738612
2693.81,115.41841072067791
2695.0466,114.27666016469357
2696.2826,121.90154720752685
2697.5178,120.89299021450734
2698.7524,109.25090633194964
2699.9863,117.5252114972393
2701.2195,123.91582055525419
2702.452,127.97264717561961
2703.6839,132.89560378880378
2704.9151,128.48460154554868
2706.1456,127.78955026764038
2707.3755,132.41035849201853
2708.6046,129.94693347772818
2709.8331,148.5991811597105
2711.0609,140.0670061734388
2712.2881,148.100311668396
2713.5145,158.34899939339516
2714.7403,177.71296961624694
2715.9654,171.3421210212723
2717.1899,180.98635051566225
2718.4136,185.29555329318828
2719.6367,183.76962273775757
2720.8591,190.95845038032257
2722.0809,197.81192591413992
2723.3019,210.22993712288212
2724.5223,224.41236981210272
2725.7421,205.0091076850565
2726.9611,216.37003220087513
2728.1795,211.94502276860158
2729.3972,211.58395663357874
2730.6142,196.1367089217008
2731.8306,185.5031526430223
2733.0462,180.93315884623235
2734.2612,166.0265967249884
2735.4756,158.73333366361726
2736.6892,142.5032353861809
2737.9022,129.0861660294088
2739.1145,121.13198830499869
2740.3262,110.14056363378768
2741.5372,89.5617522252935
2742.7475,80.24541318762863
2743.9571,82.39140473328916
2745.1661,74.09958427231777
2746.3744,66.9198083908434
2747.582,64.90193293399943
2748.7889,51.59581307772373
2749.9952,55.851303348933925
2751.2008,49.71825775859065
2752.4057,37.84652975914264
2753.61,35.28597230585797
2754.8136,26.48643797554064
2756.0165,33.94777899213523
2757.2188,26.66984731472212
2758.4204,31.302494562903576
2759.6213,27.545572089583857
2760.8215,17.348930934643477
2762.0211,34.86242186250752
2763.22,32.285895464112855
2764.4182,29.26920198177345
2765.6158,13.012191334945555
2766.8127,20.71471315039389
2768.009,18.02661692476272
2769.2045,9.79775194755075
2770.3994,6.977967327992246
2771.5936,2.2671120773443363
2772.7872,6.365035137084078
2773.9801,-1.528414573982218
2775.1723,-15.013388200697136
2776.3639,-8.690021619042454
2777.5548,-7.508300721251771
2778.745,-11.718124586243448
2779.9346,-9.41931728501254
2781.1235,-7.21158582448993
2782.3117,-11.04454311262839
2783.4992,-6.267730013638811
2784.6861,-3.280577056747461
2785.8723,-8.532452156557383
2787.0579,-11.222690454708527
2788.2428,-1.4505418536446086
2789.427,-7.165144141131577
2790.6106,-4.115620614023555
2791.7935,2.198977010615181
2792.9757,6.579638130770718
2794.1573,19.677352122439515
2795.3382,26.293108295823913
2796.5184,26.82789576435266
2797.698,31.482703378525002
2798.8769,35.25851972056125
2800.0551,52.00633305785436
2801.2327,71.22713130521356
2802.4096,77.62190185738541
2803.5859,87.84163139684665
2804.7615,103.48730582985604
2805.9364,110.55991018425561
2807.1106,119.06042845301636
2808.2842,145.7398435235084
2809.4572,156.54913709250263
2810.6294,185.189289399372
2811.801,215.01127911799836
2812.972,241.76608307037145
2814.1423,275.95467592836803
2815.3119,311.078029946206
2816.4808,341.43711461855673
2817.6491,380.03289632931205
2818.8167,409.1663380479929
2819.9837,460.63839894379225
2821.15,489.50003409423834
2822.3157,523.4021939704767
2823.4807,555.2958241486526
2824.645,582.4318649708903
2825.8086,627.1612512263557
2826.9716,668.5349118798963
2828.134,705.5537696247477
2829.2957,721.4187404687978
2830.4567,746.9307333643974
2831.617,767.4406500497112
2832.7767,767.4993847935991
2833.9358,770.1578241905136
2835.0941,763.8668471599158
2836.2519,754.9773249196885
2837.4089,737.1901210490466
2838.5653,736.0060915774318
2839.7211,723.5760851623852
2840.8761,719.7009431013876
2842.0306,741.8314994561595
2843.1843,751.2685810914127
2844.3374,783.3630074535454
2845.4899,818.5655904762709
2846.6417,877.577134259672
2847.7928,921.0984347181766
2848.9433,976.7802789904413
2850.0931,1027.8734450041388
2851.2422,1079.978700919141
2852.3907,1126.746804616584
2853.5385,1172.8285031778194
2854.6857,1201.8745324167298
2855.8323,1248.6356164189128
2856.9781,1287.0624672512233
2858.1233,1311.9557844941585
2859.2679,1336.616254857593
2860.4118,1386.1445519318434
2861.555,1427.2413359410639
2862.6976,1445.307253247964
2863.8395,1462.7429359428418
2864.9808,1494.9490016629213
2866.1214,1495.8760534179996
2867.2614,1518.4746792683836
2868.4007,1517.195452315621
2869.5393,1538.7389304765131
2870.6773,1534.9556564959073
2871.8146,1550.2461577312629
2872.9513,1560.5609461904814
2874.0874,1548.050518379006
2875.2227,1517.5653551966689
2876.3574,1527.1559220627978
2877.4915,1499.9226692210696
2878.6249,1484.916031643601
2879.7577,1460.686429303284
2880.8898,1439.3842673238498
2882.0212,1433.059936222167
2883.152,1410.9138121212623
2884.2821,1395.446256813562
2885.4116,1388.6576179823562
2886.5405,1401.5982293564718
2887.6686,1407.718410778161
2888.7962,1408.868468073692
2889.923,1411.448692992152
2891.0493,1435.9093631939425
2892.1748,1432.0507422249798
2893.2997,1438.9230792720869
2894.424,1444.1266092015803
2895.5476,1452.5115524905468
2896.6706,1471.1781151748069
2897.7929,1501.526488765066
2898.9145,1521.4068500602486
2900.0355,1535.1193608440162
2901.1559,1567.914167685962
2902.2756,1586.6914018044858
2903.3946,1606.3511787388472
2904.513,1615.2935981613896
2905.6308,1646.318743680947
2906.7479,1654.8766827534166
2907.8643,1685.6174663715092
2908.9801,1681.0411289791691
2910.0953,1687.4476881641663
2911.2098,1704.78714470386
2912.3236,1692.009482501134
2913.4368,1684.914668411
2914.5494,1658.7526523683762
2915.6613,1647.5233674590336
2916.7725,1636.876730181219
2917.8831,1605.3126405579455
2918.9931,1594.7309822434597
2920.1024,1562.931622838882
2921.211,1547.2644139980234
2922.319,1529.92919174538
2923.4264,1508.575776632803
2924.5331,1511.9539739128531
2925.6391,1507.4135737523336
2926.7445,1508.854351198508
2927.8493,1497.0260662245064
2928.9534,1513.1284637149138
2930.0569,1513.861273584056
2931.1597,1516.8242106149764
2932.2619,1521.4669744521048
2933.3634,1508.9392495716306
2934.4643,1510.2907052350733
2935.5645,1496.6209956145608
2936.6641,1482.3797597793143
2937.763,1449.166621832345
2938.8613,1423.5811910528673
2939.959,1379.3730622284286
2941.056,1343.9418159107665
2942.1523,1278.0370188578875
2943.248,1230.6082243883798
2944.3431,1155.754973040463
2945.4375,1087.4267930462756
2946.5313,1013.4732010804064
2947.6244,940.1937029431776
2948.7169,865.0877943001799
2949.8087,803.1049614150668
2950.8999,726.3946819006154
2951.9904,683.2064253385531
2953.0803,633.1896540466613
2954.1696,578.5438235106574
2955.2582,551.7183828843629
2956.3462,513.2627755361615
2957.4335,480.42643931725365
2958.5202,456.85880694621255
2959.6062,440.65930633734774
2960.6916,420.1273608363807
2961.7764,406.36238938244014
2962.8605,400.36380671338065
2963.9439,396.1310235034334
2965.0267,383.26344642319293
2966.1089,378.5604781819436
2967.1905,391.67151765633525
2968.2714,391.74595993741445
2969.3516,388.03319619951253
2970.4312,395.43261369950164
2971.5102,398.74359581392207
2972.5885,396.66552196498844
2973.6662,406.39776758747996
2974.7432,400.03970414952073
2975.8196,402.0906990552578
2976.8954,395.0001157084414
2977.9705,407.3173134919158
2979.045,388.7916478385231
2980.1188,368.8724701079335
2981.192,364.55912777190065
2982.2645,354.55096461345454
2983.3364,343.7473207700341
2984.4077,327.5475328335683
2985.4783,311.1009339585146
2986.5483,289.1068540238548
2987.6177,263.5646197975627
2988.6864,238.97355515654408
2989.7545,210.23298134205925
2990.8219,195.8922172056332
2991.8887,177.95057949646218
2992.9548,161.20738300482117
2994.0204,140.21194074147934
2995.0852,116.66356410513265
2996.1495,99.01156309235807
2997.2131,81.30524653309817
2998.276,68.29392226717914
2999.3383,52.42689732137592
3000.4,50.003478039524225
3001.4611,37.1229702411905
3002.5215,36.18467924590766
3003.5812,25.0879100019788
3004.6404,10.131967095861
3005.6989,14.666154863132874
3006.7567,17.289777538054068
3007.8139,-1.7478607917772706
3008.8705,-2.34745621165996
3009.9264,-19.059687345763678
3010.9818,-5.485209367171365
3012.0364,-4.524487042689088
3013.0905,-8.527930341882438
3014.1439,-4.595904034691671
3015.1966,-5.128687697033342
3016.2487,-9.126514991743534
3017.3002,2.260431653931846
3018.3511,-8.417939013368482
3019.4013,-1.7117182696098325
3020.4509,3.879086704452561
3021.4998,8.254485828129532
3022.5481,1.7644889819406444
3023.5958,4.109105963860998
3024.6428,18.888346554221698
3025.6892,7.902220492263382
3026.735,19.450737328342825
3027.7802,27.783906533795403
3028.8247,22.901737385449564
3029.8685,23.004238882295454
3030.9118,27.94141979430526
3031.9544,34.86328866140934
3032.9963,39.91985374412377
3034.0376,45.51112295433029
3035.0783,55.387103804712865
3036.1184,51.19780335284452
3037.1578,58.643228102427884
3038.1966,67.32338404518782
3039.2348,67.83827658641758
3040.2723,75.73791045817666
3041.3092,80.82228971414202
3042.3455,73.19141765061215
3043.3811,63.74529675566271
3044.4161,69.93392878545512
3045.4505,72.45731485869851
3046.4842,76.3154553947627
3047.5173,72.8583500884447
3048.5498,72.18599787138703
3049.5816,80.79839694664918
3050.6128,78.4955447954311
3051.6434,77.87743809094934
3052.6734,74.59407272146439
3053.7027,70.24544379646318
3054.7314,71.28154567949161
3055.7594,65.50237203164193
3056.7868,72.00791580119062
3057.8136,65.64816928139157
3058.8398,62.62312404541933
3059.8653,72.68277100996727
3060.8902,64.57710046549755
3061.9145,58.5061019756447
3062.9381,58.46976445827295
3063.9612,55.918076246185706
3064.9835,56.20102508748835
3066.0053,61.018598171106305
3067.0264,58.87078212395443
3068.0469,54.057562962761835
3069.0668,54.178926115550155
3070.086,50.084856469765214
3071.1046,51.1753383710639
3072.1226,49.70035566425469
3073.1399,43.659891682393095
3074.1567,35.95392926153136
3075.1727,35.88245080112358
3076.1882,26.895438341084343
3077.203,29.342873562504224
3078.2173,30.074737877519453
3079.2308,22.341012404837613
3080.2438,24.59167796241934
3081.2561,15.676715144815034
3082.2678,14.196104300658533
3083.2789,14.449825621816899
3084.2893,18.737859158196557
3085.2991,11.110184815205912
3086.3083,8.716782310875487
3087.3169,6.60763125213407
3088.3248,1.9327111587428476
3089.3321,0.8920014843866397
3090.3388,-1.1145183365763387
3091.3449,9.46313112129269
3092.3503,4.12494041747027
3093.3551,4.5209000168019315
3094.3593,3.7510003428839127
3095.3629,1.4652317741034722
3096.3658,-3.5364153486617056
3097.3681,0.2960493008135927
3098.3698,4.612651377544012
3099.3708,8.163413579011262
3100.3713,3.398358556570713
3101.3711,6.117508879943728
3102.3702,-2.779112915131634
3103.3688,6.308515645908187
3104.3667,-7.769555199035665
3105.364,3.6367247248531953
3106.3607,-0.3725167897529218
3107.3568,0.25284801345105734
3108.3522,-0.43704938778694213
3109.347,2.2079199583290006
3110.3412,5.4378893697179365
3111.3348,0.8529921422201028
3112.3277,1.8533615172967757
3113.32,4.6891307278797285
3114.3117,2.4104329883671767
3115.3028,4.517401466266051
3116.2932,7.560169304978842
3117.2831,0.5888696027344054
3118.2723,4.103635382159666
3119.2608,8.35459378307462
3120.2488,1.341871904262348
3121.2361,10.8655967609605
3122.2229,14.025895354988108
3123.209,8.522894579508261
3124.1944,5.656721187425262
3125.1793,10.07750184641452
3126.1635,12.035363167584364
3127.1471,12.230431661268312
3128.1301,14.762833717446483
3129.1125,10.932695603795025
3130.0942,11.890143440361726
3131.0753,13.085303237867663
3132.0558,22.568300888132683
3133.0357,14.5392621521234
3134.015,19.098312565123763
3134.9936,15.895577517025004
3135.9716,20.381182206735616
3136.949,15.55525167420842
3137.9258,19.917910755584444
3138.902,22.719284131452582
3139.8775,27.709496283222506
3140.8524,22.038671465111747
3141.8267,19.356933654242255
3142.8004,26.864406607349736
3143.7735,29.111213887600684
3144.7459,32.39747878951738
3145.7178,31.52332431651041
3146.689,34.03887314801551
3147.6596,29.744247648235557
3148.6295,31.039569840984598
3149.5989,33.67496145263431
3150.5676,31.150543899160766
3151.5357,36.16643825979048
3152.5032,31.822765302244733
3153.4701,34.61964543258054
3154.4364,34.25719873862721
3155.402,43.43554496201776
3156.367,31.904803501813433
3157.3315,32.66509332272028
3158.2952,36.716533070396395
3159.2584,37.70924106384916
3160.221,33.99333525492082
3161.1829,38.86893321836118
3162.1442,40.236152188987006
3163.105,42.34510901292572
3164.065,35.595920133943366
3165.0245,38.83870157235489
3165.9834,42.623568992516454
3166.9416,43.30063767039721
3167.8993,46.2200224557308
3168.8563,52.981837765244705
3169.8127,48.28619755346605
3170.7684,45.93321524510381
3171.7236,49.873003782004844
3172.6782,48.405675646684045
3173.6321,52.08134282292639
3174.5854,54.75011681046021
3175.5381,51.96210858820041
3176.4902,54.617428587560966
3177.4417,56.36618672033461
3178.3926,54.808492352140036
3179.3428,59.19445428493407
3180.2924,60.47418077258877
3181.2415,58.097779477031764
3182.1899,60.51535745544905
3183.1377,63.827021184048874
3184.0848,62.83287653388601
3185.0314,63.08302873774514
3185.9773,63.12758240008219
3186.9227,69.51664149452296
3187.8674,66.30030936341751
3188.8115,66.22868865394952
3189.755,66.45188135029974
3190.6979,67.0699887743622
3191.6402,68.53311158351212
3192.5818,70.29134976442504
3193.5229,73.7448026184455
3194.4633,72.89356874400457
3195.4031,76.63774600208535
3196.3423,74.82743152473543
3197.2809,77.6127216776249
3198.2189,79.14371207814952
3199.1563,78.6204975675779
3200.0931,82.69317219574165
3201.0292,81.31182922626743
3201.9648,76.67656109585036
3202.8997,85.18745942806729
3203.834,78.5946150797296
3204.7677,79.39811805577403
3205.7008,83.64805757519125
3206.6333,87.94452206299076
3207.5652,86.78759910770161
3208.4964,87.67737541840778
3209.4271,92.16393683631733
3210.3571,91.54736832586451
3211.2865,95.9777539298443
3212.2154,93.80517677557798
3213.1436,91.32971903060928
3214.0712,94.1014619244304
3214.9982,95.87048577323624
3215.9246,91.58686995220725
3216.8503,97.0506928778191
3217.7755,96.06203205067887
3218.7001,103.42096400088671
3219.624,101.62756429792259
3220.5473,100.13190747705686
3221.4701,108.23406705728425
3222.3922,104.43411555628046
3223.3137,108.08212440938058
3224.2346,106.17816400757853
3225.1549,108.52230366104702
3226.0746,111.96461161817717
3226.9937,106.20515504213705
3227.9121,109.24399997644858
3228.83,117.38121140258224
3229.7473,114.91685320956852
3230.6639,114.25098811262588
3231.5799,110.53367767780429
3232.4954,115.41498232864382
3233.4102,114.44496138334787
3234.3244,116.77367300596995
3235.238,121.00117421611407
3236.151,122.02752086564752
3237.0634,122.45276759642589
3237.9752,118.02696783002962
3238.8864,117.9001737635115
3239.797,123.9724364136546
3240.7069,127.79380561824034
3241.6163,127.61432997532577
3242.5251,128.03405680502988
3243.4332,126.85303215132845
3244.3408,133.77130077785662
3245.2477,128.6889061797193
3246.154,132.25589051430836
3247.0598,133.62229465212673
3247.9649,133.5381581411183
3248.8694,135.10351919300413
3249.7733,135.21841468412376
3250.6766,138.18288013978145
3251.5793,134.9469497330974
3252.4814,133.610656255363
3253.3829,139.0740311484002
3254.2838,142.4371045179243
3255.1841,136.84990507891033
3256.0838,145.16246012196237
3256.9829,144.72479556918535
3257.8814,143.38693589105964
3258.7792,142.6489041108177
3259.6765,144.91072181782263
3260.5731,144.9724091749484
3261.4692,142.83398489596186
3262.3647,145.19546624490582
3263.2595,147.90686905748308
3264.1538,142.11820771744195
3265.0474,147.57949512946192
3265.9404,146.7407427770405
3266.8329,141.1019606678802
3267.7247,145.01315734227617
3268.616,144.07433992950382
3269.5066,144.6855141087071
3270.3966,141.34668411828648
3271.286,137.80785274978734
