RamanShift,CorrectedData
30.1047,441.3440526725859
32.3739,407.504193527866
34.6426,377.26432996970556
36.9109,347.2244535096221
39.1787,318.6845518864898
41.4461,287.8446093669382
43.7131,257.50460703075106
45.9796,227.9645230792662
48.2456,199.97433313877502
50.5112,166.9340105559234
52.7764,138.19352667761405
55.0411,107.1528511814093
57.3054,78.91195236293626
59.5692,48.7707974462935
61.8326,20.179352866459954
64.0955,-8.61241542929335
66.3579,-32.20454169548891
68.6199,-61.596974148619154
70.8815,-80.78933928180493
73.1426,-97.33064823439548
75.4032,-81.86910506024061
77.6634,-10.95194148001434
79.9231,227.07442865796872
82.1824,754.7137009152895
84.4412,1669.5695685827836
86.6995,2923.5957174041514
88.9574,4199.545816427397
91.2148,5102.273505464567
93.4717,5560.682382332251
95.7282,5730.925993824303
97.9842,5756.507831127754
100.2398,5727.481328120375
102.4949,5682.749861114859
104.7495,5606.7667491490865
107.0036,5558.135254433438
109.2573,5478.058583110627
111.5105,5398.589885742016
113.7632,5298.182258108382
116.0154,5201.238742004599
118.2672,5139.662326243724
120.5185,5021.4059476264265
122.7693,4957.27249155675
125.0197,4859.114793224682
127.2696,4762.535638247485
129.519,4698.937763651272
131.7679,4662.973858836802
134.0163,4611.696566215456
136.2642,4578.858481568874
138.5117,4523.712154561734
140.7587,4480.760089070127
143.0052,4430.154743733023
145.2512,4347.1985323817935
147.4967,4275.84382454626
149.7417,4214.542946284262
151.9863,4155.648180895199
154.2304,4090.1117695330477
156.4739,4034.185911795295
158.717,3999.072766378315
160.9596,3987.6744516366234
163.2017,3952.743045934007
165.4433,3937.7305877575086
167.6844,3901.0890760667426
169.925,3845.2204704440137
172.1651,3754.4266914607424
174.4047,3691.3096212361415
176.6439,3632.0711043451593
178.8825,3560.062948449646
181.1206,3522.6869248907433
183.3582,3484.9947694089624
185.5954,3438.238182517948
187.832,3395.268829881398
190.0681,3393.73834278063
192.3037,3352.0483185442718
194.5388,3320.750320563572
196.7734,3299.395878709297
199.0075,3283.7864896447068
201.2411,3286.1736170391086
203.4742,3270.6586917239397
205.7068,3253.9931116689067
207.9389,3230.528242137125
210.1704,3210.9654158517806
212.4015,3176.605933230779
214.632,3158.1510625823703
216.862,3125.9520404487484
219.0915,3093.4100717905976
221.3205,3090.4263303090797
223.549,3075.801958771259
225.777,3047.288069039937
228.0044,2992.6357422198953
230.2314,2972.8460289430363
232.4578,2933.7199499149074
234.6837,2892.608496112596
236.909,2852.312629175992
239.1339,2810.2832818189013
241.3582,2791.321358232004
243.582,2739.0777345031506
245.8053,2731.0532588069755
248.0281,2676.6987519273407
250.2503,2664.2150073375774
252.472,2653.152791744031
254.6932,2621.0128452108997
256.9139,2579.1458812708543
259.134,2564.602587246437
261.3536,2551.583624668733
263.5727,2563.2396294228047
265.7912,2543.9712118778757
268.0092,2548.878956770776
270.2267,2562.963423398624
272.4436,2548.7751455697526
274.6601,2563.714631462859
276.8759,2555.5323637688916
279.0913,2550.228799541654
281.3061,2531.054370279627
283.5204,2529.7094819790036
285.7341,2521.444515325436
287.9473,2503.5598257074835
290.16,2501.655743299258
292.3721,2445.9825732392787
294.5837,2381.690595649507
296.7947,2321.930066192078
299.0052,2272.901216712225
301.2152,2229.1042558358795
303.4246,2189.989369459966
305.6334,2153.256721190365
307.8418,2139.0064527330655
310.0495,2097.03868426149
312.2568,2059.5035145589977
314.4635,1980.5510214385586
316.6696,1925.0312621181133
318.8752,1863.8942740100888
321.0802,1809.9900752766025
323.2847,1776.618665440832
325.4887,1751.780025926053
327.692,1725.4241203893544
329.8949,1757.9508949700257
332.0972,1754.8102785531182
334.2989,1763.0521824441753
336.5001,1754.2765004006424
338.7007,1690.4831085494407
340.9008,1662.071865474731
343.1003,1595.442612855839
345.2992,1528.7951757513783
347.4976,1481.929363265535
349.6955,1439.994969214546
351.8927,1417.191772595355
354.0895,1372.4195380049564
356.2856,1348.7780158684309
358.4812,1318.1669428866653
360.6763,1323.5360422727676
362.8707,1284.6350240581774
365.0646,1266.413585038973
367.258,1234.9214091648882
369.4508,1226.858167721522
371.643,1218.873519645259
373.8346,1221.4171116039115
376.0257,1233.8885780765559
378.2162,1258.3875413280966
380.4062,1245.5636112845577
382.5956,1203.2663852880846
384.7844,1140.0454482251898
386.9726,1087.8003729497268
389.1603,1053.6807209150934
391.3474,994.7360426966884
393.5339,979.6158783331075
395.7199,967.2197579155859
397.9052,968.3472017392032
400.09,970.6477204268444
402.2743,990.620814917922
404.4579,1006.1159764453719
406.641,1024.282686335926
408.8235,1059.7704158551578
411.0054,1082.1786260258145
413.1868,1171.2567672729442
415.3675,1270.0042791998071
417.5477,1312.0705896971003
419.7273,1195.6051139554788
421.9064,1042.5572540448911
424.0848,942.9264000792382
426.2627,847.5119317468466
428.4399,820.5632193067831
430.6166,771.0796245429933
432.7928,706.4105010337962
434.9683,654.2051946467127
437.1432,591.6130441851637
439.3176,577.8333819105164
441.4914,553.8155341680099
443.6645,524.4088215245533
445.8371,515.2125590089013
448.0091,513.1260564057202
450.1806,479.9986183475535
452.3514,443.12954433568257
454.5216,432.06812907140466
456.6913,413.3136628247212
458.8603,414.36543154495484
461.0288,419.67271704829363
463.1967,387.48479700727376
465.3639,399.0009448977039
467.5306,376.62043032054817
469.6967,363.69251888676126
471.8622,319.61647244109736
474.0271,325.1415491913849
476.1914,324.8170041492913
478.3551,298.59208907506854
480.5182,303.7660524808034
482.6807,303.43813989266437
484.8426,308.3075937991621
487.0039,338.37365365442747
489.1647,373.88555582951403
491.3248,408.2425333117417
493.4843,394.74381534957547
495.6432,380.2886271090583
497.8015,345.2761898087956
499.9592,322.35572086450975
502.1163,290.4264342391634
504.2728,222.03754067216414
506.4287,220.78824799865652
508.5839,208.8277618334091
510.7386,183.20528558330716
512.8927,187.1700205669622
515.0461,205.12116627093292
517.199,194.00792031007813
519.3512,229.52947824804642
521.5029,267.23503370841036
523.6539,298.9737780194487
525.8043,314.69489983709127
527.9541,271.1975848275365
530.1033,215.53101551003283
532.2519,183.99437169185512
534.3999,162.23683102496716
536.5472,146.05756932139138
538.694,139.40576077078458
540.8401,150.03057810223027
542.9856,170.08119265075766
545.1305,177.55677425109297
547.2748,189.50649103715386
549.4185,182.67950936729267
551.5615,188.02499370479836
553.704,186.3421066861706
555.8458,190.48000906765947
557.987,222.9878597420975
560.1276,238.8648156975164
562.2675,289.8100316920704
564.4069,327.7226600952672
566.5456,331.8018503785165
568.6837,338.89674873600643
570.8212,284.1564980439066
572.958,237.93023778942143
575.0942,203.91710461818957
577.2299,174.31623279654923
579.3648,133.17675455166818
581.4992,102.14780036755656
583.6329,103.47849939646039
585.766,101.86797976914522
587.8985,131.76536858159398
590.0304,155.16979191111113
592.1616,179.28037451734644
594.2922,173.2462396082583
596.4222,153.36650859899964
598.5515,116.24030117226357
600.6802,67.91673547707887
602.8083,25.144928500074457
604.9358,11.823996548711875
607.0626,4.152804732617824
609.1888,13.630100039690205
611.3144,35.6045879713065
613.4393,41.974837864142955
615.5636,90.1890633650396
617.6873,128.89547770109175
619.8103,149.2922931975054
621.9327,176.22772089053524
624.0544,145.5499703235132
626.1756,104.40724927749807
628.2961,78.79776407805002
630.4159,22.969720006662556
632.5351,35.9713215568504
634.6537,35.30054375462623
636.7716,24.055361266291584
638.8889,41.28374840514198
641.0056,46.783679243923416
643.1216,51.95312744254534
645.237,75.54006619308439
647.3518,61.89246816808463
649.4659,41.40830528469405
651.5793,6.885548841135915
653.6922,15.822169721552655
655.8043,13.566070023452994
657.9159,-9.434848313872408
660.0268,-14.182683486797487
662.137,5.920560562437913
664.2466,-3.1269784234023064
666.3556,-3.1771627607590744
668.4639,-24.931823527558663
670.5716,-16.29276006187274
672.6786,-11.911522632859032
674.785,-12.83949874500513
676.8907,-22.777956906691088
678.9958,-15.078037359706286
681.1002,-1.7906527940544947
683.204,-13.566565270145475
685.3072,-19.95653683047931
687.4097,-27.011193987571914
689.5115,3.8190361118636247
691.6127,-2.066003837061089
693.7132,-12.26647117741959
695.8131,7.667476768373035
697.9123,-11.314317199427478
700.0109,-10.012010357242616
702.1089,2.474240131654824
704.2061,29.544277204113314
706.3028,56.24794377223907
708.3987,70.3350824526974
710.4941,68.90553529967428
712.5887,95.35914366400857
714.6827,98.84574820748367
716.7761,102.26518863829233
718.8688,101.36730367616929
720.9608,97.4519310181995
723.0522,111.6689073477969
725.1429,116.31806837385602
727.233,151.8492486885848
729.3224,209.5122817210122
731.4112,240.156999381677
733.4993,270.733231485995
735.5867,242.74080544781646
737.6735,199.37954597365933
739.7596,169.29927534263743
741.845,137.69981384006996
743.9298,132.88098005828488
746.014,169.19259121261348
748.0974,182.5844631895775
750.1802,189.95641018377182
752.2624,187.05824456395248
754.3439,156.23977679930977
756.4247,118.40081548845774
758.5048,117.64116766761254
760.5843,124.56063918898735
762.6631,149.40903472838
764.7413,168.53615771598697
766.8188,236.44181008791384
768.8956,275.82579209490905
770.9718,341.13790162330315
773.0473,314.27793380117146
775.1221,294.0456803452121
777.1962,270.14092982934517
779.2697,315.36346788703713
781.3426,378.7130774503453
783.4147,462.9395382976927
785.4862,467.4426264203771
787.557,403.2221131802985
789.6271,325.1777652649298
791.6966,234.3093453295255
793.7654,151.11661277756457
795.8335,105.44932466943419
797.901,68.3072365543544
799.9678,57.89010292705734
802.0339,75.74767759919996
804.0993,84.82971380354275
806.1641,79.5859640153667
808.2282,65.26617986165866
810.2916,73.57011217354557
812.3544,56.8975111294958
814.4164,48.198126172275806
816.4778,68.67170617568081
818.5385,58.21799953152549
820.5986,68.68675394490947
822.658,128.92771653875207
824.7166,178.09063374910693
826.7747,238.3752507227532
828.832,301.58131082556383
830.8886,353.5585550396622
832.9446,358.6567213313592
834.9999,359.7755441313834
837.0545,321.71475428389704
839.1085,257.6740790353101
841.1618,214.15324241488634
843.2143,159.55196587514956
845.2662,120.91996872709524
847.3175,111.85696868619925
849.368,108.76268225873719
851.4179,114.1868248324181
853.467,103.82911070732553
855.5155,108.33925304167724
857.5633,126.21696395539766
859.6105,109.96195448502021
861.6569,102.57393440490932
863.7027,96.05261238981166
865.7478,100.69769608873685
867.7922,84.1088921901719
869.8359,81.43590637562829
871.8789,89.77844348552799
873.9212,81.28620754593112
875.9629,88.7089016851155
878.0039,104.99622821849744
880.0441,117.94788857440471
882.0837,132.06358313120563
884.1226,153.59301108778754
886.1609,175.63587032240503
888.1984,206.09185717738228
890.2352,269.1606662386853
892.2714,267.6419900313631
894.3069,264.8355183888589
896.3416,217.99093846819915
898.3757,195.10793477805828
900.4091,174.88618964720445
902.4418,185.0253834533264
904.4739,201.4251948252545
906.5052,211.685300541566
908.5358,212.85537536658785
910.5658,204.7850919477969
912.595,185.02412080411568
914.6236,152.97213040661563
916.6515,136.92878737612955
918.6786,112.54375680377052
920.7051,101.11670241136471
922.7309,125.84728679530281
924.756,113.98517154081082
926.7804,122.23001697464588
928.8041,107.23148228371338
930.8272,139.3892254326206
932.8495,128.30290331366314
934.8711,149.7721714252466
936.892,149.64668398274625
938.9123,168.6260937038187
940.9318,197.46005180965267
942.9506,204.59820783517625
944.9688,189.19020934071932
946.9862,177.1357018406311
949.003,144.83432895736087
951.019,133.63573254200173
953.0344,113.18955299730578
955.0491,114.24542938966943
957.063,121.75299965359409
959.0763,110.81190058112725
961.0888,109.42176774678774
963.1007,116.43223561697641
965.1119,115.94293756387606
967.1223,109.35350579535088
969.1321,102.9135713598339
971.1412,102.27276421222678
973.1495,109.93071327829375
975.1572,110.38704646107499
977.1641,118.74139056430249
979.1704,106.84337128784
981.1759,106.14261314413898
983.1808,98.23873957721935
985.1849,97.18137296967507
987.1884,101.47013472171511
989.1911,116.00464526173482
991.1932,121.73452400343058
993.1945,117.2593892004511
995.1951,113.77885788910226
997.1951,95.39254593309715
999.1943,89.55006805836138
1001.1928,106.10103803689526
1003.1906,93.2450687451992
1005.1877,121.93177199876664
1007.1841,137.06075868064
1009.1798,144.53163845454583
1011.1748,149.04401961360418
1013.1691,114.94750900561894
1015.1627,98.24171198795511
1017.1556,67.92623276850327
1019.1477,41.05067457274163
1021.1392,43.9646399468852
1023.1299,31.767731026644924
1025.12,29.909549508087366
1027.1093,29.189696769604325
1029.0979,51.30777389049081
1031.0859,51.61338165814732
1033.0731,59.05612034689511
1035.0596,59.035589714922025
1037.0454,63.45138892985551
1039.0304,51.55311656896902
1041.0148,29.890370575024917
1042.9985,12.962748375255615
1044.9814,22.419847097991806
1046.9636,-8.838736258062454
1048.9452,1.0865950815968972
1050.926,17.995437979865983
1052.9061,38.13738928877456
1054.8855,53.31204568039857
1056.8642,39.06900344544238
1058.8421,43.957858341491374
1060.8194,44.22820573544186
1062.7959,35.629640554613616
1064.7717,31.711757284043415
1066.7469,28.524150052475306
1068.7213,34.96641267153473
1070.695,52.08813866760829
1072.6679,55.938921217421466
1074.6402,96.86835297681819
1076.6117,94.12602604225413
1078.5826,105.36153154150225
1080.5527,69.72445966107625
1082.5221,37.01439953387671
1084.4908,12.180939595560176
1086.4587,10.623667911639586
1088.426,-8.80782757418001
1090.3925,-19.463959024432825
1092.3584,4.104861486432128
1094.3235,21.898416328912845
1096.2879,4.716487832462917
1098.2515,39.258858107552896
1100.2145,58.025309217488484
1102.1767,71.16562283298936
1104.1382,99.37958004452366
1106.099,148.26696123090233
1108.0591,175.32754577714195
1110.0185,225.01111158559024
1111.9771,244.51743480532014
1113.9351,285.4462893352943
1115.8923,320.0474466293017
1117.8488,369.2206752866714
1119.8045,338.815740706259
1121.7596,255.882404594714
1123.7139,177.67042527052945
1125.6675,142.4295584933766
1127.6204,137.60955824622397
1129.5726,147.41017708774461
1131.524,142.93116620051705
1133.4748,132.02227529301808
1135.4248,100.18325264441455
1137.3741,49.66384521365171
1139.3226,28.81379895784403
1141.2705,39.63285933746761
1143.2176,18.170771524861266
1145.164,28.077280296034814
1147.1097,40.952130245291755
1149.0546,37.64506568616366
1150.9989,20.155830522660608
1152.9424,1.234168282344399
1154.8852,-6.720177708780284
1156.8272,-13.157464137047327
1158.7686,-11.227880554217563
1160.7092,-12.031485068986285
1162.6491,-13.218223623524409
1164.5883,5.312078034531851
1166.5267,8.909726207599533
1168.4644,26.125027144974865
1170.4014,51.60828700685829
1172.3377,73.60981169220145
1174.2732,115.67990658387271
1176.2081,181.068876328643
1178.1421,262.5270244164865
1180.0755,380.60465252668905
1182.0082,425.302059713267
1183.9401,445.0695412241921
1185.8713,381.0073880544162
1187.8017,284.6658867481965
1189.7315,209.24532003971922
1191.6605,121.29596781651298
1193.5888,86.86810787365425
1195.5163,51.71201679326191
1197.4432,30.87797028877435
1199.3693,29.666243556510608
1201.2947,3.1271114840103564
1203.2193,-1.8391513378462605
1205.1432,6.417729650548381
1207.0664,6.148047381923561
1208.9889,0.45209472483225
1210.9106,-9.019835513652197
1212.8316,-8.567455042883012
1214.7519,3.4596145359405455
1216.6715,6.86183721049224
1218.5903,15.58967693384966
1220.5084,30.593597590473564
1222.4257,45.32406290892982
1224.3424,45.18153631184782
1226.2583,50.76648076861602
1228.1735,86.4793587968104
1230.0879,103.12063240634052
1232.0016,121.84076274232552
1233.9146,160.19020991867887
1235.8269,173.6194328309075
1237.7384,182.27888877261648
1239.6492,181.31903330121827
1241.5592,190.4903201513357
1243.4686,222.39320124440246
1245.3772,277.52812659694973
1247.285,341.9455440015781
1249.1922,397.7458984756072
1251.0986,461.72963161690177
1253.0042,509.4971810458669
1254.9092,595.2989797656141
1256.8134,657.8354556842837
1258.7169,715.057030757027
1260.6196,766.7141203606409
1262.5216,810.907132721354
1264.4229,808.3864683982533
1266.3234,784.6525198413576
1268.2232,737.0556714168195
1270.1223,701.6962996442685
1272.0207,661.3747736727776
1273.9183,634.941455634457
1275.8151,644.3967010476706
1277.7113,665.1908590813682
1279.6067,740.274272460533
1281.5014,829.1972772582412
1283.3953,994.910202144827
1285.2885,1139.9133674986529
1287.181,1271.9070837489808
1289.0727,1338.7416499259414
1290.9637,1299.8173523405937
1292.854,1224.9344639165822
1294.7435,1121.6932445793793
1296.6323,1026.8939420051113
1298.5204,932.4367926529746
1300.4077,853.322022713226
1302.2943,825.9998490517567
1304.1802,795.2204800012373
1306.0653,764.1841156343407
1307.9497,751.0909480715363
1309.8333,727.5411617914517
1311.7162,696.734933761807
1313.5984,682.4724336749111
1315.4798,673.3038242557236
1317.3605,670.7292614044802
1319.2405,689.7988942883794
1321.1197,688.9628653673271
1322.9982,662.1713102032413
1324.876,630.2743574684112
1326.753,558.6721292134139
1328.6293,494.3647411860843
1330.5048,423.25230354753603
1332.3796,350.5349215152362
1334.2537,301.9626960741291
1336.127,269.6357247038111
1337.9996,233.60410186425156
1339.8714,220.01791931906382
1341.7426,200.4272664958214
1343.6129,206.08223062191905
1345.4826,186.93289692047983
1347.3515,175.62934855380513
1349.2196,162.82166681486683
1351.087,162.95993124034408
1352.9537,160.64421973869867
1354.8197,165.1746085887935
1356.6849,167.3511724630505
1358.5493,177.8739843821461
1360.4131,209.2431156932464
1362.276,232.2086359647792
1364.1383,259.6706126727415
1365.9998,267.8291109710451
1367.8606,278.134193416897
1369.7206,265.48591988921294
1371.5799,262.28434748556833
1373.4384,281.0795306486798
1375.2962,240.42152119842058
1377.1533,203.46036814387003
1379.0096,164.19611808989362
1380.8652,147.2788156067536
1382.7201,134.85850362275187
1384.5742,110.38522359340186
1386.4275,83.35901562563436
1388.2802,83.97991872252828
1390.132,54.99797105357288
1391.9832,63.56320994845919
1393.8336,50.82567218689883
1395.6832,41.08539391297268
1397.5322,28.892410762503914
1399.3803,35.046757960463765
1401.2278,33.948470442899634
1403.0745,23.297582795392145
1404.9204,13.444129264036519
1406.7656,12.888143861954177
1408.6101,5.379660467825488
1410.4538,6.668712831449284
1412.2968,9.605334648829285
1414.139,9.389559549281103
1415.9805,24.321421066067614
1417.8213,10.200952638556373
1419.6613,36.228187462901815
1421.5006,58.05315863324881
1423.3391,81.87589888146135
1425.1769,135.6464403588725
1427.0139,181.96481439805825
1428.8502,254.5310509751314
1430.6858,309.19517824655736
1432.5206,331.85722182349286
1434.3547,322.11720422514327
1436.188,311.4251446521416
1438.0206,299.2810590839506
1439.8524,293.2349603857806
1441.6835,300.4868584300325
1443.5139,304.9367601567576
1445.3435,304.88466950113957
1447.1724,309.2805873489947
1449.0005,315.3245115372922
1450.8279,304.6164368101977
1452.6545,305.90635475862996
1454.4804,311.14425392734506
1456.3056,298.0301198020352
1458.13,290.0139347569518
1459.9536,270.9956781860458
1461.7766,248.17532658312848
1463.5987,220.80285373205606
1465.4202,199.2282309349314
1467.2409,168.15142728583078
1469.0608,139.52240988654853
1470.88,113.74114415736426
1472.6984,102.25759412333537
1474.5161,85.77172267210676
1476.3331,80.13349166874832
1478.1493,69.64286212061438
1479.9648,75.74979423372429
1481.7795,73.75424751766968
1483.5935,71.70618072454408
1485.4067,75.30555186890092
1487.2192,88.65231824823172
1489.031,77.19643640697336
1490.842,91.18786200303953
1492.6522,81.37654992237958
1494.4618,86.26245413906508
1496.2705,87.2455278134014
1498.0785,91.37572324307212
1499.8858,89.3529918533045
1501.6924,85.92728415556962
1503.4981,67.94854976780857
1505.3032,70.51673744869049
1507.1075,74.63179527739885
1508.911,70.09367062795013
1510.7138,61.552310128043246
1512.5159,58.60765970444004
1514.3172,64.30966466838026
1516.1178,53.25826974502593
1517.9176,44.20341901644406
1519.7166,42.99505603211901
1521.515,33.48312389950229
1523.3126,46.11756529609511
1525.1094,54.69832256456834
1526.9055,41.575337586416936
1528.7008,41.54855169615439
1530.4954,29.66790581254122
1532.2893,32.93334043885238
1534.0824,33.3447957816843
1535.8747,34.552211718299304
1537.6663,36.20552779251352
1539.4572,29.054683202621618
1541.2473,29.849616784863997
1543.0367,32.990267084934544
1544.8253,29.076572350031938
1546.6132,38.3584704974528
1548.4003,43.18589915372763
1550.1867,52.308795561803436
1551.9723,60.47709653276786
1553.7572,72.49073835462093
1555.5414,89.19965671059254
1557.3247,109.45378655900504
1559.1074,145.8030619661854
1560.8893,172.49741590392262
1562.6705,189.23677988597615
1564.4509,232.37108370113128
1566.2305,241.55025524580526
1568.0094,250.02422009270504
1569.7876,259.8929013990356
1571.565,247.50621982176028
1573.3417,247.76409341891406
1575.1176,260.86643777347
1576.8928,256.76316599076074
1578.6672,286.5041885674559
1580.4409,312.7894134325944
1582.2138,333.66874565017315
1583.986,367.34208715629563
1585.7575,418.05933655037813
1587.5282,445.57038875841704
1589.2981,475.32513452581577
1591.0673,487.2734601422735
1592.8358,473.11524714423865
1594.6035,493.2503721954247
1596.3704,480.6287072283935
1598.1366,483.0501192432031
1599.9021,448.914470433626
1601.6668,431.3216181629332
1603.4308,409.82141530525246
1605.194,411.5637104214958
1606.9564,432.3983479743616
1608.7182,477.97516831091116
1610.4791,539.5940074542234
1612.2394,622.3546966476251
1613.9988,710.2570617385043
1615.7576,794.9009223507013
1617.5156,844.9360910054869
1619.2728,829.6123722751227
1621.0293,768.4295622825097
1622.785,672.8374488544258
1624.54,581.1358121333529
1626.2942,474.9244255333989
1628.0477,369.4530566573138
1629.8005,306.12146835860483
1631.5525,250.02941979624848
1633.3037,221.17666706800696
1635.0542,175.36296377134988
1636.804,146.23806129198033
1638.553,127.10170926197145
1640.3013,114.80365585101652
1642.0488,107.64364795779227
1643.7955,95.07143133293926
1645.5416,84.13675065066263
1647.2868,71.58934963445404
1649.0313,68.77897116643851
1650.7751,56.60535741284821
1652.5181,59.16824985212645
1654.2604,74.31738939666286
1656.0019,66.20251636716443
1657.7427,80.02337034116556
1659.4828,99.37969023417497
1661.222,114.77121416146838
1662.9606,147.14767924452383
1664.6984,183.95882145710868
1666.4354,204.05437530151323
1668.1717,190.23407344044062
1669.9072,153.89764649605058
1671.642,119.69482318816245
1673.3761,85.42533069761896
1675.1094,62.83889500831424
1676.8419,44.18524124988994
1678.5737,36.814093923599444
1680.3048,26.975177088843793
1682.0351,24.81821443688318
1683.7646,15.542929389227197
1685.4934,18.24904511920306
1687.2215,3.7362846447086895
1688.9488,-0.2956291988484736
1690.6754,6.453026386577108
1692.4012,7.3819771523651525
1694.1263,12.690948785365777
1695.8506,8.629666898608434
1697.5742,1.7478569782138038
1699.297,-2.3547555759932948
1701.0191,2.171554618332607
1702.7404,-8.573463532453957
1704.461,1.8099388562857257
1706.1808,-7.228403681909299
1707.8999,-7.83865663159952
1709.6182,0.2790867344067465
1711.3358,0.12481145147989992
1713.0527,0.7485025521998523
1714.7688,-6.899854932101221
1716.4841,3.5797240224241023
1718.1987,-2.3627066308256417
1719.9126,-1.6770929742497174
1721.6257,4.136642513190964
1723.338,0.6785941066937085
1725.0496,0.5988560400912775
1726.7605,-2.952477459569991
1728.4706,5.524687828768606
1730.18,0.7804756214154622
1731.8886,-0.5849904205671237
1733.5964,11.278413356079
1735.3036,8.070816448665823
1737.0099,5.592348241721652
1738.7156,6.093138039067526
1740.4204,13.723315088601225
1742.1246,10.233008577289638
1743.8279,18.322347554867065
1745.5306,8.941460968738056
1747.2325,12.140477583083566
1748.9336,16.01952607267083
1750.634,13.778734990862517
1752.3336,15.968232730825548
1754.0325,22.688147547940844
1755.7307,19.938607537906478
1757.4281,25.769740569540204
1759.1247,13.931674312273458
1760.8206,21.92453617784065
1762.5158,28.04845343865975
1764.2102,29.053553147903813
1765.9039,28.23996207826167
1767.5968,30.957806711886633
1769.289,27.35721324853239
1770.9804,29.388307578374793
1772.6711,30.651215318017762
1774.361,27.096061790182375
1776.0502,33.37297201107788
1777.7386,20.482070725953008
1779.4263,39.32348234632741
1781.1132,35.297331078899674
1782.7994,32.953740737133785
1784.4849,26.242834781521196
1786.1696,27.11473634301558
1787.8535,42.519568290142615
1789.5367,40.70745322028108
1791.2192,35.02851330561373
1792.9009,37.93287031124896
1794.5818,31.87064565201058
1796.2621,30.491960363393673
1797.9415,34.19693516218729
1799.6202,35.23569046026114
1801.2982,39.65834632751637
1802.9755,32.515022481497226
1804.6519,36.90583824316502
1806.3277,30.73091260833121
1808.0027,34.84036420374861
1809.6769,43.93431134886106
1811.3504,30.46287201470949
1813.0231,42.17616373299143
1814.6951,41.82430373077625
1816.3664,39.75740881337231
1818.0369,42.875595367844994
1819.7067,36.77897938368619
1821.3757,48.91767642163222
1823.044,47.441801674629744
1824.7115,48.60146984644905
1826.3783,50.09679516644235
1828.0443,45.22789137794746
1829.7096,50.9948717233346
1831.3741,50.04784899269532
1833.0379,42.03693546617268
1834.701,42.612242923431495
1836.3633,44.22388272376696
1838.0248,42.071965800352075
1839.6856,40.606602644121836
1841.3457,45.42790332529103
1843.005,47.83597750800914
1844.6636,41.880934402146636
1846.3214,52.91288273921401
1847.9785,58.231930831912734
1849.6349,47.038186463815464
1851.2904,50.731756836175805
1852.9453,52.812748679865365
1854.5994,50.18126821843879
1856.2528,57.437421147323334
1857.9054,48.081312660133904
1859.5572,51.66304737611108
1861.2083,52.48272943368255
1862.8587,51.99046245464575
1864.5084,58.93634953597086
1866.1572,51.67049325472334
1867.8054,55.692995598605876
1869.4528,56.50395803861585
1871.0994,52.40348148882117
1872.7453,53.441666298250084
1874.3905,58.66861229189669
1876.0349,59.23441876033837
1877.6786,54.63918440746647
1879.3215,52.83300734482873
1880.9637,55.31598513758104
1882.6051,48.188214822549696
1884.2458,55.84979288340145
1885.8858,56.60081532192095
1887.525,59.591377581395136
1889.1634,53.021574539102915
1890.8011,48.691500476409544
1892.4381,58.50124914446479
1894.0743,58.55091380750372
1895.7098,49.74058714474921
1897.3446,62.97036124991524
1898.9786,58.64032771931022
1900.6118,56.85057751953906
1902.2443,55.25120103080366
1903.8761,48.89228806480037
1905.5071,51.323927880713995
1907.1374,56.5962092488063
1908.7669,61.509220426099944
1910.3957,54.863049103655385
1912.0237,55.45778235744126
1913.651,54.99350671479584
1915.2776,51.02030814848018
1916.9034,56.38827208132028
1918.5285,53.347483425939345
1920.1528,51.69802653107848
1921.7764,55.189985212003876
1923.3992,52.02344276700154
1925.0213,50.198481942458045
1926.6427,48.76518496452559
1928.2633,54.973633557371386
1929.8832,52.02390895751142
1931.5023,48.166091851725355
1933.1207,47.2002624065542
1934.7383,52.42650030687821
1936.3552,50.24488476557485
1937.9714,50.35549447125709
1939.5868,52.608407610088875
1941.2015,48.80370186467991
1942.8154,48.49145439155575
1944.4286,49.071741859205076
1946.041,45.844640451202224
1947.6528,42.960225860404194
1949.2637,47.41857332122186
1950.8739,49.11975763846385
1952.4834,50.41385314275328
1954.0921,51.050933673515885
1955.7001,43.281072566039086
1957.3074,52.80434264510126
1958.9139,44.070816302670266
1960.5197,40.23056540267078
1962.1247,44.83366136831938
1963.729,44.28017522052755
1965.3325,44.92017753187014
1966.9353,47.40373843212052
1968.5374,44.680927601850954
1970.1387,46.401814247596235
1971.7393,45.41646712908215
1973.3392,38.42495454201628
1974.9383,38.72734432794181
1976.5366,43.17370394415224
1978.1342,45.714100460667964
1979.7311,40.248600515772466
1981.3273,41.177270290608135
1982.9227,46.85017556383184
1984.5173,41.4673817023276
1986.1112,44.37895360447777
1987.7044,33.08495575399104
1989.2968,40.03545219078666
1990.8885,47.580506623934525
1992.4795,43.17018236215017
1994.0697,39.00454223834424
1995.6592,42.03364865372555
1997.2479,38.557563619457824
1998.8359,39.72634872636837
2000.4232,33.04006517970879
2002.0097,40.44877378746753
2003.5955,34.20253502723267
2005.1805,37.951408972104446
2006.7648,40.595455353158
2008.3484,41.88473352195433
2009.9312,43.91930242410035
2011.5133,43.149220586355796
2013.0946,40.27454609628751
2014.6752,38.39533660997063
2016.2551,38.11164938073489
2017.8342,37.12354127795663
2019.4126,37.83106878989594
2020.9902,42.584288033577536
2022.5672,35.78325474771549
2024.1433,38.92802424518072
2025.7188,31.91865148101209
2027.2935,40.60519102096805
2028.8674,39.23769711162106
2030.4406,39.11622359349161
2032.0131,36.19082391472341
2033.5849,31.811551132298177
2035.1559,39.82845794128946
2036.7261,32.74159671865539
2038.2957,33.9010194430698
2039.8645,40.00677776579056
2041.4325,41.058922999065544
2042.9998,39.00750605507528
2044.5664,40.60257743541132
2046.1323,32.49418725159023
2047.6974,42.1823852091033
2049.2617,43.56722068850013
2050.8254,40.14874264850664
2052.3883,36.07699961217696
2053.9504,38.50203970107788
2055.5118,39.72391067600631
2057.0725,36.592659912739066
2058.6325,38.90833438981389
2060.1917,35.67098071984185
2061.7502,35.08064512635099
2063.3079,37.78737347615936
2064.8649,40.591211285278746
2066.4212,36.642203691847556
2067.9767,39.990395428092086
2069.5315,34.33583085981695
2071.0856,40.62855395292297
2072.6389,35.91860832995286
2074.1915,40.55603720716374
2075.7433,39.59088344162683
2077.2945,33.073189484852946
2078.8448,40.202997392444445
2080.3945,35.2303488892714
2081.9434,32.60528529817435
2083.4916,29.62784758969036
2085.039,29.398076408303723
2086.5857,39.716012102220816
2088.1317,37.831694725667376
2089.677,43.14516393570932
2091.2215,36.456459011095376
2092.7652,36.61561879912301
2094.3083,23.27268178252507
2095.8506,33.62768607787831
2097.3921,40.380669569033046
2098.933,40.08166980356276
2100.4731,38.78072392523478
2102.0124,33.87786867700004
2103.5511,37.023140414002
2105.089,35.6665751526059
2106.6261,40.45820853894554
2108.1626,34.99807586248892
2109.6983,39.036212008121936
2111.2332,39.62265151074973
2112.7675,41.70742851491582
2114.301,40.84057676893718
2115.8337,40.77212960405683
2117.3657,43.25211994311212
2118.897,37.330580301219356
2120.4276,39.65754276097408
2121.9575,37.133039031666044
2123.4866,40.707100426009674
2125.0149,36.47975788538946
2126.5426,40.851041944119004
2128.0695,35.12098277171441
2129.5956,40.93961012918152
2131.1211,40.20695342631649
2132.6458,35.673041663519655
2134.1698,42.637903439121715
2135.693,38.15156699472328
2137.2155,36.11406014554575
2138.7373,39.225410325294945
2140.2584,27.78564460653604
2141.7787,41.044789669579984
2143.2983,36.752871916881816
2144.8171,34.40991734044877
2146.3353,43.615951564759484
2147.8527,39.97099987019345
2149.3693,38.125087100970745
2150.8853,36.42823770160152
2152.4005,37.030475735344965
2153.9149,37.38182490117788
2155.4287,35.68230852777242
2156.9417,37.3319495699825
2158.454,32.68077062583899
2159.9655,34.828793920053556
2161.4764,31.87604135053016
2162.9865,41.12253446688487
2164.4958,31.168294499973342
2166.0045,27.763342269425664
2167.5124,35.35769828318928
2169.0195,34.95138277157798
2170.526,32.64441561132884
2172.0317,38.53681632966533
2173.5367,38.078604127366646
2175.0409,36.36979781984394
2176.5445,37.710415841722295
2178.0473,26.300476263928886
2179.5494,32.28999678028714
2181.0507,34.2289948216158
2182.5513,34.31748749583386
2184.0512,36.355491568570585
2185.5504,28.843023462280144
2187.0488,29.680099235862315
2188.5465,24.81673465978662
2190.0435,26.702945207721598
2191.5397,37.2387461051685
2193.0353,32.024152310599334
2194.5301,35.059178410098525
2196.0241,31.14383866950925
2197.5175,38.77814700408294
2199.0101,25.412117017632568
2200.502,30.44576192618939
2201.9931,33.27909469166366
2203.4835,31.3621279715083
2204.9733,29.74487409038528
2206.4622,24.877345059335482
2207.9505,32.10955259195151
2209.438,26.291508153052405
2210.9248,27.773222886361793
2212.4109,29.75470767268888
2213.8962,24.185973115110983
2215.3809,30.717029519157848
2216.8648,25.6978869484999
2218.3479,29.4285551596372
2219.8304,25.009043652091236
2221.3121,28.239361631098006
2222.7931,23.46951805180322
2224.2733,27.549521586959145
2225.7529,24.97938067462303
2227.2317,27.409103477357235
2228.7098,24.98869790793009
2230.1872,23.118171605019114
2231.6638,25.197531957414753
2233.1397,25.4767861227256
2234.6149,26.95594100658505
2236.0894,23.735003259858672
2237.5632,20.01397926385269
2239.0362,23.04287516252336
2240.5085,21.821696899687055
2241.9801,24.10045018873106
2243.4509,19.679140524825698
2244.921,19.257773162137113
2246.3904,20.48635315803969
2247.8591,17.814885377330228
2249.3271,14.743374479942048
2250.7943,18.1218249476602
2252.2608,16.55024111483604
2253.7266,16.878627134602795
2255.1917,18.05698699459134
2256.656,18.23532451364676
2258.1197,18.913643330044437
2259.5826,17.89194689970671
2261.0447,17.870238489419393
2262.5062,16.398521187048686
2263.9669,20.82679790175814
2265.4269,18.055071378726268
2266.8862,20.033344154863585
2268.3448,22.311618586529676
2269.8026,17.289896829751115
2271.2598,18.218180817437712
2272.7162,25.646472309600938
2274.1719,19.574772884069716
2275.6268,16.00308386220877
2277.0811,13.931406369634914
2278.5346,18.959741371934342
2279.9874,16.08808969537941
2281.4395,14.81645197664443
2282.8908,21.54482869152332
2284.3414,18.373220167645883
2285.7914,23.001626517193188
2287.2406,11.180047668614804
2288.689,21.108483320343936
2290.1368,22.73693305901321
2291.5838,20.565396260170417
2293.0302,18.293872071994628
2294.4758,14.172359437011323
2295.9206,16.050857114807172
2297.3648,9.779363723245922
2298.8082,14.257877719682625
2300.251,11.886397463678605
2301.693,21.864921172216356
2303.1343,17.143446943414716
2304.5748,14.171972656743208
2306.0147,17.75049602023688
2307.4538,12.629014600211207
2308.8922,16.657525785476935
2310.3299,13.186026838554824
2311.7669,16.3145148553904
2313.2031,18.392986800069366
2314.6387,16.77143947353244
2316.0735,16.44986949279047
2317.5076,12.87827330714012
2318.941,14.206647201379326
2320.3737,16.134987331523405
2321.8056,9.163289711521287
2323.2369,15.09155019397187
2324.6674,14.96976453984152
2326.0972,16.047928359181043
2327.5263,15.326037112343784
2328.9547,20.554086099203857
2330.3823,21.482070466375035
2331.8092,14.759985154930405
2333.2355,18.387824891122364
2334.661,15.665584253603527
2336.0858,13.493257637148247
2337.5098,12.970839279875179
2338.9332,12.74832328497061
2340.3558,7.475703625912445
2341.7778,11.2529741486957
2343.199,12.980128624558233
2344.6195,13.207160712208264
2346.0393,17.634063940553006
2347.4583,12.060831706427876
2348.8767,14.287457230327902
2350.2943,10.663933612139829
2351.7113,11.590253808875957
2353.1275,17.21641067090934
2354.543,13.642396932710398
2355.9578,12.31820515658552
2357.3718,16.743827768417276
2358.7852,6.169257070906298
2360.1978,15.694485199314983
2361.6098,15.419504227213338
2363.021,14.34430607122647
2364.4315,13.918882493784622
2365.8413,10.643225113875019
2367.2504,10.517325411296156
2368.6587,10.441174759414253
2370.0664,10.364764426422624
2371.4733,9.138085576102753
2372.8795,16.411129268588667
2374.285,15.183886472633361
2375.6899,10.556347992878784
2377.0939,10.178504482128034
2378.4973,15.250346487620874
2379.9,11.271864454812174
2381.3019,10.393048676653336
2382.7032,10.463889333377239
2384.1037,15.53437650128626
2385.5035,12.704500152043977
2386.9027,4.27425010197021
2388.3011,12.493616040339987
2389.6987,16.912587613685986
2391.0957,8.9811543436048
2392.492,16.299305582567285
2393.8876,8.867030593232812
2395.2824,7.884318475267804
2396.6765,9.20115823966836
2398.07,7.167538818587531
2399.4627,6.883449052166753
2400.8547,7.748877708872101
2402.246,5.513813488335359
2403.6366,10.828245012699426
2405.0265,7.742160848969178
2406.4156,3.405549455867231
2407.8041,6.768399214694654
2409.1918,7.930698472697031
2410.5789,2.342435509436001
2411.9652,2.153598525166302
2413.3508,8.26417569671841
2414.7358,11.224155179386855
2416.12,4.333525045824615
2417.5035,7.542273256443167
2418.8863,7.700387728318731
2420.2684,6.057856303105041
2421.6497,4.064666745451916
2423.0304,7.570806759430866
2424.4104,7.076264008466751
2425.7896,3.731026080276365
2427.1682,9.535080491813886
2428.546,8.688414722723309
2429.9232,3.341016157297844
2431.2996,3.492872092946527
2432.6753,3.2939697936683956
2434.0503,6.144296488533882
2435.4246,3.093839373673802
2436.7982,6.742585583776133
2438.1711,9.240522222590386
2439.5433,5.887636326440202
2440.9148,3.533914839244119
2442.2856,8.429344646044399
2443.6557,7.6739125965441985
2445.025,1.6176054561531714
2446.3937,2.610409913542071
2447.7617,6.252312641205663
2449.1289,8.243300285534843
2450.4955,9.033359430397411
2451.8613,3.6724765772283092
2453.2265,7.7106381371288535
2454.5909,2.1978304844757304
2455.9546,10.534039916539314
2457.3177,-0.13074729138833163
2458.68,6.503455030644744
2460.0416,3.836634358755788
2461.4025,4.568778104027615
2462.7627,7.099873639176707
2464.1222,2.979908291231766
2465.4811,-0.14113068377722016
2466.8392,5.686743940380836
2468.1966,6.763520799832435
2469.5533,9.639188473836725
2470.9093,7.3137354740177045
2472.2645,5.387150215607534
2473.6191,-1.3405789592989663
2474.973,8.68053623752158
2476.3262,7.900497486676272
2477.6787,8.519306381966913
2479.0305,2.3369644381904777
2480.3816,8.053473084950753
2481.7319,9.668833728482156
2483.0816,6.533047694484452
2484.4306,2.646116211969087
2485.7789,6.108040444617217
2487.1264,6.26882152964879
2488.4733,6.178460543203414
2489.8195,4.4369584987324515
2491.165,5.79431634790285
2492.5097,4.80053499801204
2493.8538,6.155615298414375
2495.1972,5.259558050458935
2496.5398,9.362363993938715
2497.8818,5.614033816051148
2499.2231,7.26456811037005
2500.5637,2.7639674143290733
2501.9035,5.612232192716192
2503.2427,6.6093628826796476
2504.5812,8.05535986524555
2505.919,3.400223455346378
2507.256,8.593953887361067
2508.5924,7.936551361666346
2509.9281,1.9780159926994543
2511.2631,1.2683478155322803
2512.5974,6.157546845456608
2513.9309,7.595613085080743
2515.2638,1.0325464754377833
2516.596,3.818346881604583
2517.9275,2.953014158332735
2519.2583,7.086548122190436
2520.5884,3.9189485602156537
2521.9178,5.2002151885808985
2523.2465,0.18034768426926462
2524.5745,3.0093456722616168
2525.9018,6.337208775735633
2527.2284,5.11393658777547
2528.5543,3.93952863809335
2529.8796,7.413984405262454
2531.2041,5.4873033284606265
2532.5279,5.659484772726188
2533.851,9.280528048224511
2535.1735,5.300432408526319
2536.4952,7.269197014397179
2537.8163,5.086820973598321
2539.1366,4.753303321199155
2540.4562,3.468643041401066
2541.7752,5.182839070872575
2543.0935,8.045890311595684
2544.411,2.207795613724187
2545.7279,8.818553746952972
2547.0441,7.12816345889911
2548.3596,5.336623408994058
2549.6744,8.443932185387808
2550.9885,9.400088322864292
2552.3019,8.355090271768063
2553.6146,8.308936388442959
2554.9266,2.811624945682013
2556.2379,2.6131541331888286
2557.5485,9.063522112550984
2558.8585,5.312727019224425
2560.1677,11.310766898029854
2561.4762,7.307639740660832
2562.7841,7.453343425703267
2564.0913,2.9978757586668223
2565.3977,9.29123447052767
2566.7035,3.7834172622833933
2568.0086,3.8744217420193223
2569.313,5.9142454799864765
2570.6167,6.802886007691782
2571.9197,12.640340797499718
2573.222,8.426607253746056
2574.5236,9.161682654363204
2575.8246,6.995564193017572
2577.1248,9.328248971758725
2578.4244,11.609734022680684
2579.7232,11.090016284595038
2581.0214,16.219092580216014
2582.3189,12.896959621357936
2583.6157,7.773613957644173
2584.9118,5.199052009728575
2586.2072,9.073270120528932
2587.5019,9.746264580972479
2588.7959,9.968031591253848
2590.0893,16.78856725410506
2591.3819,11.90786757257797
2592.6739,14.375928381838662
2593.9652,11.292745397974869
2595.2557,10.308314193314871
2596.5456,12.572630227259694
2597.8348,11.835688856127192
2599.1234,12.047485310509074
2600.4112,8.208014702640227
2601.6983,8.117272024280723
2602.9848,12.075252185110585
2604.2705,12.581950013637197
2605.5556,10.037360217615415
2606.84,12.241477378980662
2608.1237,8.844295979294856
2609.4067,11.19581037770513
2610.689,7.996014844915678
2611.9707,12.294903539672674
2613.2516,12.042470540762082
2614.5319,7.588709804020965
2615.8115,13.833615164861712
2617.0903,9.277180382809675
2618.3685,10.119399079054006
2619.6461,4.5602647820122115
2620.9229,10.299770918907882
2622.199,14.237910871362018
2623.4745,11.474677917997923
2624.7493,8.760065195059838
2626.0234,7.6940657240453305
2627.2968,8.826672438851347
2628.5695,8.957878196434237
2629.8415,5.187675765483775
2631.1128,11.016057825110934
2632.3835,10.743017002550005
2633.6535,9.118545814874793
2634.9228,11.5426366717289
2636.1914,11.665281891570544
2637.4593,8.986473677431604
2638.7265,10.456204115691193
2639.9931,8.774465202863738
2641.259,10.191248830901571
2642.5242,13.706546804012447
2643.7887,9.470350824491646
2645.0525,10.032652457569071
2646.3156,7.0434431737711805
2647.5781,9.252714343297924
2648.8398,8.56045726591492
2650.1009,8.366663148860695
2651.3613,11.071323113769239
2652.6211,4.774428198608035
2653.8801,7.2759693306313835
2655.1385,10.275937389349338
2656.3961,9.874323181512295
2657.6531,6.971117411111322
2658.9094,8.916310683394329
2660.1651,6.159893533898128
2661.42,7.501856408996403
2662.6743,3.542189693463982
2663.9279,10.98088369705711
2665.1808,9.96792869411017
2666.433,8.453314849148711
2667.6846,9.387032227019091
2668.9354,9.769070808034428
2670.1856,14.299420478637657
2671.4351,12.02807102758095
2672.6839,11.405012100622372
2673.9321,11.580233223239176
2675.1795,14.203723806858576
2676.4263,15.92547314710545
2677.6724,12.295470397567513
2678.9179,13.713704552577823
2680.1626,14.230164483514812
2681.4067,13.294838924619924
2682.6501,11.407716467832941
2683.8928,13.46878557214535
2685.1348,12.978034582471508
2686.3761,8.535451709037957
2687.6168,8.29102503229096
2688.8568,11.544742547322329
2690.0961,11.04659216631363
2691.3348,7.396561685999117
2692.5727,9.744638792647137
2693.81,8.540811098560482
2695.0466,10.335066118595691
2696.2826,10.427391282201185
2697.5178,10.317773915474817
2698.7524,11.256201240240458
2699.9863,9.042660375144393
2701.2195,5.87713832627081
2702.452,14.759622009277379
2703.6839,7.840098281050416
2704.9151,9.66855385088003
2706.1456,6.244975349655391
2707.3755,8.519349311580186
2708.6046,12.441662208408346
2709.8331,10.81190042670029
2711.0609,13.430050228599939
2712.2881,9.996097768132145
2713.5145,12.260029065021314
2714.7403,12.521830039030945
2715.9654,15.481486487324261
2717.1899,13.53898408184628
2718.4136,15.044308339727223
2719.6367,17.647444642707455
2720.8591,17.198378222084358
2722.0809,16.04709413268081
2723.3019,19.94357725733596
2724.5223,15.73781231841798
2725.7421,21.279783838859316
2726.9611,19.869476184214378
2728.1795,16.856873507239726
2729.3972,18.391959761997228
2730.6142,13.32471873398002
2731.8306,13.555134024761728
2733.0462,12.783189102668786
2734.2612,12.658867300476402
2735.4756,13.982151823127865
2736.6892,8.903025748977953
2737.9022,14.721472016559858
2739.1145,6.237473475376561
2740.3262,11.701012827716426
2741.5372,5.912072713493117
2742.7475,9.07063565561026
2743.9571,7.176684117850797
2745.1661,5.730200473291319
2746.3744,3.331167023241605
2747.582,6.629566011709514
2748.7889,7.025379649391155
2749.9952,6.468590080687122
2751.2008,6.809179379744194
2752.4057,3.4471295560232846
2753.61,9.982422550893531
2754.8136,7.065040271252826
2756.0165,-1.60503547582519
2757.2188,0.6721770460828225
2758.4204,2.0966756077045403
2759.6213,6.118457973045949
2760.8215,5.337521885146344
2762.0211,1.653865025860469
2763.22,3.4674850236678623
2764.4182,4.628379490509474
2765.6158,2.8865460036514605
2766.8127,4.841982094076258
2768.009,1.8946852639008682
2769.2045,-0.7053470331774605
2770.3994,0.6418826375917774
2771.5936,0.98637875737586
2772.7872,3.778145800923312
2773.9801,1.0171882331188726
2775.1723,-0.29648951893410924
2776.3639,0.5871169616958127
2777.5548,1.318015053870397
2778.745,0.8962121305802242
2779.9346,2.3717155516357877
2781.1235,1.2445326678854656
2782.3117,-2.4853291935394566
2783.4992,0.5821372820469719
2784.6861,0.4969642377693191
2785.8723,4.209183810930838
2787.0579,4.168828133865119
2788.2428,-0.6240707031860495
2789.427,0.13051934833087842
2790.6106,5.232636571435734
2791.7935,4.282319247843148
2792.9757,3.8296056069414846
2794.1573,-0.7754661647041416
2795.3382,-0.13285791882455555
2796.5184,-0.992523760243671
2797.698,-0.8544164665348575
2798.8769,6.18152110004084
2800.0551,5.465354612842816
2801.2327,3.7971496834152987
2802.4096,1.4769718686490876
2803.5859,0.8548866874634342
2804.7615,0.6309596440079588
2805.9364,5.755256233883443
2807.1106,-0.7221580536187275
2808.2842,4.29878221324023
2809.4572,7.0681496805580935
2810.6294,2.7360169514448245
2811.801,8.102456558328967
2812.972,7.867541006278898
2814.1423,11.431342719338502
2815.3119,9.943934042876265
2816.4808,14.60538720794733
2817.6491,14.165774346167566
2818.8167,20.975167443098982
2819.9837,20.433638342645892
2821.15,23.84125867896097
2822.3157,31.498099881860583
2823.4807,38.35423314274851
2824.645,40.209729338047595
2825.8086,48.86465896063838
2826.9716,56.46909210130414
2828.134,57.87309836218158
2829.2957,67.02674678071656
2830.4567,69.13010581562405
2831.617,74.28324325535151
2832.7767,76.53622619704544
2833.9358,75.38912099501995
2835.0941,73.9919932382269
2836.2519,71.94490776172692
2837.4089,68.44792866066088
2838.5653,69.00111931072044
2839.7211,61.354542403118046
2840.8761,57.00825993905502
2842.0306,62.11233330618725
2843.1843,61.51682332208806
2844.3374,63.22179018320752
2845.4899,63.17729347082748
2846.6417,68.78339213401195
2847.7928,65.39014449005197
2848.9433,62.647608168404744
2850.0931,68.70584014462598
2851.2422,68.06489676779537
2852.3907,71.82483369993432
2853.5385,68.83570592241507
2854.6857,72.59756769836176
2855.8323,71.06047260254135
2856.9781,70.4744734837452
2858.1233,75.98962248015997
2859.2679,77.70597102522756
2860.4118,82.37356979249378
2861.555,83.44246867844474
2862.6976,85.61271675583083
2863.8395,85.53436226297782
2864.9808,89.35745258208436
2866.1214,93.03203424000544
2867.2614,95.90815287002157
2868.4007,92.1358531750929
2869.5393,94.26517889909816
2870.6773,98.8961728645576
2871.8146,100.22887695133964
2872.9513,101.41333205035104
2874.0874,100.1495780502098
2875.2227,106.43765382540056
2876.3574,109.07759724891227
2877.4915,107.41944512935731
2878.6249,108.36323318457217
2879.7577,111.00899605819893
2880.8898,111.40676731024736
2882.0212,117.45657939063737
2883.152,115.45846363522114
2884.2821,122.76245020528509
2885.4116,117.16856810753112
2886.5405,125.1768451210365
2887.6686,122.68730785319298
2888.7962,122.1999816596238
2889.923,120.31489066907913
2891.0493,127.48205778830942
2892.1748,126.00150472091616
2893.2997,120.42325189568038
2894.424,123.94731848136794
2895.5476,120.82372244251232
2896.6706,125.15248050417378
2897.7929,122.48360818317539
2898.9145,123.6171197448154
2900.0355,127.203028229556
2901.1559,126.19134544168821
2902.2756,117.28208191347284
2903.3946,120.72524691525717
2904.513,119.87084854456775
2905.6308,123.5688936916787
2906.7479,123.56938804815562
2907.8643,120.92233606987526
2908.9801,124.62774097702051
2910.0953,120.28560478055087
2911.2098,121.04592824514847
2912.3236,120.00871093263947
2913.4368,121.72395119439068
2914.5494,118.69164618168195
2915.6613,110.91179182855355
2916.7725,115.83438288212932
2917.8831,115.30941298041529
2918.9931,116.73687460307369
2920.1024,108.01675907667257
2921.211,105.89905656041135
2922.319,100.6337561333218
2923.4264,104.87084581544529
2924.5331,100.21031262048561
2925.6391,103.20214251343806
2926.7445,100.29632045719498
2927.8493,104.8428303826272
2928.9534,108.29165521764243
2930.0569,105.39277684172006
2931.1597,103.64617605142301
2932.2619,109.35183258938642
2933.3634,105.30972516178369
2934.4643,108.61983138126995
2935.5645,108.23212780740306
2936.6641,115.44658991354265
2937.763,110.66319209072701
2938.8613,113.0819075755286
2939.959,109.652708497888
2941.056,108.97556585692669
2942.1523,100.55044955523903
2943.248,98.1773284056638
2944.3431,89.1561702155353
2945.4375,90.48694181041452
2946.5313,78.2696091243008
2947.6244,74.05413718632416
2948.7169,69.2404902429185
2949.8087,63.528631799976445
2950.8999,55.61852467098575
2951.9904,51.76013103414787
2953.0803,48.30341251147898
2954.1696,45.198330207394065
2955.2582,43.49484474327394
2956.3462,41.942916288516145
2957.4335,41.84250457756981
2958.5202,38.54356892545498
2959.6062,44.546068228766636
2960.6916,41.849960998664166
2961.7764,40.35520530084629
2962.8605,42.81175878251213
2963.9439,39.51957868730877
2965.0267,39.67862183076578
2966.1089,37.088844633216866
2967.1905,40.25020311820965
2968.2714,41.76265293840319
2969.3516,37.72614934395463
2970.4312,40.590647167394565
2971.5102,40.40610086399218
2972.5885,40.22246448311019
2973.6662,37.18969167005032
2974.7432,34.307735667889695
2975.8196,35.5765493478085
2976.8954,42.746085237909604
2977.9705,36.06629551053041
2979.045,40.53713191054751
2980.1188,39.05854582217454
2981.192,42.28048822425386
2982.2645,38.90290970504239
2983.3364,35.72576042999219
2984.4077,34.19899017552616
2985.4783,37.6725483608097
2986.5483,31.2963840630183
2987.6177,31.720445982602
2988.6864,28.494682507047074
2989.7545,30.519041706635306
2990.8219,23.793471366701695
2991.8887,24.4679189673908
2992.9548,24.442331750912487
2994.0204,21.066656714797475
2995.0852,16.890840612153212
2996.1495,16.51482998542059
2997.2131,16.28857120813211
2998.276,9.212010488672007
2999.3383,11.78509387253883
3000.4,7.157767313111044
3001.4611,10.329976645916211
3002.5215,7.101667634904217
3003.5812,6.372785940725215
3004.6404,5.24327715301272
3005.6989,6.613086797672381
3006.7567,1.4821603481771106
3007.8139,3.9504432118689508
3008.8705,1.0178807812683672
3009.9264,3.234418409391388
3010.9818,4.900001439075247
3012.0364,2.364575180813034
3013.0905,1.0280848960978304
3014.1439,2.1404758227769776
3015.1966,3.7516931884169793
3016.2487,-0.13831780082037426
3017.3002,-1.4296119762901967
3018.3511,-1.52224278755277
3019.4013,3.1337505976552578
3020.4509,-0.21165578119734363
3021.4998,3.9915140840207215
3022.5481,4.143238315881966
3023.5958,-0.8065050029562073
3024.6428,-1.6077378312687927
3025.6892,1.2395259291541905
3026.735,-0.464711562176376
3027.7802,3.029551841855181
3028.8247,0.17232293083300476
3029.8685,1.8136084640457355
3030.9118,0.5034151990588285
3031.9544,3.8417498753016943
3032.9963,0.728619227169581
3034.0376,2.664029950640291
3035.0783,2.547988734405429
3036.1184,-0.4694977594836445
3037.1578,5.5115771055445535
3038.1966,1.4412246563441116
3039.2348,3.0194561646533273
3040.2723,6.146282887798286
3041.3092,2.47171605291053
3042.3455,4.295766825658781
3043.3811,6.668446346994649
3044.4161,3.1897657149120846
3045.4505,1.3097359607206478
3046.4842,5.528368083832326
3047.5173,6.8956730705617275
3048.5498,7.6616618519398045
3049.5816,7.676345290040757
3050.6128,8.789734170322216
3051.6434,4.951839201478375
3052.6734,5.612671004306094
3053.7027,5.072240150083871
3054.7314,4.6805571539635125
3055.7594,6.287632480374452
3056.7868,7.993476546940556
3057.8136,4.548099708409396
3058.8398,6.651512239593782
3059.8653,6.703724369825554
3060.8902,9.504746261921454
3061.9145,7.85458801166099
3062.9381,10.053259619776227
3063.9612,9.600771008453371
3064.9835,9.597131999346018
3066.0053,7.342352318100076
3067.0264,10.836441594390159
3068.0469,10.979409384467338
3069.0668,8.721265136218314
3070.086,10.662018187735665
3071.1046,7.151677789899352
3072.1226,12.390253086969189
3073.1399,8.377753151688193
3074.1567,9.964186932896894
3075.1727,9.64956329565829
3076.1882,11.133891005393519
3077.203,10.767178731028096
3078.2173,5.149435030148659
3079.2308,8.28066835267002
3080.2438,7.6108870970126965
3081.2561,9.390099578790505
3082.2678,6.768314037508443
3083.2789,4.695538618770495
3084.2893,5.0717814004975175
3085.2991,6.597050413654991
3086.3083,1.9213536384905936
3087.3169,3.7446989892815488
3088.3248,5.867094361091535
3089.3321,3.738547611537264
3090.3388,6.509066539564522
3091.3449,6.928658906733617
3092.3503,5.69733240951421
3093.3551,5.615094675089399
3094.3593,5.48195327366895
3095.3629,6.697915719311691
3096.3658,3.162989471256939
3097.3681,4.077181921764868
3098.3698,2.9905004314657795
3099.3708,5.352952320218147
3100.3713,6.764544877975471
3101.3711,5.725285341161712
3102.3702,6.335180878555388
3103.3688,5.794238601682178
3104.3667,6.652465558715935
3105.364,7.059868739888135
3106.3607,2.616455068905612
3107.3568,5.572231398876511
3108.3522,2.4272045567444387
3109.347,4.881381313730671
3110.3412,2.284768416784459
3111.3348,3.0373725640412523
3112.3277,2.4892004307888094
3113.32,4.040258661941195
3114.3117,6.240553877520469
3115.3028,4.990092657146114
3116.2932,5.088881518032078
3117.2831,4.136926927491391
3118.2723,3.034235301948268
3119.2608,1.3808130164576689
3120.2488,0.22666641573220403
3121.2361,-0.0281981693236375
3122.2229,4.266225589927998
3123.209,3.3599443038246584
3124.1944,2.0029645400416562
3125.1793,0.6952928326548609
3126.1635,2.9869356957105033
3127.1471,5.127899636301898
3128.1301,3.1681911316530034
3129.1125,4.0578166077088085
3130.0942,1.746782458732362
3131.0753,4.785095038408574
3132.0558,1.9727606829545152
3133.0357,2.559785680736333
3134.015,1.996176300392559
3134.9936,3.481938784963887
3135.9716,4.717079357529233
3136.949,2.101604206348135
3137.9258,3.5855194725093558
3138.902,4.468831276085616
3139.8775,3.551545701294444
3140.8524,4.883668787665071
3141.8267,3.1152065392112593
3142.8004,2.5961649111101046
3143.7735,2.92654982738663
3144.7459,3.656367186104223
3145.7178,3.885622856060767
3146.689,2.0143226694904897
3147.6596,6.542472419771395
3148.6295,4.670077880138258
3149.5989,3.597144758401143
3150.5676,3.173678715669343
3151.5357,2.4496853770806943
3152.5032,4.125170336036273
3153.4701,3.1501391614402987
3154.4364,3.1245973809453034
3155.402,2.248550490702428
3156.367,2.0220039556168494
3157.3315,5.944963218108249
3158.2952,4.767433700376275
3159.2584,4.589420765170942
3160.221,3.110929727567939
3161.1829,3.7319658567487437
3162.1442,5.5025343907855575
3163.105,2.9726405304309402
3164.065,4.592289421412099
3165.0245,-0.1885138202701615
3165.9834,4.730235875462082
3166.9416,2.898545461939813
3167.8993,3.716421845191661
3168.8563,7.08387190226081
3169.8127,5.150902473026228
3170.7684,4.817520326528175
3171.7236,0.6337321802978959
3172.6782,2.399544703691433
3173.6321,6.26496455972751
3174.5854,5.879998387429403
3175.5381,2.8446527631707497
3176.4902,2.7089342045252085
3177.4417,3.322849200619924
3178.3926,2.636404213492698
3179.3428,6.749605671952853
3180.2924,6.1124599784456635
3181.2415,3.4249734679203527
3182.1899,3.087152414201549
3183.1377,4.599003056864154
3184.0848,5.110531604611554
3185.0314,5.471744220157104
3185.9773,6.932647015108856
3186.9227,5.7432460463574095
3187.8674,4.803547301466915
3188.8115,2.263556710569052
3189.755,3.5232801557600375
3190.6979,4.732723496500524
3191.6402,4.791892557018372
3192.5818,3.9507931142142105
3193.5229,5.809430897069753
3194.4633,7.5178115950587845
3195.4031,3.8259408395607846
3196.3423,5.583824186777123
3197.2809,7.24146715464977
3198.2189,8.29887520528245
3199.1563,2.6060537283642304
3200.0931,4.763008030595426
3201.0292,5.269743392615821
3201.9648,5.62626504743512
3202.8997,3.8325781753655948
3203.834,4.488687900456875
3204.7677,5.194599308432806
3205.7008,6.700317440130354
3206.6333,4.9058472844404895
3207.5652,5.511193763251022
3208.4964,7.066361749391285
3209.4271,5.421356060578677
3210.3571,4.826181443866984
3211.2865,4.180842592096441
3212.2154,8.585344149845467
3213.1436,5.089690719884058
3214.0712,6.243886819128776
3214.9982,4.347936913599281
3215.9246,3.2518454068763623
3216.8503,8.705616659061441
3217.7755,8.359254997737484
3218.7001,5.7127646634313045
3219.624,6.716149813077159
3220.5473,4.919414546481679
3221.4701,4.52256289628999
3222.3922,9.375598845953077
3223.3137,7.128526333696293
3224.2346,3.2813492039890146
3225.1549,6.784071230015353
3226.0746,6.836696152145933
3226.9937,6.1892276429106685
3227.9121,4.241669306472516
3228.83,6.644024685102153
3229.7473,6.346297278653574
3230.6639,7.098490520540526
3231.5799,5.400607780713786
3232.4954,8.402652358139225
3233.4102,5.904627497776639
3234.3244,9.456536360559308
3235.238,6.758382048374227
3236.151,8.01016756854304
3237.0634,8.06189586080356
3237.9752,9.513569784791933
3238.8864,6.565192119525351
3239.797,5.266765548885298
3240.7069,8.968292691101347
3241.6163,6.069776111735416
3242.5251,8.421218286666491
3243.4332,5.272621631075804
3244.3408,5.273988475932402
3245.2477,8.825321099479115
3246.154,6.276621727218895
3247.0598,5.377892496401476
3247.9649,9.329135481510377
3248.8694,7.280352703250204
3249.7733,10.931546089034194
3250.6766,5.882717493472069
3251.5793,5.583868661858087
3252.4814,8.785001280659335
3253.3829,7.436116980504215
3254.2838,9.537217304171115
3255.1841,4.538303720077252
3256.0838,8.489377601267677
3256.9829,8.690440275404397
3257.8814,7.841492985255652
3258.7792,4.6925368866852715
3259.6765,6.5435730571421615
3260.5731,7.794602527149853
3261.4692,8.995626261796158
3262.3647,6.19664514822285
3263.2595,6.797659983615453
3264.1538,5.548671503193033
3265.0474,9.29968037419806
3265.9404,8.200687208386288
3266.8329,8.10169252451667
3267.7247,6.8026967593412815
3268.616,7.153700268595281
3269.5066,7.504703339986854
3270.3966,6.055706189687185
3271.286,8.056708958820426
