RamanShift,CorrectedData
30.1047,6547.778573202132
32.3739,6121.115120978023
34.6426,5699.651603276127
36.9109,5276.687893407508
39.1787,4855.923807686712
41.4461,4434.559109661404
43.7131,4011.6935143200094
45.9796,3597.876692305362
48.2456,3174.658274143355
50.5112,2755.8878543811124
52.7764,2335.7149958191767
55.0411,1924.5392336992068
57.3054,1501.4100799057135
59.5692,1095.7770270778142
61.8326,683.089552840524
64.0955,280.4971238610885
66.3579,-119.95080002414272
68.6199,-514.554761783791
70.8815,-874.6141060779858
73.1426,-1136.1730371647866
75.4032,-1135.5670219073347
77.6634,-486.0701768001327
79.9231,1772.6547259768686
82.1824,7490.549770084777
84.4412,19868.257021458165
86.6995,40955.71847112609
88.9574,51830.97591143507
91.2148,55732.3207251744
93.4717,56118.19377682365
95.7282,55968.03537353919
97.9842,55651.08526129541
100.2398,55184.98262638639
102.4949,54685.96609859534
104.7495,54226.97375585566
107.0036,53660.29312924109
109.2573,53327.76120755564
111.5105,52723.76444300037
113.7632,52300.688754498784
116.0154,51876.4195337367
118.2672,51527.99164939308
120.5185,51059.43945138267
122.7693,50607.34677434034
125.0197,50005.29694230653
127.2696,49861.872773248244
129.519,49372.40658507949
131.7679,49046.43019709556
134.0163,48270.27493486772
136.2642,47990.021633502896
138.5117,47685.1506454053
140.7587,47196.24184307894
143.0052,46751.07462217628
145.2512,46102.62790638743
147.4967,45923.93015189169
149.7417,45430.159353842144
151.9863,44996.84304815253
154.2304,44428.70831643505
156.4739,44095.331790333425
158.717,43809.389657204345
160.9596,43278.15766345116
163.2017,42644.51111738332
165.4433,42424.17489452873
167.6844,41855.82344397016
169.925,41521.680790548664
172.1651,40951.32054054704
174.4047,40612.51588503132
176.6439,40152.68960555428
178.8825,39671.51407754358
181.1206,39450.311274899985
183.3582,38978.55277480908
185.5954,38492.509759953406
187.832,38127.25302322993
190.0681,37578.05297261057
192.3037,37401.42963479471
194.5388,37273.95266070127
196.7734,36238.39132723483
199.0075,36446.26453856047
201.2411,35886.79083645939
203.4742,35768.588398250155
205.7068,35344.77504238342
207.9389,34950.768229623995
210.1704,34562.08506728892
212.4015,34330.29231318761
214.632,33785.0063795086
216.862,33614.54333513756
219.0915,33180.36891111007
221.3205,32784.04850231632
223.549,32571.897171842782
225.777,32216.629654935467
228.0044,31919.060361121417
230.2314,31544.303377761415
232.4578,31192.022473025627
234.6837,30863.531099641204
236.909,30743.69239841511
239.1339,30029.119201519025
241.3582,29831.774033687696
243.582,29425.46911936473
245.8053,29117.866384675974
248.0281,28765.727461492577
250.2503,28473.61369050706
252.472,28053.78612475464
254.6932,27765.455532534434
256.9139,27392.382401607734
259.134,27253.576942081287
261.3536,26666.249090137993
263.5727,26534.108509425023
265.7912,26114.864596927073
268.0092,25828.72648428777
270.2267,25528.303042002117
272.4436,25125.252882277848
274.6601,24859.83436203969
276.8759,24611.505586959844
279.0913,24242.57441411219
281.3061,23927.348454455547
283.5204,23631.985076523044
285.7341,23300.741409574337
287.9473,23107.77434654921
290.16,22694.9405473801
292.3721,22492.346440921683
294.5837,22116.548229079257
296.7947,21769.2018888347
299.0052,21625.463176004436
301.2152,21252.4876287129
303.4246,21058.43056882993
305.6334,20719.497105700466
307.8418,20274.542138085242
310.0495,19994.120357550033
312.2568,19665.136252915247
314.4635,19350.744113060086
316.6696,19108.248030212388
318.8752,18870.90190309263
321.0802,18378.159439338757
323.2847,18214.07415787976
325.4887,17946.849393863056
327.692,17596.688300295347
329.8949,17385.89385071485
332.0972,17052.468842692906
334.2989,16819.91589994196
336.5001,16624.237475649745
338.7007,16188.035854804883
340.9008,16029.363156153595
343.1003,15773.021336561818
345.2992,15563.26219260184
347.4976,15222.187363115816
349.6955,15029.448331313273
351.8927,14736.096428181896
354.0895,14542.032834414924
356.2856,14291.108583344641
358.4812,14125.874562883044
360.6763,13763.231518031083
362.8707,13618.280052530965
365.0646,13344.420632492634
367.258,13127.003587843232
369.4508,12784.679115065723
371.643,12740.147279373072
373.8346,12426.55801813145
376.0257,12230.461141305583
378.2162,11977.35633459461
380.4062,11623.943161393094
382.5956,11517.871065322084
384.7844,11306.689373763198
386.9726,11110.4972989194
389.1603,10910.393939926762
391.3474,10555.328284816453
393.5339,10480.499212515715
395.7199,10084.55549639857
397.9052,9941.545805034024
400.09,9824.068706145576
402.2743,9731.222668041257
404.4579,9409.356060788472
406.641,9264.367157142398
408.8235,9178.154135764722
411.0054,8992.115082673496
413.1868,8848.297992105283
415.3675,8661.150768375512
417.5477,8485.32122731665
419.7273,8329.357098149725
421.9064,8105.256025242539
424.0848,7954.265569669398
426.2627,7834.833211452009
428.4399,7525.306351069456
430.6166,7145.832310652484
432.7928,7184.308337078815
434.9683,6823.831605767846
437.1432,6583.099220295975
439.3176,6598.458216001272
441.4914,6153.455562390882
443.6645,6061.68816298739
445.8371,5932.502859778848
448.0091,5651.996434136476
450.1806,5417.8656081065055
452.3514,5330.107047215286
454.5216,5062.717362810501
456.6913,5051.443112938781
458.8603,4943.430805019641
461.0288,4606.276895958152
463.1967,4696.777793225083
465.3639,4557.129858228509
467.5306,4104.12940540869
469.6967,4192.272703634633
471.8622,4177.755980734073
474.0271,3959.825422612019
476.1914,3867.8271733959627
478.3551,3766.257337615185
480.5182,3884.1619811207347
482.6807,3487.5871321010854
484.8426,3424.1287799031634
487.0039,3641.682878998021
489.1647,3550.9453496154674
491.3248,3220.9120755684708
493.4843,3410.928905160581
495.6432,3320.8416544862775
497.8015,2870.0961055307853
499.9592,2962.63800707092
502.1163,2845.563079182575
504.2728,2714.6170123152915
506.4287,2569.3454684629396
508.5839,2318.1940824732883
510.7386,2303.4084635006293
512.8927,2210.184197517323
515.0461,2086.666847461638
517.199,2196.2019541700865
519.3512,1962.235037612576
521.5029,1904.1615957969989
523.6539,1900.9271071089606
525.8043,1640.0770308924693
527.9541,1759.5568074822804
530.1033,1644.6618608124263
532.2519,1464.7875972213878
534.3999,1532.97940660108
536.5472,1615.0826641955646
538.694,1334.5927299191462
540.8401,1484.2049475353124
542.9856,1449.7146474616966
545.1305,1530.7671452738941
547.2748,1275.8077420503541
549.4185,1184.531723561864
551.5615,1267.6843628211427
553.704,1136.060920995602
555.8458,1004.1566465758369
557.987,1064.666776691869
560.1276,1110.3365384321514
562.2675,1051.5611482385284
564.4069,1087.4858114494782
566.5456,1229.5057228878795
568.6837,977.9160665017989
570.8212,979.6620139442821
572.958,623.4387270892621
575.0942,761.6413580140434
577.2299,541.5088306430916
579.3648,489.78006128441484
581.4992,411.0885565728313
583.6329,350.4129302403162
585.766,373.6776892441558
587.8985,480.70383991638664
590.0304,148.55865554888442
592.1616,366.009404626544
594.2922,231.97187153327104
596.4222,44.50818421900476
598.5515,70.52815323461982
600.6802,198.24114449425542
602.8083,-90.44418066426442
604.9358,-84.67114133216819
607.0626,122.41784693666705
609.1888,-227.81878554700234
611.3144,16.4261685733145
613.4393,-81.98780743627867
615.5636,-243.90139440714847
617.6873,-35.254454112480744
619.8103,-290.63441175056505
621.9327,-13.478340327790647
624.0544,-5.620409412775189
626.1756,-145.24465392560523
628.2961,-141.8850526385504
630.4159,-284.8741333298094
632.5351,-359.6930063460022
634.6537,64.430063858832
636.7716,-365.87959383625275
638.8889,-186.49665119653218
641.0056,-191.4421248501094
643.1216,-80.23516832360474
645.237,48.20697736321017
647.3518,-227.0329280071237
649.4659,-104.12212513408303
651.5793,-60.92558665826073
653.6922,18.141715821024263
655.8043,-347.1851886862569
657.9159,180.82872864849196
660.0268,-712.5780349661072
662.137,-110.51698412971018
664.2466,-57.99250478743488
666.3556,-184.8589817792017
668.4639,6.879200635019515
670.5716,-200.18233995616174
672.6786,34.40201396712655
674.785,-270.62211807341373
676.8907,-187.70911690006324
678.9958,45.53663937110832
681.1002,109.91077450117882
683.204,-184.19108820412657
685.3072,-308.4233265381263
687.4097,-126.94031645220821
689.5115,-217.59643081354443
691.6127,155.4039587800944
693.7132,-137.34351709306793
695.8131,-81.89322940883721
697.9123,131.30045223041816
700.0109,210.48315904131596
702.1089,-152.999479072525
704.2061,12.44816568771057
706.3028,96.27172265086847
708.3987,214.9668210213058
710.4941,84.97908904070209
712.5887,438.45415280105954
714.6827,283.8376375446169
716.7761,588.0251641291034
718.8688,755.8123505738695
720.9608,531.6948090180886
723.0522,628.7181440427812
725.1429,512.7779549120532
727.233,1221.8698346028614
729.3224,276.23937096442387
731.4112,606.9321396272717
733.4993,643.0937134595806
735.5867,638.4196592602166
737.6735,399.1555373971496
739.7596,232.64690185412474
741.845,294.5393026233869
743.9298,597.2782873707765
746.014,359.5594008166954
748.0974,224.32818170881364
750.1802,672.0301651992049
752.2624,202.91088419668813
754.3439,354.2158648898185
756.4247,497.3406314380554
758.5048,373.28070445876074
760.5843,606.3815995958794
762.6631,861.1388287605951
764.7413,918.1978978003244
766.8188,1184.204303951119
768.8956,1471.2535352670602
770.9718,1581.2410679602253
773.0473,1504.412363530173
775.1221,1270.0128676640888
777.1962,1293.8880110050159
779.2697,1027.1832114959107
781.3426,1256.6938741408521
783.4147,1399.6653936721123
785.4862,1397.7931522550716
787.557,1221.7225180584865
789.6271,1449.1988452731966
791.6966,1131.0674758728564
793.7654,789.6737373391807
795.8335,754.3129458432013
797.901,838.7804096592517
799.9678,700.8214295185535
802.0339,713.1812977645313
804.0993,789.455299732399
806.1641,725.5887136256206
808.2282,722.82680975314
810.2916,691.4148511680396
812.3544,944.3980936951048
814.4164,631.571786245011
816.4778,780.0811682844214
818.5385,880.4714729643456
820.5986,967.8379256349726
822.658,1197.325742841822
824.7166,1306.830131452094
826.7747,1311.046286359735
828.832,1648.2193893904478
830.8886,1908.1446092594852
832.9446,2007.0170981999545
834.9999,1534.0819893635417
837.0545,1751.5843958317637
839.1085,1835.9194153453645
841.1618,1738.2821281293
843.2143,1454.967596049355
845.2662,1455.3708635885196
847.3175,1594.086960680157
849.368,1266.0109027038998
851.4179,1546.6376890985994
853.467,1352.112306643001
855.5155,1524.4797266495225
857.5633,1372.5849069095057
859.6105,1281.3227899694903
861.6569,1489.1883046501607
863.7027,1210.026366959035
865.7478,1414.4318780117173
867.7922,1360.4497268235718
869.8359,1608.5247882656113
871.8789,1319.0019236043809
873.9212,1612.525978021229
875.9629,1722.6417835074826
878.0039,1847.9441559292245
880.0441,1822.5778939261363
882.0837,1934.0877776585185
884.1226,1986.818569060888
886.1609,2056.065010726903
888.1984,2034.6218253820407
890.2352,2427.883715191165
892.2714,2126.895361972929
894.3069,2363.1514232671834
896.3416,2164.6465353448148
898.3757,2158.475310845206
900.4091,1766.8823407613236
902.4418,2395.1121945013656
904.4739,2080.8594238048245
906.5052,2243.0185564600397
908.5358,2099.5340994468133
910.5658,2014.3505373147855
912.595,2028.3123336182398
914.6236,1534.963931767932
916.6515,2218.5497548915373
918.6786,1591.8642107670894
920.7051,1809.7516849871972
922.7309,1876.0065472258066
924.756,2025.173149059403
926.7804,1966.395823304396
928.8041,1554.0188825255173
930.8272,1993.836619623602
932.8495,1965.5933119592883
934.8711,1749.3832169548914
936.892,1662.3005723768147
938.9123,1806.889598497648
940.9318,1666.0444989670068
942.9506,1619.9594593656075
944.9688,1707.528648613792
946.9862,1274.4462194322841
949.003,1410.4563074665639
951.019,1083.3030356176532
953.0344,1182.1305126820225
955.0491,1201.432836623164
957.063,1461.0540935832832
959.0763,1664.1383576902444
961.0888,1421.9296884614087
963.1007,1745.672128772785
965.1119,1810.0597072810779
967.1223,1678.4864351862925
969.1321,1961.8463055878674
971.1412,1656.9832948004187
973.1495,1569.841359520091
975.1572,1774.364439873214
977.1641,1728.4464602876906
979.1704,1630.6813274478336
981.1759,1723.3629307535157
983.1808,1665.5851432978088
985.1849,1692.1418209401745
987.1884,1798.5768028842867
989.1911,2099.633911412362
991.1932,1763.6069508209039
993.1945,1900.839704410122
995.1951,1960.4259378441275
997.1951,1800.609397778644
999.1943,1734.0838112651836
1001.1928,1676.842887349194
1003.1906,1786.030317735269
1005.1877,1627.6397773596182
1007.1841,1574.6149232981697
1009.1798,1638.3493963504807
1011.1748,1543.5368215699928
1013.1691,1451.4708076266397
1015.1627,971.4449477550297
1017.1556,820.3028206751042
1019.1477,911.2879953923693
1021.1392,624.6940327093253
1023.1299,429.5644843156115
1025.12,545.8928956539457
1027.1093,455.82280787141644
1029.0979,519.8977566561807
1031.0859,557.4112731381974
1033.0731,354.9068832484554
1035.0596,382.6781073438324
1037.0454,285.66846223217726
1039.0304,149.97146089460148
1041.0148,-39.319386544470035
1042.9985,-61.610571460289066
1044.9814,69.64141516510426
1046.9636,-92.8699170342079
1048.9452,-170.75105912051367
1050.926,-66.35757438566361
1052.9061,-83.74332031844824
1054.8855,-69.16149149549892
1056.8642,-40.264445897693804
1058.8421,68.29614941735053
1060.8194,48.01862779469229
1062.7959,80.65132189646101
1064.7717,127.7425639045905
1066.7469,157.09068519453285
1068.7213,254.24401586434396
1070.695,289.9008844412092
1072.6679,181.40961690987024
1074.6402,315.6685363561046
1076.6117,279.8259640516335
1078.5826,240.0802181115214
1080.5527,185.97961385260714
1082.5221,84.37246419094299
1084.4908,183.95708018281584
1086.4587,228.43177204077801
1088.426,268.3948481378684
1090.3925,258.84461456280405
1092.3584,354.72937472035846
1094.3235,154.49742942688317
1096.2879,249.347075951453
1098.2515,326.57661001817905
1100.2145,503.5343248576901
1102.1767,524.0685104348886
1104.1382,746.0774516793463
1106.099,894.2094282799662
1108.0591,1010.3127124648818
1110.0185,1066.2855675201645
1111.9771,1226.2762466287677
1113.9351,1101.032992310771
1115.8923,908.8040348235372
1117.8488,762.4875934140946
1119.8045,506.68187824147753
1121.7596,544.0350918398617
1123.7139,373.9954316766234
1125.6675,383.6110897788385
1127.6204,526.180254433646
1129.5726,452.75111009205284
1131.524,487.02183594332746
1133.4748,453.44060664917924
1135.4248,276.20559200117714
1137.3741,239.71495725646673
1139.3226,148.56686491016444
1141.2705,245.3594750603006
1143.2176,22.190946319242357
1145.164,81.30943484581076
1147.1097,100.96309657691017
1149.0546,34.70008663642511
1150.9989,37.2685591385889
1152.9424,-68.93333214928862
1154.8852,-100.00743383263034
1156.8272,-63.45490387285827
1158.7686,-4.475901157165936
1160.7092,-55.5699506582896
1162.6491,-93.33653263471206
1164.5883,112.12542779885553
1166.5267,107.66793795966805
1168.4644,248.84300404373062
1170.4014,443.9026311704147
1172.3377,724.4488219706909
1174.2732,960.4835746365279
1176.2081,1256.5588801154154
1178.1421,1569.5267197500289
1180.0755,1989.489062317487
1182.0082,2086.0978608996884
1183.9401,2250.605048683625
1185.8713,2118.7625379953242
1187.8017,1936.3222186548155
1189.7315,1730.485959294485
1191.6605,1346.2056091835548
1193.5888,1148.4330002864226
1195.5163,1017.6699511054176
1197.4432,904.4682686585729
1199.3693,930.279749787238
1201.2947,856.1061822880802
1203.2193,811.6993446549895
1205.1432,784.4610068208058
1207.0664,790.7429306013728
1208.9889,788.9468699679492
1210.9106,754.4745709843992
1212.8316,707.2777718251309
1214.7519,805.6582031198195
1216.6715,763.3175884254015
1218.5903,826.3076432422386
1220.5084,842.6300754375334
1222.4257,992.2365846154498
1224.3424,896.0788619538362
1226.2583,1024.2085887081994
1228.1735,1127.0774371732477
1230.0879,1114.2870694016528
1232.0016,1253.1391361752867
1233.9146,1336.485277133208
1235.8269,1351.6771193830864
1237.7384,1328.0662766677378
1239.6492,1157.6043492132703
1241.5592,1117.74292396511
1243.4686,1182.1335762926792
1245.3772,1232.4278703879645
1247.285,1311.2773586216608
1249.1922,1422.383581040187
1251.0986,1544.9980645772157
1253.0042,1528.9223219425985
1254.9092,1604.4078503962119
1256.8134,1662.80613190875
1258.7169,1895.8686324068258
1260.6196,1954.7968011890116
1262.5216,2197.69206859521
1264.4229,2312.255845417356
1266.3234,2493.589520470465
1268.2232,2593.744459447036
1270.1223,2595.5220031037024
1272.0207,2622.6234662596617
1273.9183,2645.5001377788867
1275.8151,2574.6532802991424
1277.7113,2622.7341300031912
1279.6067,2594.4938973272983
1281.5014,2697.9337664803897
1283.3953,2906.00489572647
1285.2885,3244.7084163502077
1287.181,3556.445430576234
1289.0727,3954.2170081821023
1290.9637,4073.5741833809443
1292.854,4343.517950843725
1294.7435,4344.799264505684
1296.6323,4318.819034866887
1298.5204,4299.828128979407
1300.4077,4304.327370707149
1302.2943,4182.467540915743
1304.1802,4070.749377427579
1306.0653,3810.2735762404154
1307.9497,3509.9407926444946
1309.8333,3282.1516438273575
1311.7162,3137.506711877155
1313.5984,3072.4565460605445
1315.4798,2979.6016642691466
1317.3605,2991.342553670027
1319.2405,3032.479671634257
1321.1197,2871.01344561949
1322.9982,2691.344272758608
1324.876,2609.222521474381
1326.753,2418.398533276144
1328.6293,2367.122623581028
1330.5048,2363.945083622195
1332.3796,2261.266180961593
1334.2537,2220.7861595217473
1336.127,2210.255240612536
1337.9996,2185.373623335974
1339.8714,2194.9414846915497
1341.7426,2194.4089798250425
1343.6129,2249.4762419328144
1345.4826,2275.7933822671657
1347.3515,2320.6604895856326
1349.2196,2336.2776298878453
1351.087,2421.4948459668412
1352.9537,2460.862157252872
1354.8197,2585.629558961271
1356.6849,2728.347021698748
1358.5493,2834.7644902157226
1360.4131,2968.9318819791733
1362.276,3028.9990861084407
1364.1383,3008.865962033564
1365.9998,2902.08233889459
1367.8606,2654.4480157429352
1369.7206,2419.3127626092064
1371.5799,2187.6263229795404
1373.4384,2012.888416146976
1375.2962,1895.3487395282718
1377.1533,1593.6069704113288
1379.0096,1282.8627671305621
1380.8652,1090.1157720843185
1382.7201,841.4156148423463
1384.5742,620.9119140732182
1386.4275,530.454280031383
1388.2802,406.8923167621833
1390.132,267.77562300642603
1391.9832,300.7537934360189
1393.8336,139.07642004509762
1395.6832,118.49309182029174
1397.5322,52.90339635746932
1399.3803,48.506920067593455
1401.2278,-6.596751167395269
1403.0745,1.3919680493891065
1404.9204,-71.77727098363539
1406.7656,-14.00483087383327
1408.6101,-30.390357173637312
1410.4538,-5.883355527235835
1412.2968,8.716972020833055
1414.139,9.511482200749015
1415.9805,143.051031655541
1417.8213,106.68647693314779
1419.6613,193.36867315100608
1421.5006,360.4984743597015
1423.3391,536.7267326761466
1425.1769,705.1542966122906
1427.0139,1087.982009312822
1428.8502,1497.0607068709178
1430.6858,1938.5412144999245
1432.5206,2201.1243424426248
1434.3547,2470.660881556396
1436.188,2498.9516006874182
1438.0206,2419.2972439752957
1439.8524,2304.198530570149
1441.6835,2270.606155429101
1443.5139,2171.1707904673167
1445.3435,2115.5430848939104
1447.1724,2143.3736662062875
1449.0005,2143.1131407464345
1450.8279,2123.762093422607
1452.6545,2127.4710877119287
1454.4804,2214.7406658539185
1456.3056,2215.371348813391
1458.13,2220.0636354077833
1459.9536,2123.61800230082
1461.7766,1931.3849039555898
1463.5987,1674.4647735990293
1465.4202,1457.6080251442436
1467.2409,1195.7650557597044
1469.0608,1046.536248037788
1470.88,868.6719726132469
1472.6984,715.122589655497
1474.5161,570.5384506472219
1476.3331,457.26989991992014
1478.1493,361.617276099696
1479.9648,358.68091323999033
1481.7795,288.8111417780674
1483.5935,330.9582885644195
1485.4067,301.52267756140645
1487.2192,305.0546294218366
1489.031,322.0544617832893
1490.842,323.8224892328253
1492.6522,321.60902313696715
1494.4618,296.81437162401926
1496.2705,294.98883960619787
1498.0785,258.2827290276109
1499.8858,295.7463388824617
1501.6924,316.7299655821407
1503.4981,293.53390258059153
1505.3032,316.5084401644672
1507.1075,303.55386568509493
1508.911,283.6704633287263
1510.7138,275.0085142460848
1512.5159,227.8182967511857
1514.3172,206.8000864079695
1516.1178,196.8541565022133
1517.9176,213.03077825168657
1519.7166,198.6802209056259
1521.515,175.30275158296718
1523.3126,194.0486354158711
1525.1094,149.4681357834852
1526.9055,131.66151412449108
1528.7008,140.7290303828995
1530.4954,63.82094318610689
1532.2893,64.38750975422954
1534.0824,14.228986669193546
1535.8747,86.59562986904348
1537.6663,77.8376951495411
1539.4572,62.90543744050228
1541.2473,109.19911089336529
1543.0367,125.66896903052475
1544.8253,61.76526428241414
1546.6132,129.83824782277588
1548.4003,125.68817020771894
1550.1867,172.31528069498017
1551.9723,228.6698272854228
1553.7572,297.35205625679373
1555.5414,394.2122116001301
1557.3247,480.65053433297
1559.1074,598.8672615307296
1560.8893,706.5126254623283
1562.6705,821.4368524080201
1564.4509,903.5901615829353
1566.2305,962.3227639878678
1568.0094,1059.2848615877192
1569.7876,1135.4266467241869
1571.565,1164.4483011461052
1573.3417,1183.2999952480823
1575.1176,1147.3818877802332
1576.8928,1157.8441256596889
1578.6672,1103.5868443297732
1580.4409,1095.1101676553517
1582.2138,1126.5142084654399
1583.986,1146.6990686379577
1585.7575,1219.0148387856825
1587.5282,1211.7115980544077
1589.2981,1318.4394133997812
1591.0673,1331.2483396603457
1592.8358,1422.9884184902512
1594.6035,1495.3596782311724
1596.3704,1532.3621329949237
1598.1366,1616.945781939743
1599.9021,1663.9106089002526
1601.6668,1693.6065815416187
1603.4308,1813.1336508899221
1605.194,1963.8917510351894
1606.9564,2147.430797936093
1608.7182,2316.3506879124106
1610.4791,2500.551295809637
1612.2394,2760.88247330975
1613.9988,2934.644047089234
1615.7576,3168.1858162157478
1617.5156,3349.607550410543
1619.2728,3469.2589877129903
1621.0293,3488.8398326664174
1622.785,3366.8497551215623
1624.54,3169.988390040766
1626.2942,2958.305338717866
1628.0477,2658.3001707468466
1629.8005,2454.2224261386364
1631.5525,2251.9216183211793
1633.3037,2113.2472361801956
1635.0542,1970.148746082199
1636.804,1857.2255932612352
1638.553,1769.37720324986
1640.3013,1762.752983008384
1642.0488,1712.4023218033362
1643.7955,1758.1745912737497
1645.5416,1824.219145934636
1647.2868,1910.5853227192674
1649.0313,1980.3724403187298
1650.7751,2136.129798318263
1652.5181,2292.5566764993746
1654.2604,2403.202333282312
1656.0019,2564.1160041617477
1657.7427,2789.4469006003346
1659.4828,3029.9942084195754
1661.222,3151.857085546515
1662.9606,3159.184659608265
1664.6984,3046.226026713379
1666.4354,2751.580251378564
1668.1717,2372.0463676582767
1669.9072,1908.3233820911973
1671.642,1557.2102774955329
1673.3761,1319.106017606282
1675.1094,1075.3095505863457
1676.8419,908.0698114075731
1678.5737,749.6857242887345
1680.3048,654.6562043679023
1682.0351,585.4301592862885
1683.7646,462.7564901385613
1685.4934,437.2340921650957
1687.2215,396.51185597871336
1688.9488,297.1386678198942
1690.6754,260.9134099640087
1692.4012,307.3349617150452
1694.1263,239.65219976786466
1695.8506,251.91399774398633
1697.5742,222.66922686841644
1699.297,173.96675584702098
1701.0191,111.25545115899331
1702.7404,126.48417754386173
1704.461,67.2517986286075
1706.1808,98.95717677537323
1707.8999,69.79917367378766
1709.6182,78.57665002392605
1711.3358,79.03846582787628
1713.0527,72.13348030197994
1714.7688,17.46055187219281
1716.4841,30.41853824314603
1718.1987,60.656296944875066
1719.9126,37.57268520323305
1721.6257,21.916559637513274
1723.338,29.08677649128549
1725.0496,17.982191788974887
1726.7605,7.051661264149516
1728.4706,-20.605959529440952
1730.18,-46.79181510855233
1731.8886,-7.2568441364182945
1733.5964,-9.501517826036434
1735.3036,-8.926234894537629
1737.0099,-3.731299138889881
1738.7156,11.133074817014858
1740.4204,-24.333290375034267
1742.1246,0.8694278254206438
1743.8279,-0.3087049515997933
1745.5306,-21.01762308475918
1747.2325,0.2427421312277147
1748.9336,-8.777330632308804
1750.634,-46.027562706452954
1752.3336,-9.007587736765345
1754.0325,27.98342044654055
1755.7307,10.696377999043762
1757.4281,37.53220079648963
1759.1247,47.391804607672384
1760.8206,85.72610482606979
1762.5158,81.78601637124302
1764.2102,64.02245330550795
1765.9039,62.3863288733246
1767.5968,79.5785556789433
1769.289,79.25004570275269
1770.9804,89.75171012936153
1772.6711,123.93445935087766
1774.361,121.94920286190245
1776.0502,136.5468489176783
1777.7386,149.57830455397016
1779.4263,113.99447544107716
1781.1132,163.49626575352522
1782.7994,151.63457852588726
1784.4849,160.2603151577896
1786.1696,167.4243755325151
1787.8535,158.57765793075305
1789.5367,185.32105895895074
1791.2192,174.65547363778933
1792.9009,168.98179513474315
1794.5818,225.45091487073842
1796.2621,226.0637225768878
1797.9415,208.37110572979873
1799.6202,208.5739495454509
1801.2982,249.17313715611635
1802.9755,207.36954960833646
1804.6519,234.01406545692225
1806.3277,218.00756118298887
1808.0027,165.80091092752264
1809.6769,215.09498665144565
1811.3504,221.49065865767625
1813.0231,237.13879509819708
1814.6951,234.94026191008743
1816.3664,282.4459226590425
1818.0369,292.80663856136744
1819.7067,294.5732680089113
1821.3757,288.34666646545884
1823.044,322.777686449077
1824.7115,342.46717759437524
1826.3783,295.2659863081881
1828.0443,313.5749555726816
1829.7096,292.19492541737964
1831.3741,334.97673273605506
1833.0379,322.17121150054663
1834.701,337.67919233292014
1836.3633,342.00150263353316
1838.0248,349.0389664259601
1839.6856,347.8424043137584
1841.3457,389.6126334101027
1843.005,422.0504673497562
1844.6636,416.30671587135294
1846.3214,367.8821844930335
1847.9785,415.9776745698855
1849.6349,437.4439837781665
1851.2904,426.73190563436583
1852.9453,438.7922292805397
1854.5994,411.025739591425
1856.2528,474.53321705384406
1857.9054,495.41543804436697
1859.5572,506.1231741942356
1861.2083,516.7071921805455
1862.8587,511.51825361917145
1864.5084,536.3571149589316
1866.1572,540.6245275334659
1867.8054,540.6712373128648
1869.4528,515.7479848609692
1871.0994,540.8555053349228
1872.7453,563.994528734389
1874.3905,558.1157796504776
1876.0349,545.4699770343577
1877.6786,534.307834256042
1879.3215,594.1800592308518
1880.9637,569.1373545310325
1882.6051,585.1804167870432
1884.2458,581.9099369379674
1885.8858,548.6266000710984
1887.525,590.8810854546336
1889.1634,568.8240668705021
1890.8011,553.8562121918276
1892.4381,585.3281836034948
1894.0743,601.390637751836
1895.7098,598.4442254298956
1897.3446,577.7395914168228
1898.9786,583.9773745073289
1900.6118,614.3582077187311
1902.2443,590.9327182285851
1903.8761,590.5015270708718
1905.5071,554.915249370244
1907.1374,583.2244943463393
1908.7669,575.4798656696512
1910.3957,580.1819611784304
1912.0237,560.831372956136
1913.651,549.7286872844143
1915.2776,549.9244848366106
1916.9034,549.0693407887902
1918.5285,524.0138248177773
1920.1528,530.9085011097122
1921.7764,547.5539286106105
1923.3992,522.4506609574019
1925.0213,471.34924631148533
1926.6427,468.55022760975226
1928.2633,482.55414307561296
1929.8832,487.26152624698443
1931.5023,445.9729058362409
1933.1207,495.688805683154
1934.7383,490.5097451677666
1936.3552,438.2862387132391
1937.9714,442.9187958376333
1939.5868,416.9079216761602
1941.2015,414.45411693485585
1942.8154,399.50787815067997
1944.4286,395.61969771605254
1946.041,390.84006402833074
1947.6528,378.1694615286724
1949.2637,372.30837074984083
1950.8739,394.7072684429004
1952.4834,367.91662763584463
1954.0921,393.33691740958784
1955.7001,381.7186031658948
1957.3074,366.36214637316334
1958.9139,359.2180046826106
1960.5197,395.6866320818408
1962.1247,344.01847896628715
1963.729,313.3139917745175
1965.3325,308.5236135049163
1966.9353,311.6977840227337
1968.5374,291.086940107989
1970.1387,309.99151542372783
1971.7393,289.0619407221293
1973.3392,336.5986436554613
1974.9383,300.2020489853767
1976.5366,247.77257810754418
1978.1342,274.9106494156149
1979.7311,302.76667882552465
1981.3273,282.79107950410616
1982.9227,265.83426159053124
1984.5173,270.79663239606816
1986.1112,253.57859657365043
1987.7044,256.4305560682442
1989.2968,256.85291028904066
1990.8885,273.24605608093043
1992.4795,271.81038772028114
1994.0697,252.49629675100368
1995.6592,232.90417199890544
1997.2479,256.48439976483314
1998.8359,260.4873640205951
2000.4232,234.86344617315808
2002.0097,231.21302502462459
2003.5955,220.78647702846683
2005.1805,233.73417632603014
2006.7648,237.35649485080648
2008.3484,230.6538021989436
2009.9312,254.87646559304085
2011.5133,226.12484994915394
2013.0946,251.94931763458408
2014.6752,251.6002287553947
2016.2551,249.3279408981507
2017.8342,241.98280913342387
2019.4126,217.06518603851327
2020.9902,220.07542177089272
2022.5672,227.5638643173861
2024.1433,221.6808594640661
2025.7188,204.42675072137172
2027.2935,230.55187938293966
2028.8674,220.90658469814298
2030.4406,213.94120361083333
2032.0131,175.60607085581069
2033.5849,193.05151902845864
2035.1559,188.07787896809896
2036.7261,231.48547958354175
2038.2957,231.92464790282247
2039.8645,214.59570863912631
2041.4325,251.19898418639423
2042.9998,224.08479479261405
2044.5664,218.3034581937918
2046.1323,198.35528988508122
2047.6974,220.14060317861004
2049.2617,210.20970940295956
2050.8254,208.61291768529645
2052.3883,237.30053505070464
2053.9504,209.72286643814004
2055.5118,214.03021441355122
2057.0725,191.62287944566742
2058.6325,183.45115986292058
2060.1917,203.01535207752113
2061.7502,211.46575066716923
2063.3079,182.15264817941443
2064.8649,193.5763350471525
2066.4212,218.0370998817516
2067.9767,219.13522935882065
2069.5315,193.22100797360508
2071.0856,187.49471802999778
2072.6389,171.40663989968743
2074.1915,149.90705207941483
2075.7433,138.64623135186594
2077.2945,144.12445300064974
2078.8448,148.891990922918
2080.3945,159.3491175745803
2081.9434,177.29610392262657
2083.4916,157.0332193405602
2085.039,153.81073142893
2086.5857,164.97890621795523
2088.1317,152.23800819975713
2089.677,174.68830021667145
2091.2215,174.38004358865692
2092.7652,149.3134978887956
2094.3083,178.68892094637158
2095.8506,171.6565690975367
2097.3921,215.31669689155842
2098.933,192.4695571611428
2100.4731,169.96540058583196
2102.0124,196.80447592047858
2103.5511,193.0870302202893
2105.089,211.11330857242683
2106.6261,213.13355413319005
2108.1626,183.0480079477502
2109.6983,193.05690892994608
2111.2332,214.91049416314036
2112.7675,197.6589988001324
2114.301,197.2026558446205
2115.8337,209.99169632371832
2117.3657,202.926349292522
2118.897,218.1068417062179
2120.4276,206.48339849073363
2121.9575,198.65624239093358
2123.4866,218.22559408685265
2125.0149,208.34167227196667
2126.5426,181.95469345749916
2128.0695,197.7648720712532
2129.5956,217.77242072148874
2131.1211,213.32755003882357
2132.6458,222.03046847615224
2134.1698,190.63138235309634
2135.693,202.08049576898247
2137.2155,222.57801091682177
2138.7373,207.77412796882527
2140.2584,205.96904487142183
2141.7787,197.26295749331075
2143.2983,194.2060596434976
2144.8171,173.19854315835983
2146.3353,183.39059793221713
2147.8527,170.53241212740886
2149.3693,193.02417207236977
2150.8853,167.01606239021385
2152.4005,177.8582657738125
2153.9149,185.7509632458814
2155.4287,167.24433405055242
2156.9417,231.9385555744493
2158.454,198.13380353175853
2159.9655,188.43025131728245
2161.4764,194.92807034449288
2162.9865,189.17743014256303
2164.4958,187.37849829139122
2166.0045,178.38144047910282
2167.5124,198.4364205200436
2169.0195,188.8936004447405
2170.526,212.80314029935926
2172.0317,196.6651982411331
2173.5367,193.97993029926602
2175.0409,206.49749053631422
2176.5445,203.11803107504056
2178.0473,223.8417019732351
2179.5494,208.66865125751065
2181.0507,183.74902471606765
2182.5513,189.48296605043288
2184.0512,181.7706171246382
2185.5504,208.11211790788911
2187.0488,179.75760655168597
2188.5465,171.4572191264142
2190.0435,161.41108990488283
2191.5397,177.76935144533218
2193.0353,167.33213469189195
2194.5301,163.39956881099351
2196.0241,155.87178129575295
2197.5175,168.14889800529363
2199.0101,134.48104324002088
2200.502,128.76833961885768
2201.9931,121.6609084159154
2203.4835,124.90886961762499
2204.9733,120.41234199381506
2206.4622,137.52144306523132
2207.9505,116.18628914849069
2209.438,93.50699518500551
2210.9248,103.7836749543294
2212.4109,100.96644130094774
2213.8962,105.55540603151076
2215.3809,123.25067994301025
2216.8648,109.40237277688266
2218.3479,115.06059304205883
2219.8304,102.77544815345118
2221.3121,88.49704437536639
2222.7931,101.82548694436446
2224.2733,85.26088021203668
2225.7529,78.10332751172245
2227.2317,89.25293132415572
2228.7098,102.35979334904277
2230.1872,79.22401439356145
2231.6638,91.84569424129859
2233.1397,68.27493188360495
2234.6149,71.66182539338115
2236.0894,89.90647216077741
2237.5632,98.0089688593298
2239.0362,69.06941126350921
2240.5085,62.937894167699596
2241.9801,67.31451167558953
2243.4509,74.99935726149215
2244.921,64.44252372658138
2246.3904,62.94410312203672
2247.8591,87.554186854617
2249.3271,73.02286570164415
2250.7943,47.00022956489374
2252.2608,45.03636761591679
2253.7266,72.8313685562598
2255.1917,56.685320637109726
2256.656,66.04831138134523
2258.1197,54.620427744988774
2259.5826,32.60175602358231
2261.0447,49.09238196646584
2262.5062,63.54239099696861
2263.9669,77.85186804749992
2265.4269,81.27089741504915
2266.8862,68.14956261809766
2268.3448,75.7379463624211
2269.8026,86.48613067230781
2271.2598,88.44419681466843
2272.7162,63.012225191552716
2274.1719,74.14029532057248
2275.6268,55.928486089217586
2277.0811,79.52687564357711
2278.5346,78.28554157045619
2279.9874,80.40456066139541
2281.4395,86.13400892508162
2282.8908,55.67396156615541
2284.3414,98.12449292792007
2285.7914,88.13567679694279
2287.2406,88.90758597855256
2288.689,84.39029239672254
2290.1368,74.63386708635244
2291.5838,85.93838023843819
2293.0302,87.5039012976431
2294.4758,70.83049884925094
2295.9206,91.91824060350882
2297.3648,78.5171935623639
2298.8082,95.97742380858199
2300.251,84.2489966397552
2301.693,82.08197639370428
2303.1343,92.42642656576572
2304.5748,83.38240983045489
2306.0147,91.94998793803006
2307.4538,94.47922180492878
2308.8922,89.07017142809309
2310.3299,98.27289585967901
2311.7669,89.68745326114458
2313.2031,68.8139008112239
2314.6387,80.05229479178251
2316.0735,79.8526907965479
2317.5076,79.01514361872887
2318.941,80.18970725300005
2320.3737,76.426434903894
2321.8056,79.67537897405236
2323.2369,81.23659110184781
2324.6674,65.96012212890219
2326.0972,91.29602208447432
2327.5263,70.04434033822417
2328.9547,72.40512534685331
2330.3823,71.37842486662066
2331.8092,97.16428592973898
2333.2355,87.6627548546403
2334.661,94.27387698811071
2336.0858,97.34769680031877
2337.5098,101.68425781869064
2338.9332,103.98360259717174
2340.3558,94.79577267286459
2341.7778,102.12080854304531
2343.199,75.65874975702809
2344.6195,82.25963484292151
2346.0393,83.92350157225337
2347.4583,88.70038689395096
2348.8767,116.49032691771572
2350.2943,102.24335686624727
2351.7113,120.3595107973415
2353.1275,107.63882174636638
2354.543,114.48132154509221
2355.9578,113.73704094890763
2357.3718,92.40600956838261
2358.7852,87.88825587671727
2360.1978,94.28380742305217
2361.6098,109.2926908776426
2363.021,80.06493196791325
2364.4315,96.85055532836395
2365.8413,97.2995847928496
2367.2504,113.96204322672565
2368.6587,91.73795252235686
2370.0664,81.77733343249383
2371.4733,79.3302057925066
2372.8795,80.64658861999123
2374.285,68.87650013922575
2375.6899,77.06995776803387
2377.0939,68.82697823546232
2378.4973,57.14757749986711
2379.9,57.33177083133478
2381.3019,64.12957292847705
2382.7032,62.49099791659546
2384.1037,76.11605927969276
2385.5035,61.15476987686543
2386.9027,50.35714180605282
2388.3011,61.523186553646156
2389.6987,72.9529151024708
2391.0957,60.696337820121244
2392.492,66.20346434466364
2393.8876,61.12430370720176
2395.2824,53.7588642768078
2396.6765,50.057153811310855
2398.07,62.01917953095381
2399.4627,62.844948155407565
2400.8547,67.03446578415378
2402.246,39.737737888222455
2403.6366,34.904769268305245
2405.0265,38.2355643277192
2406.4156,47.43012712073596
2407.8041,34.188461319275575
2409.1918,40.660570120960074
2410.5789,46.09645638152824
2411.9652,36.6461225501148
2413.3508,33.55957061489062
2414.7358,8.786802197570523
2416.12,11.5778185842737
2417.5035,25.282620973258418
2418.8863,14.951210447005906
2420.2684,33.48358783517142
2421.6497,21.52975381790111
2423.0304,-4.710291259494625
2424.4104,1.713452733001759
2425.7896,7.301032981211392
2427.1682,18.80249665382462
2428.546,27.967890846521186
2429.9232,11.647262466955908
2431.2996,38.290658143108885
2432.6753,13.048124386484687
2434.0503,24.919707325685522
2435.4246,23.055452958834394
2436.7982,21.45540703485949
2438.1711,24.81961507213373
2439.5433,25.298122374479135
2440.9148,11.040973997519359
2442.2856,5.298214743897461
2443.6557,3.4198893058473914
2445.025,13.756042322621852
2446.3937,20.156718399276542
2447.7617,20.771962003309
2449.1289,22.501817400651362
2450.4955,20.34632864951618
2451.8613,16.305539583098835
2453.2265,16.929493831132277
2454.5909,35.018234860296616
2455.9546,21.221805967979435
2457.3177,21.94025010138921
2458.68,28.42360999551738
2460.0416,28.371928165956433
2461.4025,32.23524684406448
2462.7627,48.863607977480115
2464.1222,39.507053191491195
2465.4811,29.46562362275199
2466.8392,31.989360012847555
2468.1966,36.92830280870794
2469.5533,48.2324921373729
2470.9093,60.301967756598515
2472.2645,56.38676894181708
2473.6191,59.136934365445086
2474.973,46.30250213603131
2476.3262,59.58350977075588
2477.6787,54.62999432377501
2479.0305,37.34199225341081
2480.3816,34.269539471687494
2481.7319,47.56267151721477
2483.0816,31.421423585908087
2484.4306,42.79583039805675
2485.7789,26.235926359737277
2487.1264,29.99174544907146
2488.4733,35.76332138182215
2489.8195,28.60068757383533
2491.165,35.4538770833251
2492.5097,47.3729226825003
2493.8538,23.507856789031848
2495.1972,23.908711346865402
2496.5398,17.72551806486672
2497.8818,37.00830841281959
2499.2231,24.557113683254556
2500.5637,29.421964798616955
2501.9035,26.552892435784088
2503.2427,35.449926977412815
2504.5812,18.313098540636474
2505.919,13.942436888088196
2507.256,21.887971599271168
2508.5924,20.399732114267408
2509.9281,28.52774765428012
2511.2631,34.02204723651403
2512.5974,25.63265959290038
2513.9309,26.60961311515075
2515.2638,17.50293593864899
2516.596,35.562655932686084
2517.9275,21.43880079152632
2519.2583,13.681397853807084
2520.5884,4.740474243780227
2521.9178,10.516056948885762
2523.2465,18.258172909160294
2524.5745,0.26684895948301346
2525.9018,-1.007888247847859
2527.2284,-1.8160120631978316
2528.5543,7.94251423186779
2529.8796,17.317745497744
2531.2041,31.60973651540189
2532.5279,39.26854189263531
2533.851,35.39421592114104
2535.1735,39.23681249993115
2536.4952,27.79638517407784
2537.8163,42.32298709628594
2539.1366,42.71667114130014
2540.4562,34.47748976063349
2541.7752,56.60549497863758
2543.0935,49.45073847488493
2544.411,54.113271362897194
2545.7279,53.093144261688394
2547.0441,69.59040724913984
2548.3596,70.30510987220259
2549.6744,59.137300981924
2550.9885,49.287028726302196
2552.3019,63.75434066196385
2553.6146,68.1892838526669
2554.9266,53.3419047246266
2556.2379,55.66224902216618
2557.5485,71.45036195619332
2558.8585,50.75628818099267
2560.1677,68.43007163634684
2561.4762,80.67175575447754
2562.7841,73.68138328330724
2564.0913,69.95899616403995
2565.3977,88.20463560106646
2566.7035,82.96834209919143
2568.0086,89.95015528117119
2569.313,90.15011394008252
2570.6167,77.46825596949657
2571.9197,88.05461836148788
2573.222,97.15923733344698
2574.5236,92.33214822222226
2575.8246,83.32338539307011
2577.1248,119.63298228792382
2578.4244,102.16097151548274
2579.7232,108.95738448812426
2581.0214,110.22225159661457
2582.3189,135.90560214214884
2583.6157,115.2074643236997
2584.9118,133.57786498118412
2586.2072,112.66682980244696
2587.5019,108.5743831395539
2588.7959,123.50054821790354
2590.0893,137.44534717715305
2591.3819,135.10880092195475
2592.6739,136.69092898250847
2593.9652,138.391749537926
2595.2557,127.91127940041224
2596.5456,131.34953399825463
2597.8348,133.1065274806283
2599.1234,139.1822726832138
2600.4112,134.47678111062987
2601.6983,124.49006287567181
2602.9848,123.02212674636985
2604.2705,126.57298024585498
2605.5556,124.84262966703636
2606.84,134.53108003709667
2608.1237,120.63833513479358
2609.4067,128.61439739357365
2610.689,124.35926804050268
2611.9707,115.62294701650262
2613.2516,123.8054330189043
2614.5319,127.15672358880965
2615.8115,108.32681502926744
2617.0903,97.21570237175956
2618.3685,100.52337956450265
2619.6461,108.99983958355506
2620.9229,99.19507439974404
2622.199,112.30907489389847
2623.4745,123.84183095489698
2624.7493,119.54333134852868
2626.0234,120.06356360216614
2627.2968,116.00251404774781
2628.5695,106.810167816579
2629.8415,102.23650887993836
2631.1128,94.8815201410057
2632.3835,95.19518348059819
2633.6535,94.22747983071804
2634.9228,95.42838917141671
2636.1914,97.54789054047251
2637.4593,103.28596202138033
2638.7265,107.44258072215689
2639.9931,98.01772271795949
2641.259,108.71136300952139
2642.5242,98.12347561739853
2643.7887,100.75403347503584
2645.0525,104.00300853464432
2646.3156,93.87037174089596
2647.5781,89.55609299843604
2648.8398,99.51014127320605
2650.1009,78.88248463558739
2651.3613,96.7230901608616
2652.6211,93.83192413548682
2653.8801,97.30895187869123
2655.1385,99.4041377713861
2656.3961,100.61744522139338
2657.6531,103.24883664249501
2658.9094,106.19827344229907
2660.1651,102.41571599592908
2661.42,105.25112361652441
2662.6743,122.90445459306943
2663.9279,123.37566616203821
2665.1808,105.41471433086167
2666.433,128.6715538732151
2667.6846,113.6961385086272
2668.9354,116.93842066991215
2670.1856,125.79835165292411
2671.4351,130.07588158413455
2672.6839,112.32095933203186
2673.9321,128.28353246434767
2675.1795,114.96354742560538
2676.4263,118.91094937749358
2677.6724,122.22568233206607
2678.9179,131.8076891122671
2680.1626,135.0069113187874
2681.4067,140.47328923424084
2682.6501,131.50676179117386
2683.8928,134.10726651740129
2685.1348,147.37473962567083
2686.3761,122.85911598766029
2687.6168,118.51032900130076
2688.8568,121.3283108359326
2690.0961,114.41299247579559
2691.3348,126.76430369184664
2692.5727,121.28217311091407
2693.81,117.46652809218381
2695.0466,123.56729478202283
2696.2826,124.48439815213237
2697.5178,139.21776193854134
2698.7524,125.7173086324351
2699.9863,116.83295933282193
2701.2195,107.36463388153925
2702.452,126.41225095209529
2703.6839,126.92572814435289
2704.9151,117.45498179405195
2706.1456,123.24992696767708
2707.3755,132.11047755716322
2708.6046,134.28654622194722
2709.8331,130.62804430036158
2711.0609,142.28488178787416
2712.2881,156.70696737367302
2713.5145,151.69420832409855
2714.7403,167.79651033842174
2715.9654,168.3137775989726
2717.1899,165.54591261011728
2718.4136,187.49281619308476
2719.6367,179.50438751364595
2720.8591,179.58052386264353
2722.0809,179.971120735878
2723.3019,204.52607183334544
2724.5223,205.5952690553313
2725.7421,211.7786022568605
2726.9611,216.7759592370062
2728.1795,201.23722567705522
2729.3972,199.26228509053567
2730.6142,195.7510189786044
2731.8306,181.60330684979613
2733.0462,173.46902625513553
2734.2612,154.99805292961605
2735.4756,155.59026087354164
2736.6892,131.39552253723764
2737.9022,119.31370881512771
2739.1145,104.24468928767897
2740.3262,100.58833234222266
2741.5372,94.39450532364413
2742.7475,74.46307457094485
2743.9571,87.99390547918279
2745.1661,81.43686269878572
2746.3744,61.991810000242594
2747.582,54.1086103396749
2748.7889,57.88712605328533
2749.9952,49.77721893619264
2751.2008,53.72875020464403
2752.4057,43.29158057711584
2753.61,19.66557023479777
2754.8136,45.40057892596383
2756.0165,30.646466202233114
2757.2188,36.753091161220254
2758.4204,35.02031259407522
2759.6213,25.24798892441936
2760.8215,31.93597822567108
2762.0211,24.434138318769783
2763.22,26.29232670529541
2764.4182,14.410400642487275
2765.6158,20.08821712466124
2766.8127,16.42563300202937
2768.009,14.972504923921633
2769.2045,3.5286893754118864
2770.3994,21.29404269184988
2771.5936,9.968421173299703
2772.7872,3.8016809068860766
2773.9801,-6.606322119950391
2775.1723,0.9442680422146168
2776.3639,-6.446626660036827
2777.5548,-14.879084289565299
2778.745,-3.6531185074306904
2779.9346,-17.018594332641896
2781.1235,-14.975340289554424
2782.3117,-12.67301488676685
2783.4992,-3.561127029229283
2784.6861,-1.9390590184736993
2785.8723,3.9938424196263895
2787.0579,-11.961750069604705
2788.2428,-2.255163880780856
2789.427,-10.285606910633078
2790.6106,1.3977354731930518
2791.7935,-4.304219343734985
2792.9757,10.059446010173815
2794.1573,12.739691905661175
2795.3382,16.18747861287602
2796.5184,27.103766274570035
2797.698,35.03951487162158
2798.8769,39.945684113870584
2800.0551,41.42323336076379
2801.2327,53.92312157229094
2802.4096,55.196307294210555
2803.5859,60.64374853305003
2804.7615,72.66640274337533
2805.9364,84.11522677331459
2807.1106,107.49117674433342
2808.2842,125.24520793674787
2809.4572,139.72827455596257
2810.6294,158.3913295549321
2811.801,191.43532448933024
2812.972,209.1112093309157
2814.1423,246.91993213709634
2815.3119,277.41243887416636
2816.4808,302.6896730392227
2817.6491,336.4025753552378
2818.8167,376.7020835182859
2819.9837,413.68913186041823
2821.15,453.2646509466658
2822.3157,492.3795672051692
2823.4807,544.1848025314225
2824.645,579.9312738971257
2825.8086,621.9198928321309
2826.9716,653.3515650669797
2828.134,681.5271901130131
2829.2957,724.547660948059
2830.4567,753.9138637346734
2831.617,766.426677389936
2832.7767,776.9369732917894
2833.9358,766.8956151539096
2835.0941,770.3534589206015
2836.2519,761.2613528672148
2837.4089,745.0201375655654
2838.5653,714.6806459748552
2839.7211,722.3437036040857
2840.8761,715.1101288154518
2842.0306,733.4307327477118
2843.1843,742.3063193885237
2844.3374,774.537685391238
2845.4899,794.6756199861425
2846.6417,841.9709046581504
2847.7928,885.5243129454179
2848.9433,942.8866099663937
2850.0931,987.9585519842844
2851.2422,1037.99088583343
2852.3907,1069.834348468587
2853.5385,1115.4896664646012
2854.6857,1161.3075556979773
2855.8323,1191.5387208903223
2856.9781,1229.3338551501708
2858.1233,1272.7936396706693
2859.2679,1298.1687433516272
2860.4118,1334.6598223649175
2861.555,1371.2675199007272
2862.6976,1387.3924658026451
2863.8395,1410.5352762015852
2864.9808,1434.1465533545386
2866.1214,1454.576885413144
2867.2614,1479.9268461875745
2868.4007,1477.296994942235
2869.5393,1479.6878761422631
2870.6773,1508.1000194798269
2871.8146,1509.2839398502167
2872.9513,1494.4901370677242
2874.0874,1492.269095853801
2875.2227,1482.0212859849985
2876.3574,1485.9471623151771
2877.4915,1455.0971648779846
2878.6249,1427.4217188475975
2879.7577,1417.1712348472224
2880.8898,1401.7461092258484
2882.0212,1395.2467241607535
2883.152,1375.373447811754
2884.2821,1364.8766343862017
2885.4116,1372.4066243377126
2886.5405,1357.6137444711385
2887.6686,1356.0483078672637
2888.7962,1359.5606140307386
2889.923,1379.900948905729
2891.0493,1386.6195848407958
2892.1748,1385.116780385492
2893.2997,1379.9427802231753
2894.424,1406.1978151860367
2895.5476,1416.0821023068384
2896.6706,1426.1458445563671
2897.7929,1449.439230744587
2898.9145,1472.1624354200044
2900.0355,1484.8156186367341
2901.1559,1507.4489257272685
2902.2756,1523.3124871759426
2903.3946,1554.7564183926022
2904.513,1568.8308195539694
2905.6308,1581.585775289203
2906.7479,1609.1213545391533
2907.8643,1634.987610428814
2908.9801,1636.9845799919642
2910.0953,1639.1122839125094
2911.2098,1636.9707265045085
2912.3236,1645.9098956908986
2913.4368,1627.1797630249107
2914.5494,1622.8302836006785
2915.6613,1600.1113962405382
2916.7725,1578.0730235385247
2917.8831,1557.8650720875594
2918.9931,1534.3874326998346
2920.1024,1513.289980608891
2921.211,1504.9725757043968
2922.319,1472.0850627431203
2923.4264,1484.927271432104
2924.5331,1476.6990167575395
2925.6391,1476.2500988563474
2926.7445,1461.9303030984581
2927.8493,1458.7394000913014
2928.9534,1468.727145823005
2930.0569,1464.7432816943037
2931.1597,1468.937534418661
2932.2619,1472.9096160621084
2933.3634,1470.159224001303
2934.4643,1485.0360408838053
2935.5645,1464.0897346555846
2936.6641,1450.1699584122498
2937.763,1430.7263506085137
2938.8613,1407.9585351973897
2939.959,1370.3161218246285
2941.056,1324.5487060563955
2942.1523,1277.0558697556953
2943.248,1224.8871815400466
2944.3431,1160.4921972564089
2945.4375,1094.6704605028717
2946.5313,1021.8215032726016
2947.6244,935.0448466120615
2948.7169,859.8400013494995
2949.8087,806.6064689627169
2950.8999,740.6437423311143
2951.9904,678.6013062680274
2953.0803,626.3786381803557
2954.1696,585.2752086889857
2955.2582,552.9404821510182
2956.3462,526.2239170708024
2957.4335,483.07496642328294
2958.5202,451.9430779211657
2959.6062,438.87769444640605
2960.6916,428.3282543615302
2961.7764,419.0441916402874
2962.8605,412.2249359731444
2963.9439,395.41991286012683
2965.0267,380.8285436790111
2966.1089,383.3502458533742
2967.1905,377.3844329985096
2968.2714,390.23051489620775
2969.3516,388.1378975544151
2970.4312,400.35598307877353
2971.5102,398.434169693546
2972.5885,396.92185161943667
2973.6662,414.4684190928085
2974.7432,408.4732583808071
2975.8196,409.98575160589405
2976.8954,408.9052768057986
2977.9705,393.3812079183931
2979.045,406.4629147924976
2980.1188,392.3997633431202
2981.192,381.74111542064134
2982.2645,361.6863289514431
2983.3364,356.2347580444973
2984.4077,338.23575319191355
2985.4783,321.0886613234529
2986.5483,307.5428259865205
2987.6177,275.697587517634
2988.6864,258.90228317788444
2989.7545,238.8062474713871
2990.8219,215.85881231323447
2991.8887,184.15930723045744
2992.9548,179.6070595914996
2994.0204,157.60139492321127
2995.0852,120.84163695637335
2996.1495,119.57710784575306
2997.2131,101.05712853770137
2998.276,82.23101878279897
2999.3383,70.24809732105473
3000.4,54.45768207016852
3001.4611,46.80909024535936
3002.5215,38.451638517269544
3003.5812,24.134643088451526
3004.6404,19.107419776941015
3005.6989,14.519284159426775
3006.7567,2.619551621523783
3007.8139,-8.642462596344899
3008.8705,-0.21744327995133972
3009.9264,-5.055988876866081
3010.9818,2.691304337597103
3012.0364,-4.47610940254674
3013.0905,-4.958775890194829
3014.1439,-8.757196201912507
3015.1966,-4.721821876093941
3016.2487,-5.803016966743371
3017.3002,-12.751098356864986
3018.3511,-6.516324957323491
3019.4013,1.6011717044883653
3020.4509,-6.548674800736535
3021.4998,-3.5659309183167807
3022.5481,-0.8005976723100048
3023.5958,6.2973595368753195
3024.6428,3.2279833068012067
3025.6892,7.841316172056054
3026.735,12.03740063494854
3027.7802,8.516279119374758
3028.8247,14.477993928857018
3029.8685,12.122587281754932
3030.9118,14.350101251648312
3031.9544,19.210577790891193
3032.9963,35.10405870833836
3034.0376,28.38058562073752
3035.0783,32.64019979379839
3036.1184,38.33294220942366
3037.1578,42.808853523114635
3038.1966,47.367974007043586
3039.2348,48.460343505294986
3040.2723,54.03600138827335
3041.3092,58.84498654178071
3042.3455,60.88733731125933
3043.3811,57.51309145370226
3044.4161,59.42228611722942
3045.4505,59.36495787483011
3046.4842,62.69114270527086
3047.5173,57.45087599366889
3048.5498,61.04419249823036
3049.5816,64.82112640265211
3050.6128,59.781711280190166
3051.6434,61.675980055889454
3052.6734,56.65396505697788
3053.7027,62.81569799392423
3054.7314,73.91121001065721
3055.7594,57.090531622949015
3056.7868,61.953692607460084
3057.8136,56.55072216994574
3058.8398,54.981648896624506
3059.8653,57.54650080820829
3060.8902,58.84530537559306
3061.9145,61.77808949420967
3062.9381,55.69487947103676
3063.9612,61.045700995271886
3064.9835,64.63057919916469
3066.0053,60.699538604507666
3067.0264,49.70260308678746
3068.0469,61.53979591449604
3069.0668,58.91113985909897
3070.086,52.416657076664364
3071.1046,55.706369134148986
3072.1226,43.98029707434341
3073.1399,50.438461382974765
3074.1567,40.030882105967635
3075.1727,42.95757878486222
3076.1882,37.31857056088995
3077.203,38.21387614570688
3078.2173,31.59351387778372
3079.2308,27.607501713452564
3080.2438,24.005857293110466
3081.2561,21.68859798107968
3082.2678,20.255740901623994
3083.2789,15.307302962121696
3084.2893,18.093300867393737
3085.2991,18.513751169188595
3086.3083,12.618670238321613
3087.3169,15.108074260470914
3088.3248,9.281979295127996
3089.3321,9.990401250703712
3090.3388,-4.866644057210749
3091.3449,4.760859087072561
3092.3503,3.8229750170149828
3093.3551,4.01976801846979
3094.3593,3.951302339060476
3095.3629,3.0176421862133225
3096.3658,9.618851727841616
3097.3681,4.40499510168263
3098.3698,1.2261363492849
3099.3708,5.382339468146938
3100.3713,0.5236684435063239
3101.3711,-1.5498127932226566
3102.3702,2.7119596841378666
3103.3688,6.959065284395479
3104.3667,-1.1084166107614806
3105.364,2.909593310764592
3106.3607,-1.286814565846555
3107.3568,0.602450115489205
3108.3522,6.1274905661333605
3109.347,4.738409991423737
3110.3412,3.73531153542325
3111.3348,-1.1317017051887888
3112.3277,0.23747332891400674
3113.32,0.992951002757934
3114.3117,5.384845678994566
3115.3028,7.6132717103462255
3116.2932,3.5283433956869885
3117.2831,9.280174957758106
3118.2723,-0.43111941598192516
3119.2608,1.64457436912312
3120.2488,2.1073747146124333
3121.2361,7.507400005579427
3122.2229,5.194768606043738
3123.209,1.5695988049512266
3124.1944,7.3320088393001015
3125.1793,10.782116930393045
3126.1635,11.270041226212811
3127.1471,4.845899766921434
3128.1301,1.409810479980763
3129.1125,10.161891244394155
3130.0942,11.752259925066937
3131.0753,10.581034285285853
3132.0558,16.94833197081499
3133.0357,11.35427052160827
3134.015,22.79896730813664
3134.9936,15.182539587328563
3135.9716,15.805104388122857
3136.949,19.316778587633394
3137.9258,18.917678904922923
3138.902,19.857921865886283
3139.8775,20.987623807241675
3140.8524,20.656900867128115
3141.8267,21.81586897380862
3142.8004,23.71464384897729
3143.7735,26.053340996169652
3144.7459,25.032075681775098
3145.7178,28.75096291164965
3146.689,27.460117441328748
3147.6596,23.859653738838006
3148.6295,28.849685997602194
3149.5989,27.280328172449572
3150.5676,24.80169392971203
3151.5357,21.86389666291757
3152.5032,25.817049517578084
3153.4701,28.861265420566326
3154.4364,34.94665704058457
3155.402,34.52333675772286
3156.367,35.64141660260481
3157.3315,34.35100826062086
3158.2952,36.00222306074744
3159.2584,35.34517198845077
3160.221,33.92996566917526
3161.1829,33.30671437491344
3162.1442,34.37552803835845
3163.105,39.08651625913632
3164.065,33.239788293117925
3165.0245,37.23545300530907
3165.9834,43.673618928317666
3166.9416,42.30439422239721
3167.8993,42.82788661106514
3168.8563,39.644203394795
3169.8127,42.35345144578167
3170.7684,44.355737239777994
3171.7236,47.50116682900227
3172.6782,48.13984582211572
3173.6321,47.62187935276779
3174.5854,48.0973720732097
3175.5381,53.11642815947374
3176.4902,51.22915130661889
3177.4417,50.38564467853968
3178.3926,48.136010926839305
3179.3428,49.03035219926457
3180.2924,54.7687701622022
3181.2415,53.20136599173543
3182.1899,55.27824031626028
3183.1377,54.449493232159
3184.0848,56.465224283031546
3185.0314,57.42553246798303
3185.9773,57.280516221466485
3186.9227,61.08027340367971
3187.8674,61.42490130201543
3188.8115,56.06449659306378
3189.755,58.94915533916594
3190.6979,59.82897304201833
3191.6402,65.3040446138258
3192.5818,65.52446436850357
3193.5229,65.6903259669266
3194.4633,70.10172241472517
3195.4031,66.75874606062663
3196.3423,66.16148855234118
3197.2809,67.41004086999155
3198.2189,66.40449333208582
3199.1563,63.74493558303175
3200.0931,70.88145660319228
3201.0292,72.81414473548082
3201.9648,76.5930876139964
3202.8997,75.16837214469663
3203.834,77.99008446760831
3204.7677,81.00830997107465
3205.7008,74.773133263538
3206.6333,78.48463814335787
3207.5652,79.99290766116246
3208.4964,78.94802408273364
3209.4271,83.55006887392426
3210.3571,84.79912271110695
3211.2865,86.19526543515374
3212.2154,83.03857603894537
3213.1436,85.82913265341006
3214.0712,85.06701257909022
3214.9982,91.75229225823706
3215.9246,86.08504728243169
3216.8503,93.31535232573236
3217.7755,90.743281201347
3218.7001,96.81890678932997
3219.624,90.89230106230289
3220.5473,95.91353502469836
3221.4701,95.432678772026
3222.3922,101.64980144066001
3223.3137,98.21497121264805
3224.2346,100.07825525353971
3225.1549,103.43971974673504
3226.0746,101.64942987485146
3226.9937,105.05744978610934
3227.9121,108.6138426122347
3228.83,106.51867043437915
3229.7473,109.27199424755585
3230.6639,105.77387398159135
3231.5799,109.02436847359218
3232.4954,108.57353550292622
3233.4102,110.57143175871767
3234.3244,114.86811284435538
3235.238,113.91363325751394
3236.151,111.10804634718689
3237.0634,111.55140432323132
3237.9752,114.19375828442396
3238.8864,119.68515821402752
3239.797,120.12565295336717
3240.7069,120.21529014691656
3241.6163,120.95411623789278
3242.5251,118.29217646736006
3243.4332,126.52951486684158
3244.3408,121.86617428493868
3245.2477,124.05219630495768
3246.154,125.08762129154313
3247.0598,124.37248836881771
3247.9649,126.90683541002785
3248.8694,121.74069904469509
3249.7733,127.57411463327267
3250.6766,130.40711631880674
3251.5793,133.28973696860243
3252.4814,134.7220081458937
3253.3829,132.60396008101705
3254.2838,134.535621657089
3255.1841,138.46702043118648
3256.0838,132.59818261503017
3256.9829,132.7791330356706
3257.8814,135.10989519417643
3258.7792,140.49049126382505
3259.6765,144.5209420667949
3260.5731,135.95126702035952
3261.4692,136.08148409658307
3262.3647,140.41160990801706
3263.2595,138.4416597063981
3264.1538,135.6216473393468
3265.0474,140.05158527006708
3265.9404,138.58148460554648
3266.8329,141.7613550522566
3267.7247,139.0912049308543
3268.616,140.42104114438274
3269.5066,140.7008692049732
3270.3966,135.68069322054637
3271.286,134.41051589201442
