RamanShift,CorrectedData
30.1047,6788.836485888141
32.3739,6343.084028109713
34.6426,5897.231502442917
36.9109,5449.978777568553
39.1787,5006.125663195096
41.4461,4562.4719145312365
43.7131,4121.617236724405
45.9796,3681.9112892973126
48.2456,3240.953690556493
50.5112,2800.6940219893636
52.7764,2363.281832673806
55.0411,1928.5166436807594
57.3054,1497.2979524483433
59.5692,1064.9252371295106
61.8326,640.397960904234
64.0955,212.5155763032339
66.3579,-199.72247054674892
68.6199,-601.8667356441293
70.8815,-969.0657797598418
73.1426,-1224.3121510161322
75.4032,-1150.1387165681078
77.6634,-276.6161126924899
79.9231,2641.996514219779
82.1824,9991.092781172722
84.4412,28867.91627875039
86.6995,56411.81049762593
88.9574,59405.56863979329
91.2148,58910.73334312835
93.4717,58429.996651451285
95.7282,57963.15001947496
97.9842,57493.18431761224
100.2398,57033.38983664452
102.4949,56568.456292421346
104.7495,56108.02283045838
107.0036,55649.178030586714
109.2573,55192.25991155722
111.5105,54733.40593562901
113.7632,54269.453013138576
116.0154,53804.98750708837
118.2672,53358.745237786345
120.5185,52905.46148749054
122.7693,52449.52100487157
125.0197,51988.65800954542
127.2696,51538.20619663289
129.519,51079.89874136819
131.7679,50623.668303603474
134.0163,50175.69703239191
136.2642,49725.366570549995
138.5117,49272.90805913728
140.7587,48829.70214195964
143.0052,48379.17897009387
145.2512,47939.71820631974
147.4967,47497.399029625274
149.7417,47050.25013960128
151.9863,46610.04976086458
154.2304,46171.17564752953
156.4739,45726.75508760997
158.717,45287.264907408
160.9596,44849.93147595817
163.2017,44417.130709422374
165.4433,43981.1380754632
167.6844,43549.32859757194
169.925,43125.37685942852
172.1651,42695.007009219575
174.4047,42267.292763877966
176.6439,41838.40741338651
178.8825,41412.97382505508
181.1206,40985.16444780948
183.3582,40564.651316445794
185.5954,40144.35605590844
187.832,39726.749885495345
190.0681,39309.153623060905
192.3037,38890.38768919204
194.5388,38475.92211138412
196.7734,38069.2265282287
199.0075,37656.420193558064
201.2411,37246.42198051229
203.4742,36844.10038566729
205.7068,36441.023533134714
207.9389,36037.35917858528
210.1704,35632.724713279444
212.4015,35235.18716810411
214.632,34843.513217618936
216.862,34458.26918403173
219.0915,34074.07104111518
221.3205,33687.18441805932
223.549,33305.37460331342
225.777,32921.00654845496
228.0044,32530.894872007666
230.2314,32155.303863285215
232.4578,31773.747486292363
234.6837,31386.739383480824
236.909,31012.892879564875
239.1339,30607.67098539143
241.3582,30252.73640167847
243.582,29854.651523067325
245.8053,29499.328441671925
248.0281,29141.17895105971
250.2503,28771.364549804814
252.472,28409.196445069603
254.6932,28043.23555630284
256.9139,27687.092518861333
259.134,27327.927687669544
261.3536,26984.901140781003
263.5727,26623.82268297
265.7912,26279.801849161828
268.0092,25933.797908043583
270.2267,25587.81986550433
272.4436,25244.526468095217
274.6601,24898.526206489143
276.8759,24572.327318913798
279.0913,24231.537794611606
281.3061,23894.965377101747
283.5204,23558.417567588032
285.7341,23231.25162832466
287.9473,22895.624585981634
290.16,22574.393234916497
292.3721,22257.964140530537
294.5837,21938.79364248115
296.7947,21620.587857846105
299.0052,21308.65268431531
301.2152,20991.74380337278
303.4246,20686.316683416066
305.6334,20381.526582925282
307.8418,20067.678553517413
310.0495,19768.627442994257
312.2568,19462.127898480852
314.4635,19160.084369415963
316.6696,18859.1011106171
318.8752,18561.632185300965
321.0802,18275.081468093245
323.2847,17985.05264800333
325.4887,17692.599231289845
327.692,17408.474544360914
329.8949,17122.681736698687
332.0972,16846.673783700557
334.2989,16560.953489537133
336.5001,16291.723489912307
338.7007,16014.33625492044
340.9008,15743.394091738657
343.1003,15470.499147400784
345.2992,15201.503411506725
347.4976,14937.658718951425
349.6955,14670.766752614822
351.8927,14412.729046000299
354.0895,14147.846985903583
356.2856,13899.821814993156
358.4812,13650.004634459074
360.6763,13399.946406493189
362.8707,13149.19795678732
365.0646,12907.409977033894
367.258,12664.183027433333
369.4508,12418.967539112004
371.643,12174.563816554488
373.8346,11940.222040055676
376.0257,11707.192268164836
378.2162,11477.024440029047
380.4062,11250.868377723498
382.5956,11019.223788553129
384.7844,10797.690267314283
386.9726,10577.367298611047
389.1603,10362.304259070661
391.3474,10098.50041954674
393.5339,9929.90494726989
395.7199,9718.56690848575
397.9052,9517.835270140931
400.09,9304.858901996362
402.2743,9102.886578634658
404.4579,8901.516981589899
406.641,8700.198701367306
408.8235,8501.03023945698
411.0054,8306.860010347104
413.1868,8109.286343515581
415.3675,7914.957485371771
417.5477,7724.571601232157
419.7273,7539.626777263722
421.9064,7345.22102238777
424.0848,7173.502270129349
426.2627,6989.218380561273
428.4399,6813.367142021416
430.6166,6633.6962729553925
432.7928,6464.003423675233
434.9683,6295.386178155997
437.1432,6126.342055732777
439.3176,5963.218512786829
441.4914,5807.762944436028
443.6645,5640.1226861661125
445.8371,5481.795015385185
448.0091,5323.477153100204
450.1806,5170.416265500215
452.3514,5021.859465539557
454.5216,4866.353814468428
456.6913,4726.39632331844
458.8603,4580.183954457709
461.0288,4443.163622990403
463.1967,4305.532198218862
465.3639,4161.386505013819
467.5306,4024.8733251907033
469.6967,3896.139398951076
471.8622,3767.6814262478365
474.0271,3638.09606807246
476.1914,3505.3799477396824
478.3551,3383.7796521833006
480.5182,3265.291733283346
482.6807,3148.712709082087
484.8426,3039.189064968923
487.0039,2912.9172548461283
489.1647,2796.843702224156
491.3248,2683.014801484249
493.4843,2579.5269190392573
495.6432,2475.0263944719336
497.8015,2361.659541569803
499.9592,2254.822649370144
502.1163,2155.861983293682
504.2728,2068.0237862129143
506.4287,1983.3542794417372
508.5839,1887.1496636138036
510.7386,1797.956119529248
512.8927,1696.4198091167273
515.0461,1612.5868763253093
517.199,1529.8534481399402
519.3512,1444.9656354197941
521.5029,1364.7195337255253
523.6539,1289.8612241681694
525.8043,1215.2367742115894
527.9541,1136.9422384210848
530.1033,1073.773659209597
532.2519,1000.8770676206914
534.3999,933.4484839602592
536.5472,872.9339185254357
538.694,813.6793722788861
540.8401,744.0308374539818
542.9856,680.984298147363
545.1305,624.9357310153937
547.2748,566.1811059045722
549.4185,519.9663864120448
551.5615,466.63187998571084
553.704,422.7626996091567
555.8458,384.7892966135187
557.987,340.1378989304867
560.1276,297.48089044660446
562.2675,260.23725707082485
564.4069,225.52301287792216
566.5456,192.15157217245724
568.6837,157.9340962840506
570.8212,125.0798269480947
572.958,98.24642813834362
575.0942,73.69031428104063
577.2299,52.11691832057841
579.3648,34.48093703505583
581.4992,19.536546554547385
583.6329,-2.312421455535514
585.766,-26.962330499867676
587.8985,-46.20952098206908
590.0304,-94.50006395210949
592.1616,-92.0795688268845
594.2922,-102.79270096766413
596.4222,-122.33320586082846
598.5515,-130.44380209373776
600.6802,-141.86598614507966
602.8083,-145.5399513599914
604.9358,-156.30447384247964
607.0626,-164.24687575249118
609.1888,-174.7029177683071
611.3144,-177.8567197419252
613.4393,-178.6906562432414
615.5636,-182.23532505357434
617.6873,-180.96953883455717
619.8103,-184.27028971699474
621.9327,-177.51276194602542
624.0544,-173.47029890660633
626.1756,-172.51447063127125
628.2961,-173.46511418437876
630.4159,-168.44034321075742
632.5351,-159.65653843877226
634.6537,-158.87839787780104
636.7716,-153.16902456845855
638.8889,-152.9399343561672
641.0056,-143.55111292782385
643.1216,-131.66101810038526
645.237,-120.17667361522763
647.3518,-101.60378792016127
649.4659,-91.04686889807635
651.5793,-78.40940941001463
653.6922,-66.9939927588639
655.8043,-52.15241893751954
657.9159,-38.485818668908905
660.0268,-28.094801673323673
662.137,-15.229593197720533
664.2466,-2.090418208077608
666.3556,14.822498482011724
668.4639,35.05893207988265
670.5716,57.5186576446722
672.6786,70.85144988500542
674.785,87.20708293433563
676.8907,114.48533021766343
678.9958,137.48596428791643
681.1002,154.15875655322452
683.204,166.00347704694286
685.3072,195.26989426085493
687.4097,220.8077750267912
689.5115,246.3168842238665
691.6127,275.34698452315934
693.7132,302.5478361326095
695.8131,312.069196506709
697.9123,352.3608200745148
700.0109,378.52245814441994
702.1089,410.6038585011629
704.2061,444.8047651443776
706.3028,469.27491796766117
708.3987,500.3140524166374
710.4941,535.2718992441951
712.5887,570.3981842001522
714.6827,595.6926276816303
716.7761,638.654944381844
718.8688,670.9848430370766
720.9608,696.1820259970991
723.0522,731.9461889018276
725.1429,772.6770204293643
727.233,816.8242019384052
729.3224,854.5374070609323
731.4112,887.7663012606936
733.4993,927.6605414561272
735.5867,971.31977568804
737.6735,1012.6936427206456
739.7596,1055.6817716050136
741.845,1097.083781265268
743.9298,1141.7992800687643
746.014,1183.5778654119931
748.0974,1223.4691232735277
750.1802,1270.1226277961468
752.2624,1317.7379408880079
754.3439,1364.4646117560842
756.4247,1403.1021764300021
758.5048,1462.3501572947425
760.5843,1512.0580627043455
762.6631,1561.8253863893551
764.7413,1615.2016069597958
766.8188,1658.986187407405
768.8956,1713.6785745720117
770.9718,1769.6781987035647
773.0473,1822.334472915296
775.1221,1878.84679262367
777.1962,1932.814535021811
779.2697,1985.987058514409
781.3426,2023.2137021780218
783.4147,2096.2437852294024
785.4862,2158.1266066531607
787.557,2214.5614444715466
789.6271,2269.5475551255877
791.6966,2335.334172910698
793.7654,2392.4705094268793
795.8335,2454.755752920806
797.901,2518.4390677144474
799.9678,2576.419593582257
802.0339,2639.796445114269
804.0993,2694.6187111363834
806.1641,2769.9854540765373
808.2282,2839.095709416557
810.2916,2899.348484938404
812.3544,2970.992760033114
814.4164,3038.427485098262
816.4778,3102.551580821506
818.5385,3171.5139375062427
820.5986,3243.763414430381
822.658,3310.398839156682
824.7166,3382.219006810359
826.7747,3455.572679412675
828.832,3525.30858516274
830.8886,3597.925417703962
832.9446,3667.921835426656
834.9999,3745.8964607419693
837.0545,3818.4478793818125
839.1085,3896.874639619171
841.1618,3968.8252515425847
843.2143,4048.9981862718414
845.2662,4125.791875238574
847.3175,4204.754709384419
849.368,4264.535038393165
851.4179,4364.681169901065
853.467,4434.791368899067
855.5155,4523.91385673132
857.5633,4583.196810394096
859.6105,4637.938361644541
861.6569,4748.486596407798
863.7027,4726.289554229697
865.7478,4863.84522717123
867.7922,4923.901560030528
869.8359,5065.406448967275
871.8789,5035.207740902188
873.9212,5171.103232101908
875.9629,5326.7406684810485
878.0039,5374.467744243244
880.0441,5429.082100324762
882.0837,5511.831323917213
884.1226,5568.3129479214695
886.1609,5605.474450120077
888.1984,5533.413252612496
890.2352,5821.276721443493
892.2714,5631.412167323775
894.3069,5905.716842751273
896.3416,5799.287943909811
898.3757,5828.372607926096
900.4091,5390.717913933964
902.4418,6226.070882783533
904.4739,5935.728481417784
906.5052,6024.237614518985
908.5358,5856.09512741214
910.5658,5806.247805179955
912.595,5879.8923743442065
914.6236,5271.125503364216
916.6515,6368.143801900384
918.6786,5489.6938269018865
920.7051,5870.022071636478
922.7309,5813.574974474992
924.756,6122.14891508811
926.7804,5898.190215010771
928.8041,5260.995134556397
930.8272,5885.259875056574
932.8495,6061.230585232981
934.8711,5575.70335495469
936.892,5223.424213478502
938.9123,5551.389134304183
940.9318,5263.694038697315
942.9506,5244.784792409577
944.9688,5432.707208555708
946.9862,4615.857047802645
949.003,5079.380016490242
951.019,4372.621774799787
953.0344,4646.927932118786
955.0491,4658.444054108535
957.063,5026.515659961078
959.0763,5213.538222284042
961.0888,4768.807163419944
963.1007,5347.367853575903
965.1119,5391.615615271003
967.1223,5040.845717550685
969.1321,5654.153375544258
971.1412,5061.633753972601
973.1495,4855.53196101512
975.1572,5266.893054234846
977.1641,5138.062042639562
979.1704,5075.633882568138
981.1759,5212.503478978841
983.1808,4900.115686073652
985.1849,5097.565305929515
987.1884,5411.697091622293
989.1911,5966.755745252209
991.1932,4959.585914802476
993.1945,5317.532188588826
995.1951,5670.789105331132
997.1951,5097.401150573976
999.1943,5014.862753154121
1001.1928,4843.168290934322
1003.1906,5121.562091628766
1005.1877,4388.538434519942
1007.1841,4211.8915476747425
1009.1798,4293.565615274689
1011.1748,4183.804779382437
1013.1691,4035.203139124991
1015.1627,2927.0547517913583
1017.1556,3132.0536343185377
1019.1477,3345.8937743730057
1021.1392,2819.0191283007007
1023.1299,2284.6736189886287
1025.12,2661.4011411336105
1027.1093,2421.595566585798
1029.0979,2529.5507405813332
1031.0859,2518.5604841404565
1033.0731,2116.068592987889
1035.0596,2178.5688376628023
1037.0454,2008.554967543685
1039.0304,1791.770710223369
1041.0148,1379.3597732091512
1042.9985,1402.915846090662
1044.9814,1628.5826046639704
1046.9636,1199.8537106959993
1048.9452,1198.222809667881
1050.926,1229.3335350622074
1052.9061,1185.7795083793608
1054.8855,1193.4043388264254
1056.8642,1067.0016237527234
1058.8421,1078.114948573544
1060.8194,1071.9378880341537
1062.7959,1059.4140060986974
1064.7717,1125.8868560119372
1066.7469,1109.3499804245293
1068.7213,1150.496910728325
1070.695,1058.4711672216654
1072.6679,793.6662586979801
1074.6402,859.1756833660038
1076.6117,766.8429314978348
1078.5826,866.161484773831
1080.5527,930.3748172059277
1082.5221,994.9763941444689
1084.4908,1251.3596716360917
1086.4587,1448.5180957776465
1088.426,1621.6951001524285
1090.3925,1565.2341038585146
1092.3584,1535.2785097770902
1094.3235,1183.77170513702
1096.2879,1107.6570618144178
1098.2515,1076.1279398476981
1100.2145,1138.7276881986982
1102.1767,1097.1496450679915
1104.1382,1236.5871372689144
1106.099,1426.0834806432977
1108.0591,1596.6319786671156
1110.0185,1637.725920555582
1111.9771,1745.4585795575913
1113.9351,1398.7232125448136
1115.8923,1052.8630589343375
1117.8488,655.5713441560583
1119.8045,263.391283111283
1121.7596,266.41608414560324
1123.7139,120.28895297070994
1125.6675,118.00309263417148
1127.6204,336.95170498070365
1129.5726,289.9779906750191
1131.524,340.725147012301
1133.4748,476.086368387987
1135.4248,458.55484579029144
1137.3741,548.5237654465818
1139.3226,475.0363089986713
1141.2705,609.5356526031755
1143.2176,396.2649676663641
1145.164,473.7674194991705
1147.1097,492.0861694499472
1149.0546,509.7143741293912
1150.9989,529.0951852273502
1152.9424,442.671749336565
1154.8852,263.68720775885595
1156.8272,83.58469736934057
1158.7686,140.0573524063002
1160.7092,-19.001693727819656
1162.6491,-100.49930903114
1164.5883,125.057638688304
1166.5267,148.36328561053233
1168.4644,340.26176666500396
1170.4014,556.8972152975475
1172.3377,874.8137615514133
1174.2732,1063.4555299008716
1176.2081,1287.7166360720948
1178.1421,1464.1911851567565
1180.0755,1651.3232693693935
1182.0082,1566.806966282682
1183.9401,1561.0363369560728
1185.8713,1349.205426780958
1187.8017,1118.158265538419
1189.7315,901.0388695174697
1191.6605,584.3412438255691
1193.5888,344.9593845598283
1195.5163,257.73728197394666
1197.4432,197.11892287206865
1199.3693,138.14829148097488
1201.2947,-4.230629943689564
1203.2193,-97.97386052778893
1205.1432,-0.4374193548283074
1207.0664,78.77365325048595
1208.9889,159.40431696786254
1210.9106,179.19953068926407
1212.8316,212.9542517126756
1214.7519,306.7634355440605
1216.6715,340.3220355599042
1218.5903,362.12500206904224
1220.5084,338.4672819771149
1222.4257,351.34381856853724
1224.3424,109.19955174305505
1226.2583,210.72941788699245
1228.1735,369.7783522946702
1230.0879,369.2412881531709
1232.0016,531.2131549517944
1233.9146,536.2888784874667
1235.8269,506.7133792449458
1237.7384,467.8315723461492
1239.6492,164.38836784581508
1241.5592,124.82867112042004
1243.4686,7.897385902550013
1245.3772,-10.31058532345196
1247.285,-96.85034015221026
1249.1922,-154.77687317563687
1251.0986,-147.69421145076922
1253.0042,-195.1548358136497
1254.9092,-86.20975163524417
1256.8134,19.741985310276505
1258.7169,272.10218048406387
1260.6196,423.42263914981595
1262.5216,632.3051638502293
1264.4229,794.7015528937773
1266.3234,936.013598265934
1268.2232,1031.8430840051442
1270.1223,1021.7417847897595
1272.0207,993.5114649796815
1273.9183,967.7538787174199
1275.8151,882.0207702103799
1277.7113,832.6138739884555
1279.6067,649.9849157613498
1281.5014,550.4856129126347
1283.3953,455.21767632607225
1285.2885,333.23281138057064
1287.181,320.2827189028758
1289.0727,389.26909638742654
1290.9637,461.49363812585943
1292.854,634.5080345171591
1294.7435,802.7139713453653
1296.6323,1055.7131280494723
1298.5204,1323.057176041366
1300.4077,1619.4477761757735
1302.2943,1820.3365760768866
1304.1802,2002.2752071744544
1306.0653,1932.4652826948513
1307.9497,1850.9583958417206
1309.8333,1835.4061204940626
1311.7162,1824.9100120212934
1313.5984,1983.671607438795
1315.4798,2156.1424255128404
1317.3605,2302.7739651730044
1319.2405,2571.167703787469
1321.1197,2618.5250956966665
1322.9982,2563.2975695294044
1324.876,2685.336527729247
1326.753,2641.943347106815
1328.6293,2753.9693776193453
1330.5048,2821.1659428046987
1332.3796,2837.1843386610562
1334.2537,2842.1258329749617
1336.127,2793.541665161123
1337.9996,2796.1830462129983
1339.8714,2753.901159188652
1341.7426,2671.2971591843416
1343.6129,2666.072173757322
1345.4826,2591.977303751908
1347.3515,2661.313623351696
1349.2196,2609.332180820533
1351.087,2642.983997809137
1352.9537,2750.770069874943
1354.8197,2914.5913661455634
1356.6849,3137.598828240887
1358.5493,3236.6933686349294
1360.4131,3276.325868425738
1362.276,3180.9471763444635
1364.1383,2961.6581083589735
1365.9998,2763.959448627709
1367.8606,2454.9019516925255
1369.7206,2267.0863444557035
1371.5799,2124.963329270511
1373.4384,1976.283585819394
1375.2962,1955.24777253516
1377.1533,1651.0065280878189
1379.0096,1286.1604715949034
1380.8652,1073.510205663897
1382.7201,907.356320040697
1384.5742,666.8993937361156
1386.4275,506.28999668741744
1388.2802,356.5286921628649
1390.132,239.51603836786308
1391.9832,264.70258994255346
1393.8336,128.83889913191524
1395.6832,157.47551553393714
1397.5322,83.31298745821914
1399.3803,82.85186163963226
1401.2278,-0.8073160201020073
1403.0745,-18.164000447774015
1404.9204,-63.267638505083596
1406.7656,-10.467495595385117
1408.6101,17.43779492165777
1410.4538,-14.150295743340394
1412.2968,60.369703445867344
1414.139,24.949404886963748
1415.9805,122.54042037395993
1417.8213,182.7443614513868
1419.6613,327.6628384383839
1421.5006,564.8474598266657
1423.3391,849.6998308313341
1425.1769,1212.4215510190297
1427.0139,1746.0642114593902
1428.8502,2377.0793910978537
1430.6858,2987.9686514192363
1432.5206,3388.4835301375642
1434.3547,3727.1255350872016
1436.188,3800.546140217655
1438.0206,3778.396782207212
1439.8524,3559.4288597287086
1441.6835,3546.4437336710253
1443.5139,3464.642729328756
1445.3435,3352.877136532079
1447.1724,3433.4982104647534
1449.0005,3356.3571727817653
1450.8279,3293.9552108031494
1452.6545,3269.393478285354
1454.4804,3311.423096045288
1456.3056,3364.5451522059193
1458.13,3285.4107017760143
1459.9536,3141.8707661188782
1461.7766,2805.926333743726
1463.5987,2369.92836174108
1465.4202,2019.8777791422035
1467.2409,1661.7254912790886
1469.0608,1460.4723832849522
1470.88,1227.1693236757892
1472.6984,1061.7671663628826
1474.5161,813.01675298583
1476.3331,660.1189145665812
1478.1493,630.2244739969356
1479.9648,596.3842475675046
1481.7795,477.59904526663377
1483.5935,455.0696711188466
1485.4067,443.89692437267513
1487.2192,438.78159972597496
1489.031,470.6244874376389
1490.842,424.1763733787666
1492.6522,439.88803871419805
1494.4618,384.8602603670588
1496.2705,428.54381086157446
1498.0785,438.4394588733776
1499.8858,444.44796879269416
1501.6924,442.57010062536574
1503.4981,508.4066099327647
1505.3032,479.20824785057994
1507.1075,451.8757604304301
1508.911,447.5598889318753
1510.7138,441.1613700957387
1512.5159,445.13093618722996
1514.3172,357.76931505997345
1516.1178,349.3272301162797
1517.9176,375.50540118077333
1519.7166,327.954544584838
1521.515,357.42537290478504
1523.3126,370.5685954374094
1525.1094,328.3349179052602
1526.9055,314.72504232521896
1528.7008,340.589667430846
1530.4954,252.9794888084616
1532.2893,299.79519863850874
1534.0824,194.68748657164178
1535.8747,285.00703926057395
1537.6663,255.65454141116788
1539.4572,240.73067487920707
1541.2473,261.5861189639654
1543.0367,229.8215505574226
1544.8253,225.2876439356951
1546.6132,251.83507107672267
1548.4003,247.36450170554963
1550.1867,275.4766030289029
1551.9723,314.12203977985337
1553.7572,353.60147393673105
1555.5414,365.6155643366292
1557.3247,400.4149662806267
1559.1074,419.8503314136615
1560.8893,496.42230737651334
1562.6705,550.7815376114668
1564.4509,684.5786605966059
1566.2305,708.5643093022045
1568.0094,886.0891098527536
1569.7876,989.3536812871025
1571.565,1044.1586337832086
1573.3417,1183.7045676255184
1575.1176,1197.842072656873
1576.8928,1184.2717268831002
1578.6672,1088.3440963315988
1580.4409,1018.9097351870623
1582.2138,878.1191867507368
1583.986,756.1229841347777
1585.7575,701.1716516701781
1587.5282,611.1157061266895
1589.2981,585.8056572623645
1591.0673,467.8420087241211
1592.8358,531.3752583008209
1594.6035,531.9558991029189
1596.3704,505.83441892710835
1598.1366,527.7113002505539
1599.9021,561.487020492088
1601.6668,597.012051793412
1603.4308,655.036860681379
1605.194,729.6619077127252
1606.9564,789.0876468938186
1608.7182,920.6145249344372
1610.4791,1056.6929806534645
1612.2394,1212.7234436636718
1613.9988,1369.6063330108846
1615.7576,1658.092055613728
1617.5156,1925.031004694767
1619.2728,2225.7235568956457
1621.0293,2391.3200696077074
1622.785,2490.4208779650617
1624.54,2416.2262931886216
1626.2942,2299.6866015950873
1628.0477,2021.7020653389009
1629.8005,1791.422923577633
1631.5525,1546.9493952518678
1633.3037,1363.3316813879464
1635.0542,1227.7699675427357
1636.804,1079.2644256397907
1638.553,1008.2152153249772
1640.3013,986.7724854515182
1642.0488,916.8363747904914
1643.7955,944.8070122452773
1645.5416,947.8345175508912
1647.2868,1033.7190009942933
1649.0313,1062.210563384113
1650.7751,1228.3592951917744
1652.5181,1407.0152762666148
1654.2604,1599.9285741743952
1656.0019,1951.7992424107033
1657.7427,2382.0773184718746
1659.4828,2746.8628203362496
1661.222,2985.455742161397
1662.9606,3092.056050636271
1664.6984,2978.41368259527
1666.4354,2675.928543952239
1668.1717,2263.750510836908
1669.9072,1779.8794326197167
1671.642,1490.0651360336306
1673.3761,1200.4574300128297
1675.1094,958.8061085908485
1676.8419,782.7609537966528
1678.5737,662.4217380711561
1680.3048,572.638226027666
1682.0351,470.76017565528673
1683.7646,400.7873392167421
1685.4934,374.71946426717477
1687.2215,345.4062943538629
1688.9488,279.64756927690905
1690.6754,253.14302538234733
1692.4012,266.89239621974775
1694.1263,262.79541280726517
1695.8506,230.85180349412803
1697.5742,215.61129400163554
1699.297,206.02360774256886
1701.0191,158.48846597360716
1702.7404,169.70558789120878
1704.461,74.57469110694728
1706.1808,64.59549153534863
1707.8999,99.01770434520404
1709.6182,113.14104405935177
1711.3358,73.66522421047011
1713.0527,64.53995719982959
1714.7688,39.11495469206238
1716.4841,7.439927706393064
1718.1987,46.11458687091363
1719.9126,55.98864273933032
1721.6257,10.561805404207917
1723.338,78.33378439822991
1725.0496,2.4042891484677966
1726.7605,23.07302829866603
1728.4706,27.489710468533303
1730.18,-42.74595595294704
1731.8886,-3.5842628516784316
1733.5964,-16.67507508147355
1735.3036,-7.968221689370694
1737.0099,11.8366348615873
1738.7156,27.889911710883098
1740.4204,-37.157974120367726
1742.1246,-16.306605889942148
1743.8279,18.194804352540814
1745.5306,36.647207460444406
1747.2325,54.95155410520783
1748.9336,40.05879459179778
1750.634,37.61987867568132
1752.3336,29.485755711742968
1754.0325,57.7073746786682
1755.7307,62.635684260303606
1757.4281,101.37163256342683
1759.1247,112.36616706847417
1760.8206,114.17023424217405
1762.5158,123.83477942759964
1764.2102,101.41074682613544
1765.9039,107.94907940082521
1767.5968,133.55071910061088
1769.289,115.06660679494598
1770.9804,115.94768201777515
1772.6711,118.04488315238268
1774.361,169.20914742257992
1776.0502,149.59141087174248
1777.7386,144.4926078511562
1779.4263,153.0136712162075
1781.1132,173.3055323773533
1782.7994,167.71912121492824
1784.4849,197.95536587623974
1786.1696,178.0151928314026
1787.8535,198.1995265709811
1789.5367,203.40928980539502
1791.2192,223.64540326306087
1792.9009,176.70878563831138
1794.5818,224.2503533889958
1796.2621,214.5210212058937
1797.9415,227.5217015372873
1799.6202,233.5033046862518
1801.2982,231.61673868065554
1802.9755,240.9629092133382
1804.6519,284.5927196609846
1806.3277,237.55707099064603
1808.0027,252.10686132346746
1809.6769,242.4429864050253
1811.3504,239.16633945983995
1813.0231,276.12781128800634
1814.6951,258.3282902979663
1816.3664,335.56866213688045
1818.0369,340.9998098686392
1819.7067,312.9226132014446
1821.3757,334.7879484335135
1823.044,321.2466887338378
1824.7115,311.6497039235328
1826.3783,315.84786061126033
1828.0443,314.6920222891731
1829.7096,301.5330492909634
1831.3741,371.2717988034001
1833.0379,336.45912499791484
1834.701,358.44587833324294
1836.3633,361.3329059035277
1838.0248,348.17105121846
1839.6856,390.5611541744038
1841.3457,383.95405118601957
1843.005,406.3505747623676
1844.6636,410.15155357297226
1846.3214,423.7578122238556
1847.9785,422.7701712195303
1849.6349,409.48944682693764
1851.2904,435.81645108532575
1852.9453,419.7519919390452
1854.5994,433.89687297428827
1856.2528,484.3018935797336
1857.9054,487.86784880510095
1859.5572,488.19552885709163
1861.2083,511.73571906373763
1862.8587,558.0891998711104
1864.5084,555.3067466079392
1866.1572,533.8891290220636
1867.8054,497.5371113082583
1869.4528,514.2514523224236
1871.0994,545.3829059450818
1872.7453,535.2322209142567
1874.3905,535.0501405141476
1876.0349,547.7374026766302
1877.6786,563.744739983089
1879.3215,552.2228795375449
1880.9637,576.0225428065805
1882.6051,550.1944457345526
1884.2458,583.2892985055951
1885.8858,554.5578058019164
1887.525,574.9006664728277
1889.1634,550.5185738220734
1890.8011,584.6122154043933
1892.4381,556.3822732693552
1894.0743,602.8294236204092
1895.7098,598.1043370971929
1897.3446,595.5076783110562
1898.9786,604.940105892314
1900.6118,611.9522725162042
1902.2443,561.5948248085679
1903.8761,582.4184032757348
1905.5071,536.0736428080836
1907.1374,554.9611724718161
1908.7669,561.5316159723989
1910.3957,556.1355914656924
1912.0237,535.2237114922445
1913.651,532.9965830312594
1915.2776,527.154807709705
1916.9034,523.7489818245831
1918.5285,506.3296964013589
1920.1528,498.74753722800597
1921.7764,509.2030850292085
1923.3992,503.84691554218625
1925.0213,459.6295994121356
1926.6427,481.70170224579306
1928.2633,476.26378505359753
1929.8832,481.8164040289794
1931.5023,460.5601106027352
1933.1207,460.19545138750254
1934.7383,480.37296839033115
1936.3552,469.29319901630697
1937.9714,456.8066758667974
1939.5868,446.61392685024657
1941.2015,382.71547530703356
1942.8154,408.5618401114061
1944.4286,390.9535363104551
1946.041,378.3410748656679
1947.6528,374.1249628289952
1949.2637,395.55570346899003
1950.8739,346.7337963129594
1952.4834,371.5597369326606
1954.0921,395.4840174325218
1955.7001,355.90712620137856
1957.3074,365.37954767323026
1958.9139,316.10176272301214
1960.5197,325.924248571866
1962.1247,311.3474792799225
1963.729,299.12192564807447
1965.3325,297.04805536373897
1966.9353,283.32633312311737
1968.5374,304.1572206519304
1970.1387,282.1911768426435
1971.7393,274.1786575461483
1973.3392,266.3201157914391
1974.9383,260.3160018657127
1976.5366,230.96676339298028
1978.1342,276.722845394097
1979.7311,275.2846905802562
1981.3273,248.65273889542732
1982.9227,267.82742753073944
1984.5173,246.40919119078717
1986.1112,254.39846190190474
1987.7044,248.14566922634003
1989.2968,250.75124018234783
1990.8885,226.81559930674484
1992.4795,261.43916862882725
1994.0697,265.2723679097526
1995.6592,234.8656142962809
1997.2479,231.11932228246405
1998.8359,234.98390401369397
2000.4232,232.05976932418162
2002.0097,227.6473256983063
2003.5955,205.24697829986144
2005.1805,221.85913001616427
2006.7648,208.3341816820648
2008.3484,207.27253191381897
2009.9312,257.27457724435044
2011.5133,237.04071213386305
2013.0946,215.27132846982022
2014.6752,232.51681576927695
2016.2551,241.92756139659105
2017.8342,234.85395039095238
2019.4126,196.09636537227925
2020.9902,197.10518661195783
2022.5672,213.03079242040985
2024.1433,218.42355913701613
2025.7188,193.1838609708484
2027.2935,190.81206994675085
2028.8674,212.15855615773035
2030.4406,200.32368778867385
2032.0131,179.15783090289005
2033.5849,179.1113495604477
2035.1559,182.58460602984997
2036.7261,206.77796078847678
2038.2957,209.59177248787637
2039.8645,201.07639771181857
2041.4325,199.13219094816486
2042.9998,196.8095046740109
2044.5664,203.6586893751455
2046.1323,212.13009356925795
2047.6974,191.67406373745507
2049.2617,186.59094423954411
2050.8254,219.58107751859097
2052.3883,213.14480415175967
2053.9504,219.08246252040408
2055.5118,217.7443888744374
2057.0725,203.68091727295268
2058.6325,212.94237959760085
2060.1917,209.22910569322812
2061.7502,208.9414232752597
2063.3079,207.5796579668322
2064.8649,204.44413330167572
2066.4212,187.3851707377271
2067.9767,187.9530896884853
2069.5315,191.99820769360304
2071.0856,184.82084041321468
2072.6389,149.07130158747168
2074.1915,154.1499031083249
2075.7433,121.7069553770134
2077.2945,153.29276725328054
2078.8448,146.15764637980828
2080.3945,142.0018988663487
2081.9434,183.47582936108756
2083.4916,145.47974109219194
2085.039,153.0639354530731
2086.5857,136.87871238234857
2088.1317,135.02437028800068
2089.677,157.00120620923462
2091.2215,153.90951583500828
2092.7652,138.69959328427285
2094.3083,129.52173113688514
2095.8506,154.5762205857127
2097.3921,161.16335152840384
2098.933,144.23341231685026
2100.4731,149.3866896913105
2102.0124,169.22346894971633
2103.5511,167.04403389613253
2105.089,203.19866664238816
2106.6261,180.23764762987594
2108.1626,173.56125526800042
2109.6983,181.01976616379307
2111.2332,189.86345518867438
2112.7675,170.1425954038741
2114.301,188.25745797198306
2115.8337,215.50831235417354
2117.3657,190.54542612904606
2118.897,220.36906472011924
2120.4276,211.52949164546135
2121.9575,202.6269682194552
2123.4866,210.461753641187
2125.0149,194.0841050834788
2126.5426,193.29427761453098
2128.0695,193.89252436170682
2129.5956,200.8790965194312
2131.1211,187.70424334320705
2132.6458,195.46821207975063
2134.1698,205.32124809873767
2135.693,194.41359481516247
2137.2155,195.24549359080902
2138.7373,214.9171838433267
2140.2584,200.92890303791773
2141.7787,189.6308864906032
2143.2983,181.92336750812228
2144.8171,161.3065775009054
2146.3353,173.38074606015107
2147.8527,157.44610116399872
2149.3693,187.45286905678222
2150.8853,177.7012744083804
2152.4005,145.691540014147
2153.9149,182.1738868924249
2155.4287,152.39853460464383
2156.9417,210.56570089049728
2158.454,192.7756019656963
2159.9655,187.62845194029796
2161.4764,195.42446299661333
2162.9865,183.81384544067078
2164.4958,201.69680762425014
2166.0045,184.02355606100173
2167.5124,182.69429524761108
2169.0195,203.8092278405311
2170.526,206.86855466927318
2172.0317,203.72247452526062
2173.5367,186.07118413122953
2175.0409,216.36487817269335
2176.5445,199.3037494744558
2178.0473,198.3879886976738
2179.5494,173.51778451046994
2181.0507,188.89332359709442
2182.5513,181.71479090662433
2184.0512,172.88236949920702
2185.5504,184.2962406178467
2187.0488,170.30658377672626
2188.5465,165.01357664706393
2190.0435,170.4673951970217
2191.5397,162.0182137446227
2193.0353,151.06620490322348
2194.5301,157.66153966600086
2196.0241,173.3543875154728
2197.5175,151.1449163575453
2199.0101,113.33329236458485
2200.502,126.41968019751039
2201.9931,150.6042433839084
2203.4835,119.33714418717227
2204.9733,119.86854336465422
2206.4622,148.5986004803426
2207.9505,117.3774738995453
2209.438,103.00532050158199
2210.9248,121.9322959920064
2212.4109,124.50855504632364
2213.8962,104.184251120716
2215.3809,124.25953642628156
2216.8648,130.8345621322751
2218.3479,117.90947816536209
2219.8304,126.93443314386059
2221.3121,102.5095745069957
2222.7931,109.88504842464863
2224.2733,96.6110000416038
2225.7529,98.13757340380107
2227.2317,90.4649115910679
2228.7098,84.39315670185806
2230.1872,83.7724499299784
2231.6638,110.20293162530288
2233.1397,89.83474129998467
2234.6149,95.51801736415291
2236.0894,92.35289732959245
2237.5632,88.1895177529077
2239.0362,89.57801426717833
2240.5085,81.86852162359537
2241.9801,90.96117367757142
2243.4509,94.0561034658358
2244.921,88.55344311550289
2246.3904,84.30332381312655
2247.8591,57.60587585972826
2249.3271,79.66122871329662
2250.7943,58.96951125576015
2252.2608,69.43085157243877
2253.7266,59.44537715895876
2255.1917,50.11321481663799
2256.656,46.4344907523473
2258.1197,56.45933067182159
2259.5826,51.78785981645706
2261.0447,72.32020286305033
2262.5062,61.05648397052664
2263.9669,72.9468265746118
2265.4269,78.44135350046872
2266.8862,76.54018684379116
2268.3448,97.79344791586391
2269.8026,95.5512572625712
2271.2598,77.11373445186655
2272.7162,77.08099809619125
2274.1719,68.25316603685405
2275.6268,75.78035534435912
2277.0811,88.51268240667923
2278.5346,94.95026285398671
2279.9874,95.29321143133166
2281.4395,93.24164193425895
2282.8908,75.39566720538187
2284.3414,93.70539915490463
2285.7914,84.42094893907506
2287.2406,69.64242677708717
2288.689,103.06994204393231
2290.1368,99.30360341817686
2291.5838,88.04351854769084
2293.0302,89.9397940873123
2294.4758,104.49253581144785
2295.9206,81.70184859510664
2297.3648,83.01783626837369
2298.8082,86.04060184431546
2300.251,95.3702475058235
2301.693,78.60687457539188
2303.1343,101.05058342180837
2304.5748,90.0514736278019
2306.0147,95.70964376559186
2307.4538,88.87519150688331
2308.8922,105.84821356628163
2310.3299,103.62880576964108
2311.7669,97.46706288433779
2313.2031,91.81307864145947
2314.6387,106.21694579742598
2316.0735,71.07875619052902
2317.5076,74.89860059689272
2318.941,75.72656908185854
2320.3737,87.66275096178015
2321.8056,81.40723479574535
2323.2369,97.0601082662115
2324.6674,94.67145824157251
2326.0972,76.69137061962101
2327.5263,87.2699303514346
2328.9547,105.60722162117509
2330.3823,92.65332774030594
2331.8092,104.15833096422102
2333.2355,83.72231262178411
2334.661,94.34535300028074
2336.0858,96.17753154977981
2337.5098,97.51892677690103
2338.9332,87.0696162264876
2340.3558,107.87967646819197
2341.7778,95.84918320097404
2343.199,107.82821104499271
2344.6195,89.46683366191519
2346.0393,106.46512363513102
2347.4583,105.47315265336238
2348.8767,91.54099134068474
2350.2943,109.76870926644551
2351.7113,122.80637508458312
2353.1275,112.00405635135121
2354.543,105.26181939494654
2355.9578,96.37972942353008
2357.3718,97.10785059264754
2358.7852,85.746246094051
2360.1978,93.14497814841889
2361.6098,98.55410811897218
2363.021,90.37369643748661
2364.4315,92.90380255019272
2365.8413,89.8444849995899
2367.2504,87.39580139914733
2368.6587,89.8078084638878
2370.0664,89.38056203487804
2371.4733,82.16411705510563
2372.8795,74.95852757375542
2374.285,72.21384681837299
2375.6899,69.93012726691995
2377.0939,70.80742067522124
2378.4973,51.995778099802465
2379.9,64.49524988911662
2381.3019,76.30588587165448
2382.7032,54.577735230960116
2384.1037,60.910846387519086
2385.5035,66.00526721604683
2386.9027,54.461044982150725
2388.3011,57.028226291385636
2389.6987,55.80685720469501
2391.0957,57.79698321274009
2392.492,41.198649248120546
2393.8876,35.86189966546817
2395.2824,33.03677840742921
2396.6765,34.3233290580265
2398.07,41.27159487091876
2399.4627,38.63161875653395
2400.8547,33.353443212586626
2402.246,39.487110350479725
2403.6366,33.73266194808002
2405.0265,17.840139388382795
2406.4156,33.659583717063015
2407.8041,20.991035801391263
2409.1918,23.934536172049775
2410.5789,35.8401251498135
2411.9652,33.85784281611359
2413.3508,10.037728893981239
2414.7358,24.479822767868882
2416.12,27.03416372185393
2417.5035,23.65079079521638
2418.8863,11.12974275689976
2420.2684,29.621058139341585
2421.6497,-0.8252246363172162
2423.0304,-0.009067445144864905
2424.4104,12.969576081784453
2425.7896,6.810752403981951
2427.1682,3.764507851263261
2428.546,11.630888685339414
2429.9232,20.90994113027682
2431.2996,24.40171129383816
2432.6753,26.006245074683648
2434.0503,17.97358812746006
2435.4246,24.853785846752544
2436.7982,19.996883447412984
2438.1711,4.252925895756107
2439.5433,11.021957958128496
2440.9148,9.204024358346942
2442.2856,9.899169710010028
2443.6557,16.657438534677567
2445.025,19.528875254919512
2446.3937,25.563524126734592
2447.7617,14.961429210833103
2449.1289,22.72263431229294
2450.4955,19.797183086577206
2451.8613,26.485118961925764
2453.2265,53.536485168605395
2454.5909,46.70132467203575
2455.9546,30.17967990227271
2457.3177,37.871592822360526
2458.68,30.727105093550563
2460.0416,46.24625799837668
2461.4025,42.3290925121064
2462.7627,48.025649147542026
2464.1222,49.235967994197836
2465.4811,39.310088661332884
2466.8392,40.64805026584918
2468.1966,55.449891531548474
2469.5533,60.56565077575169
2470.9093,48.84536576128539
2472.2645,50.48907364531897
2473.6191,68.54681109657304
2474.973,51.91861427887716
2476.3262,48.004518670594734
2477.6787,51.10455923090285
2479.0305,54.368770438936735
2480.3816,41.197186262788364
2481.7319,39.439840126864055
2483.0816,40.09676504359959
2484.4306,47.31799363103437
2485.7789,39.553558106241326
2487.1264,51.60349021311458
2488.4733,40.517821300015385
2489.8195,33.89658219927014
2491.165,36.589803338029924
2492.5097,21.897514804480124
2493.8538,31.369746320909144
2495.1972,20.156527390633528
2496.5398,28.657887203271457
2497.8818,31.77385474687526
2499.2231,45.104458722920754
2500.5637,40.34972751514624
2501.9035,20.85968905624759
2503.2427,19.584370875423247
2504.5812,19.973800293276327
2505.919,39.2780044345659
2507.256,46.04701022431709
2508.5924,18.430844194776455
2509.9281,28.92953241772011
2511.2631,40.94310078061653
2512.5974,30.971574881642027
2513.9309,41.1649799095444
2515.2638,18.87334074335695
2516.596,51.24668185046494
2517.9275,37.13502750952193
2519.2583,21.888401486717157
2520.5884,26.056827176889783
2521.9178,33.440327755996805
2523.2465,12.288926139430714
2524.5745,26.40264490817981
2525.9018,28.48150652034883
2527.2284,37.97553317001439
2528.5543,48.284746766441
2529.8796,36.45916883913742
2531.2041,43.548820434767094
2532.5279,37.90372223540135
2533.851,42.12389448762633
2535.1735,40.1093570589901
2536.4952,51.1601293958056
2537.8163,49.52623054329297
2539.1366,48.40767903507276
2540.4562,61.45449290950319
2541.7752,48.566689720866634
2543.0935,56.6442864089031
2544.411,57.637299427686685
2545.7279,56.44574466484937
2547.0441,68.0196374316547
2548.3596,66.40899247490779
2549.6744,75.61382386121886
2550.9885,73.3341449931122
2552.3019,66.76996851697095
2553.6146,68.5713063458411
2554.9266,66.2881697250682
2556.2379,68.12056921428666
2557.5485,63.66851471025029
2558.8585,79.6820154285083
2560.1677,81.41107994792583
2561.4762,81.0557160505482
2562.7841,88.9659307043139
2564.0913,93.64173006660258
2565.3977,92.08311940513704
2566.7035,78.19010305122356
2568.0086,85.61268441533684
2569.313,103.8508661260521
2570.6167,92.0546499558177
2571.9197,108.62403663857685
2573.222,103.95902598772363
2574.5236,108.80961673041384
2575.8246,106.52580655421207
2577.1248,112.60759205858903
2578.4244,118.10496877775813
2579.7232,108.1679311198568
2581.0214,115.4464723119745
2582.3189,135.24058449952008
2583.6157,123.5002586734413
2584.9118,137.62548447227846
2586.2072,142.91625029957277
2587.5019,135.5725431826113
2588.7959,142.99434871951735
2590.0893,142.13165115269294
2591.3819,157.03443329459515
2592.6739,150.65267653636374
2593.9652,148.28636069879894
2595.2557,151.63546409617356
2596.5456,139.64996355989797
2597.8348,164.47983440502776
2599.1234,156.4250505501186
2600.4112,162.78558426893005
2601.6983,153.2614062709713
2602.9848,159.30248563789564
2604.2705,156.75878991874288
2605.5556,163.4802850695296
2606.84,160.21693547868335
2608.1237,155.06870389983123
2609.4067,150.2355514844312
2610.689,151.21743783325428
2611.9707,147.71432104471933
2613.2516,158.97615770507036
2614.5319,152.3529029234087
2615.8115,152.54451021907607
2617.0903,154.2509315878856
2618.3685,144.92211750020851
2619.6461,137.4080168839057
2620.9229,144.30857721761822
2622.199,155.47374460590936
2623.4745,139.65346371025498
2624.7493,141.99767763739692
2626.0234,154.65632809754288
2627.2968,151.4293553809248
2628.5695,148.61669823121224
2629.8415,137.1182938777822
2631.1128,144.73407806384603
2632.3835,138.16398516143363
2633.6535,140.30794809523513
2634.9228,138.0158984083032
2636.1914,145.43776624061002
2637.4593,149.77348035197156
2638.7265,147.97296804782604
2639.9931,145.38615513587843
2641.259,148.7129659441057
2642.5242,149.90332334662526
2643.7887,140.50714873042625
2645.0525,153.47436198346486
2646.3156,132.15488158862627
2647.5781,129.1486244940529
2648.8398,136.80550632633935
2650.1009,140.72544142059496
2651.3613,131.35834274387594
2652.6211,129.70412185598343
2653.8801,129.71268900313726
2655.1385,135.7839531345162
2656.3961,141.56782190217245
2657.6531,139.5142016003199
2658.9094,147.1729971074942
2660.1651,140.99411190708975
2661.42,135.2774480107705
2662.6743,144.9229060202615
2663.9279,147.93038518451453
2665.1808,157.19978330325307
2666.433,157.28099669689777
2667.6846,163.22392011387183
2668.9354,157.12844672979008
2670.1856,157.24446808802782
2671.4351,165.97187416067686
2672.6839,162.81055334738244
2673.9321,169.91039238807366
2675.1795,176.57127639457394
2676.4263,168.9430887796043
2677.6724,170.72571119017425
2678.9179,183.71902358386455
2680.1626,180.62290421100033
2681.4067,183.98722948471732
2682.6501,189.61187401192365
2683.8928,175.24671055965473
2685.1348,172.39160999882824
2686.3761,163.84644144789445
2687.6168,171.51107230138882
2688.8568,171.48536831538217
2690.0961,162.51919353083554
2691.3348,156.1624102738558
2692.5727,160.76487924535968
2693.81,161.62645958463918
2695.0466,153.99700882333923
2696.2826,155.7263828768405
2697.5178,146.81443612055455
2698.7524,159.16102137263033
2699.9863,160.01598998307327
2701.2195,154.57919171027993
2702.452,176.45047471248722
2703.6839,170.2796856021414
2704.9151,166.01666922718437
2706.1456,160.11126873276294
2707.3755,157.01332560385754
2708.6046,180.62267972433642
2709.8331,189.9391694079368
2711.0609,196.1626311621685
2712.2881,212.94289959515095
2713.5145,217.52980735337815
2714.7403,211.32318495391587
2715.9654,231.22286073853388
2717.1899,227.12866093576963
2718.4136,253.59040946193295
2719.6367,242.9579279620482
2720.8591,262.98103554523664
2722.0809,275.15954889104137
2723.3019,279.3432820491946
2724.5223,284.48204631783506
2725.7421,288.3756502016688
2726.9611,302.1238993605823
2728.1795,291.226596570707
2729.3972,291.68354158693614
2730.6142,270.9945312518971
2731.8306,255.75935949138238
2733.0462,232.07781752124015
2734.2612,224.69969399972524
2735.4756,207.3747752643137
2736.6892,190.40284540548691
2737.9022,180.28368643997737
2739.1145,160.36707848049014
2740.3262,135.45279983689397
2741.5372,128.19062721538717
2742.7475,111.08033596764017
2743.9571,108.42170016341811
2745.1661,86.86449276168332
2746.3744,84.35848563718241
2747.582,86.55344979601796
2748.7889,74.0491554007076
2749.9952,58.0953717482364
2751.2008,47.241867395098325
2752.4057,51.83841031683323
2753.61,39.884768016563385
2754.8136,46.18070747902789
2756.0165,40.22599529011836
2757.2188,41.020397573920036
2758.4204,40.36368005225836
2759.6213,31.905608036755666
2760.8215,41.09594643539867
2762.0211,30.034459837117083
2763.22,17.22091241988369
2764.4182,23.155068061325665
2765.6158,25.436690466863865
2766.8127,14.515543110367844
2768.009,5.941389211341857
2769.2045,3.6639918441358077
2770.3994,6.6331140236873125
2771.5936,4.148518728294675
2772.7872,-0.6400311300740213
2773.9801,-11.832772680933886
2775.1723,-15.87993665989029
2776.3639,-17.98163559315026
2777.5548,-20.837823366353632
2778.745,-19.098274228602804
2779.9346,-20.262554259144054
2781.1235,-12.38003874546439
2782.3117,-10.999900552134932
2783.4992,-16.52118886713947
2784.6861,-7.992842989456676
2785.8723,-4.913637171388473
2787.0579,-4.182265816735708
2788.2428,0.6526257579353114
2789.427,8.242434016894322
2790.6106,14.288555417884936
2791.7935,15.942386336227855
2792.9757,26.355323004360116
2794.1573,25.428761495295703
2795.3382,41.914097618496726
2796.5184,58.662726929138444
2797.698,77.42604456325557
2798.8769,84.40544507025811
2800.0551,102.30232222529662
2801.2327,112.5180689594672
2802.4096,136.15407718084475
2803.5859,155.31173767232258
2804.7615,169.49243985525572
2805.9364,192.04757159788164
2807.1106,223.37851907351342
2808.2842,244.88666653499058
2809.4572,275.0233960013684
2810.6294,311.99008704283574
2811.801,348.43811647934604
2812.972,392.2688580109552
2814.1423,426.93368185333657
2815.3119,471.23395429947504
2816.4808,520.2710373730206
2817.6491,568.5462883852829
2818.8167,611.6110594448612
2819.9837,661.4166969748928
2821.15,704.6645412824032
2822.3157,746.6059260602524
2823.4807,795.0921779546561
2824.645,835.224616145771
2825.8086,860.2545518628347
2826.9716,909.3332879828379
2828.134,958.1121187802278
2829.2957,990.792329436118
2830.4567,1030.7751955505032
2831.617,1025.3619828154551
2832.7767,1037.703946615294
2833.9358,1026.2523320807215
2835.0941,1023.3083739654
2836.2519,1016.9232967604687
2837.4089,997.8983147239849
2838.5653,986.7346319447731
2839.7211,1002.8334425326741
2840.8761,1001.2959307301855
2842.0306,1019.0732707514699
2843.1843,1061.2666267977306
2844.3374,1109.4771528794404
2845.4899,1160.6059923944067
2846.6417,1251.6542776456658
2847.7928,1330.0231293301943
2848.9433,1402.5136556284276
2850.0931,1465.5269514205688
2851.2422,1551.3640975616868
2852.3907,1619.326160251579
2853.5385,1685.4641901764053
2854.6857,1751.3792218290625
2855.8323,1801.0222728478066
2856.9781,1842.6943433571012
2858.1233,1895.3464154711876
2859.2679,1922.879452877365
2860.4118,1989.7944003094694
2861.555,2026.242183272543
2862.6976,2043.1237073736834
2863.8395,2078.4898579575693
2864.9808,2103.391499937642
2866.1214,2124.5794774424458
2867.2614,2140.054613566609
2868.4007,2147.017710158969
2869.5393,2156.219547667815
2870.6773,2150.61088507126
2871.8146,2170.6424597852247
2872.9513,2169.4649877195206
2874.0874,2166.4791630775353
2875.2227,2151.2356583680075
2876.3574,2137.435124434886
2877.4915,2097.528190609759
2878.6249,2093.8654648498696
2879.7577,2070.4975341371764
2880.8898,2039.4749645149845
2882.0212,2024.048301321624
2883.152,2003.5680695006768
2884.2821,1990.784773755242
2885.4116,1997.7488987527386
2886.5405,1991.7109092527396
2887.6686,1992.9712500373291
2888.7962,1995.130345971484
2889.923,1985.3886019904687
2891.0493,2017.2464030782455
2892.1748,2032.3041143648918
2893.2997,2039.1120808080223
2894.424,2051.320627042209
2895.5476,2072.0300573109052
2896.6706,2104.09065534436
2897.7929,2136.3526841525227
2898.9145,2149.2163857044347
2900.0355,2167.6819806056137
2901.1559,2213.1496679694123
2902.2756,2252.9696252323656
2903.3946,2294.99200769951
2904.513,2310.716948146188
2905.6308,2318.8945563978223
2906.7479,2347.674919172666
2907.8643,2382.558100000028
2908.9801,2394.6441389324673
2910.0953,2409.633052196962
2911.2098,2407.6248320740515
2912.3236,2381.069446747942
2913.4368,2379.066840326593
2914.5494,2363.2669331072707
2915.6613,2340.619621596573
2916.7725,2321.274778668428
2917.8831,2275.8822537905717
2918.9931,2249.9418732179897
2920.1024,2234.703440446848
2921.211,2217.566736473894
2922.319,2197.88151994884
2923.4264,2182.197527345733
2924.5331,2163.4144731598035
2925.6391,2141.8820500643074
2926.7445,2136.799929098356
2927.8493,2144.3177598822413
2928.9534,2130.085170668256
2930.0569,2132.3517682655156
2931.1597,2133.8171381822835
2932.2619,2120.1808446033083
2933.3634,2109.8924303751674
2934.4643,2090.90141714263
2935.5645,2069.657305451542
2936.6641,2046.4595749387352
2937.763,2006.107684544469
2938.8613,1957.8010727444084
2939.959,1896.7891579531422
2941.056,1818.8213390072476
2942.1523,1741.5469957754126
2943.248,1654.1154899381095
2944.3431,1548.2261657603426
2945.4375,1452.278350965961
2946.5313,1357.5213577965524
2947.6244,1258.5044839709217
2948.7169,1158.5270136326621
2949.8087,1064.8882183403216
2950.8999,974.4873580671801
2951.9904,907.9736821376343
2953.0803,829.2464301312091
2954.1696,771.1048325476922
2955.2582,724.5981115944071
2956.3462,660.6254817676304
2957.4335,647.2861503176566
2958.5202,613.3293178885281
2959.6062,567.5041786514241
2960.6916,558.1599206442334
2961.7764,538.4457262298022
2962.8605,539.4107721893799
2963.9439,531.0542299197589
2965.0267,516.3752654236234
2966.1089,511.9730393931168
2967.1905,515.6467073566284
2968.2714,521.4454197228195
2969.3516,498.8183217438834
2970.4312,516.9145534575613
2971.5102,517.2832499134103
2972.5885,513.6735409918433
2973.6662,523.2345514004417
2974.7432,536.5654007100519
2975.8196,526.8652032591755
2976.8954,521.0830680206603
2977.9705,512.6680986987033
2979.045,498.5193937866708
2980.1188,486.53604665124897
2981.192,466.66714567393
2982.2645,465.71177437084657
2983.3364,439.41901159145937
2984.4077,400.63793152811286
2985.4783,377.9176039789611
2986.5483,353.6070947357797
2987.6177,321.15546581116837
2988.6864,289.71177568165695
2989.7545,261.9750796122212
2990.8219,223.1944299707194
2991.8887,199.51887650526078
2992.9548,177.7974667320101
2994.0204,151.02924617194356
2995.0852,136.11325856806343
2996.1495,113.34854615307984
2997.2131,91.28414979857087
2998.276,65.71910924262932
2999.3383,62.85246331050712
3000.4,43.28325017026566
3001.4611,34.46050736144184
3002.5215,28.583271990740627
3003.5812,10.300580820262098
3004.6404,11.46147032627357
3005.6989,-4.485023117962896
3006.7567,4.960136746200078
3007.8139,-16.45396901720926
3008.8705,-13.178259393763824
3009.9264,-12.01348899388654
3010.9818,-13.26028077718945
3012.0364,-7.919137688529872
3013.0905,-12.690430202561174
3014.1439,-4.824449681750821
3015.1966,1.0786392888309138
3016.2487,5.8187203203655145
3017.3002,1.1956770132489964
3018.3511,5.659392909689927
3019.4013,10.609751539941499
3020.4509,22.146636377662503
3021.4998,27.8199307904149
3022.5481,30.529517924294396
3023.5958,41.375280647197314
3024.6428,41.8571015217251
3025.6892,38.27486269672636
3026.735,50.42844590247921
3027.7802,56.11773248651377
3028.8247,54.44260329207623
3029.8685,69.10293860123625
3030.9118,78.99861815163706
3031.9544,76.42952098989372
3032.9963,90.94552537263564
3034.0376,99.746508792197
3035.0783,109.18234783145795
3036.1184,112.15291807583242
3037.1578,123.3580940189114
3038.1966,133.69774903275697
3039.2348,136.32175525585103
3040.2723,150.8299834896984
3041.3092,143.42230317258702
3042.3455,144.94858223450512
3043.3811,137.05868717121768
3044.4161,141.85248302900516
3045.4505,150.1798334835613
3046.4842,140.59060079205506
3047.5173,137.38464570985707
3048.5498,127.76182758643222
3049.5816,130.4220043973993
3050.6128,127.46503284075891
3051.6434,120.49076831029163
3052.6734,128.2990649251276
3053.7027,117.08977559949017
3054.7314,115.71275196461215
3055.7594,111.16784448082933
3056.7868,113.0549024513499
3057.8136,109.37377406770395
3058.8398,111.77430639087288
3059.8653,114.95634538810054
3060.8902,104.2197359088882
3061.9145,101.61432165317387
3062.9381,107.6399452786992
3063.9612,96.096448427062
3064.9835,99.08367166346125
3066.0053,97.10145459213174
3067.0264,97.09963582647197
3068.0469,93.67805300886619
3069.0668,85.83654281070278
3070.086,78.17494096658936
3071.1046,74.1930823527689
3072.1226,69.39080106373513
3073.1399,69.51793045205045
3074.1567,50.17430317637047
3075.1727,51.30975120017064
3076.1882,45.624105985183974
3077.203,35.01719848004586
3078.2173,49.138859177151005
3079.2308,22.638918218722324
3080.2438,30.8172052555945
3081.2561,26.17354971221323
3082.2678,16.107780704852644
3083.2789,23.01972708805158
3084.2893,7.309217555271346
3085.2991,7.27608056977607
3086.3083,8.670144521738052
3087.3169,8.041237728569058
3088.3248,6.039188420979485
3089.3321,7.913824749267576
3090.3388,-2.8850251966599103
3091.3449,-5.007533406034327
3092.3503,-1.7538430466855175
3093.3551,-1.9740472611845803
3094.3593,3.0317783287890165
3095.3629,-1.2364221777119155
3096.3658,-3.2287047119521617
3097.3681,-3.8451128533393444
3098.3698,-10.285657926521026
3099.3708,-1.5503128434676796
3100.3713,2.4610522375725736
3101.3711,-3.601417354022999
3102.3702,-2.137576313487557
3103.3688,5.452756642104703
3104.3667,-0.43021584993294937
3105.364,4.763708793185231
3106.3607,3.234737452101001
3107.3568,5.583076959819209
3108.3522,0.8089341169973636
3109.347,4.662515668462561
3110.3412,0.49402027778995716
3111.3348,8.603646561929565
3112.3277,6.94158820256871
3113.32,12.758038795358516
3114.3117,13.953191866534212
3115.3028,5.427240814750519
3116.2932,8.780378899130767
3117.2831,10.31279932452577
3118.2723,18.674695207982893
3119.2608,18.66625956342159
3120.2488,16.437685218014565
3121.2361,17.73916481227218
3122.2229,19.070890822327783
3123.209,19.583055546923674
3124.1944,22.975851094093173
3125.1793,26.299469376039553
3126.1635,31.35410207520772
3127.1471,20.189940611048087
3128.1301,30.557176089470204
3129.1125,35.05599941448446
3130.0942,30.936601184528513
3131.0753,32.94917164748074
3132.0558,33.94390074185367
3133.0357,36.87097807666834
3134.015,33.830592921506764
3134.9936,37.87293417724129
3135.9716,33.29819040643838
3136.949,41.80654979293524
3137.9258,45.09820018758734
3138.902,38.623329023184624
3139.8775,42.73212328153545
3140.8524,44.92476955821502
3141.8267,44.901454021477434
3142.8004,44.06236239032941
3143.7735,48.45767993476309
3144.7459,51.73759148414723
3145.7178,58.10228138327386
3146.689,54.951933459558944
3147.6596,58.2867309593957
3148.6295,57.85685657965817
3149.5989,60.71249243435298
3150.5676,58.953820058918495
3151.5357,59.43102038166799
3152.5032,65.04427374137686
3153.4701,59.24375988251023
3154.4364,61.77965789909061
3155.402,62.352146292703054
3156.367,67.01140294713605
3157.3315,63.80760512265675
3158.2952,63.44092940941843
3159.2584,65.06155175949829
3160.221,69.86964749056429
3161.1829,69.41539126966893
3162.1442,75.09895706516824
3163.105,68.82051815126468
3164.065,71.78024705117102
3165.0245,70.57831559989498
3165.9834,77.71489491464183
3166.9416,76.54015540683363
3167.8993,75.85426671074376
3168.8563,79.457397695244
3169.8127,78.79971647066364
3170.7684,82.3313903527579
3171.7236,81.35258586928506
3172.6782,85.81346872468964
3173.6321,85.4142038098903
3174.5854,86.55495515767106
3175.5381,89.48588594667399
3176.4902,85.30715848999165
3177.4417,88.9689342058578
3178.3926,94.27137365943463
3179.3428,89.46463652619508
3180.2924,92.34888153889841
3181.2415,97.62426653565768
3182.1899,90.64094843109706
3183.1377,94.84908316359838
3184.0848,101.04882576513401
3185.0314,103.19033031918552
3185.9773,97.57374989874627
3186.9227,102.0992365449064
3187.8674,106.31694132301854
3188.8115,109.37701427744304
3189.755,107.6796043893709
3190.6979,110.97485954622302
3191.6402,110.8629265586245
3192.5818,108.44395112745173
3193.5229,114.71807784495195
3194.4633,117.93545021893281
3195.4031,111.7462106100213
3196.3423,113.25050019948984
3197.2809,115.84845905114871
3198.2189,124.24022609630342
3199.1563,116.17593910777482
3200.0931,122.60573461598162
3201.0292,115.67974798958319
3201.9648,121.09811337118157
3202.8997,120.96096374658131
3203.834,127.26843089060594
3204.7677,128.47064536846938
3205.7008,130.2177364727013
3206.6333,130.35983221112494
3207.5652,128.84705928938627
3208.4964,134.67954310953291
3209.4271,140.40740778514203
3210.3571,137.38077608299534
3211.2865,134.14976936580038
3212.2154,133.71450762245718
3213.1436,139.72510950036792
3214.0712,139.33169230978967
3214.9982,142.98437196372856
3215.9246,142.53326298187383
3216.8503,141.82847845407093
3217.7755,146.47013004483279
3218.7001,150.20832800038755
3219.624,147.34318110226212
3220.5473,151.37479662990015
3221.4701,152.05328038931341
3222.3922,151.67873667276575
3223.3137,160.1512682519882
3224.2346,155.27097638192444
3225.1549,160.38796071600547
3226.0746,157.50231935495256
3226.9937,159.06414879560737
3227.9121,162.57354395978837
3228.83,162.78059817867262
3229.7473,166.58540315770165
3230.6639,164.6380489745111
3231.5799,167.43862404088256
3232.4954,167.58721512221717
3233.4102,170.03390730952987
3234.3244,173.52878401796343
3235.238,174.42192696232155
3236.151,173.51341612212008
3237.0634,178.15332973265564
3237.9752,177.24174429409067
3238.8864,179.52873452505423
3239.797,179.81437337175805
3240.7069,178.5487319851264
3241.6163,178.13187971794
3242.5251,181.16388413749206
3243.4332,183.04481102975714
3244.3408,185.4747243690709
3245.2477,186.20368629932085
3246.154,188.78175710964723
3247.0598,187.05899522715345
3247.9649,191.33545719112527
3248.8694,189.7611976702585
3249.7733,195.08626941989436
3250.6766,192.26072329776218
3251.5793,191.73460821072854
3252.4814,199.8079711430526
3253.3829,193.63085716164764
3254.2838,204.053309335347
3255.1841,203.27536879667542
3256.0838,196.34707463762464
3256.9829,202.11846391743248
3257.8814,209.18957173186607
3258.7792,203.8104311555079
3259.6765,209.08107317104472
3260.5731,204.6015267230589
3261.4692,205.17181866532206
3262.3647,204.74197380559056
3263.2595,202.66201489990252
3264.1538,208.03196265687635
3265.0474,207.1018357585101
3265.9404,208.22165080648227
3266.8329,208.9914223314528
3267.7247,206.9611627818652
3268.616,206.9308825162487
3269.5066,207.35058982352075
3270.3966,208.47029092329015
3271.286,206.13998996165964
