RamanShift,CorrectedData
30.1047,7061.010168918309
32.3739,6607.326905970323
34.6426,6150.943572412234
36.9109,5693.110031560673
39.1787,5239.92608522283
41.4461,4784.891478274797
43.7131,4332.205903193401
45.9796,3875.4190046065546
48.2456,3429.630383820104
50.5112,2974.9896033857044
52.7764,2526.6961915587067
55.0411,2087.5996468445637
57.3054,1635.3994424817652
59.5692,1191.4450308328037
61.8326,750.4358479061775
64.0955,315.0213177959335
66.3579,-113.49914290823938
68.6199,-536.5761207668655
70.8815,-929.3590684840317
73.1426,-1208.2920783683785
75.4032,-1209.9599584314542
77.6634,-496.3354458469462
79.9231,1984.5708097114425
82.1824,8313.903116961113
84.4412,22488.405764773757
86.6995,48218.872958882035
88.9574,58727.94868013456
91.2148,59007.77642719121
93.4717,58520.84911143238
95.7282,58037.909054160686
97.9842,57563.74799147028
100.2398,57094.45707907622
102.4949,56619.37689705608
104.7495,56158.79745454286
107.0036,55685.408194475836
109.2573,55224.39799820625
111.5105,54752.20519023134
113.7632,54287.16754280431
116.0154,53810.87228065636
118.2672,53352.75608564699
120.5185,52890.205101527004
122.7693,52427.35493851964
125.0197,51966.440677946084
127.2696,51505.19687685397
129.519,51040.45757262653
131.7679,50575.156287595055
134.0163,50114.97603368624
136.2642,49656.94931707524
138.5117,49195.10814278744
140.7587,48743.78401927876
143.0052,48286.007963054035
145.2512,47838.26050318027
147.4967,47389.071685864365
149.7417,46936.571078930654
151.9863,46484.93777631274
154.2304,46031.550402578534
156.4739,45586.68711744656
158.717,45143.175620319875
160.9596,44699.79315473461
163.2017,44255.51651279519
165.4433,43813.57203960811
167.6844,43375.835637724675
169.925,42940.98277156052
172.1651,42505.088471772884
174.4047,42067.577339609226
176.6439,41634.523551266095
178.8825,41193.700862264275
181.1206,40761.73261177931
183.3582,40329.941727049765
185.5954,39908.700727696836
187.832,39477.08173004235
190.0681,39045.256451321155
192.3037,38630.94621399725
194.5388,38211.021950082155
196.7734,37770.7042052779
199.0075,37369.163143176294
201.2411,36957.46854966217
203.4742,36547.0898369287
205.7068,36132.246047594424
207.9389,35723.45585880696
210.1704,35314.13758639152
212.4015,34913.609188938746
214.632,34513.28827189794
216.862,34126.042091582305
219.0915,33730.63755917219
221.3205,33333.291244587526
223.549,32940.71938044189
225.777,32552.587866015936
228.0044,32160.462271183125
230.2314,31774.457840291085
232.4578,31387.989496082817
234.6837,30999.971843556763
236.909,30608.769173831504
239.1339,30201.645468025912
241.3582,29839.764401171204
243.582,29431.989346282156
245.8053,29075.633377975908
248.0281,28711.759276549696
250.2503,28336.32953154442
252.472,27963.056345383404
254.6932,27600.751637126712
256.9139,27236.927046203862
259.134,26869.49393603686
261.3536,26509.66339767845
263.5727,26152.84625348646
265.7912,25802.153060722114
268.0092,25447.59411511817
270.2267,25101.87945438589
272.4436,24753.218861760593
274.6601,24399.771869458833
276.8759,24061.39776216497
279.0913,23721.705580565664
281.3061,23382.30412473363
283.5204,23042.30195752452
285.7341,22703.357407971
287.9473,22359.178574682708
290.16,22035.87332923573
292.3721,21714.399319614393
294.5837,21391.613973444306
296.7947,21070.72450120712
299.0052,20749.7878994684
301.2152,20432.41095408648
303.4246,20122.500243421855
305.6334,19812.412141510904
307.8418,19496.75282116508
310.0495,19185.77825707176
312.2568,18880.394228950827
314.4635,18571.506324664384
316.6696,18276.369943270627
318.8752,17967.99029811271
321.0802,17676.372419770072
323.2847,17387.171159142323
325.4887,17094.091190365347
327.692,16804.237013703372
329.8949,16516.962958479708
332.0972,16232.073185975314
334.2989,15945.27169230154
336.5001,15662.962311249015
338.7007,15396.598717155655
340.9008,15117.084427729787
343.1003,14844.072806713768
345.2992,14574.467066679143
347.4976,14314.470271756778
349.6955,14039.535340332892
351.8927,13775.615047649007
354.0895,13509.612028551346
356.2856,13262.178780130009
358.4812,13005.417664378998
360.6763,12752.78091067056
362.8707,12503.970618322812
365.0646,12258.088759126076
367.258,12014.887179830977
369.4508,11765.367604607287
371.643,11523.781637475935
373.8346,11287.680764804209
376.0257,11054.866357721556
378.2162,10819.03967448065
380.4062,10586.801862785527
382.5956,10357.853962149871
384.7844,10142.246906219363
386.9726,9916.831525061185
389.1603,9700.208547320064
391.3474,9443.278602472485
393.5339,9266.842222992891
395.7199,9060.549846922957
397.9052,8859.401819635961
400.09,8647.198395899657
402.2743,8446.139741887855
404.4579,8243.525937302402
406.641,8043.406977383769
408.8235,7848.282774937215
411.0054,7651.003162333989
413.1868,7454.21789346257
415.3675,7265.676645701424
417.5477,7079.029021886847
419.7273,6892.924552198427
421.9064,6705.862696025513
424.0848,6528.742843828215
426.2627,6347.914319008014
428.4399,6175.626379678979
430.6166,5995.7782204760515
432.7928,5823.168974277927
434.9683,5663.247714005549
437.1432,5496.263454348205
439.3176,5343.015153362772
441.4914,5177.701714143506
443.6645,5022.371986354556
445.8371,4861.624767883077
448.0091,4704.858806392549
450.1806,4549.372800930272
452.3514,4407.415403495019
454.5216,4226.285220591839
456.6913,4118.430814651656
458.8603,3982.950705842566
461.0288,3805.2933731483936
463.1967,3720.1072557234365
465.3639,3576.140754669119
467.5306,3383.142233885803
469.6967,3320.710021512459
471.8622,3208.392411856643
474.0271,3066.8376660188515
476.1914,2955.294013015686
478.3551,2831.059651195421
480.5182,2733.8327493534234
482.6807,2592.3614479744792
484.8426,2507.5438602050926
487.0039,2410.328073268196
489.1647,2304.112149311295
491.3248,2182.094126378637
493.4843,2098.222019473331
495.6432,1998.193821777655
497.8015,1883.3075054916771
499.9592,1797.2110228335441
502.1163,1706.9023071883566
504.2728,1623.5292739691358
506.4287,1538.7398215198773
508.5839,1444.5318319493163
510.7386,1367.0031719787512
512.8927,1273.5516938842047
515.0461,1195.475236271668
517.199,1130.571625011682
519.3512,1007.0386740201066
521.5029,947.624185907116
523.6539,888.0259532125419
525.8043,773.5917590000026
527.9541,759.81937745287
530.1033,706.1565750186419
532.2519,629.3011105466794
534.3999,630.0507358247996
536.5472,583.3031963478497
538.694,511.1062313101793
540.8401,489.0075740731554
542.9856,438.8998520468813
545.1305,395.52080745574494
547.2748,339.3537979146204
549.4185,294.52822978545737
551.5615,270.9201192857581
553.704,236.80254029594653
555.8458,192.94586020444694
557.987,169.66808074230357
560.1276,148.3852761113958
562.2675,95.21182552948449
564.4069,73.01062584535248
566.5456,71.2436227416838
568.6837,-10.877967475062178
570.8212,-18.44364022222726
572.958,-101.54278224625159
575.0942,-39.11459604167612
577.2299,-88.09726969069015
579.3648,-91.27860052072356
581.4992,-88.54550576750626
583.6329,-89.93399079354276
585.766,-91.4791763918256
587.8985,-72.11528491487843
590.0304,-149.0756248382895
592.1616,-90.14278420608025
594.2922,-129.89786179672228
596.4222,-163.4710558623192
598.5515,-143.49126697535394
600.6802,-109.13576263246796
602.8083,-155.0303768526137
604.9358,-158.84985338855768
607.0626,-113.81738723964372
609.1888,-182.2045864952379
611.3144,-126.3819222090533
613.4393,-146.4680452110042
615.5636,-197.63034377567965
617.6873,-131.5847429619389
619.8103,-221.44519350154587
621.9327,-71.87433159470675
624.0544,-28.7825812041483
626.1756,-41.87964826807729
628.2961,-39.02495118667139
630.4159,-72.57748998247553
632.5351,-90.14587481876515
634.6537,89.16200919024413
636.7716,-46.11082251233893
638.8889,56.02864462499565
641.0056,75.32388580081897
643.1216,130.3683756534374
645.237,193.40558806796616
647.3518,105.12899562581879
649.4659,209.03206897439668
651.5793,287.7582777098796
653.6922,353.1510893381201
655.8043,144.10396848743403
657.9159,446.01037625466415
660.0268,-43.33622770439979
662.137,385.9576118059849
664.2466,451.63535041495925
666.3556,362.79043989216734
668.4639,528.4163274908715
670.5716,403.6564568364338
672.6786,604.9042662701177
674.785,472.403190096622
676.8907,566.1966565715702
678.9958,751.9780892266208
681.1002,812.4909059314596
683.204,650.2285170360192
685.3072,594.8343247653247
687.4097,728.3517248421267
689.5115,650.3741070408578
691.6127,933.4948538524404
693.7132,769.0573412641461
695.8131,819.3049359283104
697.9123,941.780996806774
700.0109,999.428874668316
702.1089,790.4419108638976
704.2061,931.6634367501974
706.3028,1028.9867757795437
708.3987,1154.5052420876018
710.4941,1145.2121395202194
712.5887,1442.3007603782244
714.6827,1397.8643855104165
716.7761,1703.0462813426202
718.8688,1870.589700322038
720.9608,1738.1378778654907
723.0522,1827.0840306838654
725.1429,1696.121358106684
727.233,2160.643041192605
729.3224,1309.1422440390743
731.4112,1687.9621091371664
733.4993,1769.7957658865125
735.5867,1810.4363268071756
737.6735,1624.426886721296
739.7596,1469.260522346689
741.845,1552.730294156885
743.9298,2019.7292479328462
746.014,1708.4504139282726
748.0974,1471.7368021996153
750.1802,2168.6314057188793
752.2624,1540.2272027408326
754.3439,1737.4671498339085
756.4247,1994.594188164272
758.5048,1756.951241523464
760.5843,2045.3312137570902
762.6631,2319.876991141289
764.7413,2307.581439498914
766.8188,2632.4374014540954
768.8956,3078.737696555174
770.9718,3174.4751180261374
773.0473,3067.942428303606
775.1221,2578.2323580794473
777.1962,2572.737607366129
779.2697,2072.7008503938196
781.3426,2596.514735665376
783.4147,2947.671890956648
785.4862,3053.71491807836
787.557,2651.4863893645233
789.6271,3133.778846612011
791.6966,2607.8348051028443
793.7654,1913.346748781245
795.8335,1968.65713551316
797.901,2180.858404031096
799.9678,1902.7929733809724
802.0339,1952.1032408001702
804.0993,2133.581584498199
806.1641,1984.8703631635217
808.2282,1957.2619141488321
810.2916,1814.9985549581397
812.3544,2249.3725835228615
814.4164,1578.8262796244453
816.4778,1771.901900550678
818.5385,1832.941687801067
820.5986,1918.8378651561288
822.658,2121.082638066968
824.7166,2218.618192796326
826.7747,1770.2866943961417
828.832,2196.930285732189
830.8886,2611.0410919674687
832.9446,2738.8612162956997
834.9999,1964.232735800244
837.0545,2600.09770017588
839.1085,2991.1981394750546
841.1618,2933.0260577493027
843.2143,2387.473429138161
845.2662,2489.2821984509865
847.3175,2799.1442866224024
849.368,2044.3015896942816
851.4179,2642.445975717048
853.467,2178.869292298099
855.5155,2448.7633606204035
857.5633,2056.1199800782415
859.6105,1783.0309255782777
861.6569,2114.287951466038
863.7027,1525.9327942567324
865.7478,1880.5071693227364
867.7922,1867.4527767771433
869.8359,2369.4612979280064
871.8789,1799.024395408851
873.9212,2384.2837081585894
875.9629,2600.1308571259287
878.0039,2718.4574394167794
880.0441,2641.1550261357916
882.0837,2656.965161203043
884.1226,2713.4293621270845
886.1609,2618.5391198468715
888.1984,2288.2358981670695
890.2352,2783.0111347070197
892.2714,2179.606244203671
894.3069,2551.6126135639206
896.3416,2321.0216078986123
898.3757,2319.574566802454
900.4091,1871.2128066599325
902.4418,2628.9276206598443
904.4739,2222.3102832788936
906.5052,2459.0020427045456
908.5358,2182.1941249011725
910.5658,1973.9777312431688
912.595,1955.4440412830154
914.6236,1511.9342148333963
916.6515,2323.5393921525683
918.6786,1532.7006983794927
920.7051,1886.509235417725
922.7309,2022.8060898438634
924.756,2192.7823293694164
926.7804,2078.629001477857
928.8041,1644.3371317248602
930.8272,2056.7977248797906
932.8495,2060.0017692686815
934.8711,1736.39023264961
936.892,1522.604062180675
938.9123,1465.5841876560953
940.9318,1217.8215236440737
942.9506,1113.2069700570137
944.9688,1151.3314146291377
946.9862,792.3857339626338
949.003,881.5607931464328
951.019,608.5474493455695
953.0344,855.0865509094874
955.0491,866.0189401021489
957.063,1108.585450636674
959.0763,1353.876907566002
961.0888,1212.0341248572731
963.1007,1494.5479029388807
965.1119,1536.4090301188917
967.1223,1520.0582797599345
969.1321,1715.6364098605554
971.1412,1605.5841632187658
973.1495,1560.8422654761816
975.1572,1709.9514262186203
977.1641,1767.3523394234435
979.1704,1774.6356819685752
981.1759,1757.7421130584262
983.1808,1797.7122741510611
985.1849,1903.1867891271977
987.1884,2098.456263890439
989.1911,2445.7612853125684
991.1932,2376.342419280816
993.1945,2504.740207224815
995.1951,2466.5951668108173
997.1951,2364.947790657716
999.1943,2304.688546718484
1001.1928,2159.5578792966553
1003.1906,2142.446209648908
1005.1877,2162.643937436369
1007.1841,2019.3914408957353
1009.1798,1873.9290766372724
1011.1748,1654.1471810773728
1013.1691,1500.4860718931377
1015.1627,1166.7860502201947
1017.1556,876.0874021893469
1019.1477,879.6304022635377
1021.1392,688.4053161448683
1023.1299,561.402400739149
1025.12,572.3619060681813
1027.1093,583.4240765397699
1029.0979,645.6291508380964
1031.0859,616.8173618131768
1033.0731,606.528935858747
1035.0596,571.8040932004151
1037.0454,312.2330479985467
1039.0304,205.70600869547343
1041.0148,73.11318061122438
1042.9985,-39.655232991222874
1044.9814,30.140970420005033
1046.9636,-67.05761046744738
1048.9452,-226.76037726735376
1050.926,-80.3260616879561
1052.9061,-143.9111301013545
1054.8855,-180.32124642230337
1056.8642,-28.910636893408082
1058.8421,59.56827365195204
1060.8194,42.96334919764922
1062.7959,79.92245313189778
1064.7717,57.24344841323182
1066.7469,99.52419720102625
1068.7213,84.86256108219823
1070.695,128.45640064847248
1072.6679,-89.49642435699934
1074.6402,-50.84805547562428
1076.6117,17.900259820453357
1078.5826,77.94778203113674
1080.5527,163.04377147735067
1082.5221,328.6874877005466
1084.4908,543.9781886117416
1086.4587,769.0651288351219
1088.426,944.7975575550881
1090.3925,928.2247162654166
1092.3584,926.2958370119086
1094.3235,656.9601425581714
1096.2879,550.6168464048242
1098.2515,525.1151554829339
1100.2145,625.3042712174065
1102.1767,649.883389782015
1104.1382,775.9517010974887
1106.099,1046.4583885857355
1108.0591,1177.6526279091631
1110.0185,1318.1335842656408
1111.9771,1373.7004110765774
1113.9351,1127.9522485820635
1115.8923,797.5382232852207
1117.8488,399.5574504096803
1119.8045,122.55903720374044
1121.7596,13.442086920127622
1123.7139,-97.49429841403617
1125.6675,-44.70101690595766
1127.6204,134.9720073051285
1129.5726,159.77529664315807
1131.524,229.80937218236068
1133.4748,338.62475339922094
1135.4248,286.7719574721559
1137.3741,436.2514981933127
1139.3226,400.3638864871464
1141.2705,436.7096289156325
1143.2176,254.03922803713067
1145.164,337.15318204293
1147.1097,398.2519865839495
1149.0546,448.18613393956184
1150.9989,418.00611240665603
1152.9424,350.6624058002926
1154.8852,172.95549375550036
1156.8272,81.3358524006544
1158.7686,83.85395613464061
1160.7092,-28.8397214570723
1162.6491,-126.14470762751444
1164.5883,26.639758479068405
1166.5267,49.365697904017
1168.4644,274.03513142230804
1170.4014,489.2000793152547
1172.3377,820.9625591238437
1174.2732,1054.8745834970687
1176.2081,1316.7881568742887
1178.1421,1483.9052731461416
1180.0755,1645.4279130354116
1182.0082,1541.4580424258384
1183.9401,1556.9476107469018
1185.8713,1390.6985520135204
1187.8017,1163.362784671197
1189.7315,942.1422132584412
1191.6605,630.8887306801407
1193.5888,418.0542204197918
1195.5163,323.24055965200387
1197.4432,243.7496213708655
1199.3693,208.43327533808042
1201.2947,95.0433888778789
1203.2193,15.831827230176714
1205.1432,106.75045468448297
1207.0664,206.3511353720205
1208.9889,265.98573235652657
1210.9106,287.1561066382419
1212.8316,341.514116557566
1214.7519,475.91161758334783
1216.6715,478.4504617693019
1218.5903,447.4324964100633
1220.5084,381.5595640157662
1222.4257,431.2835026222456
1224.3424,325.2561464497485
1226.2583,363.47932540570764
1228.1735,460.4548661450026
1230.0879,550.3345916877479
1232.0016,720.120320449525
1233.9146,766.4638653426009
1235.8269,648.2670320780526
1237.7384,562.4816187023571
1239.6492,318.7594167792995
1241.5592,309.0022122478913
1243.4686,213.26178785955926
1245.3772,117.53992327570813
1247.285,81.93839602513253
1249.1922,5.908982461245614
1251.0986,50.303458118101844
1253.0042,-16.976460500980465
1254.9092,80.02094260429294
1256.8134,192.74755302906124
1258.7169,453.6552555682574
1260.6196,572.5959330893456
1262.5216,809.5214639232581
1264.4229,934.8837206749595
1266.3234,1119.0345678542399
1268.2232,1172.0258606220305
1270.1223,1175.5094429489254
1272.0207,1172.6371470852537
1273.9183,1150.2607935262786
1275.8151,1073.1321910408951
1277.7113,1057.8531368954136
1279.6067,855.325417624812
1281.5014,732.5508091855809
1283.3953,610.9310789809679
1285.2885,515.8679870887245
1287.181,428.56328747731095
1289.0727,515.718728956519
1290.9637,553.3360560505316
1292.854,721.0170081263204
1294.7435,872.513319017522
1296.6323,1137.2767153476125
1298.5204,1455.3089150149426
1300.4077,1680.2616245450918
1302.2943,1955.786535910578
1304.1802,2120.4853242812933
1306.0653,2011.659645269283
1307.9497,1942.811133281728
1309.8333,1910.2914026092258
1311.7162,1918.652048114276
1313.5984,2051.444645556483
1315.4798,2200.57075150892
1317.3605,2368.38190203024
1319.2405,2611.3296111733835
1321.1197,2650.915369307513
1322.9982,2675.290640688516
1324.876,2738.3068630631387
1326.753,2689.3154474252115
1328.6293,2767.867777385538
1330.5048,2851.765209661771
1332.3796,2794.5090732928766
1334.2537,2788.0506688001733
1336.127,2836.9912687599062
1337.9996,2787.432117867822
1339.8714,2768.7744324497617
1341.7426,2656.8194009572726
1343.6129,2708.3681841541766
1345.4826,2620.1719162361187
1347.3515,2623.3317043150673
1349.2196,2562.0486293012946
1351.087,2624.4737458717864
1352.9537,2692.358083083025
1354.8197,2856.8526437468026
1356.6849,3121.908403751331
1358.5493,3213.176310416271
1360.4131,3216.5572798422036
1362.276,3149.3021959979524
1364.1383,2985.961910686812
1365.9998,2741.037244219049
1367.8606,2428.978987045357
1369.7206,2249.1379022060464
1371.5799,2060.264728451657
1373.4384,1946.9601820413627
1375.2962,1892.7749586316859
1377.1533,1670.9597344095564
1379.0096,1301.4151666341786
1380.8652,1035.691895855165
1382.7201,884.2905496079693
1384.5742,640.7117450711376
1386.4275,461.10609058033515
1388.2802,378.07418806410715
1390.132,296.5166348399471
1391.9832,280.4340244446321
1393.8336,120.9769474497698
1395.6832,109.54599162266095
1397.5322,57.64174352082773
1399.3803,62.66478860635834
1401.2278,15.41571176492289
1403.0745,-17.104902744431456
1404.9204,-50.14647081680596
1406.7656,-6.708237469345477
1408.6101,0.26105324404488783
1410.4538,4.16272428476077
1412.2968,66.0980986115901
1414.139,74.16849914169507
1415.9805,203.3752481312731
1417.8213,241.2696670948244
1419.6613,385.90307551312435
1421.5006,618.4767904542641
1423.3391,897.5421251273074
1425.1769,1225.3503865565654
1427.0139,1813.70287279092
1428.8502,2399.7008696257726
1430.6858,3015.395644719498
1432.5206,3485.188441733484
1434.3547,3767.1304741751774
1436.188,3868.572920700153
1438.0206,3829.8169222926954
1439.8524,3684.5635812513647
1441.6835,3648.913961576596
1443.5139,3545.5690904231706
1445.3435,3465.3299584567503
1447.1724,3457.1975208873155
1449.0005,3414.622698271549
1450.8279,3278.1563765941864
1452.6545,3301.299407693754
1454.4804,3392.102610627222
1456.3056,3405.0667714385745
1458.13,3352.492642250789
1459.9536,3210.580941136188
1461.7766,2853.6823526421504
1463.5987,2415.797529210271
1465.4202,2002.2770947453027
1467.2409,1653.3216489940714
1469.0608,1448.1817716806218
1470.88,1227.958025995791
1472.6984,1002.4009606486215
1474.5161,795.811112068579
1476.3331,648.7890066611399
1478.1493,582.9351628736658
1479.9648,550.9000926656445
1481.7795,468.8343021672299
1483.5935,462.6882919995878
1485.4067,394.6125580955486
1487.2192,397.1075917610724
1489.031,383.92388035601834
1490.842,370.0119072691705
1492.6522,382.47215205008615
1494.4618,353.1550905482036
1496.2705,346.01119478824694
1498.0785,365.1909332633986
1499.8858,371.844771006723
1501.6924,360.5231693993992
1503.4981,377.9265861041531
1505.3032,413.8554751784941
1507.1075,417.91028690068924
1508.911,406.09146741042423
1510.7138,379.9494586683104
1512.5159,334.88469857405653
1514.3172,316.7976212278845
1516.1178,281.43865738118984
1517.9176,314.3582346173862
1519.7166,273.10677770551774
1521.515,269.9347082710301
1523.3126,262.24244520831417
1525.1094,243.5304047124191
1526.9055,241.54900035598985
1528.7008,208.5486432763646
1530.4954,201.9797421954172
1532.2893,238.44270374953703
1534.0824,134.48793255533383
1535.8747,201.8158308449747
1537.6663,182.42679950576348
1539.4572,151.8212374068462
1541.2473,192.24954159310437
1543.0367,197.86210759123787
1544.8253,179.3093290054203
1546.6132,207.3415974612435
1548.4003,163.35930279120294
1550.1867,226.51283275438618
1551.9723,242.30257347629959
1553.7572,259.22890881734565
1555.5414,318.54222021490204
1557.3247,350.99288651405004
1559.1074,367.7812833744647
1560.8893,431.4577829459013
1562.6705,476.52275370029383
1564.4509,611.6765597950325
1566.2305,677.0195606222733
1568.0094,808.5521094574215
1569.7876,930.1245528056861
1571.565,1010.9372290867759
1573.3417,1076.2404674191494
1575.1176,1111.834586811914
1576.8928,1098.519895511763
1578.6672,1050.8966906470596
1580.4409,960.4652583609495
1582.2138,796.2758742876504
1583.986,662.0288044567315
1585.7575,647.2243069350079
1587.5282,550.1626331690204
1589.2981,537.6940281330717
1591.0673,479.31873129984524
1592.8358,509.73697676507436
1594.6035,502.29899383133306
1596.3704,456.8050067038239
1598.1366,442.80523456478113
1599.9021,530.2498920283961
1601.6668,515.4391892808089
1603.4308,574.3233312056745
1605.194,692.5025175322662
1606.9564,778.3769422466103
1608.7182,888.4967924097255
1610.4791,1002.412247298842
1612.2394,1165.6734773062435
1613.9988,1362.1306428000862
1615.7576,1583.883892491809
1617.5156,1871.1833614715488
1619.2728,2187.979168990627
1621.0293,2377.871415588521
1622.785,2451.3101799249544
1624.54,2388.9455168809272
1626.2942,2299.477456824363
1628.0477,1989.4560062337296
1629.8005,1758.731148592722
1631.5525,1508.9028474904844
1633.3037,1327.0710489288504
1635.0542,1137.2356838206433
1636.804,1084.096669807972
1638.553,955.3539131605921
1640.3013,899.6073093072955
1642.0488,861.906744123351
1643.7955,852.4520944879605
1645.5416,885.2432286612693
1647.2868,954.6800063789051
1649.0313,1017.8622785240714
1650.7751,1171.3898864331695
1652.5181,1347.462661263995
1654.2604,1598.7804224604388
1656.0019,1894.9929759917704
1657.7427,2275.5501118394695
1659.4828,2697.2016010350926
1661.222,2985.7971918547046
1662.9606,3026.636605602369
1664.6984,2930.469533724181
1666.4354,2633.845637399889
1668.1717,2194.314548504555
1669.9072,1730.575872574791
1671.642,1400.3291932040574
1673.3761,1131.4240766800704
1675.1094,928.3100752872615
1676.8419,729.286729995827
1678.5737,612.6535724928744
1680.3048,556.9601271726569
1682.0351,463.5559123028888
1683.7646,369.6404405816902
1685.4934,353.6132200716238
1687.2215,299.97375513885163
1688.9488,240.92154661341374
1690.6754,182.05609232561073
1692.4012,248.92688769653978
1694.1263,229.7834263267432
1695.8506,207.525199327496
1697.5742,188.65169551224426
1699.297,192.9124016191854
1701.0191,137.60680250000223
1702.7404,125.73438107726543
1704.461,78.89461889747145
1706.1808,80.5869962497909
1707.8999,77.3109926344423
1709.6182,47.766086745787106
1711.3358,29.20175650507008
1713.0527,60.51747935588901
1714.7688,60.51273244982622
1716.4841,21.286992333290982
1718.1987,76.23973494757593
1719.9126,53.1204360210977
1721.6257,36.37857051989158
1723.338,62.01361287878899
1725.0496,-19.074962831151424
1726.7605,-9.437683159008884
1728.4706,-14.574884094998197
1730.18,-39.58680734688278
1731.8886,-37.17354901933322
1733.5964,-8.034809744833183
1735.3036,2.7800812078858144
1737.0099,21.27187483783746
1738.7156,13.491322116231458
1740.4204,6.889173801564539
1742.1246,20.216180517430985
1743.8279,20.8230928185385
1745.5306,52.26066105743848
1747.2325,29.8796353784619
1748.9336,18.93076540333641
1750.634,-7.335199544993884
1752.3336,33.732489667108894
1754.0325,28.484655451924482
1755.7307,39.22211988441086
1757.4281,75.3957047546919
1759.1247,84.70623146067192
1760.8206,91.65452064631245
1762.5158,120.14139210852227
1764.2102,102.36766472766249
1765.9039,70.88415618269755
1767.5968,108.14168312891343
1769.289,97.69106151275992
1770.9804,115.08310619927943
1772.6711,92.71863107661011
1774.361,90.49844888205917
1776.0502,143.6233714257578
1777.7386,129.59420961284377
1779.4263,133.4617729122383
1781.1132,162.37686949693125
1782.7994,146.9403062052861
1784.4849,160.10288825191674
1786.1696,134.86541938203482
1787.8535,155.37870173983356
1789.5367,144.4435361208507
1791.2192,181.96072176684174
1792.9009,147.48105647513876
1794.5818,162.9553362234783
1796.2621,175.13435551478688
1797.9415,179.9189072224417
1799.6202,198.30978246848645
1801.2982,186.55777057578052
1802.9755,199.81365888409346
1804.6519,219.37823286761522
1806.3277,218.00227600241305
1808.0027,206.83656957076892
1809.6769,239.7818926749569
1811.3504,228.9890223488892
1813.0231,239.90873322866537
1814.6951,263.291797660504
1816.3664,268.0389855915291
1818.0369,265.25106433595465
1819.7067,268.0287985276136
1821.3757,290.5229501478225
1823.044,309.08427849761574
1824.7115,266.81353997280166
1826.3783,261.11148787835737
1828.0443,252.72887285111574
1829.7096,259.0664429168064
1831.3741,280.2749435738642
1833.0379,324.50511773007565
1834.701,290.6077054904763
1836.3633,288.93344371505555
1838.0248,327.5330663577315
1839.6856,334.9573044830904
1841.3457,371.6068858803901
1843.005,366.432534989317
1844.6636,352.4849725334916
1846.3214,325.71491557220907
1847.9785,379.623077639917
1849.6349,379.6101690139294
1851.2904,390.1268961753267
1852.9453,380.7739618090909
1854.5994,366.10206469894365
1856.2528,424.51189982087453
1857.9054,421.4541584898561
1859.5572,439.6795277757501
1861.2083,446.9886905338717
1862.8587,496.53232522274266
1864.5084,456.9611058310111
1866.1572,429.9257013819988
1867.8054,439.0267763294214
1869.4528,437.9649908277279
1871.0994,452.14100064111335
1872.7453,468.3554571541208
1874.3905,500.3590072298939
1876.0349,469.4022930480169
1877.6786,462.5859517844983
1879.3215,484.1106159213159
1880.9637,498.6769133146008
1882.6051,510.93546697936836
1884.2458,508.9368949438849
1885.8858,497.981810127063
1887.525,496.1208203584483
1889.1634,480.8045284877844
1890.8011,489.4335324035965
1892.4381,489.10842518636855
1894.0743,509.47979502224916
1895.7098,513.448225206308
1897.3446,512.6642939388257
1898.9786,508.72857428559473
1900.6118,537.6916341857814
1902.2443,485.6040364912551
1903.8761,506.7163386769753
1905.5071,478.07909336187004
1907.1374,462.4428480976967
1908.7669,485.6081456554348
1910.3957,505.27552418164305
1912.0237,454.0955169668032
1913.651,480.9186522486398
1915.2776,494.99545372393004
1916.9034,496.27644028027316
1918.5285,449.9621258553143
1920.1528,446.05301942393817
1921.7764,447.99962546141614
1923.3992,437.75244398249015
1925.0213,407.8619705219153
1926.6427,394.42869623692604
1928.2633,405.2531082061432
1929.8832,408.9356895639103
1931.5023,393.32691939203323
1933.1207,391.6772726829731
1934.7383,405.93722049591815
1936.3552,408.4072299732961
1937.9714,395.7377641981584
1939.5868,375.2792821694893
1941.2015,365.9822389289038
1942.8154,368.9970857652279
1944.4286,352.0242703074655
1946.041,330.01423649465323
1947.6528,302.7174247455878
1949.2637,312.08427217892677
1950.8739,298.2652128861555
1952.4834,328.41067783791914
1954.0921,306.4710950222161
1955.7001,287.646889142944
1957.3074,306.9884818393002
1958.9139,290.5962918740115
1960.5197,326.7207349399232
1962.1247,285.1622238239288
1963.729,261.5211680457178
1965.3325,243.19797427336198
1966.9353,281.5430465597274
1968.5374,257.0067865256997
1970.1387,255.939592976737
1971.7393,247.74186214823567
1973.3392,252.51398771619733
1974.9383,265.20636087920775
1976.5366,218.56937031071902
1978.1342,248.25340203212363
1979.7311,239.7588398791213
1981.3273,237.23606520488283
1982.9227,242.5354569649926
1984.5173,210.05739174267546
1986.1112,196.70224369580956
1987.7044,206.42038488170238
1989.2968,216.6121853906452
1990.8885,214.07801324872526
1992.4795,210.26823431590947
1994.0697,205.88321231138798
1995.6592,225.4733088516732
1997.2479,207.68888349445206
1998.8359,228.8302935426882
2000.4232,183.49789422245794
2002.0097,214.39203847154204
2003.5955,199.2130773927438
2005.1805,204.5613599449507
2006.7648,190.38723309491797
2008.3484,195.84104176379606
2009.9312,231.87312896886124
2011.5133,200.78383576898614
2013.0946,196.77350090431173
2014.6752,187.69246110714357
2016.2551,201.6410511420563
2017.8342,186.3196038967062
2019.4126,181.62845024233957
2020.9902,178.46791918701
2022.5672,185.93833792248824
2024.1433,171.49003185587208
2025.7188,157.3733245348776
2027.2935,176.83853779232322
2028.8674,184.2359918873026
2030.4406,177.1660053105279
2032.0131,165.72889471035614
2033.5849,153.37497496349442
2035.1559,157.80455928935407
2036.7261,172.96795937361003
2038.2957,190.2654853238928
2039.8645,198.64744551815602
2041.4325,184.36414643170156
2042.9998,180.11589255335366
2044.5664,175.9029865283046
2046.1323,198.4257292005841
2047.6974,177.5344196551996
2049.2617,176.12935499290325
2050.8254,182.96083053909933
2052.3883,200.32913985790037
2053.9504,194.03457468381112
2055.5118,180.72742474805
2057.0725,180.45797784148726
2058.6325,178.87651994772932
2060.1917,181.83333524580394
2061.7502,198.47870612597762
2063.3079,188.21291316018596
2064.8649,158.13623493558043
2066.4212,158.248948157192
2067.9767,164.05132794868769
2069.5315,157.4436478512489
2071.0856,161.87617976554884
2072.6389,150.24919401782427
2074.1915,135.26295931555615
2075.7433,112.71774286373238
2077.2945,129.31381051471726
2078.8448,129.4514269937008
2080.3945,140.2308557327342
2081.9434,144.6023588693579
2083.4916,118.01619713880154
2085.039,141.57262983027977
2086.5857,135.12191505284045
2088.1317,145.51430949981113
2089.677,133.850068513304
2091.2215,117.0294459802908
2092.7652,108.70269444924361
2094.3083,128.0700652983469
2095.8506,151.63180881875905
2097.3921,148.93817402094373
2098.933,151.53940839904863
2100.4731,164.23575795784745
2102.0124,133.7274671867208
2103.5511,167.81477893269857
2105.089,167.89793470553195
2106.6261,157.3271743368332
2108.1626,166.50273597923206
2109.6983,144.9248562120947
2111.2332,165.1437699497592
2112.7675,161.85971065732338
2114.301,169.82291014844577
2115.8337,180.43359861819772
2117.3657,167.24200456341987
2118.897,169.6983546766187
2120.4276,160.3028739778847
2121.9575,163.30578579032954
2123.4866,176.0073118340415
2125.0149,170.80767219604786
2126.5426,144.9070852033101
2128.0695,147.7557674747177
2129.5956,157.65393418009353
2131.1211,184.90179901170268
2132.6458,192.64957408527425
2134.1698,169.99746966752355
2135.693,176.09569409866708
2137.2155,188.29445401895373
2138.7373,182.4439543076778
2140.2584,175.49439796118804
2141.7787,152.94598615140148
2143.2983,145.59891829529352
2144.8171,132.10339228038265
2146.3353,156.75960453820426
2147.8527,156.31775017925793
2149.3693,153.27802274645092
2150.8853,154.4906142195141
2152.4005,137.65571504540094
2153.9149,181.57351412615844
2155.4287,143.74419898728047
2156.9417,192.41795533852383
2158.454,165.79496745220968
2159.9655,164.6254176764778
2161.4764,178.1594867015201
2162.9865,156.3473535712783
2164.4958,177.0391955481
2166.0045,174.03518833086127
2167.5124,183.53550584805453
2169.0195,177.9403202878193
2170.526,171.59980200294376
2172.0317,173.11411956681422
2173.5367,179.13343983682262
2175.0409,175.65792793922537
2176.5445,184.93774720894453
2178.0473,158.7730592243288
2179.5494,148.2640237143478
2181.0507,180.26079882024533
2182.5513,153.11354120062515
2184.0512,169.1724057114834
2185.5504,149.78754567768556
2187.0488,144.10911273236707
2188.5465,127.83725701079311
2190.0435,132.92212720713815
2191.5397,127.56387073720816
2193.0353,130.31263368758755
2194.5301,140.2685608692227
2196.0241,131.33179578994077
2197.5175,147.45248055488082
2199.0101,131.58075595586888
2200.502,119.26676131021304
2201.9931,124.36063461941649
2203.4835,125.21251269231107
2204.9733,106.72253109413214
2206.4622,109.39082413799042
2207.9505,126.11752506977518
2209.438,87.30276604146911
2210.9248,89.59667794388133
2212.4109,91.999390794791
2213.8962,107.91103371601639
2215.3809,110.03173490937934
2216.8648,109.6616214975902
2218.3479,117.25081950304775
2219.8304,85.44945385153824
2221.3121,84.00764829633772
2222.7931,87.97552573623216
2224.2733,91.6032082299289
2225.7529,68.04081695638797
2227.2317,52.03847217853763
2228.7098,93.29629347890295
2230.1872,99.86439991962197
2231.6638,100.7429096298747
2233.1397,73.93193974019596
2234.6149,88.88160637369765
2236.0894,79.94202491416581
2237.5632,74.01330985658115
2239.0362,79.04557489650233
2240.5085,78.88893298935909
2241.9801,77.94349630012584
2243.4509,77.00937620489094
2244.921,71.63668330030941
2246.3904,59.27552741294858
2247.8591,72.42601765300878
2249.3271,68.83826253793904
2250.7943,66.86236986092808
2252.2608,69.34844672678719
2253.7266,66.44659957170461
2255.1917,58.10693413839181
2256.656,58.02955550509432
2258.1197,56.36456816898772
2259.5826,53.01207604695264
2261.0447,53.12218249223224
2262.5062,44.3949903279472
2263.9669,50.53060184599872
2265.4269,50.029118894337444
2266.8862,77.64064281561423
2268.3448,80.61527445218508
2269.8026,62.2031138700022
2271.2598,73.55426032886498
2272.7162,72.46881246654175
2274.1719,62.04686818526625
2275.6268,73.48852466258359
2277.0811,89.39387845557394
2278.5346,84.66302538642867
2279.9874,80.74606038340607
2281.4395,88.34307752813402
2282.8908,80.1041700947817
2284.3414,77.87943047409135
2285.7914,73.01895025576596
2287.2406,67.5228202507169
2288.689,80.2411305396663
2290.1368,85.62397052811593
2291.5838,71.47142881915534
2293.0302,105.83359315964026
2294.4758,80.06055058171069
2295.9206,82.85238705917527
2297.3648,79.25918776524122
2298.8082,79.88103704459172
2300.251,97.36801844932279
2301.693,80.87021473272489
2303.1343,87.83770767441001
2304.5748,76.62057824529074
2306.0147,68.56890653790742
2307.4538,76.03277187859612
2308.8922,90.11225290800894
2310.3299,92.10742750646932
2311.7669,77.81837265318154
2313.2031,78.54516440627867
2314.6387,79.03787804570948
2316.0735,64.29658806597126
2317.5076,71.32136817118226
2318.941,80.56229142249595
2320.3737,65.46943016785599
2321.8056,70.49285594958701
2323.2369,69.53263965531914
2324.6674,69.2388514677582
2326.0972,73.36156087428571
2327.5263,78.00083666989394
2328.9547,76.00674691596168
2330.3823,80.02935889386345
2331.8092,97.86873912491001
2333.2355,73.27495333011939
2334.661,88.74806625182464
2336.0858,97.08814189961004
2337.5098,90.64524339558193
2338.9332,104.91943289096844
2340.3558,97.46077163054815
2341.7778,83.21931980990894
2343.199,61.9951366500336
2344.6195,75.3382805397132
2346.0393,89.69880924779
2347.4583,83.1267797897267
2348.8767,71.97224828399567
2350.2943,77.13527001780676
2351.7113,85.71589955864738
2353.1275,82.91419070265238
2354.543,91.1301963887986
2355.9578,100.6639687269203
2357.3718,89.41555891555572
2358.7852,79.53501714660524
2360.1978,82.87239271781846
2361.6098,88.17773413159694
2363.021,102.65108906161686
2364.4315,76.44250429978183
2365.8413,70.05202561148326
2367.2504,76.37969799769326
2368.6587,87.77556575886456
2370.0664,88.2396724316568
2371.4733,68.27206067497445
2372.8795,73.57277226532915
2374.285,65.89184829651413
2375.6899,69.0793291265968
2377.0939,53.58525445473106
2378.4973,48.659663289274704
2379.9,51.20259410273684
2381.3019,51.61408488102825
2382.7032,54.39417309803957
2384.1037,60.44289571152103
2385.5035,41.46028913528653
2386.9027,53.54638917872035
2388.3011,56.60123123660833
2389.6987,58.3248501682765
2391.0957,37.26728026703722
2392.492,48.6285552429581
2393.8876,32.95870843343255
2395.2824,41.8077726895699
2396.6765,41.17578053289708
2398.07,23.96276406686411
2399.4627,29.86875498316931
2400.8547,49.74378473388333
2402.246,38.0378844723914
2403.6366,21.10108485464434
2405.0265,34.48341615621439
2406.4156,21.634908441666084
2407.8041,15.505591430727236
2409.1918,36.745494626778054
2410.5789,25.75464737814673
2411.9652,11.58307866570749
2413.3508,17.180817212787133
2414.7358,7.797891626887122
2416.12,14.084330343699548
2417.5035,19.490161720937976
2418.8863,28.815413975473803
2420.2684,32.810115129277165
2421.6497,21.22429291616436
2423.0304,5.9579747418579245
2424.4104,15.161187799836625
2425.7896,2.233959224004593
2427.1682,10.026315996649828
2428.546,8.688285077720138
2429.9232,21.319893326905913
2431.2996,28.221167517012418
2432.6753,24.29213420764836
2434.0503,21.432819676210784
2435.4246,8.843249957178159
2436.7982,25.02345087070171
2438.1711,18.82344814850012
2439.5433,41.74326727205698
2440.9148,17.232933534624863
2442.2856,-0.007528187978550704
2443.6557,19.221906807738833
2445.025,12.82126330047231
2446.3937,26.84056587670102
2447.7617,9.029838994692454
2449.1289,20.189106844308753
2450.4955,20.51839352511388
2451.8613,29.81772293478207
2453.2265,29.487118765804098
2454.5909,37.87660441249636
2455.9546,36.73620297430443
2457.3177,31.865937171910446
2458.68,25.065829358632527
2460.0416,33.135901569132784
2461.4025,44.07617558741322
2462.7627,42.23667286611817
2464.1222,42.917414417135205
2465.4811,37.41842082998437
2466.8392,43.639712265012804
2468.1966,49.23130850838652
2469.5533,73.6432289098725
2470.9093,57.925492326925905
2472.2645,54.72811688057027
2473.6191,52.85112011257479
2474.973,49.54451901743141
2476.3262,60.308330061119705
2477.6787,50.69256921417809
2479.0305,43.6972518440607
2480.3816,56.92239281129878
2481.7319,57.81800653944947
2483.0816,50.9341068828503
2484.4306,44.320707117661186
2485.7789,31.127820010698997
2487.1264,46.255457885577016
2488.4733,52.30363275463105
2489.8195,33.5723561676441
2491.165,42.361639151363306
2492.5097,42.67149239681521
2493.8538,32.90192617140838
2495.1972,23.652950315839462
2496.5398,16.4245743417855
2497.8818,35.86680752439588
2499.2231,33.87965897457798
2500.5637,35.76313744457002
2501.9035,24.01725134781418
2503.2427,33.092008740123674
2504.5812,47.28741743713999
2505.919,40.8034849235878
2507.256,41.140218211317006
2508.5924,29.59762390414653
2509.9281,37.72570819449356
2511.2631,28.774476978801886
2512.5974,36.243935776259605
2513.9309,39.88408981831299
2515.2638,44.64494397396902
2516.596,46.776502713395075
2517.9275,39.078770060310944
2519.2583,44.901749570669836
2520.5884,30.645444409642096
2521.9178,32.759857293378445
2523.2465,42.99499063157873
2524.5745,42.10084650634553
2525.9018,35.727426569832005
2527.2284,35.174732053184925
2528.5543,52.44276383027545
2529.8796,41.73152242323022
2531.2041,33.74100782974983
2532.5279,46.671219630219184
2533.851,49.02215706761672
2535.1735,48.593818918207944
2536.4952,54.73620346803773
2537.8163,48.94930851721392
2539.1366,52.383131318482356
2540.4562,50.887668635097725
2541.7752,60.062916706483975
2543.0935,59.10887126318994
2544.411,64.57552743513679
2545.7279,65.66287976115746
2547.0441,67.42092213433216
2548.3596,69.69964779111251
2549.6744,72.69904929374252
2550.9885,59.86911850747174
2552.3019,63.55984657055933
2553.6146,75.72122402257446
2554.9266,74.05324076748911
2556.2379,78.85588595206491
2557.5485,78.87914798253132
2558.8585,82.27301447655987
2560.1677,86.2874722630313
2561.4762,87.57250734809827
2562.7841,84.12810487503862
2564.0913,84.55424911140562
2565.3977,87.05092348347193
2566.7035,76.86811057196951
2568.0086,85.2057920871232
2569.313,96.86394897047558
2570.6167,87.44256131151224
2571.9197,101.6416082310825
2573.222,102.31106797561006
2574.5236,106.65091777510634
2575.8246,111.76113383647066
2577.1248,114.24169130009682
2578.4244,111.79256418876889
2579.7232,121.11372538285491
2581.0214,107.40514664479906
2582.3189,137.06679852590992
2583.6157,116.99865050344397
2584.9118,130.45067068399067
2586.2072,132.97282600415292
2587.5019,135.31508209602748
2588.7959,140.27740326198318
2590.0893,129.75975245123823
2591.3819,144.41209121023803
2592.6739,126.43437978782936
2593.9652,146.2765769887401
2595.2557,147.78864035335505
2596.5456,135.62052595929345
2597.8348,145.12218840628861
2599.1234,135.69358093787082
2600.4112,147.73465534634875
2601.6983,163.1953620670963
2602.9848,153.77565005814222
2604.2705,142.62546664556066
2605.5556,163.69475761767194
2606.84,156.43346733654153
2608.1237,155.09153852728832
2609.4067,150.9689123506971
2610.689,138.71552841663765
2611.9707,145.931324825292
2613.2516,150.01623828968604
2614.5319,138.57020406353558
2615.8115,155.1931559003956
2617.0903,156.93502616811838
2618.3685,143.09574568262678
2619.6461,140.62524369049333
2620.9229,132.72344800733322
2622.199,153.19028504251014
2623.4745,146.17567987815437
2624.7493,141.32955606449264
2626.0234,141.9018356899951
2627.2968,150.44243942983803
2628.5695,147.50128654018044
2629.8415,133.82829477275823
2631.1128,130.57338040429477
2632.3835,139.7864583732321
2633.6535,140.7674423122778
2634.9228,136.96624445627617
2636.1914,143.68277563239712
2637.4593,154.9669452981493
2638.7265,141.01866147421447
2639.9931,143.98783063160408
2641.259,133.52435783114447
2642.5242,137.57814669378376
2643.7887,145.899099505227
2645.0525,137.137117175399
2646.3156,128.9920991552333
2647.5781,124.61394352429352
2648.8398,142.05254707222412
2650.1009,124.7078053425289
2651.3613,144.1796124581872
2652.6211,139.567861295101
2653.8801,133.62244328737665
2655.1385,129.2432484734427
2656.3961,129.4301655555032
2657.6531,140.38308194333104
2658.9094,144.6018837523984
2660.1651,144.73645569434643
2661.42,140.98668103479918
2662.6743,152.40244159201643
2663.9279,154.28361777439204
2665.1808,151.28008846629677
2666.433,152.49173100926578
2667.6846,161.16842123203492
2668.9354,155.41003343842294
2670.1856,148.66644032056433
2671.4351,152.337513016495
2672.6839,177.07312117758556
2673.9321,170.27313293183283
2675.1795,174.53741463650294
2676.4263,178.71583094613175
2677.6724,177.70824476988196
2678.9179,173.81451722975794
2680.1626,183.23450767068402
2681.4067,190.66807369943876
2682.6501,179.3650710904567
2683.8928,184.57535371149243
2685.1348,182.79877363665037
2686.3761,168.335181094282
2687.6168,170.58442448475148
2688.8568,158.4963505250712
2690.0961,164.9708042264101
2691.3348,162.65762901497465
2692.5727,160.60666666726343
2693.81,155.4177573331997
2695.0466,149.39073955664003
2696.2826,151.1754503272648
2697.5178,158.87172514084796
2698.7524,149.97939798140897
2699.9863,158.8483012442514
2701.2195,152.02826582488615
2702.452,161.6691210303402
2703.6839,174.07069464735991
2704.9151,165.18281284600107
2706.1456,162.90530005561232
2707.3755,179.3879790537153
2708.6046,183.28067098877978
2709.8331,179.33319521539647
2711.0609,191.44536925534976
2712.2881,196.01700883709327
2713.5145,211.49792777462653
2714.7403,215.1379379217808
2715.9654,219.58684901740708
2717.1899,237.39446864897786
2718.4136,250.66060220809732
2719.6367,258.28505271242466
2720.8591,269.1676206730142
2722.0809,276.65810401806993
2723.3019,283.65629798412056
2724.5223,300.0619950411151
2725.7421,297.4249848224406
2726.9611,285.49505396086465
2728.1795,299.171986114907
2729.3972,286.6055620881368
2730.6142,269.3455596924041
2731.8306,263.6417538735036
2733.0462,248.14391688377464
2734.2612,225.05181833914003
2735.4756,215.2652253740846
2736.6892,189.4339028725749
2737.9022,181.05761356592666
2739.1145,156.0861182911167
2740.3262,154.61917607454598
2741.5372,132.55654438175566
2742.7475,115.0979791320949
2743.9571,124.0432349193486
2745.1661,105.94206518632154
2746.3744,81.5942221353871
2747.582,76.39945690949867
2748.7889,68.70751983566879
2749.9952,74.7681604769125
2751.2008,50.18112770916969
2752.4057,62.64616966069775
2753.61,38.61303395794266
2754.8136,43.93146760088939
2756.0165,47.4012172033938
2757.2188,44.92202893999752
2758.4204,39.043648511230685
2759.6213,40.865821168403954
2760.8215,30.388291772391995
2762.0211,32.96080477541159
2763.22,17.733104325798877
2764.4182,24.904934242281797
2765.6158,11.776038166258786
2766.8127,22.146159490078844
2768.009,10.71504148833219
2769.2045,7.232427214146128
2770.3994,18.8980596134993
2771.5936,-1.9883184399539005
2772.7872,-1.6269642615386601
2773.9801,-15.518115303280638
2775.1723,-17.86199276383354
2776.3639,-16.808662815879188
2777.5548,-14.608013190792235
2778.745,-22.7597637014062
2779.9346,-17.16348822650275
2781.1235,-15.118533274825495
2782.3117,-10.374073891872058
2783.4992,-7.529134088992123
2784.6861,-15.3826342405373
2785.8723,-5.683419504811127
2787.0579,7.019818632399165
2788.2428,-3.6715545373331224
2789.427,6.093826207366874
2790.6106,18.017362766703855
2791.7935,26.0504569799441
2792.9757,37.59451050618031
2794.1573,42.800924744002714
2795.3382,46.221100716055844
2796.5184,64.70643901697622
2797.698,83.8083397791886
2798.8769,93.7782024880546
2800.0551,116.86742579085308
2801.2327,113.22740739708092
2802.4096,130.1595438475615
2803.5859,153.4152305508444
2804.7615,179.04586161388465
2805.9364,205.00282960948493
2807.1106,221.63752531999125
2808.2842,250.85133747772034
2809.4572,285.09565259861597
2810.6294,319.27185469010783
2811.801,350.63132490866997
2812.972,396.6754412180592
2814.1423,441.3555780757206
2815.3119,485.4731059723458
2816.4808,535.8293909850702
2817.6491,577.3757943362987
2818.8167,627.2636718901449
2819.9837,670.2943737369642
2821.15,717.1692436944747
2822.3157,748.339618877453
2823.4807,796.4568292289825
2824.645,829.0721972087522
2825.8086,878.8370373118807
2826.9716,918.7526557427675
2828.134,946.4703499174384
2829.2957,999.9914080643923
2830.4567,1009.1171089474258
2831.617,1034.3987213304215
2832.7767,1028.3375038860904
2833.9358,1033.134704943158
2835.0941,1023.9415625469762
2836.2519,1007.059304411549
2837.4089,997.9891480114659
2838.5653,996.5323007507241
2839.7211,1002.9899600534281
2840.8761,998.6133133783608
2842.0306,1019.4035381544068
2843.1843,1056.7618018243168
2844.3374,1096.2892616368083
2845.4899,1170.1870642729812
2846.6417,1246.5063454510432
2847.7928,1322.5982291873324
2848.9433,1398.9138270331237
2850.0931,1474.6042373137084
2851.2422,1554.4205443652427
2852.3907,1636.3138177778399
2853.5385,1690.5851115974067
2854.6857,1746.8854635067144
2855.8323,1796.1658942826828
2856.9781,1853.8274072333788
2858.1233,1907.120987705211
2859.2679,1918.8976025063155
2860.4118,1981.8581993736175
2861.555,2027.9537068550671
2862.6976,2051.035033680034
2863.8395,2079.4530682983495
2864.9808,2108.708678649497
2866.1214,2119.902711878429
2867.2614,2131.135994043012
2868.4007,2137.7593300020853
2869.5393,2154.723503303129
2870.6773,2169.9792761160306
2871.8146,2166.927389063445
2872.9513,2169.218561068232
2874.0874,2173.0034893839797
2875.2227,2162.782849572092
2876.3574,2132.5572954639365
2877.4915,2122.8274592630532
2878.6249,2091.343951847409
2879.7577,2085.2073628666967
2880.8898,2055.5182610571705
2882.0212,2017.2771943030102
2883.152,2009.934689933214
2884.2821,2014.7412551040075
2885.4116,1982.597376872271
2886.5405,1998.9535221474725
2887.6686,1995.3101380131052
2888.7962,2004.3676515631291
2889.923,2010.7264699384018
2891.0493,2012.7869802361056
2892.1748,2032.499549446159
2893.2997,2029.6645244306103
2894.424,2057.932231726514
2895.5476,2067.55297757428
2896.6706,2084.427047634995
2897.7929,2141.404706894215
2898.9145,2151.236199493229
2900.0355,2186.421748159277
2901.1559,2232.011554107236
2902.2756,2245.855796687769
2903.3946,2281.6546329314215
2904.513,2292.1081974101844
2905.6308,2323.816601879501
2906.7479,2364.529935173733
2907.8643,2399.098262889078
2908.9801,2401.2716269764323
2910.0953,2424.250045395713
2911.2098,2403.3335120941206
2912.3236,2415.321996776355
2913.4368,2400.2654451137823
2914.5494,2381.7137786245503
2915.6613,2345.06689482415
2916.7725,2322.0746674109378
2917.8831,2282.8369466326003
2918.9931,2257.50355951608
2920.1024,2239.5743102599477
2921.211,2220.398980487741
2922.319,2199.4773294272536
2923.4264,2171.9090941022914
2924.5331,2164.093989541887
2925.6391,2138.3817090559814
2926.7445,2149.521924313578
2927.8493,2137.164285599861
2928.9534,2147.9584217047995
2930.0569,2126.853940046716
2931.1597,2119.6004265643533
2932.2619,2124.2474459279138
2933.3634,2111.4445416115964
2934.4643,2109.1912358471263
2935.5645,2086.787029751783
2936.6641,2045.6314033509339
2937.763,2009.2738158020773
2938.8613,1975.113705806397
2939.959,1901.250491972341
2941.056,1840.0835731572188
2942.1523,1756.2123292058368
2943.248,1684.036121562166
2944.3431,1589.6042941080552
2945.4375,1479.8161738849906
2946.5313,1379.071072038417
2947.6244,1279.5682849156171
2948.7169,1165.3070950731642
2949.8087,1080.9367722719496
2950.8999,991.1065746197937
2951.9904,902.9657494151506
2953.0803,836.0635340454082
2954.1696,771.549156868298
2955.2582,731.6718378809162
2956.3462,695.9307893648671
2957.4335,641.0252162850381
2958.5202,606.8043166470082
2959.6062,587.8672820461052
2960.6916,574.9132980096142
2961.7764,548.2915441861489
2962.8605,531.9511944751903
2963.9439,515.5414172933046
2965.0267,524.2613757375466
2966.1089,520.4102277495566
2967.1905,518.837126028362
2968.2714,513.9912180688887
2969.3516,514.6216461776912
2970.4312,524.427547521413
2971.5102,522.5080541204816
2972.5885,525.0622927510501
2973.6662,538.3393849641919
2974.7432,529.7384470603581
2975.8196,534.2585899566061
2976.8954,529.8989192726108
2977.9705,509.0085352854601
2979.045,504.68653297325386
2980.1188,486.7320022240075
2981.192,468.944027878872
2982.2645,456.57168991167805
2983.3364,440.9140636068179
2984.4077,410.3702196829663
2985.4783,380.7392244496584
2986.5483,353.9701401127271
2987.6177,328.81202507061346
2988.6864,297.463934182058
2989.7545,274.52491901768076
2990.8219,243.84402817346393
2991.8887,205.37030750014083
2992.9548,182.55280041000492
2994.0204,160.1405482616466
2995.0852,127.33259058812871
2996.1495,120.87796532110872
2997.2131,86.67570911891903
2998.276,76.57485743111226
2999.3383,60.874444840484784
3000.4,46.923505164084986
3001.4611,34.62107161021743
3002.5215,19.466176917951884
3003.5812,16.05785348014774
3004.6404,-5.954866504996858
3005.6989,5.427049000138595
3006.7567,-0.14730847770965738
3007.8139,-4.628847466075513
3008.8705,-7.9184750208811465
3009.9264,-13.717051955863099
3010.9818,-13.125359979192012
3012.0364,-16.89404376569098
3013.0905,-5.523616867836722
3014.1439,-9.164424066609513
3015.1966,-7.016754962057917
3016.2487,6.96919239836609
3017.3002,0.39329006459172433
3018.3511,9.40541001685665
3019.4013,7.055424231466304
3020.4509,17.493204590672008
3021.4998,31.468622906171277
3022.5481,20.831550814730008
3023.5958,28.981859638427977
3024.6428,39.91942049103011
3025.6892,34.294104196482635
3026.735,45.20578117953835
3027.7802,57.55432152200865
3028.8247,63.389594853648305
3029.8685,65.86147022866862
3030.9118,79.01981606738559
3031.9544,92.31450013150004
3032.9963,89.39538939251611
3034.0376,97.76234989879208
3035.0783,112.91524680473242
3036.1184,118.3039442871185
3037.1578,115.72830539357801
3038.1966,125.03819198869928
3039.2348,142.63346477978791
3040.2723,139.76398322376804
3041.3092,138.07960535122947
3042.3455,143.93018779512215
3043.3811,143.66558580760056
3044.4161,145.9356532015172
3045.4505,141.24024235306968
3046.4842,125.42920417909875
3047.5173,137.85238818404287
3048.5498,139.30964261804888
3049.5816,131.25081435274012
3050.6128,123.72574886664302
3051.6434,126.98429032577656
3052.6734,126.67628165890255
3053.7027,118.90156452493977
3054.7314,113.20997931604427
3055.7594,117.6513652353566
3056.7868,114.87556035391754
3057.8136,109.78240156625407
3058.8398,107.27172461813802
3059.8653,117.54336415751777
3060.8902,108.09715375962458
3061.9145,101.88292582425595
3062.9381,102.40051167023807
3063.9612,103.89974159756815
3064.9835,97.58044488223845
3066.0053,96.2424497612439
3067.0264,90.38558349577522
3068.0469,91.25967238459913
3069.0668,80.46454182262642
3070.086,73.90001629217193
3071.1046,74.86591947090483
3072.1226,79.71207429749472
3073.1399,64.7883029619519
3074.1567,53.344426857165956
3075.1727,50.38026672814419
3076.1882,47.19564278644947
3077.203,37.340374739842105
3078.2173,32.464281824126545
3079.2308,29.867182901703643
3080.2438,28.898896510331326
3081.2561,28.209240889096122
3082.2678,12.748033988095415
3083.2789,15.515093475334709
3084.2893,8.660236891339252
3085.2991,10.283281621483468
3086.3083,7.484044964539578
3087.3169,5.1623441164474
3088.3248,4.217996198306423
3089.3321,-4.799181720406921
3090.3388,-1.8893726123958459
3091.3449,1.3972884934612466
3092.3503,-0.08931455688144752
3093.3551,-2.6992979314424588
3094.3593,-6.382776905987782
3095.3629,2.0101602097028035
3096.3658,-3.070511130209354
3097.3681,-1.2248154916645149
3098.3698,-4.552746766196719
3099.3708,-4.404286609433541
3100.3713,6.270628804937417
3101.3711,-1.727892697948164
3102.3702,-3.499743355661053
3103.3688,-3.34479814412407
3104.3667,1.1371029231760872
3105.364,10.996153247285918
3106.3607,2.182546217880997
3107.3568,2.2964751146756726
3108.3522,2.9381331955591463
3109.347,5.707713695455823
3110.3412,5.455409819909164
3111.3348,2.531414717385644
3112.3277,5.985921481797902
3113.32,11.569123181744317
3114.3117,14.031212825964246
3115.3028,14.57238330750613
3116.2932,17.642827379106052
3117.2831,20.09273764777663
3118.2723,18.77230654410215
3119.2608,19.481726297739897
3120.2488,18.021188950623866
3121.2361,27.290886349871187
3122.2229,23.741010162387
3123.209,22.071751782167667
3124.1944,29.433302365799705
3125.1793,28.475852849152147
3126.1635,28.599593873761194
3127.1471,28.00471579640464
3128.1301,22.641408687864782
3129.1125,32.40986233887645
3130.0942,34.9602663137606
3131.0753,35.64280985273945
3132.0558,35.95768184643282
3133.0357,35.85507082903271
3134.015,36.835164975154555
3134.9936,45.24815210086288
3135.9716,33.994219653871056
3136.949,43.4235546294108
3137.9258,42.28634368277187
3138.902,43.032773035008546
3139.8775,48.063028484312014
3140.8524,47.27729539854565
3141.8267,47.025758664942714
3142.8004,50.30860269796369
3143.7735,49.47601144181158
3144.7459,50.77816833760343
3145.7178,53.865256331696315
3146.689,54.68745786266561
3147.6596,51.74495483043421
3148.6295,54.28792858805056
3149.5989,54.06655997111369
3150.5676,63.73102927234336
3151.5357,56.23151624379389
3152.5032,60.668200000209396
3153.4701,59.391259094018864
3154.4364,59.4508714709695
3155.402,62.54721448289601
3156.367,66.5304648871244
3157.3315,61.65079881550872
3158.2952,65.90839173459835
3159.2584,61.80341849443482
3160.221,65.98605328597586
3161.1829,64.75646968214491
3162.1442,69.4648405960051
3163.105,71.76133829305479
3164.065,69.94613434414407
3165.0245,74.96939960250972
3165.9834,78.58130422192718
3166.9416,76.33201760647813
3167.8993,75.17170837443118
3168.8563,81.05054438073489
3169.8127,80.6686927286209
3170.7684,84.07631971081526
3171.7236,87.47359081335736
3172.6782,83.86067068152337
3173.6321,89.18772308585366
3174.5854,88.20491095828194
3175.5381,89.31239633886473
3176.4902,85.96034038560948
3177.4417,95.84890336339977
3178.3926,92.67824467751583
3179.3428,94.3485227747489
3180.2924,95.85989517510782
3181.2415,95.71251845511634
3182.1899,96.70654823269923
3183.1377,97.19213916865615
3184.0848,94.21944495672133
3185.0314,99.38861831870759
3185.9773,97.9498110342333
3186.9227,101.45317388903086
3187.8674,107.4488566893345
3188.8115,101.83700822684673
3189.755,108.16777621878163
3190.6979,109.7913073639831
3191.6402,111.85774727961739
3192.5818,112.06724048493774
3193.5229,113.06993038061998
3194.4633,118.26595924666749
3195.4031,116.1554682323844
3196.3423,121.6885973044153
3197.2809,120.46548526785013
3198.2189,115.38626971089286
3199.1563,119.60108701709265
3200.0931,121.360072416136
3201.0292,124.11335994169859
3201.9648,124.96108241385538
3202.8997,120.25337141154782
3203.834,122.14035726410651
3204.7677,125.42216909832827
3205.7008,134.7989348196065
3206.6333,131.52078107911285
3207.5652,129.5878331800297
3208.4964,133.70021511033164
3209.4271,136.55804956211497
3210.3571,138.31145789047383
3211.2865,139.06056008492192
3212.2154,141.0054747518584
3213.1436,140.79631910707684
3214.0712,145.83320895631613
3214.9982,141.6162586973519
3215.9246,141.4955812696277
3216.8503,143.6212881964247
3217.7755,142.24348958606802
3218.7001,148.11229411067006
3219.624,151.0778090199084
3220.5473,152.69014008233742
3221.4701,150.8493915557337
3222.3922,154.45566617097225
3223.3137,154.50906515043425
3224.2346,157.55968817194415
3225.1549,153.15763336823585
3226.0746,158.40299729644624
3226.9937,159.1958749821361
3227.9121,157.136359866836
3228.83,163.32454380011794
3229.7473,167.66051706019022
3230.6639,161.8943682920157
3231.5799,163.97618446395214
3232.4954,164.70605092541354
3233.4102,168.18405138605206
3234.3244,168.56026790845937
3235.238,167.73478087338663
3236.151,169.20766897598224
3237.0634,172.1290092340469
3237.9752,175.2488769733045
3238.8864,178.86734579818892
3239.797,177.13448756064525
3240.7069,179.8503723239451
3241.6163,183.81506838001516
3242.5251,182.0786422222784
3243.4332,182.34115850600708
3244.3408,180.152680065687
3245.2477,187.76326791239245
3246.154,186.07298125567075
3247.0598,189.33187742743664
3247.9649,183.94001189887496
3248.8694,183.69743824785172
3249.7733,187.55420821283283
3250.6766,191.4603716953098
3251.5793,192.41597672123194
3252.4814,191.37106940194494
3253.3829,197.77569392463462
3254.2838,195.0798925627761
3255.1841,202.53370561208754
3256.0838,193.63717141748808
3256.9829,195.69032629855968
3257.8814,199.5432046385127
3258.7792,201.19583886365405
3259.6765,198.8982594048586
3260.5731,200.0504946810429
3261.4692,207.0025711221407
3262.3647,202.6545131575809
3263.2595,200.60634314676656
3264.1538,200.75808142255565
3265.0474,203.25974631174262
3265.9404,207.56135413354107
3266.8329,203.71291917456722
3267.7247,201.16445364582358
3268.616,205.01596772118347
3269.5066,204.5674695628757
3270.3966,201.1189652829691
3271.286,205.5204589478579
