RamanShift,CorrectedData
30.1047,6584.072021019519
32.3739,6147.771795424236
34.6426,5702.571503988233
36.9109,5260.621019393071
39.1787,4823.820157294595
41.4461,4389.118680742441
43.7131,3962.1663045480373
45.9796,3525.6626996316277
48.2456,3085.6074972917886
50.5112,2653.2502935704642
52.7764,2218.990653653527
55.0411,1797.2781161943424
57.3054,1368.2121976563692
59.5692,944.3923965302852
61.8326,528.6181976246448
64.0955,110.13907630407903
66.3579,-293.4954973529632
68.6199,-681.6360543694233
70.8815,-1037.280193748225
73.1426,-1258.8687049481086
75.4032,-1102.382014998681
77.6634,-25.03797483118933
79.9231,3391.506577419449
82.1824,11898.095053747686
84.4412,37148.0708322329
86.6995,59631.52717197353
88.9574,59271.70696058731
91.2148,58789.1024893767
93.4717,58312.30545692708
95.7282,57845.956973932836
97.9842,57384.59756796527
100.2398,56920.917188136125
102.4949,56461.85520971118
104.7495,56004.300438747065
107.0036,55546.54111668182
109.2573,55093.46492491051
111.5105,54633.55898936281
113.7632,54180.35988503373
116.0154,53719.10364058269
118.2672,53266.22574286554
120.5185,52818.26114154708
122.7693,52362.894253629885
125.0197,51912.10896793386
127.2696,51457.98864965005
129.519,51010.36614484834
131.7679,50562.623785018775
134.0163,50109.69339154773
136.2642,49662.20628019536
138.5117,49215.99326562489
140.7587,48771.7846658775
143.0052,48326.16030683442
145.2512,47886.24952665904
147.4967,47451.78118025318
149.7417,47006.083643656115
151.9863,46564.58481838937
154.2304,46130.01213591361
156.4739,45689.99256204365
158.717,45256.302601294214
160.9596,44820.11830128009
163.2017,44391.01525705305
165.4433,43955.86861546366
167.6844,43527.603079452376
169.925,43101.99291240095
172.1651,42680.41194241514
174.4047,42250.38356658074
176.6439,41826.73075517944
178.8825,41403.87605598911
181.1206,40979.5415985203
183.3582,40557.79909824482
185.5954,40144.46986083903
187.832,39728.22478640136
190.0681,39316.88437358555
192.3037,38898.51872376307
194.5388,38488.59754513661
196.7734,38078.99015692366
199.0075,37670.46549345578
201.2411,37268.19210827458
203.4742,36866.98817821713
205.7068,36466.12150743848
207.9389,36065.609531423914
210.1704,35669.31932099745
212.4015,35270.86758632705
214.632,34883.67068088751
216.862,34502.24460544494
219.0915,34119.35501192877
221.3205,33732.417207246
223.549,33350.4461571101
225.777,32969.60648991031
228.0044,32588.812500531483
230.2314,32208.628154162412
232.4578,31828.067090103752
234.6837,31451.44262556993
236.909,31076.667759494696
239.1339,30677.10517629741
241.3582,30324.467249630783
243.582,29926.166046376493
245.8053,29571.863330171538
248.0281,29216.57056539126
250.2503,28854.74892069235
252.472,28487.459272565844
254.6932,28132.812208955293
256.9139,27773.168032929658
259.134,27422.53676622983
261.3536,27069.378152864992
263.5727,26719.301662619
265.7912,26374.21649458193
268.0092,26033.38158065088
270.2267,25688.505588980785
272.4436,25350.44692739279
274.6601,25005.213746822978
276.8759,24676.013944702965
279.0913,24338.705168412278
281.3061,24007.24481857031
283.5204,23676.540052409422
285.7341,23346.197787089543
287.9473,23012.474703005202
290.16,22696.027247089005
292.3721,22383.011636148804
294.5837,22065.0338600322
296.7947,21749.849684756722
299.0052,21435.014655689607
301.2152,21124.734100699607
303.4246,20822.56313330536
305.6334,20516.60665577819
307.8418,20210.419362163826
310.0495,19904.855741341984
312.2568,19604.37008008825
314.4635,19307.91646612961
316.6696,19009.34879114941
318.8752,18706.620753751842
321.0802,18427.035862447614
323.2847,18137.147438681277
325.4887,17853.558619627038
327.692,17568.82236108766
329.8949,17288.541440330344
332.0972,17004.568458934074
334.2989,16728.855845592436
336.5001,16449.905858953338
338.7007,16179.670590376154
340.9008,15914.101966721195
343.1003,15640.601753052128
345.2992,15378.4215552916
347.4976,15113.71282295631
349.6955,14849.526851778748
351.8927,14592.2147863543
354.0895,14321.077622783108
356.2856,14084.416211243224
358.4812,13831.481258701926
360.6763,13584.223331282374
362.8707,13335.242856792938
365.0646,13085.890127199804
367.258,12848.665301116707
369.4508,12602.218406298547
371.643,12367.99934201358
373.8346,12132.207881507878
376.0257,11898.143674347564
378.2162,11669.056248776687
380.4062,11437.645014057867
382.5956,11215.809262763214
384.7844,10991.198173088407
386.9726,10767.460811071076
389.1603,10556.596132836909
391.3474,10303.502986836997
393.5339,10123.730115956554
395.7199,9920.57616004577
397.9052,9710.689657717565
400.09,9503.819048379068
402.2743,9303.912674330597
404.4579,9099.718782834272
406.641,8898.58552811313
408.8235,8699.410973393067
411.0054,8505.143092914172
413.1868,8311.329773922487
415.3675,8116.568818612635
417.5477,7934.007946065962
419.7273,7737.994794198188
421.9064,7552.576921584965
424.0848,7375.601809422049
426.2627,7193.3668633794005
428.4399,7017.319415370999
430.6166,6840.90672537715
432.7928,6666.925983204979
434.9683,6497.224310252597
437.1432,6331.54876124888
439.3176,6167.696325950499
441.4914,6006.663930798684
443.6645,5840.748440557742
445.8371,5678.996659925353
448.0091,5528.205335191764
450.1806,5371.671155857322
452.3514,5222.390756140361
454.5216,5072.360716542542
456.6913,4923.277565341625
458.8603,4777.387780091791
461.0288,4639.3877891144875
463.1967,4500.173972957258
465.3639,4362.042665773828
467.5306,4223.490156716187
469.6967,4092.612691315917
471.8622,3960.556472869728
474.0271,3828.317663748232
476.1914,3693.592386716482
478.3551,3571.426726256417
480.5182,3451.616729914087
482.6807,3333.5084095213024
484.8426,3224.347742393744
487.0039,3102.730672512036
489.1647,2982.7031116133585
491.3248,2871.410940407579
493.4843,2765.9500097775526
495.6432,2654.716141892095
497.8015,2544.5551312605676
499.9592,2442.2127458451796
502.1163,2339.984728162606
504.2728,2242.7667963074273
506.4287,2153.154644974369
508.5839,2056.643946430522
510.7386,1968.930351411429
512.8927,1861.759490086195
515.0461,1781.9769729346008
517.199,1698.9783918189714
519.3512,1612.2593207818572
521.5029,1526.165316876104
523.6539,1448.1419210320018
525.8043,1372.084658918182
527.9541,1295.8890417219009
530.1033,1221.7505669096354
532.2519,1151.5647189889642
534.3999,1076.77697025003
536.5472,1015.4327814673452
538.694,953.7276026476829
540.8401,887.1068736435409
542.9856,821.2660247701642
545.1305,760.6004774717803
547.2748,702.0556449799478
549.4185,646.7769329202347
551.5615,595.6097398976272
553.704,542.4994580494022
555.8458,499.83552937149216
557.987,458.05197629026225
560.1276,410.7278278750455
562.2675,368.1375372559269
564.4069,327.00145439197513
566.5456,289.98625154820184
568.6837,254.3553342450905
570.8212,223.21921104047215
572.958,190.13584948228527
575.0942,160.81098715855478
577.2299,131.94846220011823
579.3648,110.60050623603456
581.4992,89.41803273020923
583.6329,65.90085024748987
585.766,41.447874066536315
587.8985,17.75736111648439
590.0304,-17.17284573779034
592.1616,-36.345081027495326
594.2922,-53.061507727099524
596.4222,-71.37392572375393
598.5515,-87.83360482019634
600.6802,-103.6411017936407
602.8083,-107.84609596361406
604.9358,-123.44723127503676
607.0626,-138.89207429040835
609.1888,-147.22695833439502
611.3144,-155.29682919986953
613.4393,-162.59516188241105
615.5636,-171.4638799623208
617.6873,-175.19328269425023
619.8103,-184.17195640869613
621.9327,-183.48673725535627
624.0544,-184.57262150608585
626.1756,-187.76277240028867
628.2961,-198.83850929694017
630.4159,-201.12927580493124
632.5351,-198.61252913645149
634.6537,-201.41371722226904
636.7716,-205.20630385402183
638.8889,-202.41174070034322
641.0056,-201.89942941891786
643.1216,-206.48674957418552
645.237,-203.2390637553326
647.3518,-195.06967174891906
649.4659,-193.63984298326977
651.5793,-189.90889814071852
653.6922,-187.53422344160208
655.8043,-186.7713079163659
657.9159,-185.5237671286377
660.0268,-179.94335079667508
662.137,-175.32995525635488
664.2466,-177.43167920948326
666.3556,-166.94661960454687
668.4639,-160.22287161563872
670.5716,-153.20852874736738
672.6786,-149.2516829021115
674.785,-145.4004244500975
676.8907,-138.2528422690666
678.9958,-125.10702378270798
681.1002,-121.71105503218132
683.204,-118.46302080759779
685.3072,-108.71100468190707
687.4097,-94.25308904342819
689.5115,-90.98735519330512
691.6127,-75.81188349009608
693.7132,-63.2247533824484
695.8131,-74.72404356084007
697.9123,-50.55783208349021
700.0109,-39.724196261340694
702.1089,-25.171212899709644
704.2061,-10.246958406707563
706.3028,-1.7995089386531617
708.3987,13.623059450590517
710.4941,30.072670725210628
712.5887,44.70124871317239
714.6827,58.11071694175189
716.7761,78.35299849123112
718.8688,91.68001586083119
720.9608,101.64369076625735
723.0522,112.84594400643255
725.1429,137.038695363859
727.233,153.77386349257722
729.3224,174.60336567628838
731.4112,189.52911766096804
733.4993,207.35303344661952
735.5867,225.37702513795375
737.6735,247.25300276628695
739.7596,266.68287410913035
741.845,282.31854447150545
743.9298,303.96191649163666
746.014,329.11488998457935
748.0974,348.02936172578484
750.1802,371.60722519958654
752.2624,391.45037041003525
754.3439,413.91068364518287
756.4247,433.44004727858555
758.5048,466.24033954474726
760.5843,487.9134343437763
762.6631,513.7612009134391
764.7413,539.9355036123743
766.8188,564.288201661635
768.8956,593.1211488829358
770.9718,616.1861934551416
773.0473,648.9351776259646
775.1221,672.819937481283
777.1962,704.7923026176504
779.2697,728.0540959034479
781.3426,740.5071331591535
783.4147,792.3532229247576
785.4862,821.7441663351856
787.557,851.5317566018421
789.6271,879.2677787187276
791.6966,911.8040091644725
793.7654,945.5422156250934
795.8335,978.3841566685442
797.901,1015.6815814074289
799.9678,1044.3862291704863
802.0339,1079.299829129719
804.0993,1104.6741000133188
806.1641,1153.6107497564371
808.2282,1189.811475247574
810.2916,1223.3779618391345
812.3544,1262.0118829854619
814.4164,1301.0648999071273
816.4778,1336.688661204622
818.5385,1372.3848024677864
820.5986,1412.3549459196074
822.658,1451.5507000592115
824.7166,1494.8236592622416
826.7747,1538.975403388824
828.832,1572.6074973508657
830.8886,1612.0214906705587
832.9446,1658.6189171440492
834.9999,1702.6512944472925
837.0545,1741.1701236700756
839.1085,1788.926888875685
841.1618,1826.8730567157181
843.2143,1875.860075952507
845.2662,1924.2893770796654
847.3175,1968.0623718322386
849.368,2017.3804527024186
851.4179,2061.6949925017907
853.467,2113.107343868156
855.5155,2158.2188388224095
857.5633,2207.4807882544046
859.6105,2256.8444814718605
861.6569,2308.4111857076787
863.7027,2352.83214562638
865.7478,2406.6585828083553
867.7922,2461.5416953057284
869.8359,2511.2826571040423
871.8789,2563.332617573469
873.9212,2585.6427009713807
875.9629,2671.164005921848
878.0039,2726.547605192616
880.0441,2780.5445448398095
882.0837,2835.7558436540785
884.1226,2891.632492620716
886.1609,2948.9254543674324
888.1984,3007.6856626056397
890.2352,3066.5140215575375
892.2714,3115.4114053684825
894.3069,3177.9786575186954
896.3416,3239.766590334344
898.3757,3299.0759843618
900.4091,3358.8575877498224
902.4418,3416.3121156564157
904.4739,3481.2402496510404
906.5052,3544.6426371400885
908.5358,3606.0698907176265
910.5658,3667.2725875313336
912.595,3733.1012686682225
914.6236,3798.1064385426507
916.6515,3865.13856423799
918.6786,3926.298074856604
920.7051,3995.685360849515
922.7309,4064.6007734048035
924.756,4132.994623753686
926.7804,4198.167182481418
928.8041,4268.268678843364
930.8272,4337.349300113216
932.8495,4406.159190882063
934.8711,4475.14845236751
936.892,4551.617141725612
938.9123,4620.215271360932
940.9318,4692.842808161913
942.9506,4763.199672814859
944.9688,4834.835739077702
946.9862,4887.650833076412
949.003,4976.7947325886125
951.019,5009.667166515501
953.0344,5104.167813990272
955.0491,5172.146304049515
957.063,5269.452214688172
959.0763,5342.535072179773
961.0888,5377.544350103337
963.1007,5493.429468612536
965.1119,5576.739794085639
967.1223,5607.3746379666045
969.1321,5745.383255932065
971.1412,5742.964847584917
973.1495,5780.518555074239
975.1572,5865.393463119486
977.1641,5948.538598634899
979.1704,6040.202929880848
981.1759,6112.285365632284
983.1808,6141.084754262192
985.1849,6220.749883020726
987.1884,6368.229477747263
989.1911,6490.172202073729
991.1932,6399.276655949761
993.1945,6534.141374423307
995.1951,6669.51482854956
997.1951,6655.145424042312
999.1943,6734.631499920193
1001.1928,6791.721328650463
1003.1906,6896.863115354048
1005.1877,6758.804997234678
1007.1841,6789.395042527518
1009.1798,6883.881251879655
1011.1748,6954.861558044278
1013.1691,7007.233824935764
1015.1627,6041.495846919919
1017.1556,6755.395348290258
1019.1477,6913.929992925339
1021.1392,6563.397377149842
1023.1299,5941.245028149206
1025.12,6596.620407474955
1027.1093,6345.920917266165
1029.0979,6457.843893695761
1031.0859,6382.586609477476
1033.0731,5883.746272746583
1035.0596,6323.420027812543
1037.0454,6200.454960147341
1039.0304,5972.748091988775
1041.0148,5018.696383570139
1042.9985,5345.096735397245
1044.9814,6094.745997788967
1046.9636,5082.590967613229
1048.9452,5429.4283807905595
1050.926,5209.104922415558
1052.9061,5281.317223288614
1054.8855,5359.161862119079
1056.8642,5003.685364803154
1058.8421,4648.234203645508
1060.8194,4909.204800913918
1062.7959,4448.49353239387
1064.7717,5181.196724778805
1066.7469,4924.760660277287
1068.7213,4959.881569285921
1070.695,4532.755632953726
1072.6679,4072.0289828309105
1074.6402,4596.147705140131
1076.6117,4042.707845383782
1078.5826,4163.255403102798
1080.5527,4390.286337411097
1082.5221,4151.446565790044
1084.4908,4472.2319618181355
1086.4587,4518.038357559439
1088.426,4716.111540355727
1090.3925,4651.947252368438
1092.3584,4556.041188597919
1094.3235,3939.7889975250437
1096.2879,3880.2362820703274
1098.2515,4044.7286057563833
1100.2145,3833.961493303512
1102.1767,3809.2304289847307
1104.1382,4166.530858733458
1106.099,4103.658190390859
1108.0591,4186.8077901328215
1110.0185,3602.7249830986184
1111.9771,4402.205052559468
1113.9351,3865.293245759356
1115.8923,3388.684765920225
1117.8488,2884.4247776111006
1119.8045,2376.558411514161
1121.7596,2480.8307694673786
1123.7139,2258.4869295431636
1125.6675,2356.4719450056436
1127.6204,2352.5308465341514
1129.5726,2050.0086412433084
1131.524,2370.900312722435
1133.4748,2549.9008240607727
1135.4248,2311.505114638603
1137.3741,2424.4080983372114
1139.3226,2323.804665922871
1141.2705,2340.0896839178167
1143.2176,2155.5579956062575
1145.164,1970.4044208714768
1147.1097,2090.22375804124
1149.0546,2129.860785739249
1150.9989,2189.0602616870237
1152.9424,1843.7169223074816
1154.8852,1748.5754821329538
1156.8272,1593.8306372586303
1158.7686,1736.3270662940195
1160.7092,1321.6594319103096
1162.6491,1273.9223794154677
1164.5883,1489.9605409008873
1166.5267,1331.6185357187787
1168.4644,1639.2409683217775
1170.4014,1725.822429846332
1172.3377,2088.757495036494
1174.2732,2394.090721378132
1176.2081,2356.316645469531
1178.1421,2492.3297799680877
1180.0755,2829.774613968075
1182.0082,2621.8956116405025
1183.9401,2612.3372088586475
1185.8713,2253.8938152768824
1187.8017,2088.2098144262345
1189.7315,1911.1795672987937
1191.6605,1453.2474140045379
1193.5888,1191.6076755416943
1195.5163,1103.0546583760079
1197.4432,996.9326570571866
1199.3693,907.8859551044006
1201.2947,721.3088260674995
1203.2193,687.1955344175512
1205.1432,662.690337412525
1207.0664,777.587485438482
1208.9889,748.5312222545836
1210.9106,758.3157838441402
1212.8316,734.8353987051596
1214.7519,838.7842877524818
1216.6715,768.606664552608
1218.5903,744.6967342842254
1220.5084,685.2486944400225
1222.4257,717.4567350657089
1224.3424,513.2650393545409
1226.2583,592.1177833252514
1228.1735,688.4091378639059
1230.0879,686.3832679354673
1232.0016,823.9343316208033
1233.9146,802.7064801369997
1235.8269,682.1438564618293
1237.7384,633.5905955460112
1239.6492,377.3408255188406
1241.5592,320.78866817370726
1243.4686,141.42824153060792
1245.3772,121.30366040168883
1247.285,4.459038184817473
1249.1922,-53.41151293513394
1251.0986,-17.863880817843892
1253.0042,-145.55341974198382
1254.9092,4.964694473885174
1256.8134,45.136740089874365
1258.7169,285.4089953164439
1260.6196,410.7277379127263
1262.5216,650.6892427838247
1264.4229,758.3397807275687
1266.3234,937.1756160348887
1268.2232,947.493005413351
1270.1223,941.0381961987878
1272.0207,942.9574262521055
1273.9183,906.6469240238584
1275.8151,833.1029085350456
1277.7113,794.6715897402173
1279.6067,592.6991692629163
1281.5014,411.3318407800034
1283.3953,319.4657920413665
1285.2885,267.6472066835704
1287.181,222.72226514850627
1289.0727,379.98714520160866
1290.9637,264.93802238112403
1292.854,542.4710684254605
1294.7435,601.0324524236494
1296.6323,870.7683380400704
1298.5204,1144.174882928739
1300.4077,1461.8482360360504
1302.2943,1693.3345348666262
1304.1802,1879.4299023066778
1306.0653,1754.7304443090616
1307.9497,1717.1322480323652
1309.8333,1701.2313830879357
1311.7162,1718.2739019158325
1313.5984,1890.7558399438713
1315.4798,1937.4232154171186
1317.3605,2117.722027673124
1319.2405,2395.298256675189
1321.1197,2465.897861209458
1322.9982,2428.766776109136
1324.876,2537.30091154846
1326.753,2472.846153414037
1328.6293,2589.3983622195155
1330.5048,2742.103373750091
1332.3796,2624.3069978970016
1334.2537,2662.8050171304494
1336.127,2601.79318767762
1337.9996,2621.5172391376473
1339.8714,2599.6728750917537
1341.7426,2516.005772905999
1343.6129,2529.061583949726
1345.4826,2476.6859344322293
1347.3515,2547.074425272207
1349.2196,2547.0226326215197
1351.087,2563.026107161306
1352.9537,2661.3303741024865
1354.8197,2851.630933025779
1356.6849,3045.3732568986234
1358.5493,3161.0027901721623
1360.4131,3165.8149468437987
1362.276,3088.255109300975
1364.1383,2899.418628272979
1365.9998,2708.850823606568
1367.8606,2431.6969861543475
1369.7206,2219.9023796804177
1371.5799,2060.562243631888
1373.4384,1938.7217952568826
1375.2962,1907.1762311978891
1377.1533,1651.0207287102166
1379.0096,1284.1504459774515
1380.8652,1038.6105246729494
1382.7201,845.1960936286196
1384.5742,589.1022712902559
1386.4275,389.77416765173984
1388.2802,344.4068868159229
1390.132,240.09552898794936
1391.9832,229.58519092892675
1393.8336,87.92096699901595
1395.6832,46.047949262545444
1397.5322,24.561228904647578
1399.3803,23.505896650000068
1401.2278,-85.82295702231204
1403.0745,-78.88024186826806
1404.9204,-139.920010272519
1406.7656,-55.74552660611516
1408.6101,-76.25865743921531
1410.4538,-106.71071244418636
1412.2968,-47.60223946944825
1414.139,-102.2827203233901
1415.9805,52.548838731956494
1417.8213,74.24445323890177
1419.6613,248.25613821429215
1421.5006,518.5359079325281
1423.3391,726.7857741854823
1425.1769,1073.8577435796797
1427.0139,1613.4038154537957
1428.8502,2266.02597840795
1430.6858,2888.626204908247
1432.5206,3196.4064447605742
1434.3547,3557.4186188845597
1436.188,3658.2146162357967
1438.0206,3670.0962901957064
1439.8524,3460.9654575635795
1441.6835,3413.0238984377465
1443.5139,3368.5233583069057
1445.3435,3299.365548529513
1447.1724,3314.8521467788305
1449.0005,3230.6847977344623
1450.8279,3154.5151129275255
1452.6545,3174.09467158229
1454.4804,3309.075021377892
1456.3056,3288.507678252554
1458.13,3218.494125053774
1459.9536,3128.0858117439893
1461.7766,2802.534156100708
1463.5987,2359.5405446205914
1465.4202,1998.6563357749983
1467.2409,1642.8328644398716
1469.0608,1446.1214455046284
1470.88,1195.0233774303451
1472.6984,1018.7899442169037
1474.5161,813.4224179139783
1476.3331,651.872060383299
1478.1493,619.2901253524797
1479.9648,590.8778600303485
1481.7795,484.7365054328802
1483.5935,499.5672966672828
1485.4067,448.621463993426
1487.2192,517.9002326755071
1489.031,494.6048234915288
1490.842,465.13645204050044
1492.6522,478.54632897541524
1494.4618,477.73566029790163
1496.2705,515.3556472241362
1498.0785,520.7574861929606
1499.8858,523.442368489661
1501.6924,517.7614801919481
1503.4981,538.1160021431351
1505.3032,557.0571100089328
1507.1075,530.5859740739033
1508.911,520.2537590520478
1510.7138,537.5116243515149
1512.5159,476.6607241779566
1514.3172,484.95220736190095
1516.1178,432.0372179672995
1517.9176,451.36689520859363
1519.7166,432.44237397984034
1521.515,407.76478466145636
1523.3126,457.8852533094396
1525.1094,426.95490190215423
1526.9055,432.52484783915133
1528.7008,383.6462042504245
1530.4954,303.7700799407321
1532.2893,345.5475798783882
1534.0824,285.42980599399743
1535.8747,337.16785676270956
1537.6663,331.7628278053926
1539.4572,320.1158113712627
1541.2473,334.77789639192633
1543.0367,296.50016859783864
1544.8253,273.3837103716869
1546.6132,356.7796011311766
1548.4003,285.8889175601871
1550.1867,356.1627327748174
1551.9723,406.9021170322885
1553.7572,414.9581370282249
1555.5414,418.631855389227
1557.3247,472.17433059231917
1559.1074,530.2366169282177
1560.8893,552.9197639659105
1562.6705,609.7748159720504
1564.4509,704.9028116840855
1566.2305,763.0547837417434
1568.0094,929.231757735728
1569.7876,1084.9347516261914
1571.565,1151.514774080988
1573.3417,1209.0228229186068
1575.1176,1257.1098844424268
1576.8928,1232.9269328656083
1578.6672,1199.0249298302115
1580.4409,1029.2048246490376
1582.2138,929.5175546446553
1583.986,806.4640468476027
1585.7575,784.395218993257
1587.5282,689.8619807523573
1589.2981,693.6652339517168
1591.0673,533.0558735195555
1592.8358,605.3847874474523
1594.6035,613.7528583964377
1596.3704,560.8109629736864
1598.1366,581.5099716488548
1599.9021,677.7007492835037
1601.6668,624.5841549240868
1603.4308,664.8610408400964
1605.194,794.4322530551653
1606.9564,882.7986309443513
1608.7182,967.6110059383791
1610.4791,1126.4202006400046
1612.2394,1259.227027975874
1613.9988,1418.982289608437
1615.7576,1639.4367746078642
1617.5156,1919.8912578545169
1619.2728,2274.8464978344055
1621.0293,2447.2032338346326
1622.785,2509.0121823938716
1624.54,2417.974035578769
1626.2942,2351.8394603658635
1628.0477,2012.0590995519633
1629.8005,1806.8835724155178
1631.5525,1635.8634781143664
1633.3037,1388.749397737538
1635.0542,1303.8418960154231
1636.804,1145.891523790935
1638.553,1100.098818868577
1640.3013,994.1643075939392
1642.0488,959.7885053116515
1643.7955,960.1219174246908
1645.5416,998.9650397381556
1647.2868,1079.0183584559381
1649.0313,1151.9823497922844
1650.7751,1330.557479171286
1652.5181,1505.3442004972094
1654.2604,1698.392954368759
1656.0019,2052.8541663311953
1657.7427,2418.1782449458697
1659.4828,2826.6655782455855
1661.222,3071.716530081376
1662.9606,3146.431436037641
1664.6984,3008.3606009816176
1666.4354,2771.454298316232
1668.1717,2315.312771360812
1669.9072,1830.4362357201426
1671.642,1509.624883845896
1673.3761,1296.478889885384
1675.1094,1080.1484128896918
1676.8419,861.183598945121
1678.5737,750.1345833365049
1680.3048,673.9514927368546
1682.0351,559.4844463178451
1683.7646,461.48355651165184
1685.4934,420.5489301555972
1687.2215,387.9806694721956
1688.9488,343.2288724784812
1690.6754,300.5936333116915
1692.4012,311.8750426767656
1694.1263,311.8731882727152
1695.8506,268.28815467980894
1697.5742,251.02002335957513
1699.297,239.51887309067388
1701.0191,183.13478014159773
1702.7404,156.91781838562747
1704.461,52.41805986473264
1706.1808,74.88557505167773
1707.8999,92.32043389506362
1709.6182,126.22270559464232
1711.3358,96.29245842696764
1713.0527,92.02975940638134
1714.7688,83.08467458431915
1716.4841,57.05726909191799
1718.1987,96.24760722949941
1719.9126,59.855752726802166
1721.6257,35.08176835111226
1723.338,75.47571627115758
1725.0496,3.6376583048622706
1726.7605,32.36765551537974
1728.4706,22.31576892951489
1730.18,-38.767940749614354
1731.8886,-45.18341304201749
1733.5964,3.219799824000802
1735.3036,20.392597002413822
1737.0099,30.98587761500312
1738.7156,46.00054057964371
1740.4204,-14.512515495629486
1742.1246,33.39760753720475
1743.8279,19.181952806196932
1745.5306,43.691563105439855
1747.2325,42.577481037198595
1748.9336,17.740748766835168
1750.634,7.882408033943648
1752.3336,22.45350040071571
1754.0325,71.5550673505204
1755.7307,50.338150142215454
1757.4281,104.20378931908635
1759.1247,118.60302492106348
1760.8206,118.13689594604875
1762.5158,127.1064402059128
1764.2102,133.56269433115813
1765.9039,112.45669368124436
1767.5968,108.93947228000252
1769.289,84.91206302670253
1770.9804,109.525497731227
1772.6711,163.33080735432304
1774.361,167.12902176152056
1776.0502,193.97116918502616
1777.7386,154.80827618576586
1779.4263,178.74136738496782
1781.1132,202.47146585578594
1782.7994,174.64959288396676
1784.4849,204.2267677305499
1786.1696,217.45400791008797
1787.8535,168.98232889487372
1789.5367,183.96274398267087
1791.2192,238.09626478143036
1792.9009,185.68390105947037
1794.5818,269.12666020416145
1796.2621,244.2755477460396
1797.9415,246.93156652436846
1799.6202,220.49571693567123
1801.2982,248.16899690716127
1802.9755,255.70240216110506
1804.6519,310.8969259380883
1806.3277,253.05355892167245
1808.0027,267.4732886864731
1809.6769,295.0071002765453
1811.3504,280.0059760612312
1813.0231,274.4708954597718
1814.6951,314.50283509136534
1816.3664,323.4027688305159
1818.0369,351.9216674067029
1819.7067,307.3604983153873
1821.3757,317.4702255328266
1823.044,330.451809961678
1824.7115,343.05620932990496
1826.3783,329.43437806096154
1828.0443,328.6372671477402
1829.7096,361.36582428879956
1831.3741,384.9209938963395
1833.0379,397.10371676890827
1834.701,407.9149298558568
1836.3633,387.65556613549234
1838.0248,403.22655450698585
1839.6856,422.82881999295205
1841.3457,461.6132835837525
1843.005,457.28086204147803
1844.6636,457.0824675120839
1846.3214,425.0190075687369
1847.9785,485.34138521377645
1849.6349,484.75049919935554
1851.2904,490.8972434242296
1852.9453,476.53250693964765
1854.5994,501.0571738878989
1856.2528,528.3221236459467
1857.9054,545.9782305801982
1859.5572,539.1763637738532
1861.2083,569.2673868503371
1862.8587,607.0021580413122
1864.5084,596.9315298857782
1866.1572,605.0063488527267
1867.8054,567.027455441832
1869.4528,572.2956841027135
1871.0994,595.311863614721
1872.7453,608.9768170342522
1874.3905,558.3913614645899
1876.0349,574.9063079192547
1877.6786,612.6724618278731
1879.3215,660.7906228710017
1880.9637,679.1615846024906
1882.6051,665.5361339682713
1884.2458,685.065051122685
1885.8858,643.0491095646958
1887.525,642.5390759426318
1889.1634,647.9857104743351
1890.8011,625.0897669522619
1892.4381,637.50199268902
1894.0743,663.7231287463255
1895.7098,635.7039098108853
1897.3446,663.7450639321887
1898.9786,679.3973128026864
1900.6118,666.9113714773903
1902.2443,637.837948217335
1903.8761,657.6777446144442
1905.5071,604.2814558822847
1907.1374,594.0997706576418
1908.7669,620.0333715345096
1910.3957,648.3329351658813
1912.0237,584.0491320044312
1913.651,626.232626019515
1915.2776,617.7840753399996
1916.9034,573.9041318324271
1918.5285,561.2934411854985
1920.1528,550.4526433488809
1921.7764,558.8823726593182
1923.3992,571.0332579490387
1925.0213,504.85592246144006
1926.6427,491.60098372959146
1928.2633,499.0690542380016
1929.8832,530.5107415551811
1931.5023,510.0766482589497
1933.1207,518.8173716220354
1934.7383,522.7835038163921
1936.3552,489.7756318258125
1937.9714,505.5943374062517
1939.5868,469.59019741591146
1941.2015,456.61378365706696
1942.8154,450.26566323609586
1944.4286,411.74639869324346
1946.041,403.95654806610764
1947.6528,383.39666527483496
1949.2637,386.41730020001523
1950.8739,419.8189988882732
1952.4834,385.8023035220722
1954.0921,399.51775208568324
1955.7001,393.4158787053566
1957.3074,397.8972135121712
1958.9139,364.76228270305364
1960.5197,363.8616084959649
1962.1247,341.0957094612495
1963.729,316.61510053063466
1965.3325,323.1702932249045
1966.9353,323.9117958986917
1968.5374,316.74011367493404
1970.1387,307.50574843745744
1971.7393,281.40919890269834
1973.3392,296.0009607120337
1974.9383,254.93152669275878
1976.5366,240.55138671216446
1978.1342,264.66102808823416
1979.7311,274.0609357334488
1981.3273,274.4015919136782
1982.9227,279.28347615419443
1984.5173,260.2570652362556
1986.1112,245.42283314828273
1987.7044,238.88125127614512
1989.2968,227.9827885514842
1990.8885,252.827911517139
1992.4795,260.61708443612406
1994.0697,261.50076904317757
1995.6592,247.17942446687266
1997.2479,243.0535072207731
1998.8359,223.6234713466456
2000.4232,222.08976845573306
2002.0097,218.15284792303646
2003.5955,195.41315690267038
2005.1805,210.62114036722596
2006.7648,221.6772413351755
2008.3484,208.58190071877652
2009.9312,290.13555721351804
2011.5133,261.1886474290768
2013.0946,258.4416050737764
2014.6752,247.59486124406976
2016.2551,254.94884445199023
2017.8342,257.5039807336325
2019.4126,235.86069357560154
2020.9902,218.9694038894795
2022.5672,223.1305302282417
2024.1433,222.79448895517453
2025.7188,207.21169420227488
2027.2935,207.63255787358685
2028.8674,187.10748980104836
2030.4406,216.08689774027152
2032.0131,164.92118757579556
2033.5849,165.61076303129994
2035.1559,202.35602618125267
2036.7261,218.00737744401522
2038.2957,214.56521521439208
2039.8645,207.62993570712752
2041.4325,248.85193299131242
2042.9998,208.38159905974135
2044.5664,219.76932341670545
2046.1323,218.21549348267035
2047.6974,201.92049448042417
2049.2617,209.03470945059598
2050.8254,225.9085194146137
2052.3883,247.3423033035633
2053.9504,245.08643778943951
2055.5118,238.44129707083084
2057.0725,199.90725289545662
2058.6325,213.48467462663575
2060.1917,188.57392962861195
2061.7502,209.77538313078549
2063.3079,193.73939847682414
2064.8649,202.8163369126487
2066.4212,232.75655774677944
2067.9767,201.31041825959073
2069.5315,210.62827340388503
2071.0856,184.46047611936774
2072.6389,163.9573772394615
2074.1915,167.5693257529947
2075.7433,123.74666900921511
2077.2945,146.93975268169197
2078.8448,133.74892120651748
2080.3945,147.22451755039765
2081.9434,131.76688334254868
2083.4916,132.42635873995278
2085.039,130.85328258192567
2086.5857,150.99799238351807
2088.1317,150.46082435124845
2089.677,173.49211318166635
2091.2215,146.4421920667046
2092.7652,158.61139246339008
2094.3083,165.35004436432973
2095.8506,172.10847617601758
2097.3921,199.13701465145095
2098.933,175.78598482254893
2100.4731,171.25570972985952
2102.0124,171.4965106560885
2103.5511,196.8587071713755
2105.089,191.94261713090782
2106.6261,175.29855642129223
2108.1626,194.92683900971133
2109.6983,179.32777711036942
2111.2332,197.7516809882036
2112.7675,185.09885911487436
2114.301,194.71961798453412
2115.8337,203.91426224033967
2117.3657,191.933094578264
2118.897,203.5764156551395
2120.4276,223.7445242084632
2121.9575,206.13771693997478
2123.4866,218.45628831397153
2125.0149,233.45053073337294
2126.5426,195.02073441654102
2128.0695,215.2171872473391
2129.5956,207.8401751594156
2131.1211,201.63998193426505
2132.6458,218.9168892749758
2134.1698,230.87117686824058
2135.693,201.45312221158565
2137.2155,213.86300049382317
2138.7373,240.20108488924234
2140.2584,243.86764643350216
2141.7787,204.21295376025864
2143.2983,211.087273064486
2144.8171,200.24086849903506
2146.3353,194.87400210588476
2147.8527,202.58693392460737
2149.3693,198.0799220460376
2150.8853,194.3032225351435
2152.4005,196.85708947610055
2153.9149,201.4917750100567
2155.4287,192.90752930959297
2156.9417,223.0546005323722
2158.454,223.03323490698858
2159.9655,216.59367643149835
2161.4764,216.93616687362737
2162.9865,203.86094583516933
2164.4958,194.76825074855424
2166.0045,194.35831700761082
2167.5124,210.93137805848164
2169.0195,204.43766540372962
2170.526,227.02740843660376
2172.0317,206.05083450598522
2173.5367,217.05816869047794
2175.0409,202.49963400818706
2176.5445,225.57545130663584
2178.0473,209.5358394083496
2179.5494,195.4310148801087
2181.0507,208.8111921933305
2182.5513,206.02658386513212
2184.0512,225.52740032452493
2185.5504,194.4138499402561
2187.0488,164.68613882580394
2188.5465,177.89447115050916
2190.0435,198.88904943685702
2191.5397,188.87007442838785
2193.0353,191.48774487975606
2194.5301,166.3422576569219
2196.0241,184.33380771097745
2197.5175,179.61258832959265
2199.0101,172.72879095710687
2200.502,139.3826052417362
2201.9931,119.77421910441535
2203.4835,137.60381907225928
2204.9733,156.02159047464284
2206.4622,153.87771726490791
2207.9505,148.97238183618174
2209.438,124.55576504281998
2210.9248,133.92804624945984
2212.4109,136.08940357517713
2213.8962,131.2400137997738
2215.3809,133.68005234216434
2216.8648,142.60969330886837
2218.3479,145.7791094696122
2219.8304,142.88847216802424
2221.3121,124.73795128994607
2222.7931,107.67771529233505
2224.2733,118.90793138477056
2225.7529,118.77876570006083
2227.2317,111.84038318193234
2228.7098,119.4429475863326
2230.1872,92.28662155080929
2231.6638,115.87156651849091
2233.1397,115.39794300963877
2234.6149,115.06591038580336
2236.0894,107.72562685456069
2237.5632,137.4772494728295
2239.0362,120.9709342202732
2240.5085,123.6068357017848
2241.9801,109.0351073125521
2243.4509,119.95590121169698
2244.921,90.81936846799726
2246.3904,79.8756589506711
2247.8591,81.67492162074359
2249.3271,92.51730464048705
2250.7943,75.20295535542846
2252.2608,74.88202018592165
2253.7266,113.6546448002955
2255.1917,103.47097411805316
2256.656,85.53115192215591
2258.1197,79.58532096086128
2259.5826,79.08362312711779
2261.0447,91.97619951802608
2262.5062,82.61319043985532
2263.9669,91.74473527911141
2265.4269,101.82097259616967
2266.8862,85.44204003396135
2268.3448,93.90807421721092
2269.8026,92.31921091622644
2271.2598,88.72558496224156
2272.7162,102.17733026329734
2274.1719,95.22457984018183
2275.6268,95.36746569191018
2277.0811,105.60611886525749
2278.5346,108.29066945332306
2279.9874,108.67124649315156
2281.4395,115.04797793888065
2282.8908,97.82099065794318
2284.3414,118.29041036729359
2285.7914,107.00636180567744
2287.2406,106.21896852894133
2288.689,122.92835302286858
2290.1368,130.63463671105274
2291.5838,95.88793978780632
2293.0302,123.38838114109603
2294.4758,90.38607870000942
2295.9206,96.53114915974948
2297.3648,111.92370831166681
2298.8082,111.46387098180094
2300.251,112.75175087695607
2301.693,84.68746058929992
2303.1343,124.07111158348744
2304.5748,149.80281447730613
2306.0147,127.23267864782883
2307.4538,118.81081197410367
2308.8922,106.48732106285934
2310.3299,117.51231133271176
2311.7669,105.0858871374121
2313.2031,114.05815165559034
2314.6387,104.02920701501716
2316.0735,100.34915420288598
2317.5076,113.3180931661027
2318.941,100.38612284808369
2320.3737,103.00334105906222
2321.8056,104.91984460542335
2323.2369,118.03572926351535
2324.6674,111.80108976049542
2326.0972,101.16601964316123
2327.5263,101.9306113403045
2328.9547,110.29495626905918
2330.3823,115.80914482725166
2331.8092,108.4232663097664
2333.2355,108.18740885339321
2334.661,143.95165951069703
2336.0858,125.61610425237541
2337.5098,125.08082760960679
2338.9332,130.7959128574148
2340.3558,118.96144202001688
2341.7778,127.82749581366988
2343.199,121.2441537650202
2344.6195,121.61149412244322
2346.0393,120.72959392187022
2347.4583,134.2485289831202
2348.8767,115.91837391872104
2350.2943,109.43920199871536
2351.7113,159.2610853339629
2353.1275,143.28409494093194
2354.543,141.80830024348688
2355.9578,116.78376923264932
2357.3718,118.56056848136177
2358.7852,104.53876339472845
2360.1978,116.51841819225228
2361.6098,126.04959604804935
2363.021,131.48235897105496
2364.4315,125.0167677097088
2365.8413,110.95288169762625
2367.2504,118.09075911825857
2368.6587,97.73045704553078
2370.0664,84.77203137246215
2371.4733,103.71553701477114
2372.8795,102.11102804045095
2374.285,93.70855748034955
2375.6899,91.3081773442027
2377.0939,90.15993870466627
2378.4973,96.3138917213164
2379.9,84.2200856521331
2381.3019,68.07856879195515
2382.7032,89.6393885934267
2384.1037,83.25259182840091
2385.5035,67.21822437233914
2386.9027,65.13633126817876
2388.3011,64.70695688667729
2389.6987,79.13014494722665
2391.0957,79.80593852215316
2392.492,81.38437989248723
2393.8876,61.71551054120118
2395.2824,46.649371137427806
2396.6765,58.13600173314353
2398.07,41.6754419138324
2399.4627,67.31773068361781
2400.8547,45.71290662986485
2402.246,52.361007666763726
2403.6366,42.31207125137189
2405.0265,19.316134317140495
2406.4156,47.373233374401934
2407.8041,44.733404740330116
2409.1918,46.24668425836535
2410.5789,40.013107324612974
2411.9652,19.582708872714647
2413.3508,44.15552343618174
2414.7358,39.88158535269895
2416.12,40.66092851839903
2417.5035,23.89358643059859
2418.8863,29.029592180007057
2420.2684,41.71897861839852
2421.6497,20.111778307253644
2423.0304,9.358023390863309
2424.4104,-5.692254187598792
2425.7896,18.910977421459847
2427.1682,25.26780693325327
2428.546,26.07832287388692
2429.9232,29.842613516790152
2431.2996,51.36076687461082
2432.6753,42.93287066157518
2434.0503,29.409012078302112
2435.4246,13.139277896083058
2436.7982,36.82375459212244
2438.1711,41.16252851223226
2439.5433,23.05568563399038
2440.9148,39.70331152335211
2442.2856,16.505491515715676
2443.6557,20.46231054944792
2445.025,34.62385339786579
2446.3937,23.59020462966373
2447.7617,19.711448467300215
2449.1289,52.53766889733333
2450.4955,19.468949709207664
2451.8613,45.305374166994625
2453.2265,41.697025340075925
2454.5909,45.34398584478049
2455.9546,54.39633788046922
2457.3177,46.80416319306414
2458.68,50.167542984525426
2460.0416,53.436557988773075
2461.4025,55.161288438053816
2462.7627,52.991814030249316
2464.1222,67.87821391163334
2465.4811,41.62056669856247
2466.8392,51.21895032861494
2468.1966,53.723442323161635
2469.5533,59.73411969138442
2470.9093,77.95105890523155
2472.2645,75.57433583931243
2473.6191,73.35402558872829
2474.973,85.64020249283658
2476.3262,82.3829401574576
2477.6787,69.63231133201225
2479.0305,55.088387942092595
2480.3816,49.15124121697136
2481.7319,56.92094183504014
2483.0816,58.04755998318069
2484.4306,50.98116527906586
2485.7789,59.9718267598937
2487.1264,54.469612953054366
2488.4733,65.02459178622166
2489.8195,56.48683064237139
2491.165,46.556396254237825
2492.5097,66.18335478968766
2493.8538,36.31777195102313
2495.1972,37.80971277871731
2496.5398,31.859241950066007
2497.8818,38.966423764270075
2499.2231,41.48132220193929
2500.5637,44.60400085402125
2501.9035,40.484522896650105
2503.2427,47.57295105992489
2504.5812,51.119347669099625
2505.919,53.27377457369994
2507.256,62.23629311206014
2508.5924,48.506964089774556
2509.9281,47.885847690075025
2511.2631,55.67300361112666
2512.5974,50.86849107223634
2513.9309,55.872368735982036
2515.2638,25.934694756258068
2516.596,58.405526728237874
2517.9275,43.58492198775002
2519.2583,47.52293728656832
2520.5884,25.069628940619168
2521.9178,40.22505279060306
2523.2465,31.539264426521186
2524.5745,24.412319036126974
2525.9018,38.24427149178155
2527.2284,35.585176421722736
2528.5543,43.78508807174603
2529.8796,37.54406033179839
2531.2041,33.41214665397729
2532.5279,59.18940011493896
2533.851,52.12587345721886
2535.1735,64.37161883146109
2536.4952,42.92668786705099
2537.8163,60.34113154965917
2539.1366,52.56500043568985
2540.4562,72.39834447813655
2541.7752,64.24121310434248
2543.0935,63.14365501767179
2544.411,67.65571827907661
2545.7279,77.67745031807499
2547.0441,89.00889788763152
2548.3596,77.6001069639342
2549.6744,87.65112263308583
2550.9885,93.91198920518855
2552.3019,85.53275011383539
2553.6146,87.06344785349756
2554.9266,86.65412406332325
2556.2379,78.70481951182455
2557.5485,82.36557410097475
2558.8585,80.98642694570071
2560.1677,88.76741633727352
2561.4762,89.55857975710296
2562.7841,91.1599537989232
2564.0913,110.92157416088594
2565.3977,102.79347562954445
2566.7035,94.37569188223597
2568.0086,108.66825556836602
2569.313,125.67119839358338
2570.6167,113.53455097685583
2571.9197,123.80834268044055
2573.222,130.54260173124794
2574.5236,128.48735511810764
2575.8246,123.29262852442389
2577.1248,120.25844634872828
2578.4244,125.93483175662914
2579.7232,136.27180671115048
2581.0214,143.86939191596912
2582.3189,159.97760671204514
2583.6157,155.44646900164435
2584.9118,158.02599508725916
2586.2072,154.41619971691944
2587.5019,160.01709605839642
2588.7959,165.9786957353026
2590.0893,150.9010087710799
2591.3819,170.88404352938505
2592.6739,166.67780686486503
2593.9652,169.18230392332907
2595.2557,176.74753818380714
2596.5456,167.12351143350816
2597.8348,170.2102236921678
2599.1234,165.15767330828567
2600.4112,185.11585692826065
2601.6983,165.23476954691478
2602.9848,179.11440430791254
2604.2705,167.4047527025732
2605.5556,177.4058044310732
2606.84,166.7175475195413
2608.1237,170.88996822005038
2609.4067,157.52305111749638
2610.689,164.81677908787924
2611.9707,161.5711334319676
2613.2516,161.13609380236267
2614.5319,158.0616382359558
2615.8115,164.5977431582769
2617.0903,149.19438341423893
2618.3685,166.40153220278034
2619.6461,160.16916123089732
2620.9229,169.4972405415715
2622.199,159.535738576094
2623.4745,161.28462208078645
2624.7493,144.5438562066115
2626.0234,149.4634044916861
2627.2968,149.99322902869062
2628.5695,152.83329041567004
2629.8415,151.8335477507385
2631.1128,157.54395860368004
2632.3835,171.464479025944
2633.6535,151.09506349354024
2634.9228,148.38566476783808
2636.1914,158.18623409925476
2637.4593,162.54672125435445
2638.7265,156.41707441783865
2639.9931,162.59724014894346
2641.259,156.13716344273416
2642.5242,154.1367876683048
2643.7887,155.7960546333784
2645.0525,144.66490460430987
2646.3156,128.5932762894954
2647.5781,156.08110695068308
2648.8398,143.8283325636894
2650.1009,126.33488754352038
2651.3613,149.60070486690074
2652.6211,145.12571624720476
2653.8801,138.85985190180236
2655.1385,156.0030405968082
2656.3961,157.2552097097382
2657.6531,156.01628505808094
2658.9094,145.13619088677206
2660.1651,145.56484988058446
2661.42,152.25218327293305
2662.6743,163.34811084158446
2663.9279,175.05255084178475
2665.1808,159.91541989530015
2666.433,168.38663287337022
2667.6846,168.2161030480829
2668.9354,163.70374200766082
2670.1856,174.39945965816605
2671.4351,173.4031642686209
2672.6839,169.71476236405692
2673.9321,185.43415873547337
2675.1795,172.1112564767227
2676.4263,185.8959568273176
2677.6724,184.63815930565943
2678.9179,183.18776157118987
2680.1626,191.1946594369706
2681.4067,181.65874688418808
2682.6501,181.57991598208264
2683.8928,190.50805698330873
2685.1348,185.0430583247212
2686.3761,166.0848065380951
2687.6168,183.73318630477797
2688.8568,168.1380806452678
2690.0961,170.59937074273466
2691.3348,159.01693609896643
2692.5727,157.74065450975922
2693.81,168.4204021807418
2695.0466,166.10605374013699
2696.2826,162.29748213196444
2697.5178,152.54455863918338
2698.7524,169.64715292177948
2699.9863,162.15513311429368
2701.2195,158.6183656547962
2702.452,166.53671535980698
2703.6839,181.56004545966312
2704.9151,171.33821751933579
2706.1456,171.62109128819748
2707.3755,179.50852480223898
2708.6046,190.05037438123986
2709.8331,191.24649454989708
2711.0609,195.49673793240459
2712.2881,200.55095524049239
2713.5145,216.05899523092512
2714.7403,227.12070465495913
2715.9654,238.08592810326172
2717.1899,239.10450789529386
2718.4136,254.42628396965688
2719.6367,259.9010938739091
2720.8591,264.4287726113473
2722.0809,276.6091525862564
2723.3019,282.2920635586345
2724.5223,305.17733252238895
2725.7421,297.6147836485079
2726.9611,302.85423805620576
2728.1795,298.7955138885502
2729.3972,285.5884262600682
2730.6142,274.382787297332
2731.8306,255.6784062710301
2733.0462,246.225089708023
2734.2612,220.82264157838813
2735.4756,201.22086338995177
2736.6892,197.36955444231512
2737.9022,174.86851202287085
2739.1145,159.567531445319
2740.3262,151.0664062746746
2741.5372,132.41492848027838
2742.7475,120.6128885208077
2743.9571,112.06007553079235
2745.1661,98.85627743863233
2746.3744,99.00128105212934
2747.582,78.94487219052235
2748.7889,67.586835683039
2749.9952,61.32695556945896
2751.2008,54.715015213694414
2752.4057,61.750797366388724
2753.61,52.28408423103701
2754.8136,43.11465739362643
2756.0165,51.992297917304995
2757.2188,43.91678643407408
2758.4204,41.78790305601274
2759.6213,37.755427456032976
2760.8215,39.76913888916852
2762.0211,25.378816232899453
2763.22,19.784237967015315
2764.4182,26.235182317518138
2765.6158,20.381427312568576
2766.8127,10.572750717975396
2768.009,8.708930095734104
2769.2045,0.48974290211231164
2770.3994,-0.18503349371121658
2771.5936,-0.16562172745443604
2772.7872,-4.752242586350576
2773.9801,-8.79511520307392
2775.1723,-8.244411235394864
2776.3639,-19.15021447788581
2777.5548,-13.412526363450525
2778.745,-22.681157014351356
2779.9346,-9.505782561713659
2781.1235,-28.685852551904418
2782.3117,-1.2707215685236406
2783.4992,-9.159457623507024
2784.6861,-13.851116034281858
2785.8723,-4.544660615294333
2787.0579,-13.038916808342265
2788.2428,-5.082664654064729
2789.427,7.725446065677488
2790.6106,23.23681634484251
2791.7935,17.25284710013534
2792.9757,30.67493901589296
2794.1573,33.95449260392547
2795.3382,47.84290806929539
2796.5184,56.74158527752002
2797.698,65.2019236156882
2798.8769,91.52532190347324
2800.0551,92.56317830852981
2801.2327,106.31689008326134
2802.4096,144.53785355444097
2803.5859,150.87746398567288
2804.7615,176.58711519518442
2805.9364,181.46819949242922
2807.1106,231.12210742099091
2808.2842,257.95022770977175
2809.4572,279.40394677645463
2810.6294,312.68464845921994
2811.801,361.19371380220923
2812.972,394.6325207227187
2814.1423,438.6524435261083
2815.3119,474.3048525714105
2816.4808,513.4411138311361
2817.6491,563.5625885347447
2818.8167,615.0706327772868
2819.9837,648.2165970181882
2821.15,710.801825566167
2822.3157,741.3276562477784
2823.4807,793.1954197815596
2824.645,828.2064394727736
2825.8086,860.4120306947275
2826.9716,893.3635005386657
2828.134,945.562147491712
2829.2957,971.8592611073586
2830.4567,1003.9561214834753
2831.617,1030.003998999341
2832.7767,1038.354153994674
2833.9358,1025.957836509152
2835.0941,1027.6662861989132
2836.2519,1013.0807324605171
2837.4089,996.2523944138627
2838.5653,980.4324810480423
2839.7211,986.1721913896235
2840.8761,987.0727146608526
2842.0306,1015.9852302222516
2843.1843,1063.5609075636178
2844.3374,1099.400906014896
2845.4899,1164.2563742704235
2846.6417,1242.3284500305285
2847.7928,1306.4182593529795
2848.9433,1388.1769158722582
2850.0931,1476.3555201586669
2851.2422,1550.3051589007393
2852.3907,1618.1769040234544
2853.5385,1677.6718119487418
2854.6857,1724.8909229167625
2855.8323,1788.0352603909612
2856.9781,1825.9058305858725
2858.1233,1876.3036218356797
2859.2679,1913.7796042155092
2860.4118,1976.8347290374502
2861.555,2010.6699284757976
2862.6976,2036.1361149364996
2863.8395,2054.8341807188062
2864.9808,2079.1649977606057
2866.1214,2107.8294174514485
2867.2614,2111.878270389234
2868.4007,2122.6623660935675
2869.5393,2121.882492965274
2870.6773,2148.7394181785553
2871.8146,2157.2838876887895
2872.9513,2140.21662596396
2874.0874,2145.888335899214
2875.2227,2138.1496989875322
2876.3574,2122.1013752630142
2877.4915,2086.2440033782614
2878.6249,2072.1282007648624
2879.7577,2037.3545639919673
2880.8898,2027.7736689074443
2882.0212,2006.2860709856154
2883.152,1990.0423054230669
2884.2821,1964.5428873535257
2885.4116,1970.6883120102948
2886.5405,1969.92905498125
2887.6686,1968.5655721473836
2888.7962,1972.598299690399
2889.923,1986.3776541063432
2891.0493,1994.5540321652793
2892.1748,2004.4778107734967
2893.2997,2005.799346891743
2894.424,2016.4189774359884
2895.5476,2063.437019264211
2896.6706,2076.0537690702
2897.7929,2094.869502913374
2898.9145,2131.434476092615
2900.0355,2150.648922958111
2901.1559,2183.513056545704
2902.2756,2222.3270683847504
2903.3946,2246.191128169474
2904.513,2268.65538337083
2905.6308,2318.0199589978615
2906.7479,2334.3849573730604
2907.8643,2360.8504576387168
2908.9801,2363.8665155932745
2910.0953,2387.283163426673
2911.2098,2378.450409690186
2912.3236,2373.418239062258
2913.4368,2364.0866124368295
2914.5494,2335.255466973659
2915.6613,2322.7247161916425
2916.7725,2293.044250257118
2917.8831,2270.31393610918
2918.9931,2237.4836177564785
2920.1024,2220.853116504528
2921.211,2199.8722312840036
2922.319,2180.990738817055
2923.4264,2146.408393827107
2924.5331,2133.024929227678
2925.6391,2130.6400564682044
2926.7445,2130.3534656678744
2927.8493,2117.814825639476
2928.9534,2109.823783892263
2930.0569,2111.279966757341
2931.1597,2111.982979467579
2932.2619,2096.3324061430476
2933.3634,2090.827809783988
2934.4643,2081.918732427316
2935.5645,2061.8546952016727
2936.6641,2030.8851984165087
2937.763,1975.7097217627297
2938.8613,1935.5277246223895
2939.959,1885.6886466204455
2941.056,1818.3419080265778
2942.1523,1746.2869102535803
2943.248,1639.2730365308287
2944.3431,1558.2496526248285
2945.4375,1464.466107909359
2946.5313,1352.0717361757022
2947.6244,1255.8158565704814
2948.7169,1151.2977747196023
2949.8087,1065.3667836908128
2950.8999,962.9221650388852
2951.9904,884.6131896649226
2953.0803,831.4891188408067
2954.1696,765.9492049922883
2955.2582,720.4926922302272
2956.3462,674.2688170059919
2957.4335,634.8268085660245
2958.5202,592.6158894140801
2959.6062,575.2852757056464
2960.6916,554.7341776700516
2961.7764,551.1117997837721
2962.8605,528.2673409759434
2963.9439,523.5499946645839
2965.0267,510.95894898503934
2966.1089,506.9433868371557
2967.1905,513.3524860111911
2968.2714,499.63541922796867
2969.3516,505.1413540747885
2970.4312,517.2694531425955
2971.5102,506.11887397092187
2972.5885,516.1387689266053
2973.6662,517.6782853152949
2974.7432,531.5365652812538
2975.8196,522.3127457919627
2976.8954,518.0559584995376
2977.9705,510.4653298329672
2979.045,495.03998104068114
2980.1188,482.82902826645704
2981.192,464.731582703673
2982.2645,448.34675071741754
2983.3364,422.07363402546343
2984.4077,405.2113298621175
2985.4783,369.10893124095014
2986.5483,354.31552712341886
2987.6177,306.8302027798911
2988.6864,282.8520399375807
2989.7545,254.73011725539914
2990.8219,221.66351056373742
2991.8887,197.00129314568676
2992.9548,171.1925360677035
2994.0204,145.98630842623152
2995.0852,122.6316776057904
2996.1495,109.57770953103659
2997.2131,91.97346890031088
2998.276,66.91801931617829
2999.3383,56.46042346146908
3000.4,42.49974334983392
3001.4611,23.385040430318895
3002.5215,25.315375726973002
3003.5812,7.189810029994646
3004.6404,3.257403876428725
3005.6989,-1.1827822685776255
3006.7567,-5.381687972450436
3007.8139,-9.04024098662103
3008.8705,-9.359315299458672
3009.9264,-7.739694587324948
3010.9818,-5.432069027022408
3012.0364,-8.387051475805947
3013.0905,-7.455200524560496
3014.1439,-12.38699097752749
3015.1966,-5.232823161495503
3016.2487,-7.242973657212929
3017.3002,-4.367666769525044
3018.3511,2.4429455540291656
3019.4013,1.8887549989015042
3020.4509,10.669653226115315
3021.4998,18.48553187780624
3022.5481,20.93628248941434
3023.5958,33.721796411524906
3024.6428,35.79196478536119
3025.6892,35.54667841492915
3026.735,38.335827746316
3027.7802,53.40930287014271
3028.8247,58.616993493671316
3029.8685,61.95878879007205
3030.9118,70.63457734634551
3031.9544,81.79424712990567
3032.9963,82.33768540182155
3034.0376,94.21477860521975
3035.0783,104.52541235985086
3036.1184,107.26947134331738
3037.1578,123.09683918796804
3038.1966,133.10739845345756
3039.2348,127.05103046847216
3040.2723,130.27761523062395
3041.3092,129.93703146701603
3042.3455,145.92915660197536
3043.3811,136.35386676045937
3044.4161,138.71103660813412
3045.4505,126.70053944712765
3046.4842,132.02224719245783
3047.5173,138.37603049213737
3048.5498,128.86175867395696
3049.5816,134.92929968194676
3050.6128,126.12852017152034
3051.6434,120.40928544879785
3052.6734,124.42145955861497
3053.7027,115.66490534171442
3054.7314,111.33948439462438
3055.7594,111.64505715722407
3056.7868,113.48148295599844
3057.8136,100.34862000098167
3058.8398,103.44632536739323
3059.8653,109.27445512696647
3060.8902,107.7328643169725
3061.9145,96.87140688193767
3062.9381,90.53993568906037
3063.9612,86.93830263682503
3064.9835,85.86635871831731
3066.0053,90.72395405723967
3067.0264,85.81093791863191
3068.0469,83.17715866029448
3069.0668,82.97246378191835
3070.086,79.3466999514236
3071.1046,72.54971300700572
3072.1226,70.23134799339323
3073.1399,63.291449229818
3074.1567,58.62986033319817
3075.1727,53.94642428753775
3076.1882,49.040983490542544
3077.203,39.46337980045382
3078.2173,37.363454585103455
3079.2308,27.84104881769008
3080.2438,21.49600309777759
3081.2561,19.7281577465194
3082.2678,17.8373528701095
3083.2789,13.273428377459936
3084.2893,9.386223999109916
3085.2991,13.62557933286405
3086.3083,10.441333882665731
3087.3169,3.6833270162024405
3088.3248,-5.598602003251358
3089.3321,0.8953860507455715
3090.3388,-2.1348136653316487
3091.3449,0.810685060085234
3092.3503,-0.6682102346472334
3093.3551,-5.371600109916642
3094.3593,5.050421549309306
3095.3629,0.2978145203476288
3096.3658,-0.1294614699883141
3097.3681,-7.5314496700524955
3098.3698,-1.1081920348788685
3099.3708,-11.709655280319453
3100.3713,3.114204948612098
3101.3711,1.763549986357873
3102.3702,-3.9114588637821726
3103.3688,8.839339683857077
3104.3667,3.9661459904142475
3105.364,4.069160328635121
3106.3607,3.9985829316040054
3107.3568,3.7546139917136543
3108.3522,3.6874536613712507
3109.347,7.847302055438149
3110.3412,5.584359251901276
3111.3348,8.398825250274626
3112.3277,4.090899994229176
3113.32,11.060783343447895
3114.3117,13.908675116705183
3115.3028,14.484775022168037
3116.2932,12.239282628916726
3117.2831,14.17239736118404
3118.2723,16.03431852081019
3119.2608,19.775245267911544
3120.2488,14.945376602261433
3121.2361,20.844911325881128
3122.2229,22.724048091338318
3123.209,21.182985342751465
3124.1944,27.72192129699897
3125.1793,26.391053959129124
3126.1635,31.440581056971382
3127.1471,27.17070005444475
3128.1301,27.481608101063102
3129.1125,25.573502074632813
3130.0942,37.246578578144295
3131.0753,31.251033958852986
3132.0558,42.43706419154887
3133.0357,39.304864938511344
3134.015,37.75463143764955
3134.9936,36.53655853382361
3135.9716,45.90084069434761
3136.949,44.19767202117032
3137.9258,46.62724615723198
3138.902,41.98975630349639
3139.8775,40.085395194655064
3140.8524,44.06435514550208
3141.8267,49.22682806997784
3142.8004,44.823005441379394
3143.7735,52.45307824073558
3144.7459,57.31723700084552
3145.7178,55.71567172997726
3146.689,57.74857186322703
3147.6596,52.366126278534296
3148.6295,55.31852327635272
3149.5989,53.70595063347503
3150.5676,58.97859557350864
3151.5357,64.6866447830019
3152.5032,63.63028435871718
3153.4701,62.55969975055041
3154.4364,64.3250757720948
3155.402,60.976596611346594
3156.367,66.96444581305133
3157.3315,66.23880631218893
3158.2952,70.64986037409483
3159.2584,66.64778960171674
3160.221,73.23277489150396
3161.1829,71.75499647342792
3162.1442,69.91463384513258
3163.105,73.26186578671195
3164.065,77.49687037911394
3165.0245,72.3198249706679
3165.9834,80.33090613473456
3166.9416,71.58028972147648
3167.8993,78.06815077774743
3168.8563,77.6946636345981
3169.8127,80.66000184239797
3170.7684,88.31433817457003
3171.7236,87.40784459793741
3172.6782,92.79069219618006
3173.6321,88.4130511788994
3174.5854,86.57509082779018
3175.5381,91.72697954041658
3176.4902,96.268884848592
3177.4417,91.8509733668601
3178.3926,89.87341074707572
3179.3428,94.88636172258416
3180.2924,95.73999012799635
3181.2415,94.28445884906012
3182.1899,94.86992981412325
3183.1377,103.19656400868905
3184.0848,96.46452146956167
3185.0314,102.97396120157984
3185.9773,100.52504124493714
3186.9227,103.41791861008738
3187.8674,106.8527493022342
3188.8115,103.47968829240213
3189.755,107.04888948308823
3190.6979,109.06050574199296
3191.6402,109.86468886632778
3192.5818,115.21158956269903
3193.5229,115.30135743906641
3194.4633,121.98414095127359
3195.4031,117.01008740215087
3196.3423,118.37934287468718
3197.2809,117.8920522817705
3198.2189,125.49835935249564
3199.1563,122.04840663703688
3200.0931,127.59233543058494
3201.0292,124.58028580784654
3201.9648,126.31239656760519
3202.8997,128.5888052628416
3203.834,133.15964818341251
3204.7677,129.9750603332867
3205.7008,130.5851753848366
3206.6333,135.99012571068397
3207.5652,131.54004237759898
3208.4964,135.0350550924506
3209.4271,135.12529224670735
3210.3571,140.66088088148726
3211.2865,141.04194668665542
3212.2154,144.66861394546805
3213.1436,144.44100553076197
3214.0712,146.70924286868782
3214.9982,146.02344594098628
3215.9246,155.63373326230567
3216.8503,150.8902218870598
3217.7755,149.7430273133254
3218.7001,150.39226353027686
3219.624,157.0380430296584
3220.5473,161.8804767992916
3221.4701,155.61967425661766
3222.3922,157.75574320027303
3223.3137,166.33878987269748
3224.2346,159.36891893877336
3225.1549,161.44623339999518
3226.0746,170.07083466416825
3226.9937,167.8428225246356
3227.9121,170.01229507403195
3228.83,167.17934872656377
3229.7473,173.19407819631473
3230.6639,168.4065765255749
3231.5799,173.76693502469362
3232.4954,172.72524331995453
3233.4102,171.1815892999719
3234.3244,181.43605912610755
3235.238,183.98873724790747
3236.151,176.2397063005571
3237.0634,180.1890470793544
3237.9752,183.58683861720039
3238.8864,179.03315814510557
3239.797,184.12808105821216
3240.7069,182.2216809613307
3241.6163,186.61402961799092
3242.5251,189.00519696950573
3243.4332,188.54525109104776
3244.3408,197.33425816773774
3245.2477,192.1722824992438
3246.154,192.40938641189157
3247.0598,200.09563031028387
3247.9649,194.8310726749295
3248.8694,200.56576998538105
3249.7733,199.6497767728804
3250.6766,198.9331455630116
3251.5793,204.41592688486105
3252.4814,203.54816927818354
3253.3829,201.57991923857472
3254.2838,208.16122122614837
3255.1841,208.5421176852192
3256.0838,204.22264897848964
3256.9829,209.40285338324097
3257.8814,210.9327671345278
3258.7792,210.81242437337636
3259.6765,213.89185713148507
3260.5731,210.3710953324281
3261.4692,211.6501667608611
3262.3647,216.52909709772877
3263.2595,214.55790990747397
3264.1538,211.88662658924886
3265.0474,215.5652663966262
3265.9404,214.44384646431268
3266.8329,218.6723817713622
3267.7247,211.50088515239025
3268.616,214.12936725528843
3269.5066,214.80783661293944
3270.3966,213.33629961693225
3271.286,211.01476051077748
