RamanShift,CorrectedData
30.1047,6802.193766639942
32.3739,6350.685516322262
34.6426,5906.227197982644
36.9109,5463.768680092296
39.1787,5011.35977206015
41.4461,4569.950228657453
43.7131,4139.689754541851
45.9796,3691.228008671486
48.2456,3248.164608607599
50.5112,2809.6991349991476
52.7764,2371.9811360134436
55.0411,1934.9601317208053
57.3054,1496.9356184717392
59.5692,1071.157073267149
61.8326,645.8239581385826
64.0955,218.08572440601682
66.3579,-203.4581830688113
68.6199,-608.6583216050215
70.8815,-973.2632159744852
73.1426,-1217.5153104524409
75.4032,-1158.247326414602
77.6634,-260.879822258732
79.9231,2637.0782145081957
82.1824,9952.120402568631
84.4412,28666.440334234245
86.6995,56239.2815022955
88.9574,59414.08711287846
91.2148,58920.79980971638
93.4717,58441.81164240164
95.7282,57970.86407131863
97.9842,57507.547972433604
100.2398,57041.35364200421
102.4949,56578.3208012126
104.7495,56115.73860082739
107.0036,55657.94562583401
109.2573,55200.729900060505
111.5105,54735.62889075546
113.7632,54279.17951316018
116.0154,53810.81813515967
118.2672,53360.480581847165
120.5185,52906.502140207725
122.7693,52453.26756362157
125.0197,52001.16107640395
127.2696,51541.2163783374
129.519,51088.61664919287
131.7679,50635.84455332916
134.0163,50184.43224421887
136.2642,49731.11136897622
138.5117,49281.16307287107
140.7587,48836.16800386219
143.0052,48384.20631709673
145.2512,47941.957679360145
147.4967,47506.951273595856
149.7417,47058.51580332767
151.9863,46617.17949700993
154.2304,46171.770112511804
156.4739,45734.31494153068
158.717,45292.44081404626
160.9596,44856.12410269506
163.2017,44417.690727189234
165.4433,43986.61615867968
167.6844,43559.075424140385
169.925,43123.7931106792
172.1651,42699.59336981323
174.4047,42267.99992182164
176.6439,41843.28605998766
178.8825,41417.32465491454
181.1206,40989.43815877265
183.3582,40567.54860955915
185.5954,40151.22763537678
187.832,39724.49645865284
190.0681,39314.67590030235
192.3037,38892.336383995396
194.5388,38480.097940255335
196.7734,38067.58021068214
199.0075,37656.95245207487
201.2411,37242.73354055673
203.4742,36842.74197568146
205.7068,36444.54588457549
207.9389,36044.16302593782
210.1704,35638.860794022
212.4015,35236.70622264
214.632,34846.61598921518
216.862,34461.406418803825
219.0915,34073.993487996115
221.3205,33686.39282876816
223.549,33302.21973235615
225.777,32919.43915313232
228.0044,32536.86571244675
230.2314,32157.21370245514
232.4578,31777.497089944547
234.6837,31387.7795201299
236.909,31013.224320451183
239.1339,30611.544504470614
241.3582,30254.4527756182
243.582,29853.761531208504
245.8053,29502.68286601157
248.0281,29143.878576259827
250.2503,28767.51016315887
252.472,28406.688836475536
254.6932,28044.47551830156
256.9139,27686.230846661834
259.134,27331.46517913651
261.3536,26978.988596443407
263.5727,26623.46090598574
265.7912,26275.141645376854
268.0092,25932.290085995497
270.2267,25587.46523646902
272.4436,25242.025846101868
274.6601,24901.330408323876
276.8759,24568.937164144605
279.0913,24230.80410556033
281.3061,23892.988978878013
283.5204,23558.899288096538
285.7341,23230.39229828497
287.9473,22891.425038923335
290.16,22570.904307187826
292.3721,22255.636671340348
294.5837,21933.72847393383
296.7947,21616.48583496482
299.0052,21302.31465509266
301.2152,20984.570618811864
303.4246,20686.959197593787
305.6334,20374.385653064142
307.8418,20068.105039979055
310.0495,19757.82220935089
312.2568,19456.741811510983
314.4635,19155.868299212438
316.6696,18859.755930640982
318.8752,18561.35877242368
321.0802,18271.580702590036
323.2847,17984.425413556004
325.4887,17694.296415021767
327.692,17406.847036843297
329.8949,17124.830431933588
332.0972,16843.149579137178
334.2989,16562.157286050337
336.5001,16283.906191837828
338.7007,16006.898770042892
340.9008,15741.437331369678
343.1003,15470.82402645341
345.2992,15202.860848514967
347.4976,14939.399636067006
349.6955,14671.342075593617
351.8927,14408.339704184931
354.0895,14144.14391221766
356.2856,13894.105945985168
358.4812,13647.526910339388
360.6763,13393.157771191276
362.8707,13148.399357976494
365.0646,12900.702366199177
367.258,12656.767359879494
369.4508,12414.244774030602
371.643,12171.534917098012
373.8346,11935.787973384802
376.0257,11702.404005478726
378.2162,11473.882956609646
380.4062,11241.27465298344
382.5956,11012.12880606718
384.7844,10792.295014915224
386.9726,10567.872768460678
389.1603,10348.061447713706
391.3474,10089.810328005828
393.5339,9920.318581187952
395.7199,9714.785278212956
397.9052,9506.409390830515
400.09,9298.539793642478
402.2743,9092.575266186614
404.4579,8895.164495015335
406.641,8691.656075755345
408.8235,8496.848515081721
411.0054,8299.690232753055
413.1868,8103.279563559496
415.3675,7906.664759294312
417.5477,7719.143990718003
419.7273,7533.715349524486
421.9064,7346.67685021623
424.0848,7163.7264319586175
426.2627,6981.861960450231
428.4399,6808.731229752419
430.6166,6625.481964107901
432.7928,6456.561819672148
434.9683,6291.118386345806
437.1432,6120.199189463943
439.3176,5961.601691450502
441.4914,5801.423293527456
443.6645,5632.961337300818
445.8371,5472.213106362375
448.0091,5317.375827974327
450.1806,5166.346674676861
452.3514,5018.572765836405
454.5216,4859.851169155969
456.6913,4715.828902152854
458.8603,4574.352933745875
461.0288,4434.370185695589
463.1967,4297.327534018994
465.3639,4155.5718103894615
467.5306,4022.549803507085
469.6967,3888.4582605162577
471.8622,3760.993888335921
474.0271,3631.8533550004067
476.1914,3496.3832909341872
478.3551,3372.430290243232
480.5182,3253.940912069709
482.6807,3142.311681831503
484.8426,3029.4390924071413
487.0039,2912.2696052520623
489.1647,2791.449651527335
491.3248,2677.375633271331
493.4843,2572.0939246079724
495.6432,2469.3008728874483
497.8015,2355.4927997390914
499.9592,2251.216002099194
502.1163,2153.5667533491796
504.2728,2059.3913043583307
506.4287,1976.6858844602539
508.5839,1880.2467023946738
510.7386,1788.9699471344356
512.8927,1685.8517888499555
515.0461,1609.038379821941
517.199,1520.425855472633
519.3512,1440.310335133996
521.5029,1360.0879229337443
523.6539,1284.1547085965285
525.8043,1207.0067682461522
527.9541,1135.6401651648994
530.1033,1066.8509505650363
532.2519,998.3851643024318
534.3999,933.2888355645264
536.5472,867.9579835549011
538.694,811.5886181443057
540.8401,744.9267405239443
542.9856,678.268343769174
545.1305,619.2094135061125
547.2748,561.6459285781966
549.4185,510.023861636786
551.5615,466.4335744903656
553.704,418.46033380898007
555.8458,377.88474659125495
557.987,335.33323941703566
560.1276,292.4784637974735
562.2675,254.8897212646334
564.4069,216.2833914907169
566.5456,186.02330779953627
568.6837,149.9211428438066
570.8212,125.43671090335556
572.958,92.87832854581939
575.0942,65.70305922601256
577.2299,47.26703854420339
579.3648,31.22574572711892
581.4992,14.734187803667737
583.6329,-0.5529401424864773
585.766,-25.131090222210332
587.8985,-44.54570902254636
590.0304,-96.09199207097845
592.1616,-94.66468988337874
594.2922,-108.55759301664511
596.4222,-123.71354632741713
598.5515,-137.22431018207863
600.6802,-143.48040904866502
602.8083,-151.7209965244474
604.9358,-160.63379283747054
607.0626,-171.00500252305937
609.1888,-175.9692253849862
611.3144,-179.30935288704495
613.4393,-181.70651856052427
615.5636,-180.79006463627593
617.6873,-181.03751809701498
619.8103,-178.6245998328086
621.9327,-183.77522216890065
624.0544,-169.46151297083998
626.1756,-168.00376418975793
628.2961,-168.47057485637197
630.4159,-165.62886564382643
632.5351,-158.1938742042621
634.6537,-157.27918355751171
636.7716,-152.19679636660294
638.8889,-147.50714407557098
641.0056,-135.61913768247177
643.1216,-129.34021458899952
645.237,-117.82645736169798
647.3518,-98.98265645838546
649.4659,-80.76242525059934
651.5793,-67.91838827312313
653.6922,-54.552363244212756
655.8043,-43.215489377420454
657.9159,-33.208360908174654
660.0268,-16.68157163973956
662.137,1.5142849567637313
664.2466,11.67861557706783
666.3556,34.060826901761175
668.4639,54.51032549468073
670.5716,79.92651757907151
672.6786,97.00880883316859
674.785,112.15660413593287
676.8907,134.91930739630334
678.9958,168.09632140167378
681.1002,181.93704759027605
683.204,199.44088571935572
685.3072,227.65723372685898
687.4097,250.98548755636875
689.5115,279.17504087492125
691.6127,310.92528483973
693.7132,341.1356078162353
695.8131,345.8553950606729
697.9123,390.63402841795323
700.0109,419.920886274449
702.1089,456.76534311023715
704.2061,489.7167692061921
706.3028,519.8745302755706
708.3987,550.7379871345038
710.4941,590.7564954004192
712.5887,619.3794051833538
714.6827,657.0560606858635
716.7761,700.5857999167129
718.8688,730.567954314145
720.9608,764.8018483105916
723.0522,800.636799032829
725.1429,846.3221159596578
727.233,885.6571005635633
729.3224,928.3410458538783
731.4112,966.7732359834117
733.4993,1010.752945821594
735.5867,1053.779440570077
737.6735,1099.00197532303
739.7596,1141.0197946368498
741.845,1190.2321320779301
743.9298,1232.8382098024813
746.014,1277.587238064385
748.0974,1321.928414789174
750.1802,1372.3109251265414
752.2624,1422.3339410068584
754.3439,1467.9466206374273
756.4247,1514.5481080022291
758.5048,1572.8375324058288
760.5843,1627.81400800735
762.6631,1681.8266332375206
764.7413,1736.3244902489387
766.8188,1787.3066443759672
768.8956,1844.0221435897984
770.9718,1895.1700179885593
773.0473,1954.2992792301739
775.1221,2011.9089200208837
777.1962,2069.1979135239744
779.2697,2126.7152127837107
781.3426,2170.9097501523574
783.4147,2245.880436715095
785.4862,2311.976161848026
787.557,2367.09579246847
789.6271,2429.0881723739876
791.6966,2492.9521216912326
793.7654,2549.9364362559427
795.8335,2614.489886974421
797.901,2683.5112192536326
799.9678,2738.3491523557095
802.0339,2799.8023787077254
804.0993,2865.819563353267
806.1641,2935.549343337996
808.2282,3002.540327049377
810.2916,3054.591093519448
812.3544,3153.8001917548245
814.4164,3177.016140216285
816.4778,3236.237425826628
818.5385,3318.762503738544
820.5986,3388.989796742382
822.658,3476.2176944409366
824.7166,3554.1945525471456
826.7747,3562.7186920117965
828.832,3650.538398243785
830.8886,3773.851921024834
832.9446,3852.2074736313443
834.9999,3818.103231601235
837.0545,3955.1373319503764
839.1085,4094.8578735136543
841.1618,4150.362915574602
843.2143,4135.050476468226
845.2662,4205.518533025977
847.3175,4339.715020728836
849.368,4245.937833002557
851.4179,4480.0348198757565
853.467,4441.953788917708
855.5155,4585.192502897364
857.5633,4550.948680164198
859.6105,4557.069993215744
861.6569,4733.104069040077
863.7027,4631.998489054597
865.7478,4785.300787345674
867.7922,4833.058451679775
869.8359,5030.768921970375
871.8789,4916.379589800374
873.9212,5088.6377964450585
875.9629,5265.14083401586
878.0039,5319.735943737942
880.0441,5370.920314185067
882.0837,5456.291080733659
884.1226,5492.94532505102
886.1609,5547.530074241513
888.1984,5506.542300480098
890.2352,5769.878920466457
892.2714,5622.436795834918
894.3069,5837.01273052099
896.3416,5799.003472235847
898.3757,5840.805710320557
900.4091,5487.666076126159
902.4418,6145.531142595653
904.4739,5950.897427795426
906.5052,6040.711388336575
908.5358,5955.969421321286
910.5658,5895.717863444632
912.595,5983.8529918420245
914.6236,5415.271024691727
916.6515,6413.91812033351
918.6786,5608.340382954448
920.7051,6016.233852602418
922.7309,5969.844513241929
924.756,6260.018288675121
926.7804,6032.001043005745
928.8041,5257.188577737405
930.8272,6082.776634053691
932.8495,6203.210900566388
934.8711,5594.3870050595215
936.892,5152.900513285022
938.9123,5518.796935050967
940.9318,5149.02172863642
942.9506,5121.570297132552
944.9688,5232.987992140239
946.9862,4339.770114044739
949.003,4862.211910901453
951.019,4034.2585873680655
953.0344,4364.15529948019
955.0491,4365.797162930881
957.063,4775.029249771644
959.0763,4925.196588396029
961.0888,4410.694159447339
963.1007,5076.966894316938
965.1119,5129.709680289256
967.1223,4716.9673538790885
969.1321,5428.284700304139
971.1412,4722.906457612458
973.1495,4512.5773095692275
975.1572,4901.69189271066
977.1641,4737.744798447209
979.1704,4655.330569172431
981.1759,4891.543699902446
983.1808,4525.678639100122
985.1849,4668.329786312919
987.1884,4980.841495831555
989.1911,5605.358075263481
991.1932,4627.023782407763
993.1945,4975.882819009908
995.1951,5383.629340545202
997.1951,4869.007452730104
999.1943,4649.761207444812
1001.1928,4501.484607879465
1003.1906,4722.271610726581
1005.1877,4127.066127663886
1007.1841,3888.162023146382
1009.1798,3925.603120358406
1011.1748,3844.9332036027263
1013.1691,3650.34601792608
1015.1627,2702.3852699258714
1017.1556,2761.5946296960465
1019.1477,2963.8177403067675
1021.1392,2509.6482172122123
1023.1299,2048.029646228497
1025.12,2372.6555880752276
1027.1093,2124.1195829917415
1029.0979,2174.8151474908664
1031.0859,2291.535776844241
1033.0731,1881.0249445753725
1035.0596,1927.8761012924151
1037.0454,1698.3826787932776
1039.0304,1452.5880895971204
1041.0148,1099.1857292392742
1042.9985,1144.3189787291994
1044.9814,1268.731208084515
1046.9636,1072.3657758796617
1048.9452,1007.1660280017677
1050.926,1000.7752996143463
1052.9061,950.7869158092362
1054.8855,933.6941916705691
1056.8642,833.5404327746
1058.8421,941.118935360726
1060.8194,975.3729873329357
1062.7959,878.6458671840446
1064.7717,975.9308436532156
1066.7469,936.7711766931534
1068.7213,938.060116497305
1070.695,776.6909038913946
1072.6679,526.956770320583
1074.6402,595.9509394631532
1076.6117,621.8666297278323
1078.5826,713.3970535638437
1080.5527,753.7854172018051
1082.5221,857.5749197383484
1084.4908,1066.3087527323005
1086.4587,1293.0800991667784
1088.426,1467.8821313618319
1090.3925,1401.708008706686
1092.3584,1409.0008759118427
1094.3235,1022.2038636707366
1096.2879,928.2600885868305
1098.2515,869.712657041564
1100.2145,951.904666133807
1102.1767,996.0792042652465
1104.1382,1126.2293503185792
1106.099,1316.6981732157074
1108.0591,1412.6287306162048
1110.0185,1534.364067012728
1111.9771,1643.547212771642
1113.9351,1280.0711829156935
1115.8923,965.5789760321786
1117.8488,622.6135779077158
1119.8045,216.26796467317035
1121.7596,150.63510623329057
1123.7139,45.55797033014824
1125.6675,71.82952319945616
1127.6204,292.9427306214275
1129.5726,211.79055765798694
1131.524,305.7659664416715
1133.4748,421.96191698713665
1135.4248,449.7213662514405
1137.3741,437.4372669720033
1139.3226,453.25256738909957
1141.2705,532.7102113686415
1143.2176,322.35313824408513
1145.164,432.47428202182346
1147.1097,460.1165734847091
1149.0546,526.5729390908455
1150.9989,440.6863006972053
1152.9424,357.7495748950605
1154.8852,148.9056738688596
1156.8272,64.14750622557767
1158.7686,110.26797908312437
1160.7092,-37.990001081976516
1162.6491,-152.08352889590606
1164.5883,-22.96931946468976
1166.5267,48.29743142002553
1168.4644,278.61175743007334
1170.4014,523.9186917543047
1172.3377,852.0132647954961
1174.2732,1044.4405017172612
1176.2081,1297.9954191631114
1178.1421,1461.0730233321738
1180.0755,1620.318307443602
1182.0082,1510.37625010583
1183.9401,1489.4918137241548
1185.8713,1293.6099456000957
1187.8017,1092.3755781402942
1189.7315,925.7836308153492
1191.6605,547.8290121721002
1193.5888,331.85662149956624
1195.5163,302.81135260854353
1197.4432,198.13809599124943
1199.3693,116.38173911184276
1201.2947,23.187167453077564
1203.2193,-65.8007346660961
1205.1432,21.862916841440892
1207.0664,44.02366341216839
1208.9889,210.07704626391933
1210.9106,199.61860617431375
1212.8316,235.0438818202092
1214.7519,357.2984098822999
1216.6715,322.82772469085467
1218.5903,381.62735700311896
1220.5084,276.8928343480875
1222.4257,334.31968043850065
1224.3424,185.90341621815605
1226.2583,182.63955928767973
1228.1735,351.02362538869056
1230.0879,449.3511284363849
1232.0016,584.9175788356879
1233.9146,564.6684824980184
1235.8269,454.3493394856414
1237.7384,445.1056442141562
1239.6492,157.78288655569486
1241.5592,141.4765519313296
1243.4686,-15.867875815652951
1245.3772,-28.954914256704797
1247.285,-131.8389224432176
1249.1922,-140.3239701670027
1251.0986,-149.76281014907
1253.0042,-116.25679327398393
1254.9092,-73.455774295835
1256.8134,67.0915534366286
1258.7169,255.48723039785546
1260.6196,406.33329639139265
1262.5216,640.1317886658799
1264.4229,812.9347404066866
1266.3234,945.1941783978473
1268.2232,1054.2621212940721
1270.1223,1016.1405782981383
1272.0207,1050.6815480702353
1273.9183,981.0370191091497
1275.8151,885.608969406916
1277.7113,828.7993671452132
1279.6067,706.9101716496443
1281.5014,544.1433339577925
1283.3953,429.6007980381546
1285.2885,357.2345024178212
1287.181,332.6963813278853
1289.0727,400.5883654270874
1290.9637,479.2123820472407
1292.854,653.0703545142533
1294.7435,771.4142013619785
1296.6323,1054.545834593555
1298.5204,1339.6171584980111
1300.4077,1634.1300668189288
1302.2943,1860.136439903752
1304.1802,2035.388141758609
1306.0653,1954.1370177883073
1307.9497,1860.7848930437794
1309.8333,1817.683573034632
1311.7162,1844.1348446626325
1313.5984,1990.8404766527237
1315.4798,2132.902219288517
1317.3605,2311.071802945233
1319.2405,2545.350936669085
1321.1197,2587.1413063955624
1322.9982,2572.7445726066435
1324.876,2650.9623699129224
1326.753,2623.5963071975602
1328.6293,2774.9479668340973
1330.5048,2851.4689049601147
1332.3796,2880.510649963733
1334.2537,2853.474701718391
1336.127,2820.5125312924574
1337.9996,2763.625581219556
1339.8714,2777.665265828189
1341.7426,2664.3329718106434
1343.6129,2687.130058082519
1345.4826,2595.1578569161284
1347.3515,2623.067673712496
1349.2196,2620.7607879210664
1351.087,2686.78845276064
1352.9537,2768.3018952424063
1354.8197,2932.7523155096933
1356.6849,3165.640886022804
1358.5493,3248.3187499145643
1360.4131,3252.0370186613945
1362.276,3157.9467712565383
1364.1383,3014.0990541729116
1365.9998,2782.194882303971
1367.8606,2435.1352404021854
1369.7206,2252.4710853980905
1371.5799,2106.7533498708653
1373.4384,1971.8829438749817
1375.2962,1914.960756397384
1377.1533,1646.637656706178
1379.0096,1310.714494919881
1380.8652,1072.542104690634
1382.7201,912.2213065634423
1384.5742,647.6529103578941
1386.4275,495.73771677137483
1388.2802,384.4265200247428
1390.132,283.8701093814998
1391.9832,308.66927026086705
1393.8336,144.37478524340986
1395.6832,113.23743382298198
1397.5322,66.60799404973659
1399.3803,92.93724284145719
1401.2278,-11.874043550149509
1403.0745,-3.17508980270577
1404.9204,-13.56500197216883
1406.7656,50.55714560463821
1408.6101,-36.55758589477773
1410.4538,-14.458135798464355
1412.2968,39.10692177577948
1414.139,47.33915714692921
1415.9805,192.99014024288408
1417.8213,209.81144051816227
1419.6613,387.2046254974048
1421.5006,563.7212606071371
1423.3391,852.0129074018587
1425.1769,1181.3311217988485
1427.0139,1763.9774511952746
1428.8502,2458.553431175009
1430.6858,3078.210579682145
1432.5206,3447.100390075284
1434.3547,3735.724324930914
1436.188,3804.283812354526
1438.0206,3814.7802430943993
1439.8524,3619.464969856006
1441.6835,3536.1893071970153
1443.5139,3478.6045334804658
1445.3435,3371.661891707532
1447.1724,3441.012590093309
1449.0005,3347.357803136314
1450.8279,3276.598670924952
1452.6545,3259.9863000740734
1454.4804,3399.271764432535
1456.3056,3367.0561052493576
1458.13,3301.140329780843
1459.9536,3144.3754116127493
1461.7766,2787.2622913194646
1463.5987,2329.2018780316357
1465.4202,2010.4450530072827
1467.2409,1638.5926742124357
1469.0608,1458.9455795086833
1470.88,1223.6045903716913
1472.6984,1046.320513687664
1474.5161,801.344144106788
1476.3331,663.5762658160602
1478.1493,575.8676549890442
1479.9648,542.319081163525
1481.7795,481.33130811863157
1483.5935,465.20509421030147
1485.4067,428.891192981162
1487.2192,443.24035332182393
1489.031,424.25331983400247
1490.842,411.78083268700357
1492.6522,443.2736278076118
1494.4618,431.9324370048125
1496.2705,424.25798765487707
1498.0785,431.2010028147524
1499.8858,415.26220129880676
1501.6924,434.49229760942035
1503.4981,451.69200209635164
1505.3032,435.6120207644344
1507.1075,436.1530551015967
1508.911,426.715802239647
1510.7138,461.7509549488641
1512.5159,410.60920173237173
1514.3172,392.6912264757957
1516.1178,360.9977089586828
1517.9176,401.67932503367047
1519.7166,364.6867469434328
1521.515,322.4206429138503
1523.3126,359.9316775239422
1525.1094,307.6205121285275
1526.9055,307.0878044831152
1528.7008,299.3842092670202
1530.4954,193.51037808869296
1532.2893,273.0669595627551
1534.0824,212.55460036874865
1535.8747,276.1739444555351
1537.6663,226.57563364646194
1539.4572,218.96030700312258
1541.2473,273.7286013213816
1543.0367,244.38115120750808
1544.8253,219.96858853049343
1546.6132,247.4915427155247
1548.4003,223.25064098813164
1550.1867,302.54650809892337
1551.9723,296.02976656602914
1553.7572,322.2510358820982
1555.5414,343.86093257951507
1557.3247,396.3100699681381
1559.1074,448.49905791924175
1560.8893,482.5285023410215
1562.6705,546.0490046566738
1564.4509,636.061161464113
1566.2305,699.3655639007993
1568.0094,864.6627967435852
1569.7876,982.853437775666
1571.565,1061.1380561336227
1573.3417,1147.4172111255175
1575.1176,1193.3914514480566
1576.8928,1194.0113143237613
1578.6672,1106.0273250412683
1580.4409,970.3899969491031
1582.2138,863.9998323355139
1583.986,736.5573237848803
1585.7575,681.7129552415754
1587.5282,597.8172032844195
1589.2981,592.5705376751139
1591.0673,500.8234221971943
1592.8358,525.4763147084959
1594.6035,501.87966805863107
1596.3704,519.2339298424631
1598.1366,513.7395426360599
1599.9021,563.1469438231579
1601.6668,564.5565656501203
1603.4308,623.6688347318304
1605.194,725.2841720376346
1606.9564,833.6529923001799
1608.7182,909.0257029993008
1610.4791,1064.9527032782898
1612.2394,1203.334383190202
1613.9988,1436.771122138587
1615.7576,1649.7632874936426
1617.5156,1951.2112322578796
1619.2728,2221.1652929361735
1621.0293,2425.275786521306
1622.785,2483.1430077944096
1624.54,2430.7172272838798
1626.2942,2292.7486906866616
1628.0477,2050.4876193925484
1629.8005,1804.4842118638408
1631.5525,1541.8386460579713
1633.3037,1344.9010818875322
1635.0542,1231.5716638467347
1636.804,1092.2005229807837
1638.553,1019.8377780191986
1640.3013,954.2335367694868
1642.0488,903.9878968407866
1643.7955,903.8509462999064
1645.5416,941.3227641738013
1647.2868,996.8534204509087
1649.0313,1091.0929757064623
1650.7751,1202.9414805471752
1652.5181,1398.9989746688298
1654.2604,1658.265485737811
1656.0019,2008.4410274305155
1657.7427,2378.425596840698
1659.4828,2788.219170977707
1661.222,3033.271703066657
1662.9606,3111.43311845047
1664.6984,2987.7033121393724
1666.4354,2682.2321480292667
1668.1717,2225.1194601390416
1669.9072,1805.365055665261
1671.642,1452.0687195532919
1673.3761,1197.7802186948647
1675.1094,967.0493054610197
1676.8419,802.375720244996
1678.5737,666.1591937695703
1680.3048,585.3494487337557
1682.0351,491.7962011749878
1683.7646,443.64916127720426
1685.4934,397.1580343063979
1687.2215,319.3225210920755
1688.9488,278.9923184921772
1690.6754,258.8171201714249
1692.4012,294.04661700463475
1694.1263,252.6804972784521
1695.8506,243.6684463390793
1697.5742,234.21014700590786
1699.297,198.1052796616441
1701.0191,181.50352234690035
1702.7404,138.70455112123818
1704.461,121.95804022919037
1706.1808,118.26366252825574
1707.8999,68.47108965635016
1709.6182,54.62999206877066
1711.3358,85.89003953611063
1713.0527,86.30090128265874
1714.7688,72.66224567381687
1716.4841,33.52374021198739
1718.1987,76.53505167295589
1719.9126,49.54584649728349
1721.6257,71.80579036017843
1723.338,46.16454844139662
1725.0496,10.771785202628962
1726.7605,35.22716464394762
1728.4706,37.480350657691815
1730.18,-39.01899321605379
1731.8886,-24.221203812001477
1733.5964,-17.726228165125576
1735.3036,-30.13377134059556
1737.0099,24.456638681431286
1738.7156,29.845774957166213
1740.4204,-13.315589701733188
1742.1246,19.0233172179378
1743.8279,40.16340125211718
1745.5306,66.60556774651923
1747.2325,42.30072164523699
1748.9336,41.44976722630781
1750.634,-4.696391655223124
1752.3336,35.613148441194426
1754.0325,53.52933787306574
1755.7307,77.20312664176163
1757.4281,76.13546421337196
1759.1247,136.4272992819624
1760.8206,123.0295797802537
1762.5158,143.7932522767078
1764.2102,116.31926210948586
1765.9039,125.10855317883397
1767.5968,124.26206822181484
1769.289,81.43074872440957
1770.9804,114.66553492999265
1772.6711,145.66736626762577
1774.361,138.98718101972554
1776.0502,172.57591601203058
1777.7386,174.83450668040678
1779.4263,155.86388673497095
1781.1132,206.51498813749095
1782.7994,215.73874129111573
1784.4849,193.38607453383884
1786.1696,180.80791404627416
1787.8535,200.55518407517775
1789.5367,206.5788070592298
1791.2192,226.27970343155903
1792.9009,201.95879155950024
1794.5818,247.01698754759855
1796.2621,229.70520548081913
1797.9415,225.42435697398105
1799.6202,230.37535134483187
1801.2982,234.35909565691327
1802.9755,238.77649467000083
1804.6519,255.6284508002973
1806.3277,209.56586407624854
1808.0027,213.28963197002122
1809.6769,264.60064985812096
1811.3504,249.29981098417193
1813.0231,267.2880059457857
1814.6951,301.0161228475863
1816.3664,305.4350471213129
1818.0369,299.7956611885638
1819.7067,291.19884441658724
1821.3757,323.5954731746824
1823.044,329.98642092016416
1824.7115,307.2225578744037
1826.3783,297.35475095890433
1828.0443,312.7338640229573
1829.7096,284.56075794230856
1831.3741,344.786290465383
1833.0379,379.66131649500494
1834.701,350.43668748614255
1836.3633,366.61325109715835
1838.0248,361.04185148206125
1839.6856,382.52332912872953
1841.3457,406.55852091462293
1843.005,384.3482598919745
1844.6636,427.0433750474458
1846.3214,420.9446915242261
1847.9785,450.0030301950701
1849.6349,435.81920772328886
1851.2904,447.9940362721718
1852.9453,450.22832364680653
1854.5994,429.72287317234805
1856.2528,458.32848367167935
1857.9054,489.84594967045086
1859.5572,500.42606111104215
1861.2083,518.0196030373681
1862.8587,525.5773554891057
1864.5084,547.9000933257321
1866.1572,530.4385861509618
1867.8054,502.99359808950976
1869.4528,517.7658879617193
1871.0994,521.2562095579942
1872.7453,532.7653114910972
1874.3905,530.9939371612309
1876.0349,515.9428246409425
1877.6786,557.4627066928479
1879.3215,587.3543109201328
1880.9637,563.168359351359
1882.6051,567.7555681415579
1884.2458,590.3666478140749
1885.8858,560.9023032147143
1887.525,566.8632332856032
1889.1634,549.8001313598597
1890.8011,539.7636851019743
1892.4381,554.2045766784377
1894.0743,577.5734828581135
1895.7098,596.7710748678182
1897.3446,581.048018158639
1898.9786,576.4549722139582
1900.6118,600.8925907066841
1902.2443,578.7115215451813
1903.8761,585.7624066288918
1905.5071,539.0958820701617
1907.1374,527.2625781237111
1908.7669,546.7131196533173
1910.3957,562.6481262501347
1912.0237,508.61821203818
1913.651,534.3239855150005
1915.2776,512.1660500919552
1916.9034,514.5450038371728
1918.5285,490.811439697125
1920.1528,499.91594547283785
1921.7764,528.1591040572257
1923.3992,512.7414933440414
1925.0213,480.81368594545893
1926.6427,465.8262493462353
1928.2633,451.0297462230046
1929.8832,474.8247345941418
1931.5023,433.2117679677285
1933.1207,451.1413951035938
1934.7383,439.5641604294633
1936.3552,445.88060386165307
1937.9714,470.29126092083607
1939.5868,462.59666266888235
1941.2015,396.49733546475
1942.8154,408.64380104143675
1944.4286,363.1365771669771
1946.041,378.92617752296974
1947.6528,380.2631121596587
1949.2637,346.09788733802634
1950.8739,337.68100551643874
1952.4834,360.3129656922829
1954.0921,374.84426348614033
1955.7001,356.5753909154628
1957.3074,348.95683624925914
1958.9139,329.58908419078944
1960.5197,335.2726159537415
1962.1247,309.15790945592926
1963.729,327.2954392624215
1965.3325,266.0356768467318
1966.9353,298.4790904094152
1968.5374,292.52614549067766
1970.1387,297.02730464593515
1971.7393,289.6330275053497
1973.3392,279.49377072881725
1974.9383,275.2599880798971
1976.5366,248.88213052722313
1978.1342,272.71064628683234
1979.7311,269.19598108594255
1981.3273,287.7885779246699
1982.9227,259.3888771111742
1984.5173,228.69731607573158
1986.1112,242.66432965473177
1987.7044,246.39035039760165
1989.2968,217.87580842713032
1990.8885,245.92113140220317
1992.4795,227.97674480295245
1994.0697,224.89307165030368
1995.6592,235.07053268542404
1997.2479,237.80954640055825
1998.8359,231.81052893724882
2000.4232,235.523894058957
2002.0097,208.15005321103672
2003.5955,189.08941548361327
2005.1805,208.59238788531547
2006.7648,240.50937553388394
2008.3484,225.2907814611317
2009.9312,264.98700629378436
2011.5133,238.69844840566475
2013.0946,243.72550352071994
2014.6752,247.9185649759238
2016.2551,244.67802367099648
2017.8342,256.55426802647526
2019.4126,206.44768401612055
2020.9902,221.7086550481581
2022.5672,228.53756246633748
2024.1433,205.03478539733078
2025.7188,183.9507006824424
2027.2935,213.03568311262734
2028.8674,188.34010563934498
2030.4406,189.3143390837031
2032.0131,192.20875238341068
2033.5849,193.72371258304065
2035.1559,200.40958480508198
2036.7261,196.71673223478956
2038.2957,201.24551605332908
2039.8645,216.09629547470286
2041.4325,206.11942770046153
2042.9998,213.96526777120198
2044.5664,230.53416866632415
2046.1323,208.77648122558548
2047.6974,213.04255398341047
2049.2617,200.88273338646377
2050.8254,214.3973637509962
2052.3883,251.1367873844256
2053.9504,238.05134445020576
2055.5118,202.8913726004257
2057.0725,198.1572071066721
2058.6325,220.89918121162282
2060.1917,198.8176261763847
2061.7502,218.9128710530822
2063.3079,216.0352429056693
2064.8649,192.38506660897565
2066.4212,192.7626648774849
2067.9767,194.16835850183088
2069.5315,182.05246634503055
2071.0856,165.0153053284148
2072.6389,165.30719055279587
2074.1915,161.52843546884196
2075.7433,122.92935187414696
2077.2945,144.76024995103035
2078.8448,150.72143865251655
2080.3945,127.81322548403568
2081.9434,171.9859164438085
2083.4916,149.58981625193337
2085.039,117.02522790865169
2086.5857,134.49245291830448
2088.1317,164.49179161498432
2089.677,146.2735429878585
2091.2215,140.6880043811816
2092.7652,128.18547167647648
2094.3083,134.91623934839117
2095.8506,157.68060058972333
2097.3921,161.27884724411342
2098.933,175.36126957840042
2100.4731,176.67815624663854
2102.0124,191.17979414927413
2103.5511,194.81646841997826
2105.089,207.18846228062284
2106.6261,183.09605700491738
2108.1626,195.489531794693
2109.6983,179.51916402081952
2111.2332,202.43522909927742
2112.7675,214.98800065085925
2114.301,184.0277502720055
2115.8337,199.5547474092773
2117.3657,208.8192596689605
2118.897,201.22155266179925
2120.4276,183.66188991034687
2121.9575,171.5905329249481
2123.4866,190.70774137932676
2125.0149,209.26377323130782
2126.5426,185.40888453164007
2128.0695,196.44332923844104
2129.5956,188.76735945574546
2131.1211,189.88122532315265
2132.6458,195.3851750925951
2134.1698,192.42945511719427
2135.693,193.1143097962222
2137.2155,215.0399816046638
2138.7373,207.95671108636452
2140.2584,189.51473663476918
2141.7787,174.51429456375718
2143.2983,173.35561929206415
2144.8171,182.53894349328675
2146.3353,184.21449810746617
2147.8527,192.7325122492548
2149.3693,188.89321319116607
2150.8853,195.54682627839247
2152.4005,182.29357496719513
2153.9149,188.38368075837298
2155.4287,153.31736332978835
2156.9417,195.44484047546302
2158.454,194.86632845625536
2159.9655,188.28204157857635
2161.4764,206.54219220017876
2162.9865,207.54699079599686
2164.4958,180.94664577554613
2166.0045,190.84136347287404
2167.5124,199.43134841256324
2169.0195,206.11680321078802
2170.526,220.39792848941397
2172.0317,203.27492280913884
2173.5367,214.39798252668606
2175.0409,190.91730196603203
2176.5445,223.98307330717125
2178.0473,193.99548682093427
2179.5494,181.80473053832338
2181.0507,175.31099055038703
2182.5513,176.7144511301285
2184.0512,185.11529479743967
2185.5504,171.21370230507728
2187.0488,175.7598525546473
2188.5465,152.55392273562302
2190.0435,155.74608827988595
2191.5397,167.13652309378085
2193.0353,166.0253995261919
2194.5301,151.21288825464217
2196.0241,160.1991582964074
2197.5175,172.23437715663385
2199.0101,154.4187107384787
2200.502,139.45232322276024
2201.9931,142.18537724611087
2203.4835,139.71803405064657
2204.9733,143.10045345663184
2206.4622,126.98279388715491
2207.9505,145.11521233429903
2209.438,125.04786452032295
2210.9248,113.13090471633586
2212.4109,113.21448594296635
2213.8962,116.74876008953925
2215.3809,123.78387791323894
2216.8648,118.81998900376311
2218.3479,143.1572417129737
2219.8304,107.94578320453365
2221.3121,90.03575921054016
2222.7931,94.32731438362862
2224.2733,97.62059247608158
2225.7529,100.5657362969132
2227.2317,89.0628876789333
2228.7098,104.91218744929301
2230.1872,91.31377554452229
2231.6638,97.56779085202834
2233.1397,96.97437134608208
2234.6149,90.58365402527761
2236.0894,111.14577491846467
2237.5632,98.26086914866119
2239.0362,82.82907072742546
2240.5085,84.35051268371171
2241.9801,79.17532721818407
2243.4509,62.60364568799923
2244.921,79.28559865856823
2246.3904,70.77131606926741
2247.8591,80.31092706662002
2249.3271,81.1045600894422
2250.7943,65.1023427734408
2252.2608,49.754401943281664
2253.7266,65.66086377261308
2255.1917,67.12185393754044
2256.656,72.9874974575605
2258.1197,75.65791868095857
2259.5826,73.28324122613867
2261.0447,72.16358795493034
2262.5062,68.79908099633758
2263.9669,85.23984175772694
2265.4269,87.73599095847658
2266.8862,65.83764846557006
2268.3448,97.2949332686303
2269.8026,91.85796369890795
2271.2598,91.57685711470458
2272.7162,91.45172995574467
2274.1719,80.53269774598448
2275.6268,74.86987509486607
2277.0811,89.01337580650306
2278.5346,98.16331293631356
2279.9874,100.11979864957993
2281.4395,98.68294412995056
2282.8908,98.35285955987911
2284.3414,96.87965413499296
2285.7914,95.86343606739592
2287.2406,94.25431260039386
2288.689,97.75239001866612
2290.1368,96.05777366434904
2291.5838,117.87056790206043
2293.0302,97.44087613584361
2294.4758,88.16880059103732
2295.9206,89.20444251857589
2297.3648,108.79790228770071
2298.8082,111.34927937561133
2300.251,96.10867217152827
2301.693,102.97617795118003
2303.1343,100.15189302921317
2304.5748,100.0359126905114
2306.0147,79.12833121844051
2307.4538,109.22924189601417
2308.8922,92.9887372149633
2310.3299,71.00690857473
2311.7669,84.0838464448725
2313.2031,62.719640584883564
2314.6387,85.21437991341918
2316.0735,83.6681527219389
2317.5076,74.58104644976629
2318.941,95.45314769954439
2320.3737,92.13454232810545
2321.8056,98.57531523775197
2323.2369,73.0755504094468
2324.6674,73.83533083840484
2326.0972,69.30473878908106
2327.5263,86.43385578758262
2328.9547,110.07276266696863
2330.3823,104.42153939596392
2331.8092,112.88026484256807
2333.2355,80.49901683056669
2334.661,78.87787205494715
2336.0858,92.16690640570687
2337.5098,92.7161949840638
2338.9332,89.42581196956417
2340.3558,76.6958306145998
2341.7778,91.27632327730134
2343.199,76.06736154884584
2344.6195,90.06901610764635
2346.0393,108.9813568714435
2347.4583,107.75445285729074
2348.8767,94.03837199243299
2350.2943,108.03318112657234
2351.7113,115.53894616903654
2353.1275,83.30573194882027
2354.543,116.63360213953183
2355.9578,100.9726195817234
2357.3718,94.12284594960965
2358.7852,80.63434190768248
2360.1978,84.80716717920268
2361.6098,98.34138068108723
2363.021,90.63704048218688
2364.4315,93.94420366794157
2365.8413,105.0629264174263
2367.2504,93.74326397028017
2368.6587,96.13527051550909
2370.0664,85.4889993046927
2371.4733,74.50450262805907
2372.8795,69.93183192095103
2374.285,61.97103787365995
2375.6899,53.922170477163036
2377.0939,77.8852791027366
2378.4973,60.11041258242858
2379.9,67.29761896943864
2381.3019,56.196945715863876
2382.7032,61.75843960082193
2384.1037,58.48214684146342
2385.5035,65.36811303735385
2386.9027,59.16638320323864
2388.3011,63.72700170017879
2389.6987,58.45001229757872
2391.0957,49.58545812757529
2392.492,62.533381737811396
2393.8876,22.593825180070326
2395.2824,41.31682988080502
2396.6765,44.002437040529
2398.07,12.900687446590837
2399.4627,35.361621446314075
2400.8547,44.53527925801882
2402.246,26.371700746406987
2403.6366,22.670925330834052
2405.0265,31.43299216694595
2406.4156,39.40794018368433
2407.8041,35.89580799565556
2409.1918,16.646633823391767
2410.5789,23.060455528468083
2411.9652,-0.8626891940057249
2413.3508,31.177237120477002
2414.7358,24.480280554685578
2416.12,13.196486879616259
2417.5035,22.8259016214688
2418.8863,28.368570174477554
2420.2684,20.42453770462089
2421.6497,17.79384909419332
2423.0304,3.5765490212461373
2424.4104,2.7226819858965428
2425.7896,15.482292452497404
2427.1682,16.955424858176684
2428.546,12.142123485241882
2429.9232,22.092432446449493
2431.2996,5.05639573313556
2432.6753,37.83405711571413
2434.0503,13.7254603140359
2435.4246,21.880648669613947
2436.7982,16.949665386708148
2438.1711,22.782553450771957
2439.5433,22.679355677764306
2440.9148,15.490114655817706
2442.2856,9.16487274627525
2443.6557,18.10367215557926
2445.025,11.506554998526099
2446.3937,16.52356320887702
2447.7617,16.054738605332204
2449.1289,21.900122841357643
2450.4955,36.409757409869144
2451.8613,26.333683584782648
2453.2265,22.671942275917445
2454.5909,29.57457412975691
2455.9546,31.64161956606449
2457.3177,19.273118708859784
2458.68,32.61911136574781
2460.0416,43.17963715160249
2461.4025,53.95473535510973
2462.7627,41.14444483316174
2464.1222,57.748803903104545
2465.4811,29.16785047084022
2466.8392,28.351621864788285
2468.1966,47.10015512169002
2469.5533,59.76348699477285
2470.9093,64.19165376626279
2472.2645,58.13469112075427
2473.6191,47.24263410092544
2474.973,53.31551716811009
2476.3262,59.95337431121743
2477.6787,45.656238986003245
2479.0305,31.224144048690505
2480.3816,39.457121898943115
2481.7319,53.20520462418472
2483.0816,45.7684239172695
2484.4306,53.346810939000534
2485.7789,56.0403963925005
2487.1264,53.4992104474245
2488.4733,47.92328271302631
2489.8195,36.46264226356925
2491.165,47.26731769408343
2492.5097,33.83733723497562
2493.8538,32.62272864398119
2495.1972,29.02351934046419
2496.5398,21.839736417560744
2497.8818,43.02140667817321
2499.2231,38.16855670680843
2500.5637,18.931212657759716
2501.9035,30.909400303637995
2503.2427,27.003145227743516
2504.5812,34.862472704286574
2505.919,30.787407737443573
2507.256,31.37797498277041
2508.5924,45.43419878794657
2509.9281,46.50610318687359
2511.2631,50.44371175911556
2512.5974,40.04704761917628
2513.9309,31.56613337712315
2515.2638,30.450991242555574
2516.596,45.40164310941327
2517.9275,35.41811056712504
2519.2583,46.70041475110793
2520.5884,26.948576442595822
2521.9178,29.362615955823458
2523.2465,35.59255333553892
2524.5745,13.088408332868767
2525.9018,18.900200343012784
2527.2284,38.92794863028848
2528.5543,24.021672270013823
2529.8796,40.181389948229025
2531.2041,37.5071201107603
2532.5279,44.548880801622545
2533.851,48.90668968975888
2535.1735,39.9805639986248
2536.4952,47.47052046261297
2537.8163,48.72657541630997
2539.1366,59.14874471959638
2540.4562,50.38704374509143
2541.7752,41.14148727392649
2543.0935,52.31208958336538
2544.411,62.24886453925956
2545.7279,65.90182548434086
2547.0441,63.92098513885412
2548.3596,67.20635556402704
2549.6744,67.70794818187869
2550.9885,71.87577374236525
2552.3019,64.55984231836555
2553.6146,79.61016326399886
2554.9266,95.92674528779162
2556.2379,76.5095963021663
2557.5485,81.3587232602813
2558.8585,74.9241323501983
2560.1677,78.55582894639292
2561.4762,74.25381767409863
2562.7841,80.81810237299351
2564.0913,79.74868614021898
2565.3977,87.74557126473428
2566.7035,93.20875923801486
2568.0086,96.68825067407943
2569.313,106.13404525486021
2570.6167,103.09614169540782
2571.9197,99.37453764943348
2573.222,99.96922973968822
2574.5236,99.5302135951788
2575.8246,93.20748384522221
2577.1248,108.6010341238325
2578.4244,120.9108571329507
2579.7232,120.83694448850702
2581.0214,115.12928659732461
2582.3189,146.43787265785795
2583.6157,135.51269071726892
2584.9118,133.55372735834362
2586.2072,134.06096780874168
2587.5019,138.38439596058788
2588.7959,143.97399436539627
2590.0893,142.17974419083885
2591.3819,143.75162516484988
2592.6739,134.0896155935652
2593.9652,153.9436923456069
2595.2557,134.01383094870107
2596.5456,147.9000053911377
2597.8348,160.85218832106966
2599.1234,146.77035090765094
2600.4112,142.85446271151523
2601.6983,161.75449182559214
2602.9848,151.77040491426828
2604.2705,152.0021670243882
2605.5556,168.99974168509152
2606.84,159.06309090549712
2608.1237,161.34217500472755
2609.4067,141.7869527112748
2610.689,143.54738114021075
2611.9707,153.7734159887391
2613.2516,143.1150115185901
2614.5319,146.772120453762
2615.8115,147.2946940871036
2617.0903,137.73268224374442
2618.3685,136.63603327586839
2619.6461,134.15469415833263
2620.9229,144.3386104996348
2622.199,158.73772656672736
2623.4745,156.50198518317757
2624.7493,131.0313275851763
2626.0234,137.52569344389804
2627.2968,156.5850211202037
2628.5695,154.15924759969903
2629.8415,149.29830830213996
2631.1128,142.40213710569174
2632.3835,140.67066639553673
2633.6535,139.4538271328363
2634.9228,147.80154887204458
2636.1914,152.56375977307835
2637.4593,133.89038651783835
2638.7265,139.13135426258896
2639.9931,153.4865868246925
2641.259,142.95600663019923
2642.5242,141.08953457029338
2643.7887,144.83709010660073
2645.0525,141.99859128985258
2646.3156,136.87395472240928
2647.5781,132.66309558664784
2648.8398,131.91592769620638
2650.1009,120.58236353809389
2651.3613,130.76231428015944
2652.6211,144.9556898844287
2653.8801,128.96239900530531
2655.1385,129.93234884763547
2656.3961,143.16544532664284
2657.6531,142.3115930582294
2658.9094,142.27069522664306
2660.1651,125.09265359301457
2661.42,157.02736849577036
2662.6743,145.57473902240963
2663.9279,164.13466269015908
2665.1808,143.50703556049825
2666.433,147.24175205356028
2667.6846,152.88870515440908
2668.9354,160.59778637569184
2670.1856,160.16888570117067
2671.4351,168.30189150862998
2672.6839,170.74669057416622
2673.9321,178.65316799085895
2675.1795,170.57120714432085
2676.4263,177.40068963363433
2677.6724,170.59149535216943
2678.9179,183.84350241929042
2680.1626,186.60658724844643
2681.4067,174.08062441465336
2682.6501,187.96548662686178
2683.8928,180.81104485321657
2685.1348,169.81716818220843
2686.3761,167.73372389421797
2687.6168,164.91057757145518
2688.8568,159.09759311879338
2690.0961,164.59463279200008
2691.3348,170.35155725586856
2692.5727,162.96822552924527
2693.81,157.59449492746103
2695.0466,149.9802211361657
2696.2826,156.72525826506535
2697.5178,163.17945892406397
2698.7524,162.19267415581385
2699.9863,166.9647533711718
2701.2195,161.49554435906975
2702.452,160.53489323879126
2703.6839,161.88264451466648
2704.9151,166.83864108567604
2706.1456,163.2527242319743
2707.3755,171.3747335653302
2708.6046,183.55450706498573
2709.8331,190.74188099643698
2711.0609,198.53668978963424
2712.2881,201.63876596710998
2713.5145,201.1479400660303
2714.7403,225.4640406071726
2715.9654,229.33689409983822
2717.1899,236.216324798688
2718.4136,249.00215466501504
2719.6367,265.044203297949
2720.8591,261.6922878065982
2722.0809,281.096222649629
2723.3019,281.6058196687852
2724.5223,299.5208878948499
2725.7421,304.04123354254784
2726.9611,292.4166598313941
2728.1795,289.5469669404936
2729.3972,282.3819521247856
2730.6142,267.77140974374015
2731.8306,253.86513133300878
2733.0462,240.4129057505304
2734.2612,228.5645193155924
2735.4756,200.51975594335545
2736.6892,194.77839726333627
2737.9022,173.14022289985473
2739.1145,155.65501052944637
2740.3262,138.77253609724607
2741.5372,138.64257399183793
2742.7475,124.86489721408111
2743.9571,121.7392773784104
2745.1661,96.86548485061326
2746.3744,90.24328877908374
2747.582,78.97245734356261
2748.7889,71.45275782135832
2749.9952,63.38395670005434
2751.2008,51.66581975270674
2752.4057,49.19811211853198
2753.61,54.6305984200892
2754.8136,40.41304278795792
2756.0165,41.19520880641198
2757.2188,40.3268596555954
2758.4204,27.70775810370219
2759.6213,29.787666515657065
2760.8215,32.2163469793079
2762.0211,37.64356128462805
2763.22,32.51907089942756
2764.4182,22.19263691508081
2765.6158,14.814020097770936
2766.8127,3.832980991756358
2768.009,6.399279993155687
2769.2045,10.11267745975806
2770.3994,0.47293368536179514
2771.5936,1.1798088626399021
2772.7872,0.883063179536066
2773.9801,-8.467543187801084
2775.1723,-15.872250072054612
2776.3639,-9.231212715151514
2777.5548,-10.09442779524261
2778.745,-15.511799770663174
2779.9346,-29.833132256415865
2781.1235,-26.258073904624325
2782.3117,-15.33597533442071
2783.4992,-16.315924846779126
2784.6861,-13.946857536279822
2785.8723,-2.8275455014168074
2787.0579,-1.6566215115751675
2788.2428,4.167309911037137
2789.427,12.54566079386359
2790.6106,10.029843122676994
2791.7935,26.471268757793496
2792.9757,28.82134945923235
2794.1573,36.28149672230029
2795.3382,51.10312175409149
2796.5184,68.33763539888628
2797.698,73.03644798993491
2798.8769,93.50096917711198
2800.0551,116.43260787992881
2801.2327,115.08277208288769
2802.4096,143.95286860616443
2803.5859,154.3943031191077
2804.7615,172.90847985153846
2805.9364,193.89680148933417
2807.1106,240.76066898928912
2808.2842,260.5014813692296
2809.4572,296.92063523937736
2810.6294,324.6195246049392
2811.801,360.3995405019175
2812.972,400.0620707201208
2814.1423,447.25849944536253
2815.3119,489.490206862838
2816.4808,537.3085686851573
2817.6491,581.9149557300293
2818.8167,627.2607334420779
2819.9837,675.997261446777
2821.15,713.1758930969931
2822.3157,751.4979749856238
2823.4807,807.9148465738051
2824.645,834.7778398076962
2825.8086,886.6382785543071
2826.9716,924.647478332872
2828.134,964.8567457962415
2829.2957,992.6673783507929
2830.4567,1020.3806637543346
2831.617,1026.7978798380032
2832.7767,1050.370294229129
2833.9358,1036.7491642870664
2835.0941,1025.5857368674672
2836.2519,1020.1812484584939
2837.4089,1004.73692529245
2838.5653,984.8039833998289
2839.7211,988.1836287637559
2840.8761,997.2770575193165
2842.0306,1028.7854559197601
2843.1843,1068.1100002455676
2844.3374,1119.6018564893643
2845.4899,1173.2121799626764
2846.6417,1253.8421147810104
2847.7928,1322.4927933277527
2848.9433,1411.415335447869
2850.0931,1500.610847761398
2851.2422,1574.6804227742264
2852.3907,1651.6251379861314
2853.5385,1706.4460551500897
2854.6857,1759.444219502826
2855.8323,1822.2706592166055
2856.9781,1860.0263848692528
2858.1233,1890.8123888158873
2859.2679,1945.429644811365
2860.4118,1983.529107702418
2861.555,2018.9617128814832
2862.6976,2053.628375905707
2863.8395,2085.4799921426197
2864.9808,2118.6174364234685
2866.1214,2122.4415627247017
2867.2614,2149.953203836594
2868.4007,2147.153171325004
2869.5393,2143.3922552562603
2870.6773,2177.8712242251586
2871.8146,2176.7908253925734
2872.9513,2159.501784140669
2874.0874,2179.6048040837018
2875.2227,2151.350567240912
2876.3574,2139.739733835491
2877.4915,2117.922942577126
2878.6249,2099.5008107781086
2879.7577,2084.023934571501
2880.8898,2045.4428890953582
2882.0212,2026.8082286474964
2883.152,2018.2704870713033
2884.2821,2004.7801779420843
2885.4116,1996.4377946524405
2886.5405,1995.243810547174
2887.6686,1992.5486790067102
2888.7962,2014.9528334590368
2889.923,2026.356687406656
2891.0493,2027.5606342025424
2892.1748,2041.7150469361025
2893.2997,2047.3202784211376
2894.424,2078.226661054299
2895.5476,2081.3845067590337
2896.6706,2106.5941066765254
2897.7929,2124.2557311341097
2898.9145,2178.869629393185
2900.0355,2169.5860294725894
2901.1559,2222.4551376024683
2902.2756,2259.327138317107
2903.3946,2297.702193926238
2904.513,2307.7804441463254
2905.6308,2347.3620057168114
2906.7479,2369.2469722993333
2907.8643,2399.28541408191
2908.9801,2387.1773775600896
2910.0953,2403.022885236569
2911.2098,2413.02193574227
2912.3236,2399.224503677887
2913.4368,2401.580539513895
2914.5494,2382.539969728525
2915.6613,2339.102696784204
2916.7725,2339.5685993179586
2917.8831,2282.137532575789
2918.9931,2268.209328408012
2920.1024,2247.0837958435686
2921.211,2233.210721229308
2922.319,2206.789868441241
2923.4264,2189.470979023273
2924.5331,2173.0537724514097
2925.6391,2164.1879463069504
2926.7445,2153.0731764406546
2927.8493,2150.9591170614035
2928.9534,2143.045400847347
2930.0569,2124.231638967045
2931.1597,2136.0174211586027
2932.2619,2121.202315917812
2933.3634,2110.135870380288
2934.4643,2119.4176104696244
2935.5645,2090.4470410080567
2936.6641,2055.873645623645
2937.763,2009.8468870399806
2938.8613,1964.566207421919
2939.959,1911.031028835846
2941.056,1826.0407537024857
2942.1523,1751.9947653322533
2943.248,1657.6924287751558
2944.3431,1545.8330915612532
2945.4375,1468.016084643683
2946.5313,1363.4407235172507
2947.6244,1263.806308996603
2948.7169,1154.7621282619807
2949.8087,1061.5574558555609
2950.8999,979.6915547719002
2951.9904,906.2636773899801
2953.0803,837.8730662918688
2954.1696,768.9689549969971
2955.2582,721.3505686460653
2956.3462,671.6671246900851
2957.4335,634.9178333665627
2958.5202,607.5018981963342
2959.6062,577.818516351057
2960.6916,563.3168789273695
2961.7764,542.3961712437258
2962.8605,533.305572985412
2963.9439,532.1442584137528
2965.0267,523.2113964570171
2966.1089,513.6561507220324
2967.1905,518.8776795835126
2968.2714,520.7751362796109
2969.3516,525.6976688597035
2970.4312,520.5944201654169
2971.5102,526.6645277814006
2972.5885,530.157124086361
2973.6662,528.5213361923602
2974.7432,533.8062859098897
2975.8196,524.211089764227
2976.8954,515.3848589425874
2977.9705,514.3766993900749
2979.045,497.135711897947
2980.1188,480.4609921136931
2981.192,471.10163071344743
2982.2645,453.85671356873354
2983.3364,434.7253218400597
2984.4077,403.55653214936603
2985.4783,375.3994167713406
2986.5483,346.1530439451059
2987.6177,323.21647815579047
2988.6864,291.4887804269928
2989.7545,262.8690085501463
2990.8219,231.85621740179784
2991.8887,199.2494592298051
2992.9548,175.59778396346314
2994.0204,158.8002395395731
2995.0852,130.75587213895858
2996.1495,113.01372635444056
2997.2131,98.92284547128145
2998.276,78.88227164460739
2999.3383,53.84104604031518
3000.4,47.248209035479704
3001.4611,28.102800468765167
3002.5215,21.853859706354456
3003.5812,6.900425833402778
3004.6404,10.691537716526454
3005.6989,4.276234153338578
3006.7567,-3.7964461654628394
3007.8139,-6.777464591942703
3008.8705,-7.41774455166933
3009.9264,-10.61814176334019
3010.9818,-18.32943784238421
3012.0364,-10.0023083289949
3013.0905,-7.0372456522816265
3014.1439,-3.034642318294459
3015.1966,-10.194820530999209
3016.2487,-3.5180721782860473
3017.3002,-4.454587301787797
3018.3511,4.495479202403317
3019.4013,12.432016939522327
3020.4509,17.704915469849993
3021.4998,19.7140642293474
3022.5481,26.459352476925687
3023.5958,36.390669274356924
3024.6428,37.65790341881984
3025.6892,52.7109433435877
3026.735,52.199677105353885
3027.7802,54.973992233702916
3028.8247,63.23377573622258
3029.8685,69.0789140707601
3030.9118,76.20929306282585
3031.9544,81.87479784714151
3032.9963,92.07531279633588
3034.0376,91.31072146429005
3035.0783,108.58090648413213
3036.1184,115.5357495758833
3037.1578,123.37513137375629
3038.1966,132.74893135660625
3039.2348,136.60702776953792
3040.2723,131.89929753016668
3041.3092,140.22561619003852
3042.3455,144.03585798170718
3043.3811,136.47989573547022
3044.4161,137.25760084126728
3045.4505,140.71884332423906
3046.4842,132.2634918369506
3047.5173,130.5414136247789
3048.5498,136.55247461046633
3049.5816,128.84653941134184
3050.6128,124.22347127920932
3051.6434,127.68313217740786
3052.6734,123.87538282704247
3053.7027,118.75008267238763
3054.7314,112.6070899189641
3055.7594,105.94626158479252
3056.7868,115.9174535618231
3057.8136,116.07052068254336
3058.8398,110.55531662026715
3059.8653,100.37169388760265
3060.8902,95.51950389160561
3061.9145,103.39859703561456
3062.9381,103.05882276777356
3063.9612,100.70002950224102
3064.9835,93.42206462258707
3066.0053,86.72477450538236
3067.0264,90.00800459297648
3068.0469,73.42159946047195
3069.0668,80.0654027828914
3070.086,82.13925750104158
3071.1046,77.69300575507589
3072.1226,69.62648886375558
3073.1399,60.389547368912304
3074.1567,52.832021116113026
3075.1727,49.853749347029634
3076.1882,45.20457077501351
3077.203,31.734323614878974
3078.2173,38.34284562939462
3079.2308,30.129974263986412
3080.2438,34.995546580651705
3081.2561,24.03939934008838
3082.2678,13.511368953039096
3083.2789,23.961291589852294
3084.2893,12.789003285762988
3085.2991,5.094339836393203
3086.3083,6.727136909475064
3087.3169,6.637230121797359
3088.3248,9.974455022878033
3089.3321,-3.011352904137368
3090.3388,-1.2203582758472749
3091.3449,2.947304374564908
3092.3503,8.041512705294963
3093.3551,-1.0378556549344466
3094.3593,-5.290923157815769
3095.3629,-6.767801886863651
3096.3658,-0.5185510692707567
3097.3681,-1.543162321888758
3098.3698,-1.041622081244384
3099.3708,1.9860986323271845
3100.3713,-3.5099607957046146
3101.3711,-3.0297609997310815
3102.3702,-4.423227549635669
3103.3688,4.3097442520107165
3104.3667,-3.0806967093196818
3105.364,-1.444401591252074
3106.3607,4.618809224748361
3107.3568,6.209129786788253
3108.3522,-0.2232459032134102
3109.347,4.721876094571144
3110.3412,6.544691950196238
3111.3348,16.395397786497426
3112.3277,11.574189660863851
3113.32,13.731263466730638
3114.3117,13.266814981791299
3115.3028,9.531039846427007
3116.2932,13.074133568351101
3117.2831,17.646291559966414
3118.2723,16.397709102934584
3119.2608,27.62858130245462
3120.2488,18.73910309974849
3121.2361,21.929469159752387
3122.2229,18.749873960011996
3123.209,24.850511758778282
3124.1944,19.831576626803894
3125.1793,24.14326238633646
3126.1635,23.185762661308047
3127.1471,33.90927083421832
3128.1301,30.063980055710203
3129.1125,35.05008313733384
3130.0942,33.767772589999936
3131.0753,35.76724057411843
3132.0558,33.398678912421644
3133.0357,39.91227906996983
3134.015,35.758232177836305
3134.9936,35.68672896797176
3135.9716,35.647959814744524
3136.949,44.592114735655514
3137.9258,36.519383391726365
3138.902,40.829954998057644
3139.8775,40.77401840455627
3140.8524,45.25176205282966
3141.8267,46.46337397674492
3142.8004,47.9590417576519
3143.7735,52.68895251226698
3144.7459,52.05329287771596
3145.7178,52.00224896423549
3146.689,51.78600636152942
3147.6596,52.25475013927908
3148.6295,54.00866484930597
3149.5989,60.94793452088416
3150.5676,59.72274264320117
3151.5357,53.43327209596532
3152.5032,65.9797051616577
3153.4701,61.76222358842648
3154.4364,61.631008464622994
3155.402,64.23624026097627
3156.367,62.728098831905584
3157.3315,64.30676338946773
3158.2952,66.97241251843857
3159.2584,64.47522416052647
3160.221,66.31537558771558
3161.1829,68.09304342723783
3162.1442,71.1084036431715
3163.105,68.36163151866447
3164.065,77.1529016257808
3165.0245,72.68238785296813
3165.9834,74.20026331714519
3166.9416,80.60670040840697
3167.8993,80.60187077484574
3168.8563,83.68594525848687
3169.8127,82.70909389533702
3170.7684,76.57148588454348
3171.7236,79.32328959816275
3172.6782,85.11467264253645
3173.6321,92.74580183077336
3174.5854,87.86684312483578
3175.5381,85.97796155922802
3176.4902,91.42932128978597
3177.4417,89.32108561256607
3178.3926,93.45341690933162
3179.3428,93.92647666863519
3180.2924,97.24042544449523
3181.2415,94.44542285166554
3182.1899,93.04162753249565
3183.1377,101.27919718488104
3184.0848,102.20828857630079
3185.0314,101.32905746144226
3185.9773,101.49165857290983
3186.9227,104.54624563001755
3187.8674,106.39297133716289
3188.8115,109.68198735328102
3189.755,108.31344427337737
3190.6979,107.4874915956377
3191.6402,109.10427773511331
3192.5818,110.36395003198062
3193.5229,114.7166547353735
3194.4633,115.21253699078623
3195.4031,120.05174079654668
3196.3423,120.73440899885733
3197.2809,117.21068324340337
3198.2189,118.93070396852589
3199.1563,119.44461044045917
3200.0931,122.80254073613051
3201.0292,118.45463173802113
3201.9648,126.90101910058691
3202.8997,124.24183729373738
3203.834,127.42721951837198
3204.7677,132.50729773297172
3205.7008,132.08220262174558
3206.6333,134.15206354382937
3207.5652,132.31700853753722
3208.4964,131.4771642996625
3209.4271,133.98265620382858
3210.3571,136.9336083088872
3211.2865,141.83014333386353
3212.2154,137.97238262844678
3213.1436,146.5604461240247
3214.0712,141.54445237226125
3214.9982,148.87451845921603
3215.9246,139.0507600555041
3216.8503,148.67329134299527
3217.7755,147.74222511305197
3218.7001,153.6076726703036
3219.624,148.21974384195738
3220.5473,153.57854691914383
3221.4701,150.83418871079598
3222.3922,155.68677449006154
3223.3137,158.63640802174618
3224.2346,160.43319151378796
3225.1549,158.42722558776077
3226.0746,158.8186092609067
3226.9937,159.85743996619553
3227.9121,165.74381354841097
3228.83,164.2278242537623
3229.7473,168.4095646710207
3230.6639,173.68912574667908
3231.5799,167.01659674313467
3232.4954,174.04206518589356
3233.4102,172.86561693029572
3234.3244,170.03733609126058
3235.238,170.05730505505133
3236.151,177.12560450755788
3237.0634,175.34231343409712
3237.9752,178.0575090487298
3238.8864,174.37126681209355
3239.797,183.73366040425097
3240.7069,183.5947617615518
3241.6163,181.5546409830094
3242.5251,185.2633663316892
3243.4332,187.07100425511058
3244.3408,190.627619348159
3245.2477,184.93327433500994
3246.154,188.7880300335627
3247.0598,192.49194541238384
3247.9649,190.39507755215956
3248.8694,194.49748160865664
3249.7733,194.299210833691
3250.6766,201.70031653410385
3251.5793,197.65084807374416
3252.4814,196.35085279945778
3253.3829,196.30037608158202
3254.2838,198.54946132694562
3255.1841,203.9481499793735
3256.0838,202.146481497196
3256.9829,202.94449329926192
3257.8814,206.24222078295523
3258.7792,205.23969731621494
3259.6765,206.88695420455787
3260.5731,211.2840207011037
3261.4692,208.7809239901027
3262.3647,204.27768914296468
3263.2595,210.77433914329032
3264.1538,210.17089493190323
3265.0474,211.0673753418837
3265.9404,205.6637971046029
3266.8329,208.41017484075846
3267.7247,209.3565211144099
3268.616,209.30284640551497
3269.5066,208.9991591004661
3270.3966,210.39546549262718
3271.286,209.94176978537058
