RamanShift,CorrectedData
30.1047,579.7662930012158
32.3739,540.4261948913901
34.6426,500.08609098390144
36.9109,461.14597007682494
39.1787,423.4058159673747
41.4461,380.2156078413049
43.7131,343.1753206503116
45.9796,304.8849255439346
48.2456,265.39439023996016
50.5112,227.10367940732482
52.7764,186.71275506102148
55.0411,147.97157694500598
57.3054,109.03010293610654
59.5692,75.53828943143563
61.8326,35.096091737804514
64.0955,-2.546535593358314
66.3579,-38.23963836158535
68.6199,-72.28326234094366
70.8815,-107.52707129151318
73.1426,-123.57000686358305
75.4032,-110.30993651200029
77.6634,-24.893493227243653
79.9231,239.28379199647367
82.1824,867.4766368509363
84.4412,1960.6897566350901
86.6995,3490.327857973116
88.9574,5007.445627882296
91.2148,6150.8977184766345
93.4717,6764.53873179568
95.7282,6958.323208370004
97.9842,7018.055621084789
100.2398,6976.290373241988
102.4949,6923.8317979629965
104.7495,6868.934158606308
107.0036,6785.1016492921
109.2573,6714.738395451202
111.5105,6637.248454663438
113.7632,6521.935817361238
116.0154,6441.354407604555
118.2672,6359.558084233982
120.5185,6245.95064167657
122.7693,6165.185810763785
125.0197,6075.017259867593
127.2696,5983.148595708097
129.519,5939.733364255229
131.7679,5878.675051647437
134.0163,5821.377084625832
136.2642,5776.842831144782
138.5117,5737.675600944881
140.7587,5677.528645998292
143.0052,5617.855160900428
145.2512,5531.3582834714125
147.4967,5449.741095352819
149.7417,5368.656622872638
151.9863,5304.25783786145
154.2304,5256.247658463268
156.4739,5172.478949779531
158.717,5141.904524349197
160.9596,5102.127142986441
163.2017,5062.749515086384
165.4433,5021.924299022885
167.6844,4960.904102542303
169.925,4922.691483171757
172.1651,4808.238948829324
174.4047,4743.398958206167
176.6439,4684.723921911061
178.8825,4613.46620311879
181.1206,4536.128118156898
183.3582,4503.9619372182715
185.5954,4458.169885134511
187.832,4389.454141697602
190.0681,4377.966842117831
192.3037,4333.160077710947
194.5388,4290.73589601303
196.7734,4279.79630122856
199.0075,4237.443254654661
201.2411,4231.2786747904975
203.4742,4203.304437760794
205.7068,4198.9223773775
207.9389,4145.884285419515
210.1704,4139.24191167652
212.4015,4097.546964479351
214.632,4069.0511107664292
216.862,4040.0059765007068
219.0915,3978.0131469546245
221.3205,3960.524167000566
223.549,3952.1405417307833
225.777,3902.6137366322864
228.0044,3868.3951776706826
230.2314,3818.386251785441
232.4578,3769.038307232082
234.6837,3713.7026540822644
236.909,3703.830564717267
239.1339,3644.2232743813406
241.3582,3582.181981280436
243.582,3530.2078471782725
245.8053,3547.301998016749
248.0281,3504.365524435686
250.2503,3459.9994816018825
252.472,3435.4048896384857
254.6932,3412.3827340686476
256.9139,3371.833966061477
259.134,3310.9595026622533
261.3536,3287.8102271979164
263.5727,3260.4369898858154
265.7912,3242.8906080651964
268.0092,3263.171866470939
270.2267,3261.8815174090187
272.4436,3248.3702805536896
274.6601,3248.3888429603935
276.8759,3200.7878592008733
279.0913,3194.7679513629796
281.3061,3171.3797095266914
283.5204,3172.3736918243044
285.7341,3141.650424674325
287.9473,3121.510402771518
290.16,3088.604089394149
292.3721,3036.38191660538
294.5837,2995.844285582335
296.7947,2931.0915671383214
299.0052,2879.8741021282076
301.2152,2834.6922020959473
303.4246,2800.596149786756
305.6334,2739.4361995989284
307.8418,2713.6625779248034
310.0495,2644.875483762361
312.2568,2600.125088972959
314.4635,2520.2115389692003
316.6696,2462.334953162441
318.8752,2382.045425761919
321.0802,2354.3430263535292
323.2847,2322.777800702711
325.4887,2261.6997710314763
327.692,2245.8589363340657
329.8949,2239.105272987719
332.0972,2221.4887349110872
334.2989,2237.509253631774
336.5001,2192.266738462492
338.7007,2163.3610763408665
340.9008,2122.4421322818534
343.1003,2048.6597496668046
345.2992,1971.9637506526487
347.4976,1939.6539369097236
349.6955,1889.5300903887282
351.8927,1842.7419736438278
354.0895,1777.539330333887
356.2856,1764.521885690353
358.4812,1743.4393471692847
360.6763,1757.7914045815232
362.8707,1709.2777303035182
365.0646,1671.4979791338083
367.258,1646.251788778155
369.4508,1612.2887802273444
371.643,1626.7585580096465
373.8346,1575.660710530442
376.0257,1603.5448099275318
378.2162,1603.660412582106
380.4062,1594.7570588399103
382.5956,1527.4342730100916
384.7844,1503.2415634542285
386.9726,1410.778423259555
389.1603,1376.7443304808949
391.3474,1322.588749065295
393.5339,1325.7111291923557
395.7199,1278.410907815798
397.9052,1282.787508632231
400.09,1274.2903425541535
402.2743,1273.2688076661943
404.4579,1281.1722893100823
406.641,1296.6001600948557
408.8235,1322.2517798178378
411.0054,1339.5764953103553
413.1868,1427.773640181218
415.3675,1499.7425346434766
417.5477,1500.782484632443
419.7273,1421.6927810860107
421.9064,1277.8226999342496
424.0848,1181.1215028903052
426.2627,1135.0384388890934
428.4399,1073.4727450543196
430.6166,984.0236471593034
432.7928,930.640360242639
434.9683,862.8720895026863
437.1432,826.1680308314053
439.3176,770.3773714920399
441.4914,732.6992904861545
443.6645,746.0829591115426
445.8371,689.9775413390071
448.0091,682.382193678528
450.1806,653.046065740311
452.3514,622.518300310745
454.5216,594.998033645762
456.6913,586.8343957761117
458.8603,556.9765107825642
461.0288,552.8734968775489
463.1967,542.6744667037292
465.3639,527.6785273750384
467.5306,505.08478057866523
469.6967,476.9423227250145
471.8622,447.9502451736462
474.0271,433.10763451469484
476.1914,422.5635728588022
478.3551,404.56713798552937
480.5182,402.41740344881146
482.6807,418.1634387569093
484.8426,426.3543093939152
487.0039,424.0390766622904
489.1647,444.2167976009523
491.3248,494.88652500843
493.4843,495.8473072410861
495.6432,485.79818770642123
497.8015,417.88820485346787
499.9592,423.01639227327723
502.1163,381.63177937802084
504.2728,328.43339134970756
506.4287,322.6702495540294
508.5839,283.49137207234435
510.7386,283.6457737593091
512.8927,271.7824666346678
515.0461,263.80045988170605
517.199,270.19875996589053
519.3512,282.8263707146916
521.5029,295.83229325359025
523.6539,362.11552587980896
525.8043,351.87506393224976
527.9541,330.1098991286599
530.1033,276.46901966804216
532.2519,243.7014104482987
534.3999,216.40605360264908
536.5472,207.73192882730018
538.694,213.07801365439718
540.8401,217.74328353877263
542.9856,222.77671180448306
545.1305,217.9272695981499
547.2748,235.29392583863228
549.4185,222.3756472655141
551.5615,234.1713982654428
553.704,253.78014100130713
555.8458,231.7008352942903
557.987,261.4824384277699
560.1276,273.22390536811963
562.2675,321.27418846689307
564.4069,345.5322373434019
566.5456,375.9969984042218
568.6837,361.76741460060475
570.8212,307.5424251238401
572.958,253.37096554754498
575.0942,222.75196836991017
577.2299,205.53436355542726
579.3648,162.46707884107036
581.4992,125.84903990846942
583.6329,121.829170814588
585.766,111.50639435789981
587.8985,120.67963211859296
590.0304,130.54780456179105
592.1616,166.50983094582534
594.2922,169.3146292235515
596.4222,144.41111568273118
598.5515,106.99820491798073
600.6802,72.02481007980987
602.8083,31.239843248748002
604.9358,6.841496977473071
607.0626,-9.47234826737531
609.1888,-10.553880365715486
611.3144,7.944807431294976
613.4393,24.72172730575585
615.5636,62.32481207114142
617.6873,114.50174757086916
619.8103,135.00021902510798
621.9327,148.11791050901593
624.0544,129.5025047477502
626.1756,89.05168298529043
628.2961,48.71312517059505
630.4159,42.33451036211227
632.5351,24.663517131157278
634.6537,26.397823625700767
636.7716,30.184861605175684
638.8889,31.37179911475141
641.0056,44.05580389775514
643.1216,33.484043383795324
645.237,82.05368456192718
647.3518,33.16189408637001
649.4659,40.40583779080589
651.5793,17.632681177302402
653.6922,12.089589343868283
655.8043,7.2737272121939895
657.9159,-0.3177404169318834
660.0268,-3.7876488154533945
662.137,-11.588830081094784
664.2466,-12.774078472964902
666.3556,-10.59607247776421
668.4639,-20.85736296914729
670.5716,-23.81039496601261
672.6786,8.442594877803458
674.785,-29.700392225699034
676.8907,-29.291355148940966
678.9958,-18.48199605742593
681.1002,-25.723724496021532
683.204,-21.217765374462033
685.3072,-21.615086622472518
687.4097,-30.016444204305117
689.5115,-12.022378149498763
691.6127,5.516871376679774
693.7132,-17.848935670808714
695.8131,-11.970039392165745
697.9123,-1.6966797091072294
700.0109,16.070903576355704
702.1089,19.182470679184007
704.2061,7.937781653628917
706.3028,37.986596362124146
708.3987,79.47867458772089
710.4941,77.51377573360969
712.5887,89.0416584081986
714.6827,100.61208044475734
716.7761,104.07479878614049
718.8688,103.87956936908813
720.9608,115.12614708959245
723.0522,122.31428580485408
725.1429,116.49373822081452
727.233,157.06425582027532
729.3224,202.3255889211041
731.4112,250.1774862705288
733.4993,282.46969459252705
735.5867,237.151958109298
737.6735,184.0740182183481
739.7596,149.98561394566696
741.845,147.48648247650726
743.9298,138.02635949626801
746.014,158.0049792154814
748.0974,188.42207446441898
750.1802,186.72737649330884
752.2624,179.82061466815594
754.3439,147.85151648769352
756.4247,137.81980765245135
758.5048,117.52521238445024
760.5843,111.01745352751186
762.6631,123.99625275020753
764.7413,169.8113306109335
766.8188,226.16240642812772
768.8956,244.6491978221129
770.9718,298.92142015159334
773.0473,300.47878632877746
775.1221,288.1710062766697
777.1962,270.3477869134822
779.2697,292.2088322757236
781.3426,360.953843696424
783.4147,422.632519586532
785.4862,437.29455474745737
787.557,385.0896397542874
789.6271,270.71746080916546
791.6966,200.0277002633402
793.7654,128.82003776088732
795.8335,94.24415094560754
797.901,73.4497161731042
799.9678,69.43640885653895
802.0339,76.90390367458167
804.0993,83.00187461153837
806.1641,77.92999488267469
808.2282,59.137936873240506
810.2916,58.57537218918878
812.3544,40.64197184509612
814.4164,38.83740626978579
816.4778,57.41134548566515
818.5385,78.01345912676425
820.5986,96.1934162530033
822.658,133.6508851441722
824.7166,154.98553311812793
826.7747,225.4970261562239
828.832,285.8350286899595
830.8886,310.44920289586935
832.9446,352.73920809214314
834.9999,322.8047004924806
837.0545,286.4453327831907
839.1085,250.36075442253832
841.1618,212.1506120043391
843.2143,153.96454961880136
845.2662,124.20220923463239
847.3175,109.61323128089589
849.368,100.24725494463473
851.4179,119.80391831676434
853.467,98.28285848572841
855.5155,114.43371134193285
857.5633,115.3061117929592
859.6105,120.09969360205378
861.6569,112.3640893794045
863.7027,108.04893053420074
865.7478,101.70384735199241
867.7922,121.67846903783993
869.8359,78.27242377976836
871.8789,100.18533854901716
873.9212,104.36683953410147
875.9629,97.96655192168873
878.0039,107.5840998547801
880.0441,122.26910649671072
882.0837,133.32119393498442
884.1226,159.83998303441285
886.1609,164.62509332660147
888.1984,230.67614274475818
890.2352,272.1427475758396
892.2714,268.374521800044
894.3069,295.47107667614546
896.3416,232.88202077917185
898.3757,213.50695972944368
900.4091,209.04549681846265
902.4418,186.69723320266394
904.4739,181.51176794803132
906.5052,210.08869825357806
908.5358,218.92761950320073
910.5658,202.02812497991
912.595,199.5898057774416
914.6236,178.41225096925564
916.6515,152.0950476329158
918.6786,136.23778106186637
920.7051,146.59003502860378
922.7309,140.80139194324693
924.756,130.0714327500159
926.7804,138.39973698512085
928.8041,126.63588288405754
930.8272,150.97944729832716
932.8495,147.33000581307397
934.8711,168.63713250365163
936.892,150.6003999721138
938.9123,162.96937913414604
940.9318,182.1436393994304
942.9506,197.27274854795814
944.9688,204.70627253828616
946.9862,184.49377535624353
949.003,146.9848189406007
951.019,130.32896338519095
953.0344,115.07576731400013
955.0491,135.02478804772818
957.063,134.47558175631548
959.0763,122.52770325945858
961.0888,124.3307060320999
963.1007,122.78414232390833
965.1119,138.28756314124848
967.1223,122.24051826264531
969.1321,119.79255608374888
971.1412,117.49322377780663
973.1495,122.89206732014145
975.1572,121.08863151114429
977.1641,136.68245992228503
979.1704,133.07309491415026
981.1759,130.86007748050224
983.1808,122.34294728437317
985.1849,96.32124268019334
987.1884,110.39450079896596
989.1911,122.66225780848436
991.1932,119.42404877259878
993.1945,113.12940752853774
995.1951,127.37786671929325
997.1951,119.01895785656552
999.1943,111.85221117827541
1001.1928,112.827155732155
1003.1906,96.84331944741871
1005.1877,124.50022912501026
1007.1841,140.9974105974443
1009.1798,153.98438845223245
1011.1748,154.11068586691863
1013.1691,126.47582447920104
1015.1627,108.37932438567714
1017.1556,75.27070441818614
1019.1477,66.84948232477564
1021.1392,54.01517510078975
1023.1299,33.71729907307554
1025.12,37.105370028330526
1027.1093,46.178903416081994
1029.0979,30.037414314803755
1031.0859,53.780417341180055
1033.0731,61.20742681152433
1035.0596,64.9679565043457
1037.0454,68.01151958608125
1039.0304,34.48762857348811
1041.0148,21.74579530320989
1042.9985,4.435531267015449
1044.9814,11.756347739219109
1046.9636,-4.742244050216868
1048.9452,0.4892670111071311
1050.926,0.9003920830159586
1052.9061,24.690642320440475
1054.8855,38.459528869311725
1056.8642,28.056562628653865
1058.8421,31.331254112898023
1060.8194,30.18311355591004
1062.7959,32.3616508782452
1064.7717,24.816375698627326
1066.7469,32.59679731216693
1068.7213,22.10242476581061
1070.695,50.28276678053817
1072.6679,53.28733185630608
1074.6402,87.46562799024377
1076.6117,78.26716264660945
1078.5826,80.34144241500553
1080.5527,55.03797310236405
1082.5221,35.706259712203064
1084.4908,6.095806697664102
1086.4587,-8.693881845173564
1088.426,-14.863301881188363
1090.3925,-9.312949288318123
1092.3584,-0.9431714601164458
1094.3235,7.095777246226135
1096.2879,8.153642482952819
1098.2515,20.880169831348212
1100.2145,43.27510479116245
1102.1767,57.73819265334487
1104.1382,84.21917827609514
1106.099,145.41780594023385
1108.0591,165.83381908439014
1110.0185,196.46695969301481
1111.9771,225.16696809222276
1113.9351,248.0835826434618
1115.8923,291.0665394565103
1117.8488,314.6655721603106
1119.8045,279.4304114731426
1121.7596,223.81078496663167
1123.7139,164.90641741810077
1125.6675,126.26703136676588
1127.6204,114.5923477027809
1129.5726,129.38208605362843
1131.524,141.28596490087102
1133.4748,119.65370143225255
1135.4248,72.68501142265677
1137.3741,51.72960945043178
1139.3226,22.837209367075502
1141.2705,28.807524506788468
1143.2176,15.490267975402276
1145.164,24.585152590674625
1147.1097,33.09189101546099
1149.0546,40.86019566676532
1150.9989,11.98977863067421
1152.9424,1.530351584672644
1154.8852,-21.318373913652522
1156.8272,-9.556686322014684
1158.7686,-9.43466112757551
1160.7092,12.297721653799726
1162.6491,-5.359423741491355
1164.5883,1.4940167999725418
1166.5267,7.308210932258135
1168.4644,29.683326294493327
1170.4014,36.41953045272203
1172.3377,76.71699067615782
1174.2732,104.12587386981795
1176.2081,180.64634617155525
1178.1421,252.1785726779599
1180.0755,349.77271667916284
1182.0082,404.2289389435077
1183.9401,391.5473967416142
1185.8713,336.62824330181274
1187.8017,246.5216279369588
1189.7315,180.62769659363357
1191.6605,110.746592753198
1193.5888,79.8284580907407
1195.5163,56.423433173883495
1197.4432,42.881657771967184
1199.3693,35.40327109009195
1201.2947,20.73841190454641
1203.2193,-13.06278136241599
1205.1432,1.0498295040747507
1207.0664,1.2265132160737267
1208.9889,-7.332472002161467
1210.9106,-1.7268801792429258
1212.8316,-14.156392092392252
1214.7519,13.379328732701197
1216.6715,20.830760192703565
1218.5903,22.998380050488322
1220.5084,36.082665860621546
1222.4257,44.88409494768621
1224.3424,39.00314427544026
1226.2583,53.69029035880203
1228.1735,84.79600932266067
1230.0879,100.57077675500204
1232.0016,128.21506739585266
1233.9146,141.72935497953176
1235.8269,159.014111958209
1237.7384,179.41980936676282
1239.6492,168.39691664993097
1241.5592,182.19590145825487
1243.4686,215.6672297583077
1245.3772,247.36136569470318
1247.285,306.82877125538516
1249.1922,358.06990595468505
1251.0986,430.78522623864774
1253.0042,466.57518497261935
1254.9092,528.6402307140961
1256.8134,586.4308073548223
1258.7169,660.5473535001393
1260.6196,714.8403018910824
1262.5216,721.4100786632127
1264.4229,723.1571028036917
1266.3234,701.83178608558
1268.2232,655.834533050368
1270.1223,617.615741221229
1272.0207,605.8258015629901
1273.9183,594.465098864322
1275.8151,587.2340118556392
1277.7113,616.8329133227048
1279.6067,679.3621701789443
1281.5014,767.9221431694532
1283.3953,895.063186245706
1285.2885,1037.7856456799577
1287.181,1152.4898587938335
1289.0727,1207.5761525311025
1290.9637,1171.3448423106356
1292.854,1114.546231475544
1294.7435,1026.280611655492
1296.6323,940.4982633346817
1298.5204,868.249456734512
1300.4077,812.3844526713997
1302.2943,775.0035032792696
1304.1802,756.806852568202
1306.0653,727.8447367982435
1307.9497,714.617384661374
1309.8333,701.3250175711255
1311.7162,669.7678497948575
1313.5984,648.4960885866783
1315.4798,644.8599345030195
1317.3605,637.4095816153554
1319.2405,647.0952175465582
1321.1197,635.4170235454071
1322.9982,612.52517438973
1324.876,581.1198385031826
1326.753,511.30117818417216
1328.6293,454.1193499199078
1330.5048,395.2745050845881
1332.3796,343.3167905112168
1334.2537,300.2463490800551
1336.127,273.91332023819655
1337.9996,249.9178404302711
1339.8714,220.11004336177825
1341.7426,222.24006023903848
1343.6129,221.0080200672744
1345.4826,199.914049629308
1347.3515,203.15827349788174
1349.2196,183.19081424659703
1351.087,186.2117924174745
1352.9537,191.77132672062748
1354.8197,194.5695340040536
1356.6849,204.55652919803651
1358.5493,212.23242528716514
1360.4131,230.5973332104636
1362.276,249.85136178463176
1364.1383,267.5446175203974
1365.9998,285.3272044299756
1367.8606,289.0992238501358
1369.7206,284.61077426437555
1371.5799,290.46195126520183
1373.4384,285.10284759901515
1375.2962,280.5335531075973
1377.1533,237.40415478170144
1379.0096,188.26473680674735
1380.8652,174.1153809941129
1382.7201,173.30616727253027
1384.5742,149.28717382957893
1386.4275,116.80847711977663
1388.2802,104.57015210477061
1390.132,98.2722725781241
1391.9832,88.31491128769903
1393.8336,85.09813999863604
1395.6832,74.62202959292745
1397.5322,80.93665010158611
1399.3803,63.392070809403776
1401.2278,50.68836019180708
1403.0745,63.42558609030334
1404.9204,56.30381583951612
1406.7656,54.173116139814056
1408.6101,49.233553128528
1410.4538,42.48519240126075
1412.2968,35.67809906127786
1414.139,45.362337786994885
1415.9805,43.28797290004786
1417.8213,68.15506826844944
1419.6613,77.86368732733285
1421.5006,97.26389283028175
1423.3391,117.60574675224439
1425.1769,153.4893100955303
1427.0139,200.11464268639293
1428.8502,255.43180281619266
1430.6858,307.7908467751447
1432.5206,329.5918282991454
1434.3547,336.1847980461846
1436.188,317.1698033783339
1438.0206,317.146888295817
1439.8524,310.8660936271617
1441.6835,318.8774570294256
1443.5139,308.93101305100527
1445.3435,309.4267930515239
1447.1724,325.76482530129533
1449.0005,309.84513497636567
1450.8279,315.21774399513447
1452.6545,312.6326711775496
1454.4804,311.78993219138283
1456.3056,307.43953957808117
1458.13,306.9315027611924
1459.9536,296.1158280898694
1461.7766,271.3925188439505
1463.5987,246.1115753421143
1465.4202,224.47299518911655
1467.2409,190.876773528596
1469.0608,169.42290325946215
1470.88,145.71137537185814
1472.6984,138.6921791616985
1474.5161,119.76530246778589
1476.3331,114.78073174200154
1478.1493,97.28845223857411
1479.9648,101.53844806392704
1481.7795,111.43070235159962
1483.5935,105.71519721974778
1485.4067,99.24191367222102
1487.2192,105.41083165571786
1489.031,115.07193012451944
1490.842,107.47518697879786
1492.6522,124.37057896800798
1494.4618,123.90808176685277
1496.2705,114.13766980633045
1498.0785,116.85931627835976
1499.8858,116.97299323348307
1501.6924,103.07867155365079
1503.4981,102.27632095108197
1505.3032,109.01591010721063
1507.1075,116.34740668070776
1508.911,102.47077724008682
1510.7138,107.8359871903865
1512.5159,87.99300091194004
1514.3172,88.0917817067209
1516.1178,92.18229199677239
1517.9176,96.46449332322209
1519.7166,83.58834630537422
1521.515,85.40381059789047
1523.3126,69.76084501954779
1525.1094,75.75940753508598
1526.9055,58.349455411637564
1528.7008,62.430945158741
1530.4954,62.603832702439604
1532.2893,70.96807334446703
1534.0824,63.57362176051993
1535.8747,65.37043191661587
1537.6663,67.7584571430375
1539.4572,60.087650116363875
1541.2473,55.057962835588796
1543.0367,52.51934669882985
1544.8253,56.62175255362399
1546.6132,68.96513072231505
1548.4003,68.94943096102907
1550.1867,91.92460233624297
1551.9723,85.0905932249384
1553.7572,102.69735108485202
1555.5414,101.2448225228161
1557.3247,122.78295311868987
1559.1074,145.71168743988346
1560.8893,177.3309688259792
1562.6705,200.34073915944123
1564.4509,233.6909385494264
1566.2305,238.18150510168425
1568.0094,253.76237458505648
1569.7876,250.78348038656986
1571.565,245.64475335562838
1573.3417,250.69612183380127
1575.1176,248.587511706211
1576.8928,266.3688463510189
1578.6672,276.1900466605116
1580.4409,303.05103086328813
1582.2138,323.90171442604696
1583.986,359.1920097849768
1585.7575,391.4218261372496
1587.5282,411.6910690881173
1589.2981,444.29964032861403
1591.0673,452.0474374328645
1592.8358,450.684353531997
1594.6035,471.16027723666707
1596.3704,458.92509265068634
1598.1366,439.4786791662642
1599.9021,415.47091158635976
1601.6668,404.50166031914614
1603.4308,392.9707916180864
1605.194,383.8281676916282
1606.9564,394.173646818512
1608.7182,444.50708343919666
1610.4791,496.87832805240646
1612.2394,581.1372267117948
1613.9988,650.1836205022325
1615.7576,715.8673446972194
1617.5156,749.2882280684194
1619.2728,741.7960922288224
1621.0293,700.5907512985376
1622.785,606.2220119797129
1624.54,531.2896739685901
1626.2942,429.3935308991918
1628.0477,361.63337109264387
1629.8005,284.95897857613693
1631.5525,237.87013376052926
1633.3037,201.9166142070892
1635.0542,165.94819509838408
1636.804,149.01464959781526
1638.553,127.81574920930188
1640.3013,114.00126394661754
1642.0488,112.2209625453786
1643.7955,91.87461260118982
1645.5416,83.81198058744644
1647.2868,72.7828320587987
1649.0313,79.43693173177655
1650.7751,67.27404359508284
1652.5181,65.3439308430518
1654.2604,63.39635599727785
1656.0019,64.33108092591635
1657.7427,76.5978668631592
1659.4828,93.79647439988844
1661.222,120.12666336100767
1662.9606,152.6881926334562
1664.6984,184.58081990290702
1666.4354,181.15430132815175
1668.1717,172.2583912221736
1669.9072,148.292842086414
1671.642,116.70740469973077
1673.3761,93.65182835805297
1675.1094,69.37586119023604
1676.8419,52.12925038861738
1678.5737,34.361742451776536
1680.3048,18.373083357000837
1682.0351,18.313018737960874
1683.7646,20.431294044596484
1685.4934,18.377654543717654
1687.2215,12.051845297821842
1688.9488,6.803611185630416
1690.6754,7.982696965346918
1692.4012,6.588847327139206
1694.1263,10.87180688134913
1695.8506,17.18132017242999
1697.5742,7.017131636117483
1699.297,10.228985536334903
1701.0191,0.7666260668338509
1702.7404,-2.72020268092308
1704.461,-4.781756623139813
1706.1808,1.531735498804096
1707.8999,-0.7799072867227324
1709.6182,4.13313403333143
1711.3358,-3.4793137367082636
1713.0527,-4.717423833848102
1714.7688,-2.6813347367503866
1716.4841,-1.1211377970133753
1718.1987,-3.2868975797019857
1719.9126,-0.7786674497145896
1721.6257,-1.9464679358430885
1723.338,-7.290311787991982
1725.0496,-0.060192310850993636
1726.7605,2.443970021104292
1728.4706,-2.7277446652810795
1730.18,-5.175256267601071
1731.8886,10.70154256671924
1733.5964,14.002810891064541
1735.3036,13.078707651804734
1737.0099,15.529391655281415
1738.7156,19.855021577050252
1740.4204,20.055755937372965
1742.1246,18.231753057961782
1743.8279,14.583171059971733
1745.5306,23.060167882240535
1747.2325,18.51290131777489
1748.9336,20.041528928979574
1750.634,22.7962080931311
1752.3336,22.027095987090433
1754.0325,24.934349559757266
1755.7307,24.61812553976131
1757.4281,35.87858040638855
1759.1247,30.615870392743773
1760.8206,31.130151373146646
1762.5158,41.671578915758346
1764.2102,38.040308277438726
1765.9039,28.68649429833215
1767.5968,30.660291438179456
1769.289,34.86185386985778
1770.9804,37.34133545964096
1772.6711,36.398889725184404
1774.361,40.234669810730225
1776.0502,41.59882849653172
1777.7386,32.191518160494866
1779.4263,44.66289076453768
1781.1132,48.06309794866388
1782.7994,45.44229090624867
1784.4849,40.300620350036525
1786.1696,41.18823653834909
1787.8535,39.85528932650254
1789.5367,52.80192815793043
1791.2192,50.42830207751376
1792.9009,45.08455960211495
1794.5818,48.870848744313435
1796.2621,48.337317065844104
1797.9415,49.83411163973324
1799.6202,43.961379055633984
1801.2982,47.769265404858515
1802.9755,53.307916339106214
1804.6519,47.42747703238342
1806.3277,49.87809212561797
1808.0027,50.65990578546348
1809.6769,48.52306167979259
1811.3504,49.81770296987975
1813.0231,54.493972331768646
1814.6951,53.90201194332644
1816.3664,51.94196343748047
1818.0369,51.86396790813808
1819.7067,49.018165929787074
1821.3757,57.35469755827603
1823.044,53.17370235927251
1824.7115,58.825319324896896
1826.3783,54.65968691553326
1828.0443,57.47694300331227
1829.7096,50.37722491376769
1831.3741,53.61066939766465
1833.0379,56.42741270199622
1834.701,55.37759053764921
1836.3633,60.11133805123609
1838.0248,53.72878983559349
1839.6856,61.68007988244506
1841.3457,58.9653416462271
1843.005,58.68470796457541
1844.6636,58.63831108547299
1846.3214,61.576282670056
1847.9785,58.19875379307763
1849.6349,66.50585491352882
1851.2904,59.99771590841357
1852.9453,61.82446598967738
1854.5994,58.336233769288924
1856.2528,65.08314724097283
1857.9054,63.11533381509133
1859.5572,64.38292025117596
1861.2083,64.78603267760485
1862.8587,63.42479657892699
1864.5084,64.14933679183139
1866.1572,67.9597775187591
1867.8054,63.706242320657736
1869.4528,57.6388540788779
1871.0994,64.3577350377077
1872.7453,60.1130068650466
1874.3905,59.304790585217006
1876.0349,65.4332066214115
1877.6786,59.348374803774846
1879.3215,64.90041430812028
1880.9637,65.2394437167772
1882.6051,64.81558096307111
1884.2458,65.02894332793323
1885.8858,67.27964744413936
1887.525,66.71780929417582
1889.1634,60.24354418773305
1890.8011,58.906966767323524
1892.4381,66.1581910730248
1894.0743,64.8473305558449
1895.7098,65.67449800521052
1897.3446,60.08980556207513
1898.9786,54.44336471064764
1900.6118,66.28528633423923
1902.2443,64.56568077172744
1903.8761,65.93465769913774
1905.5071,61.24232614683842
1907.1374,68.03879448585133
1908.7669,66.12417047477521
1910.3957,68.79856119182102
1912.0237,64.96207305395842
1913.651,60.264811790171336
1915.2776,66.65688247982325
1916.9034,63.13838959962982
1918.5285,56.059436959738036
1920.1528,63.72012773891106
1921.7764,55.970564555317765
1923.3992,56.16084938992594
1925.0213,63.79108366399794
1926.6427,62.16136823718796
1928.2633,55.521803331239425
1929.8832,65.17248854628247
1931.5023,52.31352292722937
1933.1207,57.445004867267755
1934.7383,61.517032236449836
1936.3552,60.27970233037826
1937.9714,58.58311182948552
1939.5868,55.0273568114074
1941.2015,55.51253276794881
1942.8154,55.48873464064138
1944.4286,45.10605681589175
1946.041,53.664593125218744
1947.6528,52.21443694908123
1949.2637,56.05568113129249
1950.8739,54.13841799352133
1952.4834,61.16273929687986
1954.0921,53.27873626109641
1955.7001,45.68649949427197
1957.3074,54.986119071720566
1958.9139,58.07768461189164
1960.5197,54.36128518337341
1962.1247,54.937009273977594
1963.729,55.004944827903046
1965.3325,57.6651792399789
1966.9353,49.86779935498453
1968.5374,50.81289144104824
1970.1387,57.05054126762002
1971.7393,49.28083409602152
1973.3392,48.05385461706902
1974.9383,50.86968702877061
1976.5366,47.328415048596185
1978.1342,51.83012188531882
1979.7311,54.02489027442749
1981.3273,50.61280243311006
1982.9227,47.09394003830573
1984.5173,48.76838426082571
1986.1112,48.08621580054199
1987.7044,49.04751486964284
1989.2968,49.502361199454356
1990.8885,48.800834030827616
1992.4795,50.44301210959043
1994.0697,49.87897369356244
1995.6592,45.7587965361335
1997.2479,48.38255789190396
1998.8359,47.250334557886276
2000.4232,43.81220284726783
2002.0097,45.46823860073255
2003.5955,47.16851722084289
2005.1805,46.763113655479174
2006.7648,44.00210238083616
2008.3484,48.385557405478096
2009.9312,48.41355229794834
2011.5133,50.63616014293456
2013.0946,45.95345354098936
2014.6752,47.11550458630364
2016.2551,48.17238491353396
2017.8342,47.17416568618205
2019.4126,49.320917586025985
2020.9902,43.612710823102475
2022.5672,48.39961511423917
2024.1433,46.031699740136844
2025.7188,50.109033497500036
2027.2935,40.83168472271649
2028.8674,45.04972125108361
2030.4406,48.91321050958197
2032.0131,33.87221947469499
2033.5849,44.626814633774416
2035.1559,46.927062135450115
2036.7261,47.47302768208431
2038.2957,49.1647765067687
2039.8645,45.05237336786524
2041.4325,49.58588253208791
2042.9998,46.21536781562736
2044.5664,43.04089253881551
2046.1323,50.862519559831185
2047.6974,50.28031130644388
2049.2617,43.49432969779815
2050.8254,45.75463615023591
2052.3883,50.76129164515572
2053.9504,48.91435670641016
2055.5118,47.763891350239135
2057.0725,44.309955103739185
2058.6325,45.052607016368086
2060.1917,44.54190569448423
2061.7502,47.72790929392022
2063.3079,43.4606755250897
2064.8649,41.74026162112756
2066.4212,48.51672438056221
2067.9767,50.290120184519594
2069.5315,50.210504928958414
2071.0856,51.37793400693653
2072.6389,50.692462309406494
2074.1915,51.15414421354228
2075.7433,45.06303358959326
2077.2945,41.0191837962675
2078.8448,39.87264774164282
2080.3945,36.623477923605094
2081.9434,46.121726441313854
2083.4916,43.46744502769394
2085.039,47.31068495445277
2086.5857,46.151497058623534
2088.1317,42.88993170413261
2089.677,43.27603879339205
2091.2215,47.10986779991424
2092.7652,47.291467764451795
2094.3083,47.270887256658284
2095.8506,47.59817437327314
2097.3921,46.77337673832727
2098.933,45.69654149987019
2100.4731,43.917715338217874
2102.0124,49.13694447672094
2103.5511,44.85427469955283
2105.089,43.419751299518
2106.6261,46.533419120878364
2108.1626,49.5453225736988
2109.6983,48.0555056027099
2111.2332,49.51401165718943
2112.7675,51.420883705860376
2114.301,52.62616422230599
2115.8337,53.07989516590095
2117.3657,49.43211796975845
2118.897,51.682873536192915
2120.4276,42.48220227319774
2121.9575,45.330144071937866
2123.4866,51.176738398756356
2125.0149,51.87202426669518
2126.5426,46.616040177029106
2128.0695,42.20882411231264
2129.5956,48.150413588940125
2131.1211,50.140845701217756
2132.6458,53.78015706194776
2134.1698,46.468383782524086
2135.693,58.455561436539085
2137.2155,54.141725132901456
2138.7373,48.62690939596422
2140.2584,56.06114820866367
2141.7787,52.994475067666656
2143.2983,47.02692290902911
2144.8171,47.40852413886239
2146.3353,42.039310693008645
2147.8527,43.41931403322502
2149.3693,48.14856520087591
2150.8853,45.127094803132536
2152.4005,47.20493296568111
2153.9149,48.38210936293626
2155.4287,41.15865319726379
2156.9417,46.58459318720861
2158.454,46.45995763972934
2159.9655,47.034774395938655
2161.4764,45.15907083234987
2162.9865,39.0828738551283
2164.4958,47.55620991884888
2166.0045,43.079105087257915
2167.5124,48.70158494853945
2169.0195,46.67367466008699
2170.526,46.64539889227825
2172.0317,44.36678184875461
2173.5367,45.88784726670343
2175.0409,43.65861843964433
2176.5445,50.87911820221893
2178.0473,50.49936895248254
2179.5494,43.61939257969942
2181.0507,44.589210468140436
2182.5513,43.008843565882614
2184.0512,49.17831237511109
2185.5504,46.09763696792271
2187.0488,37.216836924631366
2188.5465,41.63593136457507
2190.0435,46.65493903492347
2191.5397,45.42387826648712
2193.0353,44.59276692352711
2194.5301,41.461622416065495
2196.0241,40.28046170819687
2197.5175,40.79930134939974
2199.0101,40.61815748634797
2200.502,44.437045857722694
2201.9931,41.105981796023855
2203.4835,32.924980189381074
2204.9733,39.54405551486428
2206.4622,40.513221920293915
2207.9505,38.3324931580496
2209.438,37.05188257537907
2210.9248,37.12140313620506
2212.4109,38.09106743393198
2213.8962,34.9108876907502
2215.3809,36.93087574793947
2216.8648,34.65104309767082
2218.3479,34.62140086280664
2219.8304,34.791959819699116
2221.3121,39.462730398486485
2222.7931,43.03372268138787
2224.2733,28.804946355995526
2225.7529,31.676410679564583
2227.2317,43.99812462130092
2228.7098,33.42009683364597
2230.1872,27.89233552906012
2231.6638,36.314848585802736
2233.1397,28.137643603209995
2234.6149,33.360727817469524
2236.0894,31.634108183392755
2237.5632,29.35779132218414
2239.0362,32.481783538707134
2240.5085,25.70609084424717
2241.9801,32.53071892527214
2243.4509,28.6056732111889
2244.921,28.480958806097306
2246.3904,27.506580528040615
2247.8591,29.232542910252675
2249.3271,27.108850210901323
2250.7943,25.63550639582934
2252.2608,27.91251515979104
2253.7266,26.38987994118571
2255.1917,28.017603899287337
2256.656,30.095689929471234
2258.1197,26.774140646936758
2259.5826,26.60295836592644
2261.0447,26.232145132941696
2262.5062,25.061702728454463
2263.9669,19.541632670615456
2265.4269,20.671936226958167
2266.8862,25.602614469599928
2268.3448,26.533668263938978
2269.8026,21.665098219347442
2271.2598,24.096904679861098
2272.7162,25.329087772864966
2274.1719,27.961647384774835
2275.6268,23.844583148715856
2277.0811,19.67789441819707
2278.5346,27.21158030828161
2279.9874,23.74563973725361
2281.4395,20.730071351281822
2282.8908,24.6648735590785
2284.3414,22.35004456205553
2285.7914,18.935582314975818
2287.2406,23.82148454910208
2288.689,23.057748806341294
2290.1368,22.844372390385672
2291.5838,21.181352374350467
2293.0302,19.61868560290725
2294.4758,23.256368708914238
2295.9206,18.094398129042872
2297.3648,18.032770067400946
2298.8082,21.47148054715265
2300.251,21.91052541113436
2301.693,21.549900287467864
2303.1343,16.939600585169728
2304.5748,20.429621497757836
2306.0147,25.069958049353716
2307.4538,22.76060505978316
2308.8922,23.25155709817247
2310.3299,22.6928085060419
2311.7669,20.384353392396406
2313.2031,21.326185639313138
2314.6387,18.318298925025857
2316.0735,19.06068671450629
2317.5076,16.30334228954328
2318.941,23.096258741319076
2320.3737,21.039428997982498
2321.8056,22.482845756720053
2323.2369,20.626501504323812
2324.6674,23.920388502757675
2326.0972,25.364498807720366
2327.5263,20.60882423570723
2328.9547,26.75335634956869
2330.3823,26.048086506066994
2331.8092,22.693005794431087
2333.2355,21.03810504340879
2334.661,22.533374854817765
2336.0858,16.378805620095022
2337.5098,16.874387505343492
2338.9332,16.170110512878296
2340.3558,16.965964476270756
2341.7778,20.361939067391404
2343.199,16.00802378845114
2344.6195,13.854207938041498
2346.0393,19.950480654674152
2347.4583,16.346830938318817
2348.8767,16.39324758944045
2350.2943,12.239719245035644
2351.7113,17.136234378168922
2353.1275,21.032781339507494
2354.543,17.479348308356037
2355.9578,22.72592325369186
2357.3718,21.622493969699292
2358.7852,19.569048023303367
2360.1978,17.065572765204223
2361.6098,18.212055350411873
2363.021,16.40848276328049
2364.4315,17.604841806043794
2365.8413,16.701119116851174
2367.2504,16.64730115780344
2368.6587,14.493374223990514
2370.0664,18.089324444029188
2371.4733,11.38513780160281
2372.8795,12.530800099501562
2374.285,15.826297026664434
2375.6899,20.721614146722487
2377.0939,13.966736865044595
2378.4973,17.21165037978372
2379.9,12.45633974942541
2381.3019,15.300789860338853
2382.7032,7.794985474329849
2384.1037,18.288911200196367
2385.5035,10.082551568786641
2386.9027,7.275890928059994
2388.3011,13.718913525150214
2389.6987,9.061603534432265
2391.0957,14.403944993091955
2392.492,7.1459218476991
2393.8876,8.687517900784258
2395.2824,13.77871688341881
2396.6765,17.219502439799243
2398.07,13.909858076334729
2399.4627,10.649767127239642
2400.8547,9.539212787629907
2402.246,9.52817814612402
2403.6366,7.366646195948448
2405.0265,12.204599835048015
2406.4156,7.8420218877010655
2407.8041,7.5288950561400725
2409.1918,10.465201964177481
2410.5789,7.850925160336772
2411.9652,8.836047088489636
2413.3508,6.870550113998377
2414.7358,5.354416513864919
2416.12,3.8876284963857586
2417.5035,10.770168216313351
2418.8863,0.10201778952406926
2420.2684,9.583159224192656
2421.6497,7.363574527473645
2423.0304,8.093245610690275
2424.4104,9.922154311529852
2425.7896,7.550282386747369
2427.1682,6.327611493876304
2428.546,8.854123214947379
2429.9232,3.779799068715306
2431.2996,10.504620485393673
2432.6753,8.778568857398142
2434.0503,11.25162547209817
2435.4246,7.923771529077783
2436.7982,1.644988115404658
2438.1711,3.7652562389089326
2439.5433,11.58455689097093
2440.9148,14.302871025318325
2442.2856,3.770179479833331
2443.6557,6.636462949369388
2445.025,7.7517020910783
2446.3937,-1.4841225042527526
2447.7617,11.328969676646466
2449.1289,4.9409739734298626
2450.4955,9.301885612461774
2451.8613,9.111699770696873
2453.2265,2.2204115320710685
2454.5909,7.578015889403559
2455.9546,3.2845078133094034
2457.3177,2.93988219862365
2458.68,8.94413390733635
2460.0416,6.9472577720386255
2461.4025,13.699248535880457
2462.7627,6.400100872539241
2464.1222,3.799809318700028
2465.4811,7.998368347046892
2466.8392,2.745772392265934
2468.1966,6.492015809059467
2469.5533,6.937092924672271
2470.9093,3.9809980014288158
2472.2645,8.223725232282959
2473.6191,7.815268770378594
2474.973,10.0556226866224
2476.3262,5.094780973768536
2477.6787,5.08273752401513
2479.0305,11.519486178612482
2480.3816,8.20502072798368
2481.7319,8.139334847356992
2483.0816,10.022422129910552
2484.4306,1.704276087429264
2485.7789,8.884890131473867
2487.1264,5.564257656562432
2488.4733,8.892371968364131
2489.8195,9.569226316905798
2491.165,6.944813863290648
2492.5097,7.719127672929716
2493.8538,7.642160741785887
2495.1972,11.113905988630933
2496.5398,5.984356255815044
2497.8818,4.353504274549437
2499.2231,4.371342716201696
2500.5637,2.237864208604549
2501.9035,2.153061335877254
2503.2427,8.366926659760509
2504.5812,10.979452720464508
2505.919,-0.909368025469945
2507.256,5.500456768703657
2508.5924,3.4089285343183064
2509.9281,4.316048647702388
2511.2631,6.021818451095186
2512.5974,2.9762392435755203
2513.9309,5.579312264004187
2515.2638,7.931038721479581
2516.596,8.931419769306984
2517.9275,6.830456481481519
2519.2583,8.128149842683996
2520.5884,4.324500769290779
2521.9178,2.919510096396749
2523.2465,8.96317861585186
2524.5745,2.1555070903108913
2525.9018,8.596496192797048
2527.2284,3.4361465747784052
2528.5543,4.224458801758203
2529.8796,9.011433404878375
2531.2041,5.397070873036284
2532.5279,5.931371605015016
2533.851,3.064335945627022
2535.1735,5.345964180371169
2536.4952,2.8762565641029596
2537.8163,4.105213298218274
2539.1366,6.682834555350439
2540.4562,3.059120467080959
2541.7752,1.3840710981629059
2543.0935,9.357686482758169
2544.411,3.279966641188139
2545.7279,8.250911500197248
2547.0441,8.42052095373046
2548.3596,5.938794813223836
2549.6744,7.205732805908241
2550.9885,2.8713345996266355
2552.3019,10.835599790164736
2553.6146,5.648527944594861
2554.9266,5.260118521633586
2556.2379,11.120370923512127
2557.5485,3.5792844998605915
2558.8585,8.136858489105634
2560.1677,5.393092093881052
2561.4762,6.947984435452071
2562.7841,6.551534581153163
2564.0913,9.353741528839123
2565.3977,5.654604210849129
2566.7035,11.304121465985219
2568.0086,4.452292076503397
2569.313,7.1491147116184095
2570.6167,0.7945879960220452
2571.9197,10.48871048291528
2573.222,9.081480717553262
2574.5236,7.47289714030444
2575.8246,6.762958100722216
2577.1248,6.751661873631349
2578.4244,7.1390066662271465
2579.7232,9.624990618188292
2581.0214,4.95961179780349
2582.3189,8.342868177111654
2583.6157,11.074757678555585
2584.9118,8.355278141149569
2586.2072,7.934427293160326
2587.5019,10.512202779301845
2588.7959,9.038602164944024
2590.0893,13.213622910334664
2591.3819,10.837262385335691
2592.6739,9.10951782767279
2593.9652,12.88038636669907
2595.2557,12.549865040672628
2596.5456,10.517950759047608
2597.8348,13.734640305779564
2599.1234,11.94993035964464
2600.4112,11.913817462072686
2601.6983,9.226298034994244
2602.9848,8.737368381201748
2604.2705,9.997024711224782
2605.5556,11.555263148219183
2606.84,8.412079715370709
2608.1237,8.7174703203125
2609.4067,11.57143078655696
2610.689,8.3739568504418
2611.9707,11.275044132590466
2613.2516,6.5246881698867725
2614.5319,6.922884386464176
2615.8115,6.719628141209242
2617.0903,8.314914723779722
2618.3685,11.108739356637159
2619.6461,8.95109717909395
2620.9229,8.391983219375248
2622.199,7.631392416195226
2623.4745,6.469319624348245
2624.7493,6.255759622314727
2626.0234,7.49070712388199
2627.2968,5.624156780279733
2628.5695,3.756103167830787
2629.8415,5.886540806616395
2631.1128,7.415464179156771
2632.3835,10.59286770910684
2633.6535,10.06874574596685
2634.9228,6.343092533308479
2636.1914,10.865902214015989
2637.4593,10.487168867542835
2638.7265,7.4068864646834385
2639.9931,10.575048871360664
2641.259,10.091649879428559
2642.5242,9.206683174990715
2643.7887,4.920142343234389
2645.0525,10.232020877279965
2646.3156,3.192312221046535
2647.5781,7.201009716132987
2648.8398,8.55810667221516
2650.1009,9.06359632695883
2651.3613,6.817471832448845
2652.6211,8.719726250134087
2653.8801,4.270352573288832
2655.1385,3.319343707990072
2656.3961,7.166692517611224
2657.6531,4.962391832332415
2658.9094,4.9064344106668045
2660.1651,10.698812961503776
2661.42,8.189520144668379
2662.6743,11.778548512997673
2663.9279,8.715890537433452
2665.1808,6.401538571132178
2666.433,5.085484880091471
2667.6846,9.117721666293605
2668.9354,5.948241080866069
2670.1856,9.127035183759133
2671.4351,9.254095975440634
2672.6839,9.029415365108164
2673.9321,10.352985169418332
2675.1795,7.874797114733653
2676.4263,11.494842823886813
2677.6724,8.663113840962552
2678.9179,7.229601595097293
2680.1626,10.244297428796386
2681.4067,9.707192612269154
2682.6501,13.268278313282053
2683.8928,7.627545602529551
2685.1348,8.234985418023484
2686.3761,6.440588621500254
2687.6168,6.84434599234649
2688.8568,2.146248245542864
2690.0961,6.7962860276267065
2691.3348,10.094449963672815
2692.5727,10.390730610793256
2693.81,6.435118425155565
2695.0466,7.1276037590199905
2696.2826,2.718176900295674
2697.5178,6.956828065615753
2698.7524,6.493547444431599
2699.9863,7.578325156626363
2701.2195,6.061151257147742
2702.452,11.34201572516028
2703.6839,13.620908479217007
2704.9151,8.647819324450865
2706.1456,7.022737929785748
2707.3755,9.79565387766742
2708.6046,7.816556680314335
2709.8331,10.985435751988405
2711.0609,12.402280428786028
2712.2881,8.867079936949324
2713.5145,14.879823378697651
2714.7403,10.84049976757963
2715.9654,14.199097968345768
2717.1899,10.45560673734147
2718.4136,16.410014688921308
2719.6367,14.612310332883737
2720.8591,13.712482014927133
2722.0809,17.3105179346268
2723.3019,16.45640615443328
2724.5223,15.300134563691998
2725.7421,16.091690887184313
2726.9611,16.681062696690333
2728.1795,16.518237403073243
2729.3972,11.303202250385695
2730.6142,12.935944317497928
2731.8306,13.066450570248278
2733.0462,10.444707845115644
2734.2612,10.120702847914501
2735.4756,12.394422180012214
2736.6892,9.665852341569234
2737.9022,11.484979708801845
2739.1145,8.751790561267867
2740.3262,5.566271063675302
2741.5372,6.378407293214323
2742.7475,5.338185271412399
2743.9571,7.345590956012998
2745.1661,5.550610251377819
2746.3744,7.953228988412647
2747.582,5.903432942517227
2748.7889,5.201207809559108
2749.9952,6.9465392263714705
2751.2008,2.3394127777755074
2752.4057,8.429813979127005
2753.61,1.2677283223876685
2754.8136,2.403141215221112
2756.0165,5.086038052613645
2757.2188,3.5664042055202003
2758.4204,3.9442249940353094
2759.6213,9.369485702589543
2760.8215,6.142171576171222
2762.0211,5.012267766073862
2763.22,1.2297593621693323
2764.4182,5.844631404206851
2765.6158,4.60686891963806
2766.8127,3.866456877468309
2768.009,5.773380200634264
2769.2045,1.2776237734081661
2770.3994,-1.8208275776716079
2771.5936,2.578010961157176
2772.7872,1.4241423937242104
2773.9801,1.6175696980790946
2775.1723,1.6082958380301164
2776.3639,0.4463237612098965
2777.5548,3.631656399168108
2778.745,1.1142966789912094
2779.9346,3.144247491449093
2781.1235,-0.3284882838312484
2782.3117,-0.10390779866536093
2783.4992,2.66799507672917
2784.6861,1.1372275101737017
2785.8723,0.5537966428096439
2787.0579,-0.8322903955938017
2788.2428,0.32897351919463347
2789.427,0.48760382598722174
2790.6106,1.2436159603064993
2791.7935,1.4470253527990167
2792.9757,-0.10215257832476254
2794.1573,-1.5039024293246115
2795.3382,1.0417922240439452
2796.5184,-1.9650371699893725
2797.698,0.7256408263872629
2798.8769,3.213877281706985
2800.0551,2.2997232572464554
2801.2327,1.7332297821436669
2802.4096,2.9644478625394015
2803.5859,2.9934284872422268
2804.7615,-0.12977738458370425
2805.9364,-1.7551188237085569
2807.1106,1.6674563955735948
2808.2842,3.738018032605595
2809.4572,1.4566358300558875
2810.6294,2.2733794932126727
2811.801,2.538318712797789
2812.972,2.9515231567993965
2814.1423,11.213062467822382
2815.3119,11.573006258956426
2816.4808,12.031424031160626
2817.6491,11.588385169663951
2818.8167,16.343958939381338
2819.9837,17.698214489343812
2821.15,21.351220805143
2822.3157,28.203046695388537
2823.4807,27.953760755177782
2824.645,38.553431297577745
2825.8086,41.2021263561179
2826.9716,47.549913578793436
2828.134,55.64686020157836
2829.2957,59.44303298494762
2830.4567,64.08849813290747
2831.617,66.68332125503402
2832.7767,68.77756732001825
2833.9358,70.37130062971796
2835.0941,70.6145847982153
2836.2519,70.20748273587945
2837.4089,63.60005664693384
2838.5653,61.042368033526984
2839.7211,57.33447776180704
2840.8761,50.72644608749839
2842.0306,55.71833269298074
2843.1843,55.16019675336929
2844.3374,53.70209688659604
2845.4899,59.69409115899097
2846.6417,57.43623709986318
2847.7928,62.7785916415808
2848.9433,64.92121114214974
2850.0931,63.46415133178998
2851.2422,61.607467291509494
2852.3907,57.40121346767474
2853.5385,66.59544369057761
2854.6857,63.840211216497906
2855.8323,64.13556863576098
2856.9781,68.58156790029015
2858.1233,67.128260320653
2859.2679,74.02569652160155
2860.4118,81.5739264566052
2861.555,79.2729993388765
2862.6976,81.42296356588876
2863.8395,82.67386674238533
2864.9808,84.87575565887994
2866.1214,84.72867627914776
2867.2614,82.5326737182064
2868.4007,89.78779224378677
2869.5393,86.144075298293
2870.6773,88.25156542625133
2871.8146,95.06030431074726
2872.9513,92.37033275235073
2874.0874,89.78169060102854
2875.2227,92.9444167830443
2876.3574,97.90854932684465
2877.4915,99.87412533143217
2878.6249,99.54118091672402
2879.7577,106.65975120389609
2880.8898,102.17987031871256
2882.0212,105.75157132034009
2883.152,106.02488624614674
2884.2821,108.39984607598478
2885.4116,110.02648072945773
2886.5405,113.10481904217065
2887.6686,113.48488874946383
2888.7962,112.06671645562943
2889.923,114.40032763011061
2891.0493,112.23574662168355
2892.1748,109.17299663512104
2893.2997,118.21209975283853
2894.424,115.15307696552141
2895.5476,116.4959480817341
2896.6706,113.84073175851026
2897.7929,115.38744548792411
2898.9145,111.03610562364256
2900.0355,110.48672736545808
2901.1559,109.73932480280213
2902.2756,111.04391092023897
2903.3946,111.40049760493959
2904.513,106.80909563363596
2905.6308,113.86971466905507
2906.7479,106.73236330583296
2907.8643,110.14704899990866
2908.9801,109.21377813989747
2910.0953,107.5325560129443
2911.2098,111.85338681405621
2912.3236,110.7262736629148
2913.4368,108.70121856066788
2914.5494,109.27822240120045
2915.6613,104.60728499138533
2916.7725,103.48840504531321
2917.8831,104.22158023100187
2918.9931,100.60680718158517
2920.1024,97.89408148798111
2921.211,95.28339773503973
2922.319,94.5247495286703
2923.4264,96.61812952194813
2924.5331,93.76352942270104
2925.6391,94.91093997257568
2926.7445,93.06035097558333
2927.8493,92.01175128662601
2928.9534,93.91512883000217
2930.0569,95.0204706098929
2931.1597,95.4777626913279
2932.2619,99.8869901891323
2933.3634,101.79813726335358
2934.4643,102.71118707516936
2935.5645,104.57612176777596
2936.6641,101.04292245725777
2937.763,102.51156921393803
2938.8613,101.38204109771071
2939.959,99.70431614335415
2941.056,94.92837137182627
2942.1523,86.55418280704194
2943.248,92.68172552363225
2944.3431,82.11097373068651
2945.4375,80.6419007104769
2946.5313,79.22447892416582
2947.6244,68.60868002649677
2948.7169,61.24447487996842
2949.8087,59.83183366099275
2950.8999,53.72072593353692
2951.9904,48.41112066324983
2953.0803,44.60298627857314
2954.1696,41.7962907238373
2955.2582,38.69100149734291
2956.3462,37.737085679427715
2957.4335,35.884509963519456
2958.5202,36.68324066567501
2959.6062,38.78324374310624
2960.6916,35.08448478619259
2961.7764,36.13692899748112
2962.8605,36.39054122867401
2963.9439,36.19528597010419
2965.0267,33.20112734819919
2966.1089,37.10802912743368
2967.1905,36.265954740271034
2968.2714,35.42486724809441
2969.3516,38.03472934962738
2970.4312,35.49550338934494
2971.5102,33.55715133137479
2972.5885,32.569634784889644
2973.6662,35.73291502349076
2974.7432,31.196952995083038
2975.8196,29.21170929024226
2976.8954,33.57714418757468
2977.9705,35.84321767356951
2979.045,38.05988939894455
2980.1188,35.87711865598543
2981.192,35.59486435637893
2982.2645,34.61308505304067
2983.3364,36.481738942937675
2984.4077,32.20078387690617
2985.4783,31.020177340965006
2986.5483,30.139876499125236
2987.6177,25.50983820519614
2988.6864,27.030019011588266
2989.7545,27.200375215613803
2990.8219,22.620862844284737
2991.8887,22.89143765260939
2992.9548,20.51205516938743
2994.0204,19.082670694504166
2995.0852,17.003239322724426
2996.1495,14.623715957986313
2997.2131,8.7440553341956
2998.276,12.164212039020896
2999.3383,10.034140572690333
3000.4,8.703795313789897
3001.4611,10.223130540564242
3002.5215,8.942100444220074
3003.5812,6.660659113732784
3004.6404,2.17876054865679
3005.6989,3.0963586819399467
3006.7567,3.4134074247425232
3007.8139,3.3298606572612286
3008.8705,5.245672225558721
3009.9264,0.4607959423990948
3010.9818,-0.6248144319102806
3012.0364,1.1887948583300272
3013.0905,0.45158381071559717
3014.1439,-0.08648758904591602
3015.1966,-0.1254593597626723
3016.2487,0.5846293437681425
3017.3002,5.493740620088332
3018.3511,1.4018365618934325
3019.4013,2.2588792069415717
3020.4509,-0.785169421027426
3021.4998,-0.2803473208625391
3022.5481,3.0233153524297762
3023.5958,2.7257912445127914
3024.6428,1.3770529708166137
3025.6892,1.1770731195134942
3026.735,0.17582426500511872
3027.7802,-2.176721030077509
3028.8247,1.8694097951383526
3029.8685,-0.8857889530314864
3030.9118,0.5576770130347128
3031.9544,0.2998108299903137
3032.9963,-0.509384371088089
3034.0376,5.23009453787806
3035.0783,0.468255773717118
3036.1184,0.7551075009565622
3037.1578,5.340657879441295
3038.1966,2.224915061465211
3039.2348,2.2078871459156133
3040.2723,1.1395822094306851
3041.3092,0.7700083065697783
3042.3455,4.699173480496398
3043.3811,2.6770857666740113
3044.4161,3.353753153574374
3045.4505,4.079183602898354
3046.4842,2.253385042809331
3047.5173,3.176365360678883
3048.5498,3.698132421344731
3049.5816,7.1186940578809725
3050.6128,4.938058066380396
3051.6434,5.656232171748879
3052.6734,6.223224049511707
3053.7027,7.23904131863188
3054.7314,6.203691535840161
3055.7594,6.167182185476911
3056.7868,2.6295206898456023
3057.8136,6.69071440957789
3058.8398,10.500770679010227
3059.8653,6.709696765571934
3060.8902,6.967499831684634
3061.9145,6.324186972673008
3062.9381,10.879765214186744
3063.9612,7.634241518633658
3064.9835,10.837622739623942
3066.0053,8.539915654425378
3067.0264,6.841126931929537
3068.0469,9.591263155628841
3069.0668,7.440330840604439
3070.086,10.638336406024877
3071.1046,9.285286196655385
3072.1226,10.131186450877877
3073.1399,10.376043314221388
3074.1567,8.619862830903113
3075.1727,10.662650941379848
3076.1882,8.754413499909738
3077.203,7.395156254124458
3078.2173,7.884884864111527
3079.2308,4.573604916006932
3080.2438,7.661321917097819
3081.2561,9.698041328935282
3082.2678,8.283768536457238
3083.2789,2.768508827621151
3084.2893,8.602267407546861
3085.2991,6.73504945366912
3086.3083,9.316860057399992
3087.3169,7.447704242801091
3088.3248,5.227586940765441
3089.3321,5.856513007709033
3090.3388,7.334487247771996
3091.3449,3.7115144065293393
3092.3503,4.937599156211213
3093.3551,4.412746131932639
3094.3593,4.336959919432648
3095.3629,5.610245060322821
3096.3658,1.9326060528451485
3097.3681,7.054047339139164
3098.3698,2.9745733420183598
3099.3708,3.79418841375578
3100.3713,5.562896876878732
3101.3711,7.030703015972655
3102.3702,4.697611059994021
3103.3688,7.7636251675922985
3104.3667,6.478749450440844
3105.364,5.892987942576763
3106.3607,8.606344613249693
3107.3568,5.068823372779395
3108.3522,3.8804280454222067
3109.347,5.19116240474623
3110.3412,4.90103018551531
3111.3348,4.8100350705816695
3112.3277,6.618180693787238
3113.32,3.125470640873612
3114.3117,5.281908431400563
3115.3028,2.287497553673184
3116.2932,2.8422414431774605
3117.2831,4.196143512524436
3118.2723,3.299207145902738
3119.2608,2.7014356855395754
3120.2488,5.4528324406701
3121.2361,6.5534006935151154
3122.2229,6.453143671767123
3123.209,1.8520645375846208
3124.1944,5.300166388594686
3125.1793,-0.6025476960962521
3126.1635,3.543925309616572
3127.1471,3.1895944512894054
3128.1301,2.0844687390392416
3129.1125,3.0285571510871456
3130.0942,4.521868644809505
3131.0753,4.114412147297148
3132.0558,7.306196540422224
3133.0357,4.897230664912762
3134.015,4.637523288434846
3134.9936,4.877083129682255
3135.9716,0.3159188609735306
3136.949,1.5040391058564033
3137.9258,6.641452484719418
3138.902,2.0781676029107423
3139.8775,2.564192999364023
3140.8524,4.399537192231223
3141.8267,4.2842086740223895
3142.8004,4.068215893252209
3143.7735,3.001567255593276
3144.7459,1.2342711260360506
3145.7178,1.81633583955532
3146.689,6.847769718783169
3147.6596,3.17858106818832
3148.6295,3.858778123761814
3149.5989,8.988369089708886
3150.5676,2.5673621316470054
3151.5357,3.0957653253099515
3152.5032,3.723586720757888
3153.4701,3.250834337093334
3154.4364,1.9775161561829435
3155.402,4.503640127385051
3156.367,1.5292141802828212
3157.3315,5.25424619942304
3158.2952,6.228744054060346
3159.2584,5.352715560906937
3160.221,2.226168474387567
3161.1829,3.99911049539984
3162.1442,2.771549302579688
3163.105,5.343492534571954
3164.065,4.5649478023059835
3165.0245,5.685922663276209
3165.9834,6.206424629327595
3166.9416,5.426461155445887
3167.8993,3.2460396345525915
3168.8563,3.765167405304613
3169.8127,4.833851773898463
3170.7684,5.352100008878981
3171.7236,7.269919330452499
3172.6782,6.587316905304352
3173.6321,5.204299827420689
3174.5854,1.7208751249144978
3175.5381,3.5870497738557763
3176.4902,4.85283073310578
3177.4417,3.118224925655273
3178.3926,7.2832392259667245
3179.3428,4.397880477320342
3180.2924,6.31215545016396
3181.2415,4.076070870966614
3182.1899,5.589633403075785
3183.1377,6.152849669078256
3184.0848,3.4657262356644623
3185.0314,4.728269607996349
3185.9773,6.490486256578599
3186.9227,5.302382604633198
3187.8674,4.763965010477277
3188.8115,3.6752397794041407
3189.755,10.136213169067457
3190.6979,5.396891400368501
3191.6402,4.90728059284643
3192.5818,3.667386812071488
3193.5229,2.4772160745411274
3194.4633,2.786774360078928
3195.4031,6.896067623736316
3196.3423,5.4051017926969855
3197.2809,6.8138827251839515
3198.2189,10.172416225369215
3199.1563,2.930708029285954
3200.0931,7.438763771243191
3201.0292,5.896589056242867
3201.9648,6.854189414899293
3202.8997,4.761570318860883
3203.834,4.4687371712341735
3204.7677,7.425695327509991
3205.7008,2.782450098491794
3206.6333,7.889006720726094
3207.5652,2.1953704029348957
3208.4964,6.401546274950144
3209.4271,9.307539444650072
3210.3571,3.6133549558974654
3211.2865,7.318997759479707
3212.2154,6.274472770050632
3213.1436,6.229784829074095
3214.0712,6.034938715269241
3214.9982,5.239939145057364
3215.9246,4.844790774510381
3216.8503,5.349498207300819
3217.7755,7.154065998653296
3218.7001,5.508498650297454
3219.624,8.162800592422276
3220.5473,6.016976200131769
3221.4701,5.621029766901939
3222.3922,5.324965526039026
3223.3137,5.928787654638971
3224.2346,5.1325002765480665
3225.1549,7.586107456324731
3226.0746,9.38961320720239
3226.9937,3.443021466553402
3227.9121,8.346336077853985
3228.83,7.249560850150148
3229.7473,7.452699509024525
3230.6639,8.105755707564144
3231.5799,5.75873302432905
3232.4954,5.511634956821723
3233.4102,8.264464944957309
3234.3244,6.11722637353461
3235.238,8.819922544707783
3236.151,9.122556699458725
3237.0634,8.325131990570117
3237.9752,8.577651479599053
3238.8864,7.28011814485132
3239.797,5.132534878856177
3240.7069,7.884904501341705
3241.6163,7.43722978071064
3242.5251,10.689513406516664
3243.4332,7.641757993941171
3244.3408,8.343966051270428
3245.2477,7.54614001037311
3246.154,12.648282219678228
3247.0598,10.750394952153377
3247.9649,8.102480354283331
3248.8694,9.604540465048913
3249.7733,6.2565772424061485
3250.6766,8.908592548265654
3251.5793,9.860588181972275
3252.4814,7.462565853784927
3253.3829,7.414527175356653
3254.2838,8.416473683714823
3255.1841,8.568406841741556
3256.0838,7.920328028154238
3256.9829,7.072238535986184
3257.8814,8.724139579067428
3258.7792,7.576032300505629
3259.6765,4.92791775616705
3260.5731,8.579796926157636
3261.4692,7.331670741304151
3262.3647,8.683540046635388
3263.2595,8.435405613863441
3264.1538,9.787268127865019
3265.0474,5.7891281891627715
3265.9404,5.290986300406617
3266.8329,5.592842906355201
3267.7247,4.244698398857305
3268.616,6.746553113833285
3269.5066,5.898407344756508
3270.3966,7.600261317634815
3271.286,9.10211519949197
