RamanShift,CorrectedData
30.1047,5131.798927901244
32.3739,4794.728641059348
34.6426,4460.708302899463
36.9109,4127.087814156313
39.1787,3796.917030957537
41.4461,3467.6457681598968
43.7131,3139.373802650983
45.9796,2807.9008766419247
48.2456,2476.776700950112
50.5112,2148.700958313923
52.7764,1822.4233067039681
55.0411,1492.0433826038484
57.3054,1164.21080427293
59.5692,837.5751750501449
61.8326,524.2860866323165
64.0955,199.39312234051664
66.3579,-109.75413974704384
68.6199,-429.05612354608513
70.8815,-711.4121565284718
73.1426,-924.7172798953945
75.4032,-930.4594278406008
77.6634,-446.31729663221404
79.9231,1235.389712751327
82.1824,5448.9466580413755
84.4412,13597.688584615387
86.6995,26695.500483361357
88.9574,38036.81720919038
91.2148,45355.62335005858
93.4717,47130.753113553874
95.7282,47705.290253707964
97.9842,47721.06805324501
100.2398,47108.0193178363
102.4949,46508.77637594241
104.7495,45933.071084943746
107.0036,45040.38483713296
109.2573,44947.04856547197
111.5105,43963.942752518866
113.7632,43587.347431361275
116.0154,43257.89219544737
118.2672,43145.056202351865
120.5185,42663.968177070565
122.7693,42235.25641314871
125.0197,41289.548777491844
127.2696,41863.172714652974
129.519,41300.30525628959
131.7679,41296.273015427505
134.0163,39811.20219208943
136.2642,39806.86857333539
138.5117,39964.547548113376
140.7587,39300.01410730272
143.0052,38857.69284213726
145.2512,37884.45795085069
147.4967,38137.5832430998
149.7417,37530.49214969678
151.9863,37133.20772007802
154.2304,36360.20262837497
156.4739,36274.449177387025
158.717,36291.96930631153
160.9596,35579.28459160137
163.2017,34644.216246789714
165.4433,34811.48512961691
167.6844,34039.86175138113
169.925,33936.91627526572
172.1651,33222.068524055394
174.4047,32869.787981165726
176.6439,32477.24379779157
178.8825,32028.30479642994
181.1206,32014.589474805398
183.3582,31574.966010359454
185.5954,30938.50226038774
187.832,30723.065766436226
190.0681,30114.323760665884
192.3037,30417.79316800702
194.5388,30668.84061224675
196.7734,28993.73241299425
199.0075,29944.934583170278
201.2411,29229.862845758315
203.4742,29645.48262429249
205.7068,29257.959050008318
207.9389,28925.756957686506
210.1704,28602.090889528165
212.4015,28862.375098476867
214.632,27970.42355145527
216.862,28377.449926762303
219.0915,27856.067622992665
221.3205,27447.43975496656
223.549,27745.229158943537
225.777,27457.048396708713
228.0044,27456.309752594963
230.2314,27006.175236364674
232.4578,26765.506583217146
234.6837,26582.46525828992
236.909,27400.312459065524
239.1339,25623.00911720184
241.3582,25974.51589035362
243.582,25648.443179945567
245.8053,25372.851127657214
248.0281,25101.349618683664
250.2503,25043.448284491496
252.472,24345.006505533813
254.6932,24446.93341182927
256.9139,24035.487889946446
259.134,24796.57858198461
261.3536,23481.963889688137
263.5727,24004.051966835657
265.7912,23484.70073238616
268.0092,23486.467865258142
270.2267,23423.46080952309
272.4436,22703.036774387827
274.6601,22901.602734824566
276.8759,22845.965438775173
279.0913,22285.8814051655
281.3061,22099.656924461746
283.5204,21881.84806427132
285.7341,21569.360671205082
287.9473,21860.5503730554
290.16,21258.02258192107
292.3721,21308.282491295384
294.5837,20723.785082091443
296.7947,20285.835122139528
299.0052,20866.287172032105
301.2152,20258.995589503327
303.4246,20275.114523624467
305.6334,19949.24792087686
307.8418,18952.14952499075
310.0495,18708.122880203926
312.2568,18259.171341232704
314.4635,17875.64807571219
316.6696,17812.306068685786
318.8752,17801.748126440427
321.0802,16560.376877139992
323.2847,16782.494770930927
325.4887,16592.804092355873
327.692,16118.506958132624
329.8949,16146.85531905089
332.0972,15655.750964715327
334.2989,15548.295523262052
336.5001,15583.0904662697
338.7007,14610.38710983393
340.9008,14712.736614219531
343.1003,14524.389993587421
345.2992,14590.148114971213
347.4976,13955.86170016061
349.6955,13912.631325043854
351.8927,13490.807425950632
354.0895,13543.140300084277
356.2856,13296.530109740117
358.4812,13385.176881782078
360.6763,12737.780510108809
362.8707,12919.140754767213
365.0646,12500.007248426416
367.258,12320.32949456414
369.4508,11893.006871658064
371.643,12221.138634982563
373.8346,11886.823920881994
376.0257,11721.26174348931
378.2162,11451.000998069234
380.4062,10939.240462673908
382.5956,10989.128800845487
384.7844,10781.56456673373
386.9726,10668.946204597138
389.1603,10535.072050878574
391.3474,9922.940335331507
393.5339,10179.099182358696
395.7199,9487.396617133505
397.9052,9433.430563038339
400.09,9410.998848581636
402.2743,9514.699207937541
404.4579,9194.52928117026
406.641,9105.986613196997
408.8235,9228.868656989718
411.0054,9185.372774460535
413.1868,9158.096235232937
415.3675,8966.536217076704
417.5477,8896.089806180637
419.7273,8683.853999068248
421.9064,8430.025703302155
424.0848,8420.751739606443
426.2627,8375.578844404969
428.4399,7697.203669914059
430.6166,7168.172784594266
432.7928,7271.432679934114
434.9683,6678.429775740435
437.1432,6496.860419105738
439.3176,6536.8708903383085
441.4914,5888.557404777799
443.6645,5905.216112395217
445.8371,5754.443104276012
448.0091,5385.484412453472
450.1806,5143.086011416548
452.3514,5087.44382179933
454.5216,4816.703712805116
456.6913,4845.26150276274
458.8603,4836.2129618340405
461.0288,4488.503811728246
463.1967,4626.029725792461
465.3639,4603.686332488789
467.5306,3949.6692140190207
469.6967,4128.323906548132
471.8622,4131.595906744391
474.0271,3940.930669992864
476.1914,3888.373610362665
478.3551,3806.770102513634
480.5182,4089.9654822219236
482.6807,3666.655047195978
484.8426,3766.634054244627
487.0039,4225.4477235101585
489.1647,4279.891237468553
491.3248,3904.009736341308
493.4843,4333.698317551032
495.6432,4224.052039480266
497.8015,3591.0659171746083
499.9592,3772.5349234391324
502.1163,3593.203995168289
504.2728,3376.568031531191
506.4287,3246.971895764902
508.5839,2720.8104173408356
510.7386,2741.0783932606573
512.8927,2766.6205933179663
515.0461,2602.0817598955764
517.199,2789.3066077101175
519.3512,2666.889825457496
521.5029,2605.026073940535
523.6539,2742.509987293197
525.8043,2382.3861735992177
527.9541,2634.0492135172317
530.1033,2446.6436638820524
532.2519,2200.164055188019
534.3999,2315.4048934630846
536.5472,2522.710662733545
538.694,2181.5758238717026
540.8401,2567.2948125227485
542.9856,2605.262042516173
545.1305,2632.7719020085206
547.2748,2374.5187531037373
549.4185,2322.146931578034
551.5615,2365.4507494624486
553.704,2243.7744955665694
555.8458,2076.7124350454833
557.987,2252.508810616542
560.1276,2406.2078442300117
562.2675,2434.5537353110776
564.4069,2667.440659222877
566.5456,2941.062766982999
568.6837,2657.014182934661
570.8212,2548.6390020104955
572.958,1873.181292573012
575.0942,1863.0850974983332
577.2299,1387.5444409308475
579.3648,1279.3533283840952
581.4992,1084.6057514961722
583.6329,1102.2456891116963
585.766,1159.2171092292556
587.8985,1302.7139688249808
590.0304,833.9802132828481
592.1616,1110.5597749597437
594.2922,893.9465778727608
596.4222,579.5345349334384
598.5515,501.6175501138641
600.6802,533.0337378361
602.8083,155.8662013628491
604.9358,183.09803862650733
607.0626,338.26079045610095
609.1888,35.98416853122035
611.3144,388.89450530616887
613.4393,248.8677737534017
615.5636,217.47994295644457
617.6873,414.55449580978166
619.8103,243.46274258323683
621.9327,306.7259894011295
624.0544,261.96311019492714
626.1756,86.1929758288752
628.2961,28.33445454759203
630.4159,-178.5944464721033
632.5351,-145.3260031146565
634.6537,174.8092928940314
636.7716,-120.01759836520796
638.8889,-0.6357185596061754
641.0056,13.02708961936878
643.1216,51.992989831080195
645.237,146.73401559420017
647.3518,-57.12831898254808
649.4659,39.77749874219444
651.5793,-1.326447878316685
653.6922,-25.96807588860247
655.8043,-204.7752890819902
657.9159,198.12426816927473
660.0268,-384.1450028019535
662.137,-136.65870264398836
664.2466,-28.438594396597182
666.3556,-87.80507587912871
668.4639,-68.62854462656833
670.5716,-116.37852100119198
672.6786,24.675475321033446
674.785,-194.134912714464
676.8907,-171.27804240897967
678.9958,-52.72033165603352
681.1002,-45.27648728156055
683.204,-268.2112155842842
685.3072,-250.53922241013788
687.4097,-222.52253417501197
689.5115,-176.97067440801766
691.6127,-52.69094363816839
693.7132,-206.58887445743312
695.8131,-69.21999893083557
697.9123,27.86221469942393
700.0109,81.9042988833462
702.1089,-41.79721420765418
704.2061,29.704206778777007
706.3028,118.40509361302975
708.3987,205.95197776845453
710.4941,173.3913895343794
712.5887,320.2698571406363
714.6827,372.7839070831833
716.7761,547.5300626552998
718.8688,644.8048434224329
720.9608,622.3047634747636
723.0522,847.8263304544525
725.1429,761.7660457805687
727.233,1066.2704023939805
729.3224,780.2858856178937
731.4112,863.3589701128367
733.4993,751.9361227365152
735.5867,616.3638017130215
737.6735,492.93845774709916
739.7596,289.10653537987673
741.845,296.2644742231132
743.9298,327.4587109975182
746.014,240.4856794611551
748.0974,223.8418100974959
750.1802,349.12353098522
752.2624,159.07726796458155
754.3439,144.39944338462374
756.4247,212.48647800365143
758.5048,239.88479113598441
760.5843,437.24079997110675
762.6631,658.8509192996717
764.7413,942.3615595399388
766.8188,1456.5691245216585
768.8956,1677.1700086510173
770.9718,1938.3605917685054
773.0473,1840.6372369429373
775.1221,1686.9962878595325
777.1962,1499.3340697971798
779.2697,1355.5968911647506
781.3426,1391.2810453778075
783.4147,1513.0828122959647
785.4862,1560.498457866037
787.557,1490.4742329040528
789.6271,1337.606372621034
791.6966,912.2410973232836
793.7654,508.6246139410432
795.8335,386.45312028218177
797.901,212.02280906830856
799.9678,99.22986915650836
802.0339,87.17048728367081
804.0993,124.89084919443121
806.1641,49.28713976172003
808.2282,27.0555426095234
810.2916,44.792240868999215
812.3544,88.39341740075179
814.4164,-50.644745382531255
816.4778,123.32393404792674
818.5385,64.29563772736583
820.5986,165.96654645781382
822.658,391.28284039835125
824.7166,500.79069804836035
826.7747,889.8362939944855
828.832,1183.215797815421
830.8886,1346.2253701915688
832.9446,1542.3111599711629
834.9999,1320.7693025402114
837.0545,1222.0959178616467
839.1085,1137.1371126907106
841.1618,977.2889815617164
843.2143,842.897607637613
845.2662,695.5090643084477
847.3175,701.0194165353096
849.368,562.0747223242433
851.4179,605.421032671089
853.467,479.95439295089454
855.5155,515.370842484539
857.5633,453.7664157933541
859.6105,346.63714224499563
861.6569,384.07904666947434
863.7027,345.1381504304227
865.7478,398.66047105070174
867.7922,411.4420226017901
869.8359,386.6288151685876
871.8789,416.4168547215959
873.9212,534.9521433650589
875.9629,589.080679039078
878.0039,757.348454334242
880.0441,752.4014559503485
882.0837,849.3856630137307
884.1226,913.0970471267283
886.1609,957.0315713978343
888.1984,1076.8351898046021
890.2352,1262.603846754253
892.2714,1187.7334758856741
894.3069,1244.6699982117425
896.3416,1073.959322867995
898.3757,1014.847346543298
900.4091,1052.6799551869553
902.4418,1085.353024599819
904.4739,1052.1124200559716
906.5052,1167.9039959759975
908.5358,1109.7735962593724
910.5658,1067.5670531265496
912.595,952.0301877002858
914.6236,830.4088104276816
916.6515,830.4987222355339
918.6786,752.0457157465862
920.7051,793.4955752786263
922.7309,871.5940776289863
924.756,867.1369916600452
926.7804,936.2700775182457
928.8041,764.9390866786998
930.8272,889.2897612538509
932.8495,764.5178357067562
934.8711,866.6690356076142
936.892,792.5890788814431
938.9123,768.6236747865551
940.9318,768.4685246554072
942.9506,766.7193221342095
944.9688,697.221753184509
946.9862,675.8714961006808
949.003,490.41422220489767
951.019,514.7955960606159
953.0344,477.46127732717287
955.0491,465.8069205159336
957.063,574.1281753637013
959.0763,734.1206869492016
961.0888,697.2800946099087
963.1007,782.5020303420824
965.1119,824.7321191691954
967.1223,860.6159782897339
969.1321,852.3992166548669
971.1412,897.0274346096157
973.1495,852.4462239750028
975.1572,881.6511676017981
977.1641,943.5878398163113
979.1704,900.1018061283467
981.1759,852.0886226118273
983.1808,902.4438363396912
985.1849,951.0629858639659
987.1884,967.2916007122913
989.1911,1100.025200901684
991.1932,1113.4592967762474
993.1945,1077.989387679856
995.1951,993.1609618217772
997.1951,1027.019496631412
999.1943,971.0104596065612
1001.1928,960.6293079748393
1003.1906,888.8214892537544
1005.1877,1012.7824413545532
1007.1841,1026.8075933002838
1009.1798,1016.0423639861801
1011.1748,933.532162039417
1013.1691,822.9223859267477
1015.1627,692.4584247795938
1017.1556,481.08565950020056
1019.1477,438.2994640662182
1021.1392,245.59520764444096
1023.1299,222.26825501869462
1025.12,251.26396851685422
1027.1093,262.92770824412946
1029.0979,320.5048317931178
1031.0859,336.09069412715326
1033.0731,352.8806470045238
1035.0596,280.57003882264326
1037.0454,126.40421445015818
1039.0304,92.0785159499901
1041.0148,9.938284121068136
1042.9985,-73.07114115845616
1044.9814,6.145579890184308
1046.9636,-121.6154829735533
1048.9452,-128.8582600516529
1050.926,-98.28546670745345
1052.9061,-134.24853101028566
1054.8855,-61.14789915768051
1056.8642,-29.13267620435363
1058.8421,43.09864366246984
1060.8194,35.647857290987304
1062.7959,58.516761098428105
1064.7717,115.45715114555787
1066.7469,165.37082290800754
1068.7213,276.0095707068358
1070.695,315.37518720942535
1072.6679,275.21946232307164
1074.6402,299.6441828013376
1076.6117,321.55113264557076
1078.5826,285.14209286068944
1080.5527,202.51884123609125
1082.5221,154.5831527097762
1084.4908,132.13680019457024
1086.4587,172.53155505748146
1088.426,216.51918734415085
1090.3925,144.30146537492692
1092.3584,226.13015530497069
1094.3235,133.10702184645925
1096.2879,196.7338274502763
1098.2515,286.01233323623455
1100.2145,443.8942983568122
1102.1767,543.6814791044053
1104.1382,650.5756273324514
1106.099,802.8284894576063
1108.0591,940.491805390775
1110.0185,1002.867307014596
1111.9771,1132.706716806766
1113.9351,1045.2617472163292
1115.8923,947.734099365247
1117.8488,840.7254639228631
1119.8045,693.4875220812028
1121.7596,605.1219466250732
1123.7139,502.18040340441075
1125.6675,514.7645522179591
1127.6204,629.5760478426746
1129.5726,555.5165399079015
1131.524,578.5876717472347
1133.4748,505.9410811391499
1135.4248,366.7284000762338
1137.3741,314.20125549168006
1139.3226,220.51127065139008
1141.2705,243.01006567926743
1143.2176,123.59925849413048
1145.164,157.63046458469398
1147.1097,102.0552982037043
1149.0546,104.5253720276014
1150.9989,75.34229771230457
1152.9424,37.20768586845588
1154.8852,-17.876853646710515
1156.8272,-18.109711348024575
1158.7686,41.41090083943345
1160.7092,3.48695190658691
1162.6491,4.170410430244374
1164.5883,136.71321015255307
1166.5267,185.8172431532621
1168.4644,286.2344001449892
1170.4014,435.76656998219187
1172.3377,641.3656386569855
1174.2732,821.2834878038229
1176.2081,1077.121992643537
1178.1421,1398.0830201841309
1180.0755,1737.3684266624077
1182.0082,1892.030054334362
1183.9401,2008.7697280823122
1185.8713,1937.3392538682929
1187.8017,1759.990417566656
1189.7315,1564.2749856783666
1191.6605,1244.1947071044924
1193.5888,995.6013151033694
1195.5163,976.7465304913967
1197.4432,876.9320641289596
1199.3693,841.8096171090147
1201.2947,763.6808817552082
1203.2193,726.8975419730923
1205.1432,797.9112740314486
1207.0664,742.173746930086
1208.9889,670.4366216897361
1210.9106,668.3515519093962
1212.8316,675.2701844837175
1214.7519,676.9441596238466
1216.6715,676.0251107882395
1218.5903,759.2646646659123
1220.5084,829.4644411856425
1222.4257,934.8760526835613
1224.3424,875.2011032011687
1226.2583,968.5411874312194
1228.1735,1073.0978913144572
1230.0879,1107.7227911062473
1232.0016,1226.4674523309695
1233.9146,1300.4834294357825
1235.8269,1318.5722646031973
1237.7384,1346.1854870108946
1239.6492,1225.5246126508464
1241.5592,1185.1911440531694
1243.4686,1219.0365714927575
1245.3772,1345.7123733926019
1247.285,1451.0200159853412
1249.1922,1537.4609520464946
1251.0986,1673.936619841381
1253.0042,1688.448442260713
1254.9092,1784.0978254558504
1256.8134,1853.9861586936422
1258.7169,1944.7148133999945
1260.6196,2012.5351424609398
1262.5216,2212.398479315383
1264.4229,2342.1561372768883
1266.3234,2482.359407535052
1268.2232,2610.859557857915
1270.1223,2646.9078311899393
1272.0207,2659.0554443670007
1273.9183,2646.6035877559007
1275.8151,2601.803425132879
1277.7113,2624.656093808171
1279.6067,2630.8627050739815
1281.5014,2776.9243439759593
1283.3953,3034.442069251141
1285.2885,3370.4669118673264
1287.181,3753.949872447909
1289.0727,4119.741917911597
1290.9637,4306.193977637595
1292.854,4541.406939807723
1294.7435,4472.631649541872
1296.6323,4476.3689065458675
1298.5204,4384.019465799229
1300.4077,4229.6340375178115
1302.2943,4134.413288077274
1304.1802,3987.0078415569624
1306.0653,3651.6682806921053
1307.9497,3388.5951483478566
1309.8333,3153.0389508726876
1311.7162,2962.300160729126
1313.5984,2882.379218849299
1315.4798,2758.076536542343
1317.3605,2774.9924962936093
1319.2405,2763.7774530076895
1321.1197,2641.8317338392662
1322.9982,2415.255638305236
1324.876,2315.9994395041904
1326.753,2106.8633863821815
1328.6293,1999.5477047252716
1330.5048,1974.0525992509065
1332.3796,1854.278254681074
1334.2537,1828.3748359972305
1336.127,1742.4924896380617
1337.9996,1753.681343758526
1339.8714,1771.341509088681
1341.7426,1741.6730788217683
1343.6129,1760.0761284376385
1345.4826,1777.350715999426
1347.3515,1838.2468819695132
1349.2196,1845.1646490367748
1351.087,1954.4040215076348
1352.9537,1960.614985236869
1354.8197,2035.8975065352315
1356.6849,2153.251532107326
1358.5493,2267.6269882988054
1360.4131,2363.1237799227965
1362.276,2506.391789116169
1364.1383,2499.28087438456
1365.9998,2388.040869169701
1367.8606,2186.671581920509
1369.7206,2019.622797205513
1371.5799,1800.7942777265234
1373.4384,1628.335765989119
1375.2962,1529.6969864909443
1377.1533,1265.4276474463113
1379.0096,1066.0274417725486
1380.8652,875.8960497327425
1382.7201,693.4831409297076
1384.5742,512.3383762072917
1386.4275,384.5614094745142
1388.2802,321.45188951702585
1390.132,219.75946127486532
1391.9832,252.03376647355617
1393.8336,133.5244446410361
1395.6832,106.58113278492237
1397.5322,81.7534665776002
1399.3803,82.29108062564774
1401.2278,0.9936087181340554
1403.0745,10.960683821223938
1404.9204,-44.00807102506951
1406.7656,-38.01303289032512
1408.6101,-6.054139203472005
1410.4538,6.419052356726752
1412.2968,49.50704459235567
1414.139,30.16034024131659
1415.9805,90.02944154645593
1417.8213,119.61485044901929
1419.6613,201.16706798995438
1421.5006,282.7865940140946
1423.3391,423.92392635461147
1425.1769,589.0795600167949
1427.0139,865.3539857666947
1428.8502,1222.0476884796044
1430.6858,1536.1611443772745
1432.5206,1753.79481746101
1434.3547,1921.6491563705094
1436.188,1978.824592207522
1438.0206,1946.2215368573234
1439.8524,1819.5903824169582
1441.6835,1770.4815015212444
1443.5139,1701.8952486091002
1445.3435,1680.531960414628
1447.1724,1739.5419566529818
1449.0005,1668.7755402340044
1450.8279,1624.0329966721256
1452.6545,1685.8645947940386
1454.4804,1751.6205871860984
1456.3056,1763.7512095760212
1458.13,1705.0066801753273
1459.9536,1686.2871995580444
1461.7766,1549.0429512481205
1463.5987,1337.374101906662
1465.4202,1154.280802704332
1467.2409,932.6131914380712
1469.0608,854.5713943620158
1470.88,692.705528404169
1472.6984,555.9657019468286
1474.5161,421.4520164452442
1476.3331,348.06456779501605
1478.1493,307.65344767723946
1479.9648,316.71874429237505
1481.7795,267.8605427643506
1483.5935,240.57892504992196
1485.4067,231.52397042723896
1487.2192,247.14575576867355
1489.031,271.5443556313676
1490.842,272.0698421010202
1492.6522,245.47228454790093
1494.4618,223.15174962158744
1496.2705,246.20830151694463
1498.0785,224.99200219732847
1499.8858,238.40291116401204
1501.6924,213.1410856683542
1503.4981,228.2065805776947
1505.3032,204.44944862797092
1507.1075,172.21974027307078
1508.911,166.6675039223901
1510.7138,183.09278626313426
1512.5159,147.94563231585016
1514.3172,115.27608527015764
1516.1178,93.48418683624186
1517.9176,95.2199775715344
1519.7166,95.73349709862305
1521.515,79.32478408790666
1523.3126,90.89387625244672
1525.1094,65.14081051206449
1526.9055,77.66562287764464
1528.7008,72.41834870867388
1530.4954,-10.350977411993881
1532.2893,61.65767837430394
1534.0824,18.494453332490593
1535.8747,51.00948411092031
1537.6663,32.25290717300777
1539.4572,6.774858472090273
1541.2473,68.72547363897684
1543.0367,55.25488823672458
1544.8253,33.16323714115242
1546.6132,87.80065467553504
1548.4003,106.41727483152681
1550.1867,132.91323072277373
1551.9723,169.63865439876463
1553.7572,266.8936765798535
1555.5414,314.3284262900215
1557.3247,371.49302988430645
1559.1074,508.237610574477
1560.8893,604.8622878573842
1562.6705,700.6671761475118
1564.4509,835.1023838107303
1566.2305,884.6180122062433
1568.0094,970.1141543422382
1569.7876,984.4408943807193
1571.565,967.7983067825644
1573.3417,991.6364561642458
1575.1176,1006.7053974642658
1576.8928,1005.7551757047568
1578.6672,998.2858258407978
1580.4409,1046.2973727699227
1582.2138,1030.8398314068145
1583.986,1076.713206203185
1585.7575,1168.9674913023573
1587.5282,1212.70267008052
1589.2981,1301.8687142241997
1591.0673,1323.715583292902
1592.8358,1439.9432238274494
1594.6035,1496.251569131513
1596.3704,1528.4905381093304
1598.1366,1596.0100347026237
1599.9021,1632.4599475682244
1601.6668,1687.8901494028723
1603.4308,1758.3504965787142
1605.194,1856.890828589001
1606.9564,1987.6609673434887
1608.7182,2159.9107161830234
1610.4791,2373.639858571856
1612.2394,2559.198156375136
1613.9988,2744.9353477216155
1615.7576,2987.151145148082
1617.5156,3114.095233741982
1619.2728,3212.6672687192513
1621.0293,3173.566874154887
1622.785,3060.2936419972084
1624.54,2855.197132458883
1626.2942,2659.1768751496384
1628.0477,2381.532371127245
1629.8005,2179.1630948577003
1631.5525,1991.868496991683
1633.3037,1815.548006388237
1635.0542,1709.1510319877234
1636.804,1590.7769645750195
1638.553,1476.325177843506
1640.3013,1453.5450295787996
1642.0488,1431.3358628032674
1643.7955,1456.0970060038308
1645.5416,1501.377773354061
1647.2868,1567.5774644665562
1649.0313,1640.7953639401385
1650.7751,1737.380740697865
1652.5181,1821.7328472548397
1654.2604,1921.4009187523588
1656.0019,2059.3841721143945
1657.7427,2233.881805050918
1659.4828,2385.8929946780645
1661.222,2500.016895773151
1662.9606,2510.752639254586
1664.6984,2402.199331040607
1666.4354,2176.406051941927
1668.1717,1844.5718587472747
1669.9072,1514.8457864813226
1671.642,1230.8768517230328
1673.3761,1049.764055902915
1675.1094,851.6063881427144
1676.8419,716.0528270665418
1678.5737,581.8523427824512
1680.3048,525.7538982379701
1682.0351,451.6064505621107
1683.7646,390.6089516263455
1685.4934,328.96034878609316
1687.2215,282.55958549069146
1688.9488,253.6556018998781
1690.6754,223.64733534779953
1692.4012,219.48372063205716
1694.1263,180.1136903137849
1695.8506,187.28617475929605
1697.5742,198.95010253377222
1699.297,128.40440032953666
1701.0191,95.34799284942528
1702.7404,70.22980351222577
1704.461,48.39875478324939
1706.1808,55.60376842552432
1707.8999,58.043765718082796
1709.6182,62.86766738393453
1711.3358,53.574393565657374
1713.0527,37.412863777144594
1714.7688,16.23199699657198
1716.4841,13.430711827984851
1718.1987,27.107926713120833
1719.9126,5.062559959415012
1721.6257,5.993529603229035
1723.338,30.89975363031772
1725.0496,6.630149966502358
1726.7605,-4.116363771388933
1728.4706,6.909129967181798
1730.18,-20.94441014478616
1731.8886,13.171974496630355
1733.5964,-22.59254826999313
1735.3036,-0.43881073779084545
1737.0099,-6.517419500345568
1738.7156,-8.978976767532004
1740.4204,-33.82401964019846
1742.1246,-3.9529955192301713
1743.8279,-0.7160139035677275
1745.5306,14.086855198269404
1747.2325,-14.344451069273418
1748.9336,-19.459995702609376
1750.634,-25.459698397078682
1752.3336,-15.743284442674849
1754.0325,-2.8102247870046995
1755.7307,11.540166897735617
1757.4281,24.75860501348143
1759.1247,52.34580384676701
1760.8206,69.80247743655673
1762.5158,81.1793392983509
1764.2102,75.22710224965704
1765.9039,51.79647829618807
1767.5968,52.28817869139675
1769.289,64.55291417077751
1770.9804,59.04139494695664
1772.6711,85.10433058702984
1774.361,82.59243006768156
1776.0502,112.65640151455227
1777.7386,88.24695222736955
1779.4263,120.76478837929608
1781.1132,119.41061526104022
1782.7994,100.08513695566216
1784.4849,148.4390563521174
1786.1696,140.47307533850835
1787.8535,136.08789431856349
1789.5367,128.3342122912727
1791.2192,169.76272689476355
1792.9009,145.1741344838174
1794.5818,143.31912971560268
1796.2621,142.84840579555203
1797.9415,141.01265449590028
1799.6202,163.01256616041246
1801.2982,171.5488297227348
1802.9755,166.37213248638545
1804.6519,181.03316003939835
1806.3277,163.13259630610082
1808.0027,161.32112340049207
1809.6769,199.09942180524922
1811.3504,186.46817038985319
1813.0231,185.92804603277727
1814.6951,178.02972374782257
1816.3664,225.97387668951524
1818.0369,244.9111762320772
1819.7067,206.69229148999693
1821.3757,229.56788912865704
1823.044,246.08863374652174
1824.7115,257.50518764637854
1826.3783,232.4682106701457
1828.0443,227.17836008469385
1829.7096,253.93629083221094
1831.3741,262.59265558311563
1833.0379,262.39810446846604
1834.701,253.4032849933992
1836.3633,288.80884203907226
1838.0248,284.41541795261037
1839.6856,275.2236521930572
1841.3457,320.58418137530316
1843.005,302.74763936200907
1844.6636,335.91465680999136
1846.3214,287.5358613486005
1847.9785,340.6118772480386
1849.6349,357.5933259031608
1851.2904,341.2808253027051
1852.9453,348.92498985948714
1854.5994,336.3764305735158
1856.2528,374.38575495555597
1857.9054,359.90356715260987
1859.5572,376.58046756783006
1861.2083,380.0670530053376
1862.8587,398.5139165034452
1864.5084,407.72164729981523
1866.1572,392.69083064696497
1867.8054,384.0720477202076
1869.4528,384.1158757679459
1871.0994,389.37288819787136
1872.7453,417.2436545765113
1874.3905,386.1787405766727
1876.0349,394.37870769872643
1877.6786,436.84411358126636
1879.3215,438.97551191909224
1880.9637,442.0734520385731
1882.6051,424.6384788763298
1884.2458,438.5211329482481
1885.8858,428.97195052384177
1887.525,452.39146348741724
1889.1634,433.3301994335643
1890.8011,448.6386814329653
1892.4381,436.01742822300184
1894.0743,455.3169540546687
1895.7098,466.2877688187955
1897.3446,462.9803778530386
1898.9786,448.395281832185
1900.6118,465.8829768012147
1902.2443,428.4939543211649
1903.8761,444.6287012942448
1905.5071,402.63770033772744
1907.1374,413.6714296226073
1908.7669,431.9803632935027
1910.3957,445.0149713583196
1912.0237,416.3757195051612
1913.651,422.3130689719883
1915.2776,417.7274768330126
1916.9034,422.5193959393191
1918.5285,423.33927496471915
1920.1528,383.23755835783595
1921.7764,410.01468633390505
1923.3992,377.62109527579014
1925.0213,379.3572174662095
1926.6427,357.67348141167713
1928.2633,342.07031182513583
1929.8832,388.19812984279815
1931.5023,345.4073531801814
1933.1207,346.64839567082254
1934.7383,369.22166769419164
1936.3552,353.52757616327835
1937.9714,345.91652429885835
1939.5868,321.5389117864315
1941.2015,325.6951348523371
1942.8154,336.0855865075282
1944.4286,321.11065650600904
1946.041,311.9707312409291
1947.6528,312.26619389433563
1949.2637,306.24742452857026
1950.8739,283.0648000833198
1952.4834,286.5186944357938
1954.0921,313.2094786325588
1955.7001,314.7375208549947
1957.3074,302.60318615238975
1958.9139,283.2568364266608
1960.5197,285.0988305536948
1962.1247,275.5795245768177
1963.729,261.6492716883731
1965.3325,257.35842232490904
1966.9353,261.2573243064853
1968.5374,267.9963228795805
1970.1387,268.5257606781015
1971.7393,252.49597765599628
1973.3392,244.50731108195578
1974.9383,219.8100956997123
1976.5366,216.70466380792732
1978.1342,225.591345507165
1979.7311,245.12046873094823
1981.3273,226.3923591568864
1982.9227,232.75734001139062
1984.5173,228.41573225695538
1986.1112,206.11785452850927
1987.7044,206.81402317682387
1989.2968,204.0045524914949
1990.8885,249.58975469397865
1992.4795,243.3699399656898
1994.0697,212.49541599215263
1995.6592,227.7164880251903
1997.2479,211.9834591916815
1998.8359,228.69663034134282
2000.4232,202.45630020405588
2002.0097,208.51276522274657
2003.5955,190.7663198157734
2005.1805,198.16725631637837
2006.7648,207.31586515013714
2008.3484,212.1624347609586
2009.9312,209.9572515195905
2011.5133,211.35059967516372
2013.0946,217.1927613772359
2014.6752,196.03401666186346
2016.2551,196.32464339318267
2017.8342,181.56491747498876
2019.4126,184.60511284783388
2020.9902,179.1455016366208
2022.5672,183.88635412020813
2024.1433,189.9279387860015
2025.7188,183.9705222825487
2027.2935,188.36436935911843
2028.8674,170.70974292527353
2030.4406,178.30690400694039
2032.0131,139.50611192294764
2033.5849,183.1576242090605
2035.1559,177.66169700598675
2036.7261,178.01858462286145
2038.2957,195.27853959219829
2039.8645,180.19181266633404
2041.4325,184.25865264482218
2042.9998,178.02930652529903
2044.5664,168.75401946281818
2046.1323,178.7830348321395
2047.6974,149.6665943204871
2049.2617,168.05493782725534
2050.8254,181.39830375517613
2052.3883,185.89692882643612
2053.9504,187.501047949243
2055.5118,187.76089417283947
2057.0725,188.5266986714596
2058.6325,175.59869074173002
2060.1917,165.97709779501565
2061.7502,155.1621454866954
2063.3079,158.65405781238223
2064.8649,164.80305721606874
2066.4212,187.4093645552066
2067.9767,177.22319903922016
2069.5315,154.9447780034434
2071.0856,152.52431701098703
2072.6389,148.06203007551358
2074.1915,148.60812968544906
2075.7433,130.1128268486018
2077.2945,142.72633108670198
2078.8448,136.99885062035355
2080.3945,137.580592242899
2081.9434,126.87176137768984
2083.4916,142.97256207227656
2085.039,137.63319710549422
2086.5857,145.35386782645855
2088.1317,144.33477420795407
2089.677,129.67611476922775
2091.2215,126.72808658617942
2092.7652,148.59088543795315
2094.3083,137.41470583641512
2095.8506,144.99974080752418
2097.3921,172.09618200309887
2098.933,156.1542196249593
2100.4731,164.8240421539649
2102.0124,164.455836509439
2103.5511,169.84978796246742
2105.089,163.20608013957917
2106.6261,173.82489496880316
2108.1626,165.7564127461137
2109.6983,149.40081202923466
2111.2332,149.40826971833485
2112.7675,160.878961219576
2114.301,148.21306044503854
2115.8337,203.86073969801873
2117.3657,173.8221697996796
2118.897,188.09751953258547
2120.4276,173.38695594107594
2121.9575,159.09064418851813
2123.4866,170.00874770441806
2125.0149,167.34142832737052
2126.5426,167.23884619588716
2128.0695,167.45115977506066
2129.5956,169.92852585760193
2131.1211,145.82109956171007
2132.6458,173.32903430630267
2134.1698,181.402482052089
2135.693,161.3915930264875
2137.2155,177.3965156428967
2138.7373,176.96739670080206
2140.2584,191.35438122572577
2141.7787,170.2076124735213
2143.2983,154.32723178650122
2144.8171,152.4133788049021
2146.3353,152.41619162568895
2147.8527,148.3858068217005
2149.3693,163.02235944161112
2150.8853,157.32598305024112
2152.4005,140.14680958219105
2153.9149,138.93496939880424
2155.4287,135.49059145995489
2156.9417,142.51380333617362
2158.454,161.454731243085
2159.9655,140.9134999711796
2161.4764,150.29023269640766
2162.9865,144.53505118558132
2164.4958,158.99807570261692
2166.0045,142.92942506608233
2167.5124,159.27921650456665
2169.0195,143.6975658173651
2170.526,169.38458721098505
2172.0317,156.49039345496203
2173.5367,164.96509562498431
2175.0409,187.75880323184265
2176.5445,178.7716241366743
2178.0473,164.10366432303363
2179.5494,149.10502798675589
2181.0507,160.7758176826428
2182.5513,147.11613447444688
2184.0512,165.47607781816896
2185.5504,159.10574569864275
2187.0488,139.60523444594492
2188.5465,129.17463879909883
2190.0435,121.91405210107405
2191.5397,143.523566403097
2193.0353,127.40327253725536
2194.5301,127.60325990040292
2196.0241,123.22361661536434
2197.5175,115.06442952893485
2199.0101,124.22578425567008
2200.502,122.10776525948495
2201.9931,101.56045576203542
2203.4835,101.3839377639024
2204.9733,102.4782922500608
2206.4622,115.94359919164708
2207.9505,108.52993753501687
2209.438,85.53738506709033
2210.9248,82.06601848949231
2212.4109,106.01591364848082
2213.8962,108.28714556965133
2215.3809,96.32978821844699
2216.8648,98.99391447743983
2218.3479,86.92959626591073
2219.8304,90.23690451319453
2221.3121,110.01590927933921
2222.7931,90.46667972202249
2224.2733,76.58928389876974
2225.7529,74.58378896244494
2227.2317,76.70026130002043
2228.7098,76.73876655263211
2230.1872,54.49936959441766
2231.6638,78.73213453212793
2233.1397,72.78712492752356
2234.6149,71.06440355504583
2236.0894,68.7640324612662
2237.5632,62.886072982108544
2239.0362,66.28058576586045
2240.5085,80.54763083194894
2241.9801,56.08726753699602
2243.4509,55.59955443214949
2244.921,64.284549507684
2246.3904,55.14231019788258
2247.8591,45.12289329418172
2249.3271,50.22635503659785
2250.7943,57.70275121391933
2252.2608,66.4521371126757
2253.7266,56.224567442375246
2255.1917,52.62009624800703
2256.656,44.53877701231522
2258.1197,58.08066269183928
2259.5826,42.24580579773283
2261.0447,63.184258260343086
2262.5062,37.8460715875608
2263.9669,48.031296655431106
2265.4269,62.889983961539656
2266.8862,61.8721835231604
2268.3448,44.42794472866899
2269.8026,49.057316347719734
2271.2598,62.360346705688244
2272.7162,46.68708363737824
2274.1719,52.787574353988475
2275.6268,54.411865599846806
2277.0811,63.660003591407076
2278.5346,62.73203400100829
2279.9874,72.57800186439226
2281.4395,68.7479515899845
2282.8908,74.14192686042497
2284.3414,70.85997067087419
2285.7914,65.80212527507956
2287.2406,73.81843221819145
2288.689,86.55893238734097
2290.1368,68.17366593147972
2291.5838,66.06267213396723
2293.0302,84.12598959642673
2294.4758,56.71365625985618
2295.9206,72.125709223993
2297.3648,64.3621850214372
2298.8082,78.27311946352802
2300.251,77.60854771798859
2301.693,74.91850416981242
2303.1343,82.10302242791022
2304.5748,64.21213535200877
2306.0147,75.145874980808
2307.4538,63.50427271088893
2308.8922,76.58735918738012
2310.3299,75.7451644203743
2311.7669,70.42771765408907
2313.2031,56.58504737528574
2314.6387,62.76718136645468
2316.0735,61.72414684422711
2317.5076,56.655970397571764
2318.941,60.7126779982118
2320.3737,84.59429505131357
2321.8056,79.30084635491949
2323.2369,67.18235586113133
2324.6674,56.13884672904487
2326.0972,63.17034144593481
2327.5263,71.72686193768959
2328.9547,61.1584294984973
2330.3823,73.26506470527784
2331.8092,84.44678752336722
2333.2355,65.0036171854531
2334.661,71.48557207975455
2336.0858,71.14266994445416
2337.5098,87.27492780288185
2338.9332,89.18236196694261
2340.3558,68.36498787579376
2341.7778,64.92282007676886
2343.199,62.95587243355567
2344.6195,68.56415816061553
2346.0393,67.7476898428522
2347.4583,66.25647937952908
2348.8767,68.4405379924342
2350.2943,74.04987624079104
2351.7113,79.5845039994183
2353.1275,74.5944304026375
2354.543,76.77966378892688
2355.9578,73.14021175082325
2357.3718,79.27608111306881
2358.7852,55.13727796900412
2360.1978,78.57380761921013
2361.6098,78.08567481289765
2363.021,72.022883513539
2364.4315,70.68543690375054
2365.8413,69.67333744591951
2367.2504,76.6865868955806
2368.6587,64.37518631153443
2370.0664,63.739135985717894
2371.4733,63.2784355663166
2372.8795,61.74308406412683
2374.285,56.88307985716301
2375.6899,44.648420706011166
2377.0939,46.98910380242887
2378.4973,49.205125891691296
2379.9,40.796483249182074
2381.3019,45.413171658235115
2382.7032,52.90518649422074
2384.1037,51.02252267837821
2385.5035,63.26517460289597
2386.9027,72.38313614973958
2388.3011,67.17640056822529
2389.6987,50.89496038383686
2391.0957,51.588807450297736
2392.492,49.807933112381306
2393.8876,34.60232819897374
2395.2824,42.221983040884425
2396.6765,35.86688762290032
2398.07,33.137031507587835
2399.4627,19.382403898847315
2400.8547,33.40299366920726
2402.246,34.09878949737322
2403.6366,24.419779728021695
2405.0265,20.71595236484245
2406.4156,28.88729516732701
2407.8041,26.333795687811744
2409.1918,25.505441189758585
2410.5789,14.35221867329301
2411.9652,11.374114883486527
2413.3508,38.87111642188938
2414.7358,25.093209776312506
2416.12,3.7403810458581574
2417.5035,31.362616078697556
2418.8863,16.50990068559895
2420.2684,9.882220363705528
2421.6497,15.229560445062361
2423.0304,15.651906162892374
2424.4104,-3.000757401872761
2425.7896,8.371554675179596
2427.1682,2.468857296025817
2428.546,19.891165278927474
2429.9232,1.4384934174599948
2431.2996,10.810856306287405
2432.6753,28.808268525688163
2434.0503,16.580744547837185
2435.4246,6.078298556826667
2436.7982,17.10094457094283
2438.1711,23.348696547689997
2439.5433,22.57156827356448
2440.9148,13.219573301574655
2442.2856,9.092724959015868
2443.6557,-1.1589635590116814
2445.025,6.464520851666293
2446.3937,2.563202873269802
2447.7617,-1.612892876625665
2449.1289,9.286258193926187
2450.4955,13.010696789668145
2451.8613,17.060463522482223
2453.2265,8.235598874144216
2454.5909,14.436143155828177
2455.9546,23.562136596351138
2457.3177,19.76361928017286
2458.68,14.690631056132588
2460.0416,24.943211575432088
2461.4025,18.92140034237036
2462.7627,26.025236611814307
2464.1222,25.20475944942018
2465.4811,16.960007660591145
2466.8392,33.04101979868483
2468.1966,38.197834247459014
2469.5533,39.13048906026415
2470.9093,40.239021908472296
2472.2645,28.673470072153577
2473.6191,30.733870428988666
2474.973,33.42025956992438
2476.3262,29.78267377857128
2477.6787,46.221149004336894
2479.0305,24.635720898806085
2480.3816,24.826424651349953
2481.7319,23.643295204984952
2483.0816,24.28636725446404
2484.4306,20.855675258107567
2485.7789,27.101253431372243
2487.1264,23.323135781160545
2488.4733,11.471356043362448
2489.8195,15.895947720640379
2491.165,2.0469442009439263
2492.5097,13.974378713265196
2493.8538,21.17828446612657
2495.1972,14.55869452830757
2496.5398,10.915641756806053
2497.8818,5.299158863032972
2499.2231,12.209278449242447
2500.5637,25.69603306470208
2501.9035,13.959455136585348
2503.2427,15.149576835107382
2504.5812,6.066430190887331
2505.919,7.610047083051995
2507.256,15.580459330066333
2508.5924,18.87769867429688
2509.9281,21.051796702309275
2511.2631,4.202784811890069
2512.5974,20.58069419031017
2513.9309,21.385555982813003
2515.2638,15.567401128832444
2516.596,15.126260353949874
2517.9275,4.412164228072015
2519.2583,10.025143169842295
2520.5884,9.815227553783643
2521.9178,8.682447654169437
2523.2465,11.776833647120839
2524.5745,9.348415621935828
2525.9018,16.847223550145145
2527.2284,4.223287309793477
2528.5543,24.776636610457217
2529.8796,15.757301119479052
2531.2041,12.065310256437897
2532.5279,23.60069328334089
2533.851,42.363479341542416
2535.1735,15.803697336390542
2536.4952,30.521375749599656
2537.8163,24.216542904849348
2539.1366,22.889226820605018
2540.4562,27.48945527316755
2541.7752,32.467255809947574
2543.0935,26.57265570346067
2544.411,46.555681901551
2545.7279,33.46636108633675
2547.0441,42.45471947438136
2548.3596,44.720782947584894
2549.6744,44.664576963303716
2550.9885,45.886126531686614
2552.3019,38.635456216238026
2553.6146,57.912590121601625
2554.9266,62.217551966069095
2556.2379,33.20036488880646
2557.5485,55.51105140680443
2558.8585,47.34963370505284
2560.1677,62.16613341343009
2561.4762,63.860571688320306
2562.7841,52.982969064446934
2564.0913,70.08334543792921
2565.3977,65.21172017505796
2566.7035,67.46811194129191
2568.0086,63.80253874997243
2569.313,77.81501793976099
2570.6167,67.85556621129399
2571.9197,66.37419948705974
2573.222,75.42093301099135
2574.5236,72.89578136328169
2575.8246,69.49875836991441
2577.1248,70.1298771279155
2578.4244,78.73915003932484
2579.7232,99.57658880488316
2581.0214,87.69220433794112
2582.3189,84.3860065560848
2583.6157,93.95800449997932
2584.9118,79.75820636642902
2586.2072,83.63661941265991
2587.5019,89.19325009831596
2588.7959,98.87810404667607
2590.0893,89.79118598908804
2591.3819,87.98249966811886
2592.6739,94.50204792842578
2593.9652,99.89983273484177
2595.2557,94.17585510717959
2596.5456,104.68011506625453
2597.8348,99.56261169112418
2599.1234,91.8733430140444
2600.4112,98.8623060716468
2601.6983,106.27949698183056
2602.9848,99.37491087387207
2604.2705,93.44854181425467
2605.5556,111.50038287571124
2606.84,103.28042619649136
2608.1237,87.03866279984072
2609.4067,95.07508267620005
2610.689,95.18967494562503
2611.9707,91.98242777742166
2613.2516,83.7533283889984
2614.5319,85.60236307794071
2615.8115,87.629517304302
2617.0903,87.23477567211262
2618.3685,82.56812190910864
2619.6461,81.92953887068006
2620.9229,74.36900858653621
2622.199,79.53651226709167
2623.4745,78.88203037907101
2624.7493,81.40554259383543
2626.0234,86.35702779392523
2627.2968,75.53646404782671
2628.5695,85.29382856045686
2629.8415,77.72909778136909
2631.1128,77.89224730717979
2632.3835,66.33325195721409
2633.6535,73.40208577187536
2634.9228,73.69872212823566
2636.1914,73.52313366934777
2637.4593,81.52529230127743
2638.7265,75.90516919486095
2639.9931,71.91273470568058
2641.259,81.09795843026745
2642.5242,73.16080924602716
2643.7887,78.00125521938594
2645.0525,75.66926368516238
2646.3156,74.26480119816438
2647.5781,73.58783355650826
2648.8398,77.88832581566317
2650.1009,68.31624229522026
2651.3613,67.271546535889
2652.6211,71.05420139521652
2653.8801,66.41416905803658
2655.1385,67.40141099864036
2656.3961,79.66588802717888
2657.6531,81.00756027978969
2658.9094,84.62638709595262
2660.1651,75.12232700507252
2661.42,72.09533769029167
2662.6743,70.49537608352966
2663.9279,74.27239839575418
2665.1808,85.02636013298024
2666.433,88.65721605849967
2667.6846,91.76492008534092
2668.9354,85.64942523996024
2670.1856,96.41068363116597
2671.4351,92.34864651127259
2672.6839,99.56326416848947
2673.9321,96.20448596753886
2675.1795,102.57226027751176
2676.4263,96.36653450545441
2677.6724,93.6872550326907
2678.9179,93.83436727688036
2680.1626,101.40781571881121
2681.4067,95.45754390092702
2682.6501,106.38349435159489
2683.8928,96.08560864460628
2685.1348,90.46382728991875
2686.3761,90.16808983663418
2687.6168,85.34833492921734
2688.8568,94.85450031045161
2690.0961,89.38652286963816
2691.3348,85.1943385475331
2692.5727,97.62788239102906
2693.81,84.78708859507492
2695.0466,90.07189037834087
2696.2826,90.13222011162634
2697.5178,83.91800926501264
2698.7524,82.97918840725902
2699.9863,95.86568726794485
2701.2195,94.97743474685876
2702.452,85.26435878513212
2703.6839,92.17638637412188
2704.9151,84.81344365254176
2706.1456,95.87545583734186
2707.3755,102.76234729733801
2708.6046,93.12404144259244
2709.8331,101.91046065554474
2711.0609,118.12152638739462
2712.2881,114.00715907023869
2713.5145,105.16727795495876
2714.7403,111.45180115236508
2715.9654,129.06064572159517
2717.1899,133.49372760726828
2718.4136,134.10096146339856
2719.6367,150.0322606090631
2720.8591,154.03753702232984
2722.0809,163.46670118094517
2723.3019,161.76966202228004
2724.5223,147.3463268490391
2725.7421,149.69660134623132
2726.9611,165.52038972540186
2728.1795,153.66759470113107
2729.3972,151.23811733279558
2730.6142,150.68185714309675
2731.8306,145.84871214235432
2733.0462,136.73857883407118
2734.2612,124.4013522632631
2735.4756,113.68692610756193
2736.6892,108.14519280058653
2737.9022,99.27604363908631
2739.1145,94.9293688383591
2740.3262,82.05505762094299
2741.5372,74.9529982600834
2742.7475,66.92307820847532
2743.9571,71.7151841692837
2745.1661,57.47920217644423
2746.3744,58.565017546741274
2747.582,49.97251502216773
2748.7889,41.90157875906675
2749.9952,38.602092414056415
2751.2008,29.073939224740343
2752.4057,28.067002042700096
2753.61,23.83116342877929
2754.8136,23.216305663151616
2756.0165,18.872310787678998
2757.2188,15.099060612061294
2758.4204,19.246436757276342
2759.6213,19.614320693310674
2760.8215,29.902593697687053
2762.0211,19.71113685178625
2763.22,16.28983093796387
2764.4182,14.088556541464186
2765.6158,19.05719408463392
2766.8127,18.895623848934292
2768.009,8.303725925256003
2769.2045,6.8813802155329995
2770.3994,2.178466538662633
2771.5936,6.594864644728887
2772.7872,2.580454262031253
2773.9801,-9.414884947078008
2775.1723,2.5087266539489974
2776.3639,-1.3487372436402438
2777.5548,-9.737302973683654
2778.745,-8.606983396135092
2779.9346,-17.907694095292072
2781.1235,-7.2892646716882155
2782.3117,-3.6013458279946917
2783.4992,-0.44351544712822033
2784.6861,-0.01531543456280815
2785.8723,-4.466283265053335
2787.0579,-9.195956260353341
2788.2428,-4.503827124048485
2789.427,-1.4392966921213883
2790.6106,-1.8517208073224083
2791.7935,7.409559066170459
2792.9757,-5.204780037129922
2794.1573,6.505938843194144
2795.3382,13.642444663314109
2796.5184,10.205466314340583
2797.698,4.945732550960884
2798.8769,18.36397202580679
2800.0551,18.460913342054482
2801.2327,31.687284919238664
2802.4096,30.29381499228475
2803.5859,50.28123147924566
2804.7615,40.450261995234996
2805.9364,57.05163365255521
2807.1106,66.03607315900535
2808.2842,88.70430665187189
2809.4572,98.50705960808284
2810.6294,116.64505661752355
2811.801,142.2190212850105
2812.972,151.97967604890982
2814.1423,169.22774192539805
2815.3119,196.51393841085542
2816.4808,219.48898330938505
2817.6491,251.10359245995096
2818.8167,281.0084795066282
2819.9837,309.6043555824564
2821.15,334.69192901039037
2822.3157,375.1719050173426
2823.4807,405.04498548330537
2824.645,448.1618685365536
2825.8086,471.7232482549124
2826.9716,506.92981423458855
2828.134,526.3322513545573
2829.2957,559.5312394244959
2830.4567,584.2774529907592
2831.617,591.97156100439
2832.7767,595.0642265736569
2833.9358,593.5061068871132
2835.0941,597.4978531826704
2836.2519,593.4401107631787
2837.4089,561.4835189565105
2838.5653,554.5787111561373
2839.7211,559.0763151406956
2840.8761,556.2269531430362
2842.0306,551.2812418052474
2843.1843,562.7897922071477
2844.3374,588.253209915744
2845.4899,608.322094870146
2846.6417,635.0470411269308
2847.7928,667.4286366594561
2848.9433,704.2674630906089
2850.0931,740.364095368991
2851.2422,786.0691014005301
2852.3907,807.7330416875132
2853.5385,829.5064688715357
2854.6857,865.7399275168646
2855.8323,887.1339538927022
2856.9781,923.5890756108521
2858.1233,943.8058114117794
2859.2679,973.9346708000583
2860.4118,1009.7761538422046
2861.555,1021.9307508653882
2862.6976,1054.7489420990182
2863.8395,1067.831197553197
2864.9808,1088.2779766905373
2866.1214,1112.3897282953403
2867.2614,1116.816890269129
2868.4007,1117.059889389528
2869.5393,1132.7691412659942
2870.6773,1145.8950503373856
2871.8146,1147.8880097148703
2872.9513,1155.0984010506663
2874.0874,1131.0265945181122
2875.2227,1134.1729487395633
2876.3574,1121.0378110271088
2877.4915,1110.4215173511097
2878.6249,1085.9743924715494
2879.7577,1069.596750044196
2880.8898,1056.7388928650748
2882.0212,1054.8011130342445
2883.152,1051.8336920843744
2884.2821,1043.5369010001236
2885.4116,1015.2610002478157
2886.5405,1030.006239858405
2887.6686,1032.5728597102373
2888.7962,1037.261089381595
2889.923,1041.0211481250337
2891.0493,1047.5032448204977
2892.1748,1054.1575779377204
2893.2997,1059.1843354714028
2894.424,1066.7836948746722
2895.5476,1069.9558230088114
2896.6706,1088.1508760672668
2897.7929,1090.8689995439265
2898.9145,1106.5603280511714
2900.0355,1121.5249852926922
2901.1559,1137.0130839065764
2902.2756,1157.774725315662
2903.3946,1175.9599995726562
2904.513,1185.4189851525202
2905.6308,1212.3017487706147
2906.7479,1211.3083452881115
2907.8643,1237.4388174431638
2908.9801,1246.3931958608441
2910.0953,1241.3714987918345
2911.2098,1240.223732022888
2912.3236,1246.399888927041
2913.4368,1245.0999504750944
2914.5494,1215.0738851738477
2915.6613,1208.0216490791042
2916.7725,1184.043186095928
2917.8831,1167.5884280491664
2918.9931,1158.4072949232363
2920.1024,1140.649695026671
2921.211,1119.7155250839307
2922.319,1108.6046704129803
2923.4264,1106.167005134629
2924.5331,1112.9023922836395
2925.6391,1104.4106838331056
2926.7445,1107.9417206270962
2927.8493,1105.495332465575
2928.9534,1107.521338069089
2930.0569,1119.8695451032327
2931.1597,1109.9397501583871
2932.2619,1125.1317386262378
2933.3634,1119.495284799074
2934.4643,1128.3801517178676
2935.5645,1118.786091228638
2936.6641,1116.1128438936032
2937.763,1096.6601390871208
2938.8613,1077.3776950224214
2939.959,1055.4652189461342
2941.056,1020.3724073311126
2942.1523,981.2489460955576
2943.248,942.9945109539467
2944.3431,892.1087678082683
2945.4375,826.5913731305665
2946.5313,784.4919744717979
2947.6244,728.310211117006
2948.7169,670.8457145063143
2949.8087,618.048108796745
2950.8999,577.0170114368635
2951.9904,529.7520336947541
2953.0803,495.6527810683315
2954.1696,455.21885375799013
2955.2582,425.4498470075978
2956.3462,400.99535150883366
2957.4335,380.75495369887904
2958.5202,365.5282360049624
2959.6062,345.11477704676213
2960.6916,346.3641517886749
2961.7764,325.37593174395
2962.8605,317.04968496219635
2963.9439,317.4849762392623
2965.0267,304.23136720050024
2966.1089,310.68841629641304
2967.1905,298.0556789351898
2968.2714,310.4327074181365
2969.3516,317.3190510660029
2970.4312,309.36425609521166
2971.5102,307.86786554899595
2972.5885,317.1294193769462
2973.6662,318.14845444997525
2974.7432,322.12450446770197
2975.8196,332.457099948261
2976.8954,323.59576818854225
2977.9705,325.0900331608649
2979.045,320.5394156015906
2980.1188,309.7934329961811
2981.192,295.20159962470393
2982.2645,294.9134266692927
2983.3364,272.3784223600651
2984.4077,270.09609197800523
2985.4783,254.36593808031375
2986.5483,243.23746052323008
2987.6177,223.76015661933434
2988.6864,205.8335212488323
2989.7545,193.60704705432818
2990.8219,174.08022462009126
2991.8887,163.20254259432045
2992.9548,138.5234878844127
2994.0204,135.79254576573976
2995.0852,105.95920012843885
2996.1495,96.07293350472207
2997.2131,82.13322736720977
2998.276,72.38956222779325
2999.3383,57.84141777703178
3000.4,55.138272981589125
3001.4611,41.32960622971484
3002.5215,26.464895358276408
3003.5812,22.34361779084543
3004.6404,12.915250686344507
3005.6989,14.92927098026098
3006.7567,11.285155478929482
3007.8139,8.532380839392545
3008.8705,-1.1295763941584482
3009.9264,-3.3512397628563804
3010.9818,0.46687847663440607
3012.0364,-3.7757004534660155
3013.0905,2.2705446643944924
3014.1439,-4.1948272329854035
3015.1966,-8.272257231511844
3016.2487,0.2378554892328566
3017.3002,-0.9148056104836542
3018.3511,-7.280557072771671
3019.4013,-3.8597063008342047
3020.4509,-2.8524879651093897
3021.4998,-6.3090981775693535
3022.5481,-12.529704553831948
3023.5958,-1.264411681624324
3024.6428,4.986801023074918
3025.6892,1.8739667757590723
3026.735,-2.3528812579460237
3027.7802,3.9562900688454192
3028.8247,0.40153740830271545
3029.8685,5.632917373032512
3030.9118,18.350486571626107
3031.9544,14.804301556346331
3032.9963,16.394418695950833
3034.0376,15.72089421115436
3035.0783,22.833784158727724
3036.1184,22.883144438232478
3037.1578,36.11903072089291
3038.1966,31.59149844910121
3039.2348,37.85060270405961
3040.2723,34.74639825105504
3041.3092,38.37893947686882
3042.3455,38.948280420818435
3043.3811,41.85447473843226
3044.4161,43.297575695756166
3045.4505,42.77763614029209
3046.4842,38.79470848656649
3047.5173,42.49884472132959
3048.5498,47.340096443384596
3049.5816,48.26851482654661
3050.6128,39.53415057123004
3051.6434,39.18705389516441
3052.6734,45.02727462073756
3053.7027,53.30486217846726
3054.7314,47.369865548598455
3055.7594,49.77233317832747
3056.7868,50.51231304115231
3057.8136,44.03985261284788
3058.8398,43.20499886406651
3059.8653,45.1577983250624
3060.8902,39.69829709403939
3061.9145,45.62654081762389
3062.9381,40.242574745459365
3063.9612,48.04644367092396
3064.9835,46.48819198497034
3066.0053,52.267863598086706
3067.0264,45.385501955879306
3068.0469,45.941149981276396
3069.0668,40.834850143350764
3070.086,43.91664445176383
3071.1046,45.386574507828755
3072.1226,40.44468147369224
3073.1399,38.19100605763566
3074.1567,41.825588563493454
3075.1727,31.348468913190118
3076.1882,32.7596866103944
3077.203,25.809280845290175
3078.2173,17.797290480464994
3079.2308,25.923754120413435
3080.2438,23.08871019165747
3081.2561,28.04219686148167
3082.2678,15.184252066283591
3083.2789,16.96491346203902
3084.2893,11.434218552881362
3085.2991,20.842204673294873
3086.3083,4.538909043421597
3087.3169,14.32436867498194
3088.3248,11.54862053430719
3089.3321,14.511701444485254
3090.3388,14.513648113118165
3091.3449,10.404497102690755
3092.3503,9.834284830551667
3093.3551,4.653047610004592
3094.3593,4.510821656010535
3095.3629,1.257643137000116
3096.3658,3.3435481762957124
3097.3681,7.368572884643413
3098.3698,3.8827533393539397
3099.3708,8.08612554405238
3100.3713,9.37872546353617
3101.3711,7.010588981741876
3102.3702,3.081751888819099
3103.3688,4.942249904811774
3104.3667,5.542118718946369
3105.364,6.631393971026739
3106.3607,2.9101112454358145
3107.3568,7.978306060242687
3108.3522,-4.563986095584539
3109.347,4.083270187139419
3110.3412,0.3201559118207342
3111.3348,-0.8032479589668924
3112.3277,4.563139534148661
3113.32,8.019407374986656
3114.3117,3.4656445017350848
3115.3028,4.101939772388164
3116.2932,5.378382010284099
3117.2831,0.09505999774177099
3118.2723,6.702062463296556
3119.2608,2.849477185834246
3120.2488,2.6373918772198977
3121.2361,6.515894220824066
3122.2229,6.185071873643494
3123.209,8.295012427515928
3124.1944,6.3458034124286655
3125.1793,7.33753227541888
3126.1635,13.320286400065925
3127.1471,6.6941530965739275
3128.1301,7.3592195419442135
3129.1125,10.615572846236631
3130.0942,12.063300045918936
3131.0753,11.602488071303327
3132.0558,7.783223732068933
3133.0357,13.105593721870179
3134.015,8.319684656529319
3134.9936,8.0755830208127
3135.9716,9.273375216290049
3136.949,13.413147563775397
3137.9258,9.844986291349386
3138.902,10.668977492961062
3139.8775,12.735207164109852
3140.8524,16.243761193605337
3141.8267,20.694725342905173
3142.8004,15.088185211029327
3143.7735,19.824226190050666
3144.7459,18.552933521160185
3145.7178,14.124392247306787
3146.689,21.988687225909985
3147.6596,18.395903173145513
3148.6295,27.196124585302243
3149.5989,17.739435774710216
3150.5676,23.47592078173824
3151.5357,23.80566346936095
3152.5032,19.128747465793737
3153.4701,19.54525616119568
3154.4364,23.10527275443829
3155.402,23.208880248940773
3156.367,24.00616141706979
3157.3315,23.44719879910332
3158.2952,27.68207469525788
3159.2584,24.910871171278075
3160.221,28.383670016087905
3161.1829,33.950552769502764
3162.1442,28.961600687501402
3163.105,23.86689468655706
3164.065,24.21651539352723
3165.0245,25.36054319660056
3165.9834,28.14905824180053
3166.9416,26.782140421545392
3167.8993,30.709869346762872
3168.8563,34.63232436055921
3169.8127,35.649584498942374
3170.7684,40.16172845159704
3171.7236,32.6188345517123
3172.6782,32.970980730859935
3173.6321,34.46824459442362
3174.5854,38.16070341807725
3175.5381,39.69843413281225
3176.4902,40.13151328801311
3177.4417,40.960017036080274
3178.3926,40.83402112809884
3179.3428,35.753600905553924
3180.2924,36.11883130159032
3181.2415,39.17978689181675
3182.1899,42.986541890653825
3183.1377,39.839170120724276
3184.0848,44.137744974785306
3185.0314,37.6323394472025
3185.9773,38.87302609096392
3186.9227,46.80987708273446
3187.8674,39.5429642104487
3188.8115,43.572358793942556
3189.755,50.4981317576223
3190.6979,45.67035359017075
3191.6402,45.43909427528948
3192.5818,51.2544233399766
3193.5229,51.16640985683932
3194.4633,48.97512238594071
3195.4031,50.08062897567987
3196.3423,49.68299718470483
3197.2809,50.33229407085733
3198.2189,53.87858619514914
3199.1563,56.62193961526927
3200.0931,56.66241985012073
3201.0292,55.850091852387465
3201.9648,55.03502000812914
3202.8997,55.16726814490457
3203.834,57.446899539922384
3204.7677,55.523976918718716
3205.7008,58.648562432360634
3206.6333,55.62071767667558
3207.5652,63.790503661005445
3208.4964,63.207980838484914
3209.4271,56.42320902434379
3210.3571,57.88624740173201
3211.2865,63.547154589567384
3212.2154,59.25598862790541
3213.1436,63.51280692132998
3214.0712,70.61766628186514
3214.9982,66.37062288640693
3215.9246,65.92173220567472
3216.8503,69.52104904668172
3217.7755,66.7186275572239
3218.7001,73.26452118988668
3219.624,71.25878273006938
3220.5473,71.0514642305261
3221.4701,71.59261703142316
3222.3922,71.48229176241227
3223.3137,74.77053833721908
3224.2346,77.30740595474623
3225.1549,73.74294306619112
3226.0746,78.7771973496771
3226.9937,76.51021574589804
3227.9121,76.74204440777605
3228.83,76.172728723131
3229.7473,76.35231331236244
3230.6639,80.43084203414257
3231.5799,82.25835798362056
3232.4954,81.63490345163711
3233.4102,78.46051990644946
3234.3244,78.98524799996584
3235.238,81.2591275994892
3236.151,80.7321977824702
3237.0634,83.80449681376807
3237.9752,88.2760621509202
3238.8864,85.74693041341892
3239.797,91.91713733799611
3240.7069,82.63671780391417
3241.6163,92.60570577126434
3242.5251,88.02413437377055
3243.4332,89.94203581909983
3244.3408,90.6594414346778
3245.2477,91.2763816485099
3246.154,91.29288598200701
3247.0598,92.30898304381634
3247.9649,92.97470052965619
3248.8694,93.49006521215506
3249.7733,90.95510293419446
3250.6766,94.16983860375527
3251.5793,97.38429621926736
3252.4814,97.74849883746217
3253.3829,99.86246854122822
3254.2838,95.47622643596912
3255.1841,98.98979262846372
3256.0838,100.05318627072865
3256.9829,97.21642552488262
3257.8814,100.62952755251254
3258.7792,98.49250854304101
3259.6765,99.65538367959539
3260.5731,102.81816716037801
3261.4692,103.0308721870373
3262.3647,105.44351093304009
3263.2595,99.75609454154446
3264.1538,102.66863310127336
3265.0474,105.63113570338888
3265.9404,102.84361041236667
3266.8329,98.00606423637115
3267.7247,100.86850315513051
3268.616,102.3309321683124
3269.5066,100.39335526689939
3270.3966,98.05577541856474
3271.286,98.31819458704813
