RamanShift,CorrectedData
30.1047,3338.44696520868
32.3739,3120.358361152404
34.6426,2898.969723711658
36.9109,2689.130988298389
39.1787,2467.742061334846
41.4461,2252.952822351966
43.7131,2036.3631262032668
45.9796,1820.5228052127366
48.2456,1611.3316713407294
50.5112,1390.9895183423698
52.7764,1177.3461238594664
55.0411,969.251251623931
57.3054,752.154653594214
59.5692,541.6060720362527
61.8326,327.2052416944377
64.0955,120.401891897099
66.3579,-82.20425129948595
68.6199,-283.4134630430586
70.8815,-470.37519726089
73.1426,-607.8360765797556
75.4032,-617.8380245782113
77.6634,-310.56689255240804
79.9231,757.9976404033682
82.1824,3364.7289977580867
84.4412,8351.250595400743
86.6995,15479.88581557304
88.9574,22630.80795700418
91.2148,27833.540163624504
93.4717,30472.60535305627
95.7282,31451.376164586345
97.9842,31669.874932775543
100.2398,31525.173677670908
102.4949,31179.344102620733
104.7495,30877.557595721602
107.0036,30381.785233276634
109.2573,30144.747782813385
111.5105,29683.81570804156
113.7632,29380.75917122339
116.0154,29153.948037782957
118.2672,29044.801879336745
120.5185,28744.539975961765
122.7693,28571.381317287
125.0197,28350.994605496053
127.2696,28110.548257058697
129.519,28040.36040493477
131.7679,27855.048900978625
134.0163,27464.131316641025
136.2642,27261.72494482224
138.5117,27055.896803781223
140.7587,26744.913639159688
143.0052,26520.29192604039
145.2512,26203.947872056946
147.4967,25922.047419640032
149.7417,25631.856249180888
151.9863,25388.639781850252
154.2304,25137.663182500313
156.4739,24820.941362096863
158.717,24623.63898022907
160.9596,24391.420448276673
163.2017,24054.89993138305
165.4433,23814.941350777357
167.6844,23519.908387139745
169.925,23232.36448300098
172.1651,22871.472845692733
174.4047,22645.096450223027
176.6439,22362.39804288518
178.8825,22153.740143521514
181.1206,21960.08504835039
183.3582,21713.194832052784
185.5954,21495.23134970879
187.832,21275.556239266563
190.0681,21093.130923721998
192.3037,20961.916613315392
194.5388,20786.17430735575
196.7734,20579.91479553294
199.0075,20450.448659675054
201.2411,20426.53627581107
203.4742,20251.337815465486
205.7068,20152.76324589744
207.9389,20017.222331852703
210.1704,19854.074636549412
212.4015,19704.3295230335
214.632,19545.79615581014
216.862,19445.833502341244
219.0915,19279.450334630757
221.3205,19144.155230224293
223.549,19020.056573872957
225.777,18884.962558886313
228.0044,18742.831188373377
230.2314,18644.770276593517
232.4578,18467.98745037783
234.6837,18340.09015010969
236.909,18251.83563149262
239.1339,17991.230966829262
241.3582,17817.483045903897
243.582,17618.848578588502
245.8053,17488.63409658025
248.0281,17294.89595538781
250.2503,17111.8403356335
252.472,16968.32324499071
254.6932,16863.80052001441
256.9139,16596.97782757637
259.134,16523.86066591036
261.3536,16323.95436728036
263.5727,16345.564098711759
265.7912,16115.344863990416
268.0092,16095.151503446556
270.2267,15891.138696256967
272.4436,15798.610960646907
274.6601,15665.772655930283
276.8759,15427.927983434874
279.0913,15349.930987830747
281.3061,15152.085559508698
283.5204,15031.895435360231
285.7341,14866.264200756006
287.9473,14783.145290747696
290.16,14615.441991724405
292.3721,14450.557442243728
294.5837,14309.444634708903
296.7947,14144.356417017589
299.0052,14062.045493973004
301.2152,13856.614428934841
303.4246,13723.415644642333
305.6334,13452.201425268584
307.8418,13262.323917752557
310.0495,13037.085134511239
312.2568,12739.086955338389
314.4635,12444.431129656907
316.6696,12232.869279498856
318.8752,11975.552902451975
321.0802,11737.933373775333
323.2847,11611.961948972465
325.4887,11452.239766167615
327.692,11220.1178473654
329.8949,11249.297100048047
332.0972,11021.878319496624
334.2989,10886.512188499222
336.5001,10657.199279625162
338.7007,10506.640056578639
340.9008,10419.58487649187
343.1003,10211.233991430698
345.2992,10081.037549265118
347.4976,9922.5455957528
349.6955,9697.708075841052
351.8927,9683.424835251746
354.0895,9463.745622729686
356.2856,9360.070090185425
358.4812,9198.747794892104
360.6763,9164.47820052215
362.8707,8934.210678760552
365.0646,8869.244509647502
367.258,8712.4788838811
369.4508,8539.21290346704
371.643,8484.595583286202
373.8346,8258.925852827368
376.0257,8192.65255673337
378.2162,8038.674457057772
380.4062,7946.590233927636
382.5956,7738.998487083296
384.7844,7660.047736799199
386.9726,7427.4364259598115
389.1603,7259.16292084915
391.3474,7094.1255134768835
393.5339,7029.972423261068
395.7199,6840.301798678527
397.9052,6761.911717906358
400.09,6646.200190718646
402.2743,6564.7651592703805
404.4579,6462.2044992545525
406.641,6457.61602071653
408.8235,6404.747469079641
411.0054,6382.146525191089
413.1868,6424.260805850616
415.3675,6260.887864036522
417.5477,6204.875188484508
419.7273,6045.47020532141
421.9064,5864.520278625332
424.0848,5656.82271201969
426.2627,5538.62475048269
428.4399,5376.3235824243275
430.6166,5187.216340868345
432.7928,5007.700105075255
434.9683,4772.171902433442
437.1432,4618.228710254294
439.3176,4463.017458127491
441.4914,4257.835029460457
443.6645,4238.52826303045
445.8371,4027.443955036393
448.0091,3805.728859291943
450.1806,3704.579689336355
452.3514,3546.1431206516063
454.5216,3541.115791673892
456.6913,3299.5943053779993
458.8603,3287.4252293275495
461.0288,3260.85509809024
463.1967,3150.9804133595244
465.3639,3142.8976442203166
467.5306,2994.253228247726
469.6967,2864.5935715878986
471.8622,2779.5150504444646
474.0271,2704.8140123751255
476.1914,2686.5367771424353
478.3551,2599.62963746085
480.5182,2617.5388591794617
482.6807,2614.410682151076
484.8426,2591.1913200531308
487.0039,2651.7769604189743
489.1647,2705.313764870043
491.3248,2749.1478685100083
493.4843,2682.9253793894313
495.6432,2659.8423780674057
497.8015,2473.394918273789
499.9592,2431.8290271400183
502.1163,2315.3907070636124
504.2728,2169.475936123792
506.4287,2149.030669245876
508.5839,1996.8008396604382
510.7386,1896.7323591077402
512.8927,1831.921119360035
515.0461,1829.8629932222684
517.199,1764.4038351801973
519.3512,1718.4894814209765
521.5029,1792.665750487744
523.6539,1825.1284437387549
525.8043,1820.3233446056256
527.9541,1714.2462182686977
530.1033,1618.492811705095
532.2519,1566.358854749491
534.3999,1486.490061051667
536.5472,1460.2321285978069
538.694,1487.4307405092186
540.8401,1542.0315653049074
542.9856,1598.9802566295948
545.1305,1517.1224527076884
547.2748,1574.803775773802
549.4185,1496.9698328913291
551.5615,1359.466215375618
553.704,1367.0884995723318
555.8458,1258.1822482324897
557.987,1362.4430104362327
560.1276,1339.3163226818906
562.2675,1447.4477078433738
564.4069,1524.8326754014488
566.5456,1529.7167203623976
568.6837,1553.4953224842102
570.8212,1403.5139462277039
572.958,1219.3680405187915
575.0942,1025.203040248227
577.2299,870.8143681131405
579.3648,733.0474365586269
581.4992,605.7976493216629
583.6329,582.2604028087553
585.766,628.5310873684575
587.8985,549.3550875267356
590.0304,525.1277815242429
592.1616,513.4445421081182
594.2922,428.4507367742226
596.4222,354.69172788400465
598.5515,239.3628735144157
600.6802,192.00598837202415
602.8083,93.31049592829004
604.9358,107.0139015148161
607.0626,1.302778291341383
609.1888,-26.687369651244808
611.3144,28.728948763153312
613.4393,61.637491217457864
615.5636,83.92372839238305
617.6873,128.62251521010694
619.8103,107.36786819472036
621.9327,67.74251893137989
624.0544,-4.8718735997754266
626.1756,-42.744327166390576
628.2961,-55.74381086610083
630.4159,-105.73886678075723
632.5351,-119.5974801115226
634.6537,-85.2865797283157
636.7716,-104.92189972225606
638.8889,-40.3183221715517
641.0056,51.46031901533934
643.1216,-15.599407290017552
645.237,45.08906726935675
647.3518,-44.0876887935774
649.4659,-32.9431074167187
651.5793,-94.24018010197688
653.6922,-130.59189802181936
655.8043,-83.96031088931704
657.9159,-43.55616380448919
660.0268,-163.9902010277401
662.137,-127.32316638392149
664.2466,-134.2141654357547
666.3556,-77.92103178756588
668.4639,-146.55159770152386
670.5716,-117.16369466056858
672.6786,-102.41515268211879
674.785,-168.31380061192613
676.8907,-178.91746627158864
678.9958,-161.28397579955708
681.1002,-233.97115354507696
683.204,-171.7868222445577
685.3072,-209.63646726259321
687.4097,-243.42557224588745
689.5115,-212.60961874476925
691.6127,-148.44165648812123
693.7132,-181.22473307872133
695.8131,-112.61189463489791
697.9123,-81.80618546273399
700.0109,-115.01064874216536
702.1089,-59.22832683507295
704.2061,-42.91226095318052
706.3028,-65.0154917159307
708.3987,29.25894068636262
710.4941,-4.842003286459658
712.5887,38.57863653286404
714.6827,79.36782036002478
716.7761,136.32250802492126
718.8688,184.439658563806
720.9608,200.6662296497052
723.0522,258.1991771112771
725.1429,216.6854547705043
727.233,244.5720138674078
729.3224,341.4558034751535
731.4112,313.7837702212091
733.4993,265.90285731849144
735.5867,128.26000484207543
737.6735,120.25215020804535
739.7596,76.8762295498891
741.845,73.27917779859126
743.9298,51.007929116396554
746.014,52.45941693275381
748.0974,74.2305741670607
750.1802,56.01833321412414
752.2624,5.719625726447703
754.3439,-58.218617203634494
756.4247,-72.74946454096425
758.5048,-24.37598466820782
760.5843,14.798754759471194
762.6631,96.62168633069086
764.7413,165.7397424860901
766.8188,347.29985470009706
768.8956,437.39895278974655
770.9718,557.9839630990828
773.0473,546.1018075982101
775.1221,486.8494026773915
777.1962,398.27365926588755
779.2697,411.47148342448054
781.3426,414.68977723125136
783.4147,431.2754386495617
785.4862,496.6253614959023
787.557,451.23643527404056
789.6271,305.1055445214879
791.6966,189.5295692634063
793.7654,20.7053864739064
795.8335,-14.770128768166614
797.901,-117.30010159102312
799.9678,-109.33765697515992
802.0339,-154.13591872807228
804.0993,-156.44800956386462
806.1641,-173.37705065526097
808.2282,-197.47616161049882
810.2916,-154.7484603040284
812.3544,-154.09706263552653
814.4164,-134.47508295717853
816.4778,-72.03563408018454
818.5385,-86.38182747096653
820.5986,-41.866773875593935
822.658,9.206416823708423
824.7166,68.7846351633707
826.7747,296.0647715877749
828.832,411.9937158534631
830.8886,407.81835475633125
832.9446,517.185570972375
834.9999,486.2422430994011
837.0545,416.38524456338564
839.1085,364.21144392788847
841.1618,313.9677055926295
843.2143,299.00089031522657
845.2662,182.2078557136374
847.3175,222.6854564158166
849.368,195.83054522764724
851.4179,139.88997272816778
853.467,74.16058753811012
855.5155,139.33923687931747
857.5633,124.22276723203322
859.6105,66.40802368311051
861.6569,95.4418500772008
863.7027,89.32108959488323
865.7478,136.19258446234744
867.7922,122.05317601258866
869.8359,108.99970421669059
871.8789,153.32900782521028
873.9212,177.93792449873945
875.9629,189.3232903645694
878.0039,267.83193977062183
880.0441,278.96070517161934
882.0837,312.85641634394415
884.1226,338.4659002743865
886.1609,418.0859808211826
888.1984,459.06347845793425
890.2352,545.4452094774097
892.2714,567.4279855817513
894.3069,553.4586130186763
896.3416,459.83389236162475
898.3757,480.5506186494713
900.4091,486.95558232276016
902.4418,487.69556901653414
904.4739,441.0173594962871
906.5052,527.6177296505775
908.5358,561.2434509577906
910.5658,532.5412896201487
912.595,485.35800622741954
914.6236,429.74035604397795
916.6515,453.98508948062226
918.6786,444.638952650781
920.7051,428.5986871280584
922.7309,526.1610300396715
924.756,442.87271422688355
926.7804,531.080467269363
928.8041,434.33101231805995
930.8272,493.0710672131245
932.8495,456.7973454514031
934.8711,458.6065555990317
936.892,441.2954016541844
938.9123,383.71058302898746
940.9318,419.99879472262546
942.9506,431.5067278971728
944.9688,365.231069514728
946.9862,402.0685022223588
949.003,308.11570501481765
951.019,283.31935286620137
953.0344,278.8261176694614
955.0491,259.8326684843669
957.063,342.9356715824397
959.0763,442.2317906369062
961.0888,404.9176858916071
963.1007,436.0400131680908
965.1119,460.3954242387408
967.1223,515.3305665155531
969.1321,489.8920828065893
971.1412,509.6266107666015
973.1495,506.28078315144376
975.1572,492.5512276207337
977.1641,529.5845667713038
979.1704,512.6274182744855
981.1759,457.32639450579154
983.1808,544.5281027144556
985.1849,503.57914557644835
987.1884,528.4761203224443
989.1911,622.5656191473499
991.1932,638.7942289613165
993.1945,577.8085304488486
995.1951,529.6050979064967
997.1951,567.0804998527528
999.1943,532.181299510059
1001.1928,480.2540544300573
1003.1906,458.7953168425993
1005.1877,517.151634175003
1007.1841,514.8195492666528
1009.1798,491.1955997854275
1011.1748,482.6263182510229
1013.1691,428.80823227117435
1015.1627,382.8378646273741
1017.1556,265.9117338130418
1019.1477,206.12635449322988
1021.1392,159.17823867389598
1023.1299,127.56389629971818
1025.12,134.32983572362355
1027.1093,84.72256402290805
1029.0979,115.98858693158763
1031.0859,110.32440933645921
1033.0731,150.42653496444473
1035.0596,137.64146643922504
1037.0454,49.36570488021607
1039.0304,53.79575003044738
1041.0148,-6.721898860716465
1042.9985,-67.3907430818399
1044.9814,-31.91428385425752
1046.9636,-79.79534916579723
1048.9452,-109.6867666851249
1050.926,-53.840566925369785
1052.9061,-67.65768462888445
1054.8855,-67.78851667076378
1056.8642,-13.882784025856381
1058.8421,3.26046953826517
1060.8194,-31.557799607155175
1062.7959,17.513364876540436
1064.7717,39.02523459040094
1066.7469,38.47908096035826
1068.7213,57.97617502209323
1070.695,133.81778742649476
1072.6679,116.25518824470419
1074.6402,122.43964620967745
1076.6117,162.32242889183544
1078.5826,158.25480263720965
1080.5527,75.63803216861197
1082.5221,43.223380626310245
1084.4908,72.41211039420159
1086.4587,50.155483423961414
1088.426,58.854760943147994
1090.3925,19.711203677765297
1092.3584,40.27607176528181
1094.3235,16.700625146055245
1096.2879,5.386123357700853
1098.2515,78.2838257708172
1100.2145,136.84499170216077
1102.1767,174.0708796856452
1104.1382,238.31274688675694
1106.099,296.9718487302853
1108.0591,358.9994382578898
1110.0185,392.046765541545
1111.9771,420.515077063219
1113.9351,404.6056153844311
1115.8923,389.71961886155987
1117.8488,339.50832180494217
1119.8045,267.772954627706
1121.7596,247.21474434792253
1123.7139,168.13491530593456
1125.6675,157.0346893699425
1127.6204,200.26528672679888
1129.5726,203.17792599301902
1131.524,244.22382378246948
1133.4748,211.8541946772457
1135.4248,124.87025081721913
1137.3741,106.62320222371636
1139.3226,70.71425766936954
1141.2705,63.74462486057746
1143.2176,17.66551079661258
1145.164,38.27812183930291
1147.1097,-2.8163358261699614
1149.0546,31.033343602621244
1150.9989,7.328394063271844
1152.9424,3.5700491830848478
1154.8852,-3.590530621315338
1156.8272,15.897779401919252
1158.7686,35.78613987403878
1160.7092,-15.074447402532314
1162.6491,3.267019016762788
1164.5883,43.41169117020581
1166.5267,88.41068845855261
1168.4644,140.81512984844994
1170.4014,180.82613342244622
1172.3377,288.39481585494286
1174.2732,344.67229201208283
1176.2081,461.85967387606615
1178.1421,614.8580699823888
1180.0755,719.2185842479503
1182.0082,799.192314441083
1183.9401,903.6303511379338
1185.8713,826.8837769227357
1187.8017,727.103665343433
1189.7315,660.3910816791249
1191.6605,507.8970839378835
1193.5888,441.92272352388136
1195.5163,370.669046762323
1197.4432,335.5870955591927
1199.3693,315.5279081137942
1201.2947,256.29251926956385
1203.2193,224.63196071467428
1205.1432,237.9972615743609
1207.0664,223.23944872755055
1208.9889,199.2095466732044
1210.9106,224.45857767788948
1212.8316,165.73756201609103
1214.7519,196.24751771770752
1216.6715,191.58946115526487
1218.5903,215.06440673881116
1220.5084,239.97336696250932
1222.4257,297.9673521698933
1224.3424,276.3473703047639
1226.2583,305.414426331261
1228.1735,360.4195224500436
1230.0879,366.2136578076461
1232.0016,425.49782794640305
1233.9146,468.1730247465348
1235.8269,453.290235833274
1237.7384,485.35044415013726
1239.6492,420.85462810774516
1241.5592,415.8537612632317
1243.4686,433.54881296519125
1245.3772,521.9907484036885
1247.285,585.2305284333015
1249.1922,617.1691086887058
1251.0986,716.8074389522717
1253.0042,707.7464628346916
1254.9092,776.4371167785921
1256.8134,813.5803301491505
1258.7169,858.5770245471795
1260.6196,905.0281134376946
1262.5216,968.2345016999461
1264.4229,996.5470851629143
1266.3234,1058.4167499732393
1268.2232,1102.2443723120996
1270.1223,1102.730817776508
1272.0207,1095.3269409410404
1273.9183,1107.6335853529836
1275.8151,1096.0015836063649
1277.7113,1102.931757218872
1279.6067,1124.3749167481965
1281.5014,1179.2318617226956
1283.3953,1295.5533804269962
1285.2885,1539.790249353402
1287.181,1721.393232038692
1289.0727,1896.163076621744
1290.9637,1951.6505140275076
1292.854,2062.1562562193085
1294.7435,2031.380995643969
1296.6323,2011.0254041267672
1298.5204,1961.6901331791669
1300.4077,1896.7258142023948
1302.2943,1805.583058980772
1304.1802,1751.2624603313689
1306.0653,1606.2645930154267
1307.9497,1522.490014281566
1309.8333,1383.489265315773
1311.7162,1333.3628720791403
1313.5984,1291.6113466978659
1315.4798,1232.6851879645328
1317.3605,1198.5348817556114
1319.2405,1240.8609016207192
1321.1197,1173.4137091241355
1322.9982,1083.5437534215234
1324.876,1048.4014719344123
1326.753,960.3372912488994
1328.6293,883.301627467079
1330.5048,845.2448870876815
1332.3796,792.5674677764346
1334.2537,769.3197587466184
1336.127,735.4521412858412
1337.9996,717.7649889885179
1339.8714,705.0086680945606
1341.7426,676.483537666225
1343.6129,753.9899497157076
1345.4826,696.378249490368
1347.3515,754.7487746976694
1349.2196,721.8518560812936
1351.087,791.7378168374453
1352.9537,787.8069729438121
1354.8197,822.9096324607053
1356.6849,884.5460955703784
1358.5493,894.8166542259914
1360.4131,973.6215915352495
1362.276,1009.7111816576853
1364.1383,1001.6356890166153
1365.9998,1017.495367938247
1367.8606,950.7404627324286
1369.7206,855.8712075340609
1371.5799,825.0878269706409
1373.4384,750.9905371109526
1375.2962,709.6295457729211
1377.1533,604.2550532645637
1379.0096,499.5672527976094
1380.8652,420.16633154123156
1382.7201,364.0024716689386
1384.5742,293.22585115257243
1386.4275,249.38664432396035
1388.2802,168.23502258266853
1390.132,158.3711548343963
1391.9832,131.74520830250367
1393.8336,104.65734862664794
1395.6832,106.85774012903858
1397.5322,77.24654608531091
1399.3803,63.27392870252697
1401.2278,41.490049415284375
1403.0745,35.64506902546054
1404.9204,7.839147920023606
1406.7656,27.57244612950126
1408.6101,-2.904876393969971
1410.4538,3.607340026019301
1412.2968,1.1092840855890245
1414.139,-6.698855555203409
1415.9805,53.43309868192955
1417.8213,51.25539129684148
1419.6613,57.86826625505637
1421.5006,119.47196700954737
1423.3391,152.86673643461836
1425.1769,217.10281620985006
1427.0139,331.9304464861616
1428.8502,450.3498652434482
1430.6858,576.2613071423057
1432.5206,648.8650023398422
1434.3547,711.5611752305631
1436.188,747.9500437203205
1438.0206,753.4318185993579
1439.8524,700.006703178431
1441.6835,675.424893233976
1443.5139,660.6365775423637
1445.3435,640.8919381257128
1447.1724,672.1911503997871
1449.0005,656.5843833714371
1450.8279,645.7217993256036
1452.6545,670.403553981394
1454.4804,701.379796600695
1456.3056,699.350669741365
1458.13,688.5663089474692
1459.9536,689.2768427695646
1461.7766,635.6823928725644
1463.5987,586.2330740286052
1465.4202,503.6289946530251
1467.2409,417.3702572988259
1469.0608,376.80695948272114
1470.88,333.2391945477302
1472.6984,268.9170520688094
1474.5161,206.54061828853264
1476.3331,179.95997676030856
1478.1493,173.17520897214672
1479.9648,192.3863946124493
1481.7795,176.69361163785652
1483.5935,174.44693608115813
1485.4067,175.4464422082092
1487.2192,179.64220254039174
1489.031,176.98428784464522
1490.842,196.52276709147554
1492.6522,189.2077074815661
1494.4618,173.1891742503667
1496.2705,186.0672307412624
1498.0785,184.34193856573984
1499.8858,165.11335747461635
1501.6924,207.03154537528826
1503.4981,178.1465585240203
1505.3032,179.50845110677074
1507.1075,208.1672755280324
1508.911,199.87308239722734
1510.7138,166.07592024209953
1512.5159,173.0258355916776
1514.3172,165.57287331422958
1516.1178,142.11707654777274
1517.9176,157.70848677460344
1519.7166,134.14714405585255
1521.515,143.58308687557292
1523.3126,136.11635237635346
1525.1094,106.14697626495763
1526.9055,114.42499288698491
1528.7008,99.90043552656971
1530.4954,86.92333632359441
1532.2893,92.39372641894079
1534.0824,76.61163608425704
1535.8747,95.72709466726883
1537.6663,88.94013074958093
1539.4572,66.15077195553386
1541.2473,87.80904502006888
1543.0367,88.91497601661649
1544.8253,89.5685901405268
1546.6132,113.81991169800312
1548.4003,112.66896409956462
1550.1867,129.51576961753926
1551.9723,149.66034939756173
1553.7572,192.0527232901204
1555.5414,199.24290964910506
1557.3247,251.58092490787567
1559.1074,254.76678350736802
1560.8893,322.6504973727151
1562.6705,358.4320758813792
1564.4509,398.2615251843263
1566.2305,440.38884784820493
1568.0094,501.96404245705435
1569.7876,501.337103191021
1571.565,499.40801921062484
1573.3417,505.22677466300865
1575.1176,508.8933487012491
1576.8928,507.107715426152
1578.6672,521.3698438495894
1580.4409,514.6796979123628
1582.2138,542.6872363415869
1583.986,544.4424127175762
1585.7575,590.6451751937848
1587.5282,625.7954664792396
1589.2981,692.1932233765219
1591.0673,682.1883764302702
1592.8358,720.1808492631853
1594.6035,767.9205586760963
1596.3704,767.507414268015
1598.1366,768.3413179587596
1599.9021,804.6221639930782
1601.6668,779.3498389323049
1603.4308,818.5742212915648
1605.194,853.0951817924752
1606.9564,903.9625829709194
1608.7182,966.0262788318323
1610.4791,1036.936114340524
1612.2394,1138.4919248020478
1613.9988,1253.6435351520931
1615.7576,1350.9407589414286
1617.5156,1402.3333971844086
1619.2728,1434.7712373859713
1621.0293,1429.7040530277272
1622.785,1362.9816032435801
1624.54,1276.4536328703916
1626.2942,1148.3698731152172
1628.0477,1019.1300424205729
1629.8005,924.7338477452895
1631.5525,833.7809858568962
1633.3037,745.7711442755926
1635.0542,683.3540021837716
1636.804,645.6292313061158
1638.553,597.9964965337731
1640.3013,603.105456301596
1642.0488,564.7057630644758
1643.7955,578.4470632462526
1645.5416,585.77899762371
1647.2868,587.951201189162
1649.0313,588.5133030771367
1650.7751,626.664926542654
1652.5181,661.0556889556065
1654.2604,676.3352014192333
1656.0019,729.4030684262334
1657.7427,793.7588877059525
1659.4828,869.2522496937163
1661.222,885.382736887259
1662.9606,925.5499230917976
1664.6984,914.2033732587288
1666.4354,856.0926430839472
1668.1717,713.2672791213226
1669.9072,599.126819363798
1671.642,490.6707946716506
1673.3761,424.998729913892
1675.1094,318.41014505282874
1676.8419,289.7045558007767
1678.5737,249.58147468595143
1680.3048,222.34041133952724
1682.0351,209.58087289686318
1683.7646,158.9523642699205
1685.4934,159.2043882748494
1687.2215,152.08644613828073
1688.9488,82.89803749480507
1690.6754,84.98866045815157
1692.4012,90.10781231306828
1694.1263,97.50498949441953
1695.8506,90.32968753599653
1697.5742,77.73140099654029
1699.297,81.0096235314968
1701.0191,56.11384801899658
1702.7404,59.693566527077564
1704.461,14.39827056264403
1706.1808,23.927451035668128
1707.8999,12.480598712145365
1709.6182,17.357204118799018
1711.3358,5.156757657553499
1713.0527,2.5287495567608858
1714.7688,-15.77733000678927
1716.4841,-11.961990881600286
1718.1987,-10.57558530064398
1719.9126,10.781654003389121
1721.6257,-2.690400052093537
1723.338,0.5081253425032628
1725.0496,-9.32287012613051
1726.7605,14.916513223622133
1728.4706,-5.823731791156206
1730.18,5.256387497450305
1731.8886,-20.143078063566463
1733.5964,-9.472077679774884
1735.3036,5.119640672598507
1737.0099,2.632423643382026
1738.7156,24.56661783121035
1740.4204,3.422569808401022
1742.1246,16.450625901607054
1743.8279,15.15113240325627
1745.5306,22.17443544127309
1747.2325,16.170880992073762
1748.9336,11.59081481033445
1750.634,-5.165417510971565
1752.3336,8.152529505219718
1754.0325,7.3450529384963374
1755.7307,27.262549786923046
1757.4281,34.00541697511562
1759.1247,41.07405115506481
1760.8206,32.21884863870946
1762.5158,52.940205327248805
1764.2102,39.83851679969575
1765.9039,44.11417810566218
1767.5968,54.51758389638144
1769.289,54.7491283819345
1770.9804,52.859205227242455
1772.6711,45.248207549733706
1774.361,84.61652793826033
1776.0502,80.26455852919753
1777.7386,72.89269061276445
1779.4263,61.801314676537004
1781.1132,84.69082047916254
1782.7994,75.06159716127695
1784.4849,87.96403301661212
1786.1696,73.19851558828486
1787.8535,98.26543153977855
1789.5367,95.56516680259301
1791.2192,90.14810632557419
1792.9009,79.91463410192591
1794.5818,78.6651332233705
1796.2621,86.39998598248621
1797.9415,101.51957388520532
1799.6202,100.82427757346431
1801.2982,92.31447667400334
1802.9755,113.7905498053251
1804.6519,100.05287466278605
1806.3277,101.85182780384457
1808.0027,88.03778478543245
1809.6769,113.71112014596656
1811.3504,93.17220754349
1813.0231,109.72141949893103
1814.6951,118.70912760150168
1816.3664,135.73570234319868
1818.0369,129.451513028931
1819.7067,125.30692760625516
1821.3757,122.05231272821402
1823.044,134.23803379478795
1824.7115,136.86445498543617
1826.3783,144.78193913724135
1828.0443,156.04084771864382
1829.7096,152.2915407502678
1831.3741,161.53437669233426
1833.0379,163.41971248215032
1834.701,162.09790344168232
1836.3633,160.36930325870253
1838.0248,126.8842640000048
1839.6856,154.69313612869246
1841.3457,170.34626883903093
1843.005,168.8440097783523
1844.6636,154.73670489053166
1846.3214,168.12469843100553
1847.9785,171.40833310784546
1849.6349,150.53794994787677
1851.2904,196.31388826384136
1852.9453,189.88648586310592
1854.5994,197.40607858990097
1856.2528,191.02300038959856
1857.9054,208.48758323350376
1859.5572,203.10015718270006
1861.2083,206.61105021339972
1862.8587,231.9705882708131
1864.5084,230.97909523404087
1866.1572,218.9368926624793
1867.8054,222.3942998057355
1869.4528,217.2516337240504
1871.0994,215.9592092537232
1872.7453,227.36733905854453
1874.3905,215.07633364271533
1876.0349,209.73650123676452
1877.6786,250.0481479204609
1879.3215,232.61157767620625
1880.9637,241.77709198592765
1882.6051,247.29499000543638
1884.2458,239.3155684727717
1885.8858,224.4391216530239
1887.525,230.66594141813403
1889.1634,229.94631739565193
1890.8011,228.08053690647284
1892.4381,235.56888497203
1894.0743,241.66164433295398
1895.7098,258.0090953741883
1897.3446,244.26151606406438
1898.9786,237.7691817908235
1900.6118,244.0323655000957
1902.2443,230.5013377598225
1903.8761,229.0263666976207
1905.5071,219.70771813609463
1907.1374,212.2456556075931
1908.7669,233.99044044738366
1910.3957,232.0423318682815
1912.0237,225.00158674319482
1913.651,219.56845962461466
1915.2776,250.99320281501423
1916.9034,243.57606642118662
1918.5285,228.4672980399937
1920.1528,216.26714283254387
1921.7764,228.12584367527234
1923.3992,201.49364128194247
1925.0213,187.87077408506502
1926.6427,193.75747850221524
1928.2633,176.85398907225954
1929.8832,210.06053839649758
1931.5023,202.8773573076869
1933.1207,184.80467453798428
1934.7383,194.19271679077337
1936.3552,182.49170892139227
1937.9714,201.701873843258
1939.5868,184.37343264486572
1941.2015,175.60660439769617
1942.8154,170.85160632949737
1944.4286,159.60865391195603
1946.041,153.27796090824268
1947.6528,161.60973948544597
1949.2637,149.60420027787495
1950.8739,169.26155230374206
1952.4834,161.9820030852229
1954.0921,161.86575845187872
1955.7001,167.563022613454
1957.3074,155.77399816103707
1958.9139,146.2488860100857
1960.5197,147.5378855183235
1962.1247,152.89119458098457
1963.729,132.1590096179243
1965.3325,121.19152552009018
1966.9353,135.38893585684218
1968.5374,124.7514329856258
1970.1387,129.1792079100005
1971.7393,154.72245038601386
1973.3392,127.78134887792476
1974.9383,123.85609030276737
1976.5366,115.09686029976592
1978.1342,129.85384326958683
1979.7311,107.97722246192825
1981.3273,132.16717982795217
1982.9227,110.07389623904919
1984.5173,108.29755124494113
1986.1112,108.28832329461375
1987.7044,101.99638975407697
1989.2968,114.27192690646007
1990.8885,105.86511001492909
1992.4795,108.47611319993439
1994.0697,101.10510952327695
1995.6592,116.75227096199842
1997.2479,121.26776848208783
1998.8359,117.85177188201806
2000.4232,100.9044497475843
2002.0097,95.9259694860666
2003.5955,103.51649749570197
2005.1805,119.97619921547039
2006.7648,99.30523904919028
2008.3484,107.35378020091912
2009.9312,120.4219848816615
2011.5133,95.96001422888776
2013.0946,98.21802817585103
2014.6752,102.04618569620425
2016.2551,94.29464478142518
2017.8342,106.26356240253017
2019.4126,105.15309458759475
2020.9902,99.41339630206176
2022.5672,102.34462145984162
2024.1433,102.44692298071459
2025.7188,103.87045276101662
2027.2935,86.86536167261875
2028.8674,107.2817995486862
2030.4406,105.11991535373545
2032.0131,78.52985697946451
2033.5849,74.61177126637313
2035.1559,84.31580426966639
2036.7261,89.49210129843186
2038.2957,97.7908068186025
2039.8645,102.31206440118694
2041.4325,95.60601663928855
2042.9998,88.42280510289174
2044.5664,100.41257040592018
2046.1323,100.87545227807277
2047.6974,79.86158944492308
2049.2617,93.52111962329127
2050.8254,93.05417973138356
2052.3883,112.76090575219405
2053.9504,105.64143273817672
2055.5118,93.54589461417845
2057.0725,88.52442424863102
2058.6325,102.42715357451243
2060.1917,90.85421363955584
2061.7502,107.85573446722447
2063.3079,106.68184517244299
2064.8649,86.23267379157915
2066.4212,98.20834729418311
2067.9767,118.95899178747823
2069.5315,107.18473239660489
2071.0856,86.58569305711262
2072.6389,82.6619966327039
2074.1915,73.4137651212277
2075.7433,64.6911196939136
2077.2945,75.09418078785393
2078.8448,89.22306819322966
2080.3945,85.02790094928378
2081.9434,68.45879720302901
2083.4916,77.61587425120024
2085.039,73.84924870594841
2086.5857,78.25903640326487
2088.1317,84.745352440651
2089.677,71.45831113301756
2091.2215,89.94802594782414
2092.7652,82.91460963794952
2094.3083,74.55817405679409
2095.8506,79.62883022861524
2097.3921,75.9766884320884
2098.933,68.70185814960496
2100.4731,94.50444810378804
2102.0124,75.43456633024653
2103.5511,82.64231991954193
2105.089,85.4778152078934
2106.6261,80.64115770509943
2108.1626,82.93245206618076
2109.6983,89.55180213975018
2111.2332,102.2993109450963
2112.7675,92.77508060599166
2114.301,104.97921222321884
2115.8337,116.81180596980857
2117.3657,104.92296096900282
2118.897,108.36277517592634
2120.4276,101.28134549647393
2121.9575,103.22876775291888
2123.4866,104.15513675472312
2125.0149,97.31054627906042
2126.5426,91.09508906155315
2128.0695,96.80885686472175
2129.5956,99.20194054013655
2131.1211,98.37442997128028
2132.6458,106.42641404961978
2134.1698,92.80798068287777
2135.693,95.41921671451473
2137.2155,104.51020805991448
2138.7373,107.13103968026826
2140.2584,102.93179549166689
2141.7787,103.26255833889172
2143.2983,96.17341003740876
2144.8171,87.46443137005872
2146.3353,95.13570215795107
2147.8527,89.83730134755024
2149.3693,92.51930693396707
2150.8853,97.73179601393986
2152.4005,72.62484475901601
2153.9149,85.2985283634248
2155.4287,62.00292129514946
2156.9417,101.8380971691895
2158.454,93.7041289805129
2159.9655,104.15108870571112
2161.4764,93.67904738433208
2162.9865,84.43807501441233
2164.4958,91.1782406571997
2166.0045,78.84961252956236
2167.5124,94.80225793658428
2169.0195,102.48624339485468
2170.526,97.50163447294062
2172.0317,103.19849571454915
2173.5367,117.82689068837135
2175.0409,94.33688193111539
2176.5445,113.97853080122422
2178.0473,95.40189771377209
2179.5494,77.90704194404725
2181.0507,91.49402181332334
2182.5513,98.31289486380547
2184.0512,97.01371772275888
2185.5504,83.04654603432164
2187.0488,90.46143447249551
2188.5465,75.80843688081768
2190.0435,89.2876061982115
2191.5397,92.99899460551615
2193.0353,82.84265339069952
2194.5301,74.71863291173895
2196.0241,76.57698269818593
2197.5175,73.31775153240596
2199.0101,68.8909874309984
2200.502,72.74673767738477
2201.9931,52.28504886608334
2203.4835,75.30596686414401
2204.9733,63.659537015768365
2206.4622,68.09580391209829
2207.9505,71.16481150768004
2209.438,49.666603076107094
2210.9248,45.60122117932178
2212.4109,53.56870788260403
2213.8962,62.96910479522194
2215.3809,58.25245299075732
2216.8648,55.718792913102334
2218.3479,71.2681644236236
2219.8304,68.10060682650055
2221.3121,61.216158713231835
2222.7931,67.21485799431184
2224.2733,53.89674196807391
2225.7529,44.761847260704144
2227.2317,58.96020995942263
2228.7098,62.39186570383163
2230.1872,51.75684954393455
2231.6638,48.75519590581416
2233.1397,57.53693869798781
2234.6149,61.05211134142155
2236.0894,48.05074668171437
2237.5632,62.882876953945015
2239.0362,39.14853391268571
2240.5085,43.297748683680766
2241.9801,53.18055200119261
2243.4509,39.046974166506516
2244.921,46.447044949103656
2246.3904,19.13079372799575
2247.8591,43.49824941772658
2249.3271,42.74944074153245
2250.7943,32.484395987669814
2252.2608,50.603143016899594
2253.7266,36.2057093651415
2255.1917,28.04212206228476
2256.656,40.012407776162036
2258.1197,44.716592894188125
2259.5826,36.75470340365382
2261.0447,29.876764844685567
2262.5062,44.03280238986554
2263.9669,49.52284091300817
2265.4269,59.59690484760222
2266.8862,41.45501813190958
2268.3448,38.39720410822247
2269.8026,53.52348570428467
2271.2598,41.43388546386814
2272.7162,44.97842539551084
2274.1719,39.70712709341433
2275.6268,49.420011701994554
2277.0811,43.617099968596904
2278.5346,67.5984121463689
2279.9874,51.863968052286964
2281.4395,44.81378682734794
2282.8908,55.447887093909685
2284.3414,60.16628702619528
2285.7914,56.71900424394971
2287.2406,48.95605576525577
2288.689,62.67745804100605
2290.1368,50.383227032534705
2291.5838,57.523378074403354
2293.0302,60.69792599734046
2294.4758,44.306885056842475
2295.9206,39.80026890142608
2297.3648,45.47809073654025
2298.8082,58.24036336963104
2300.251,43.38709915336585
2301.693,62.31830985800843
2303.1343,56.034006819951856
2304.5748,57.38420075240856
2306.0147,48.66890180825044
2307.4538,50.73811956651002
2308.8922,51.24186311953417
2310.3299,53.630141052289446
2311.7669,48.85296143732512
2313.2031,50.36033181089101
2314.6387,50.202259220708584
2316.0735,47.478750210896806
2317.5076,57.58981082354899
2318.941,53.58544662597433
2320.3737,58.71566260958525
2321.8056,50.180463229942234
2323.2369,42.07985235545061
2324.6674,56.76383335271203
2326.0972,51.432409167530295
2327.5263,59.88558217807349
2328.9547,53.323354248182795
2330.3823,54.195726642847376
2331.8092,56.252700093820295
2333.2355,47.094274790899135
2334.661,51.6204503613551
2336.0858,52.4312259615167
2337.5098,55.77660023151111
2338.9332,53.40657128715361
2340.3558,59.071136686496175
2341.7778,62.520293453527074
2343.199,65.75403802152505
2344.6195,47.122366198567306
2346.0393,51.625273135192856
2347.4583,56.512753510720586
2348.8767,66.73480148821909
2350.2943,50.241410665630156
2351.7113,65.53257397355014
2353.1275,63.80828384016081
2354.543,43.46853203831847
2355.9578,61.86330970279732
2357.3718,50.34260753368653
2358.7852,41.306415612442834
2360.1978,58.30472351710114
2361.6098,48.9875204126306
2363.021,49.704794880955205
2364.4315,63.75653501412444
2365.8413,50.5927284071397
2367.2504,46.91336201743752
2368.6587,44.01842229652539
2370.0664,44.457895226777055
2371.4733,42.38176635038303
2372.8795,42.140020764951714
2374.285,49.98264314427547
2375.6899,46.7596177407479
2377.0939,34.22092830693509
2378.4973,36.51655812780905
2379.9,29.746490146133738
2381.3019,28.81070693950892
2382.7032,33.60919078806728
2384.1037,39.19192368383369
2385.5035,29.758887282746173
2386.9027,28.66006284882019
2388.3011,31.995431348486363
2389.6987,33.5649734615713
2391.0957,32.418669547951595
2392.492,29.10649963185483
2393.8876,27.928443413317154
2395.2824,34.684480301312306
2396.6765,23.97458942552703
2398.07,29.648749568803396
2399.4627,22.856939274239494
2400.8547,12.899136788445503
2402.246,21.12532012946326
2403.6366,15.285467186343794
2405.0265,13.029555636886016
2406.4156,15.357563006035434
2407.8041,3.7194666884424805
2409.1918,12.315243925182585
2410.5789,20.594871920138758
2411.9652,26.358327754041056
2413.3508,14.005588301672333
2414.7358,18.98663017423246
2416.12,5.901429842866946
2417.5035,4.399963588854689
2418.8863,10.482207634461474
2420.2684,21.64813815795378
2421.6497,4.497731232776687
2423.0304,10.930962715893884
2424.4104,-6.802191580707358
2425.7896,7.548244045650108
2427.1682,6.932313251537835
2428.546,7.200059618044634
2429.9232,14.901526656936767
2431.2996,8.186757807981394
2432.6753,9.505796361931289
2434.0503,16.158685527671423
2435.4246,8.54546841903084
2436.7982,9.816187988250931
2438.1711,16.420887102120105
2439.5433,2.509608529264824
2440.9148,10.232394874104557
2442.2856,10.28928871596213
2443.6557,0.08033253183771194
2445.025,7.8055686958393835
2446.3937,7.065039581271776
2447.7617,3.458787483385777
2449.1289,21.986854626781906
2450.4955,19.899283201473054
2451.8613,2.6461151776049974
2453.2265,8.127392326331346
2454.5909,12.9931563923451
2455.9546,20.843449039066172
2457.3177,15.428311799983703
2458.68,20.14778600015302
2460.0416,31.75191281034631
2461.4025,28.19073319985864
2462.7627,17.664287820465688
2464.1222,21.772617042038064
2465.4811,15.46576105780241
2466.8392,14.943759843260068
2468.1966,26.806653219255395
2469.5533,28.854480857196222
2470.9093,25.08728216042323
2472.2645,14.505096243733078
2473.6191,30.107961971049917
2474.973,12.995918061247494
2476.3262,26.66900293211961
2477.6787,21.177254871501418
2479.0305,12.820711900538981
2480.3816,15.749411828605844
2481.7319,14.363392336869765
2483.0816,21.912690949004173
2484.4306,16.797345045048814
2485.7789,4.467391785916334
2487.1264,18.1728681645468
2488.4733,9.213811129206078
2489.8195,11.44025744643136
2491.165,9.502243790622742
2492.5097,2.599806721777668
2493.8538,7.782982704871756
2495.1972,7.351808178883175
2496.5398,7.0563195049610385
2497.8818,22.246552970738094
2499.2231,15.72254479328376
2500.5637,16.984330967202368
2501.9035,5.931947329874447
2503.2427,16.415429548837437
2504.5812,12.034813232310626
2505.919,17.940133824358554
2507.256,6.331426648698198
2508.5924,5.558726849646291
2509.9281,11.672069508204686
2511.2631,18.121489649789282
2512.5974,17.407022183095023
2513.9309,15.178701835603533
2515.2638,4.436563160725655
2516.596,10.230640560087068
2517.9275,8.560968390948574
2519.2583,10.377580908264008
2520.5884,12.930512281379379
2521.9178,6.919796575865121
2523.2465,9.045467727987443
2524.5745,-0.04244039518516729
2525.9018,13.956105982960025
2527.2284,7.241141063016357
2528.5543,22.562698906015612
2529.8796,17.12081350057906
2531.2041,22.71551860970112
2532.5279,5.896847825169743
2533.851,12.714834511617482
2535.1735,5.369511974710122
2536.4952,11.160913392965085
2537.8163,13.939071891206368
2539.1366,22.004020482649594
2540.4562,27.055792041121094
2541.7752,16.9944192204066
2543.0935,13.419934403735851
2544.411,24.582369804394375
2545.7279,28.231757501469247
2547.0441,23.31812932822345
2548.3596,23.89151683560226
2549.6744,25.45195134137066
2550.9885,22.49946392437846
2552.3019,21.934085408956435
2553.6146,20.755846394441505
2554.9266,28.06477726083017
2556.2379,25.010908180561273
2557.5485,25.494269045425654
2558.8585,29.714889497106014
2560.1677,22.722798922342008
2561.4762,37.668026410725815
2562.7841,28.75060082462187
2564.0913,27.97055064971505
2565.3977,38.4779040841845
2566.7035,33.12268904650341
2568.0086,29.25493307036686
2569.313,37.57466335824279
2570.6167,29.631906820050972
2571.9197,35.2766899899641
2573.222,41.309039105836746
2574.5236,42.42898005275799
2575.8246,43.6865383027266
2577.1248,36.88173890345229
2578.4244,44.8646064657803
2579.7232,36.3351652317383
2581.0214,45.14343899470782
2582.3189,52.48945118472
2583.6157,48.12322478037129
2584.9118,50.24478223536437
2586.2072,36.85414552216946
2587.5019,48.50133611081003
2588.7959,48.88637510276794
2590.0893,56.2092831145128
2591.3819,47.02008027365059
2592.6739,43.96878614569516
2593.9652,53.305419825960485
2595.2557,46.67999997007189
2596.5456,54.642544700601775
2597.8348,45.243071673323016
2599.1234,46.431597997584845
2600.4112,47.50814033030758
2601.6983,45.82271486409786
2602.9848,46.32533731648084
2604.2705,44.066022946754515
2605.5556,44.44478655096498
2606.84,44.261642484498225
2608.1237,50.36660465829311
2609.4067,45.35968654067233
2610.689,43.89090109629319
2611.9707,38.86026083621641
2613.2516,40.26777783259456
2614.5319,45.26346376897834
2615.8115,36.14732992624113
2617.0903,39.36938713262214
2618.3685,45.279645854887804
2619.6461,39.67811616611084
2620.9229,29.964807686568406
2622.199,34.889729639755956
2623.4745,37.30289094952218
2624.7493,42.704300190819026
2626.0234,37.94396556556978
2627.2968,35.97189484865521
2628.5695,47.03809543551745
2629.8415,34.04257436188004
2631.1128,32.68533819308652
2632.3835,37.46639315405571
2633.6535,35.78574514285299
2634.9228,32.043399682880704
2636.1914,36.13936193968357
2637.4593,32.523636758373414
2638.7265,33.046228622668195
2639.9931,28.35714169104972
2641.259,31.95637979153787
2642.5242,34.49394646858161
2643.7887,34.36984494706667
2645.0525,36.03407810693898
2646.3156,29.186648484447005
2647.5781,27.877558255498457
2648.8398,31.456809304134822
2650.1009,23.92440323562289
2651.3613,42.280341340662176
2652.6211,21.624624670708045
2653.8801,36.757253854412966
2655.1385,32.12822930418383
2656.3961,47.73755106485555
2657.6531,36.73521885998173
2658.9094,40.02123193574084
2660.1651,27.04558917095983
2661.42,33.308289044253684
2662.6743,46.109329763781716
2663.9279,36.54870920462065
2665.1808,39.22642478075386
2666.433,31.04247354067786
2667.6846,36.84685214062563
2668.9354,38.33955692640518
2670.1856,39.2205838753564
2671.4351,43.389928581424215
2672.6839,52.89758624634737
2673.9321,48.99355163796611
2675.1795,49.577818995144526
2676.4263,41.25038206681188
2677.6724,37.961234106119946
2678.9179,38.7103679537164
2680.1626,48.24777607063709
2681.4067,42.0734505308144
2682.6501,50.78738292570415
2683.8928,45.989564426027414
2685.1348,42.379985694632296
2686.3761,38.35863693447186
2687.6168,34.02550792469901
2688.8568,40.630588060881564
2690.0961,39.773866398331734
2691.3348,41.45533158605667
2692.5727,42.97497187532542
2693.81,31.232775102854475
2695.0466,29.828728675610932
2696.2826,39.862819688234595
2697.5178,37.785034937078535
2698.7524,38.39536081986819
2699.9863,42.793783356479025
2701.2195,37.43028818283358
2702.452,42.804860506916384
2703.6839,40.26748516240934
2704.9151,40.91814655494659
2706.1456,43.35682868748711
2707.3755,39.03351515380905
2708.6046,42.448189114121874
2709.8331,48.2008333383003
2711.0609,54.04143017173783
2712.2881,48.81996147782013
2713.5145,43.086408579519116
2714.7403,51.990752311607025
2715.9654,50.432973077993665
2717.1899,55.91305076268054
2718.4136,55.03096474534027
2719.6367,57.63669384651473
2720.8591,60.9802163364368
2722.0809,55.411509908972334
2723.3019,57.88055164818513
2724.5223,66.83731808402388
2725.7421,58.53178516763239
2726.9611,60.81392818178131
2728.1795,64.78372182392366
2729.3972,61.141140183374205
2730.6142,56.28615670161025
2731.8306,54.368744208698445
2733.0462,52.238874971843416
2734.2612,47.746520714563076
2735.4756,36.14165263798736
2736.6892,43.42424146578139
2737.9022,29.544257560193955
2739.1145,32.7516708492318
2740.3262,35.79645096545937
2741.5372,33.078567213924316
2742.7475,20.297988541710538
2743.9571,24.754683565116466
2745.1661,23.398620697461183
2746.3744,24.47976810451712
2747.582,18.248093718070777
2748.7889,23.553565225111356
2749.9952,18.996150130147385
2751.2008,19.375815702151954
2752.4057,12.9425290201375
2753.61,12.746256969358114
2754.8136,9.736966305643591
2756.0165,14.464623657361244
2757.2188,17.429195555509978
2758.4204,12.280648386442294
2759.6213,7.568948362219544
2760.8215,9.394061572096575
2762.0211,8.055954029639338
2763.22,4.754591654473302
2764.4182,14.089940285664056
2765.6158,18.06196571473197
2766.8127,8.620633592297395
2768.009,5.665909388361797
2769.2045,9.39775848672025
2770.3994,7.266146214509149
2771.5936,4.521037804887442
2772.7872,7.612398418352882
2773.9801,-4.159806829806826
2775.1723,1.6043870995712268
2776.3639,-3.5950131978796662
2777.5548,5.341998857429985
2778.745,-3.3345342407284306
2779.9346,0.8754299479961674
2781.1235,-0.8780328240475228
2782.3117,-4.794846813265053
2783.4992,-1.0249275045148352
2784.6861,-2.368142482135454
2785.8723,3.5756509085603057
2787.0579,-0.14338101999749142
2788.2428,-3.275071991135178
2789.427,0.9307457041968519
2790.6106,4.124272493016747
2791.7935,0.40570879303584206
2792.9757,-0.17474501927756592
2794.1573,2.1831114284881323
2795.3382,-1.6205197455531106
2796.5184,-5.385436445117762
2797.698,1.3385796150698752
2798.8769,10.151800520795518
2800.0551,2.3044983444589207
2801.2327,4.096945056941763
2802.4096,7.729412606081041
2803.5859,20.702172898744266
2804.7615,14.61549776450488
2805.9364,22.21965882591553
2807.1106,19.51492755937352
2808.2842,27.851575219080587
2809.4572,31.079872864088316
2810.6294,41.90009127493397
2811.801,42.86250092135515
2812.972,52.1173718540897
2814.1423,51.764973695250774
2815.3119,63.005575545778356
2816.4808,87.13944598896353
2817.6491,84.86685297804172
2818.8167,96.83806359485379
2819.9837,108.70334407257224
2821.15,122.11295967598903
2822.3157,127.61717458286296
2823.4807,146.06625174982355
2824.645,158.71045285732873
2825.8086,167.85003812517425
2826.9716,183.83526618605163
2828.134,199.0663939941519
2829.2957,210.0436766653139
2830.4567,221.96736732471265
2831.617,221.23771699708686
2832.7767,227.80497448750168
2833.9358,216.91938638864497
2835.0941,219.78119701515516
2836.2519,215.5406485124778
2837.4089,209.24798082824623
2838.5653,213.0034317546881
2839.7211,210.65723699155137
2840.8761,207.45963010854928
2842.0306,207.3608425688235
2843.1843,213.61110376091892
2844.3374,222.2106409997731
2845.4899,227.75967946421156
2846.6417,231.258442110955
2847.7928,242.7571496191262
2848.9433,261.6060203552642
2850.0931,265.1052702583366
2851.2422,291.85511265125075
2852.3907,302.1557582058622
2853.5385,311.25741467547516
2854.6857,312.8602867918367
2855.8323,322.4645761741204
2856.9781,336.07048131289673
2858.1233,347.22819747409056
2859.2679,350.5879165629225
2860.4118,368.2998270123309
2861.555,374.5141137493753
2862.6976,379.8809580181171
2863.8395,389.950537317477
2864.9808,400.6230253475664
2866.1214,400.7485919089917
2867.2614,407.47740279612924
2868.4007,419.3096197958695
2869.5393,410.8954006203292
2870.6773,405.7848987885292
2871.8146,417.12826371053643
2872.9513,418.1756407385689
2874.0874,414.82717105356255
2875.2227,415.7829916546965
2876.3574,417.1432353928792
2877.4915,406.75803096118887
2878.6249,393.0275028812716
2879.7577,391.5517716071933
2880.8898,384.4809536627454
2882.0212,387.7651616562016
2883.152,388.00450435102607
2884.2821,372.74908663303114
2885.4116,388.19900950798467
2886.5405,382.1543702541639
2887.6686,391.1652622678558
2888.7962,391.9817751238042
2889.923,397.60399448510066
2891.0493,397.7320020950191
2892.1748,391.51587572079416
2893.2997,392.4056891523401
2894.424,396.7515122644126
2895.5476,400.6534110077107
2896.6706,406.8614473654186
2897.7929,402.22567931418655
2898.9145,412.64616076205107
2900.0355,423.97294159479196
2901.1559,424.7060675717281
2902.2756,425.29558021244895
2903.3946,437.6415167894834
2904.513,439.69391032240503
2905.6308,441.95278945437224
2906.7479,455.0181784316044
2907.8643,452.69009708079307
2908.9801,451.1685606784485
2910.0953,449.4035799741797
2911.2098,449.24516120591113
2912.3236,449.9433061175314
2913.4368,451.9980119604777
2914.5494,447.4592714867547
2915.6613,437.9270729283872
2916.7725,436.40140004280727
2917.8831,433.48223220817675
2918.9931,419.76954443864344
2920.1024,417.86330741353333
2921.211,406.813487614477
2922.319,395.8200473444724
2923.4264,402.18294483838287
2924.5331,395.2021343728718
2925.6391,411.87756620277327
2926.7445,401.6591866309004
2927.8493,399.6969378412904
2928.9534,409.69075800138876
2930.0569,399.69058128167217
2931.1597,402.5963377557098
2932.2619,398.4579535001651
2933.3634,409.72535056573867
2934.4643,412.7484470185515
2935.5645,418.32715682747175
2936.6641,411.8613898338832
2937.763,400.35105169589787
2938.8613,395.09604395301415
2939.959,389.94626414122035
2941.056,365.6516058455442
2942.1523,360.81195875155123
2943.248,346.32720888829084
2944.3431,325.84723867669345
2945.4375,311.82192707441766
2946.5313,285.3011497806494
2947.6244,268.9347793763557
2948.7169,248.5226855894923
2949.8087,229.9147354586671
2950.8999,212.31079353726136
2951.9904,190.3607220795093
2953.0803,182.81438121653775
2954.1696,166.77162917586645
2955.2582,156.23232235687203
2956.3462,142.4463154912146
2957.4335,141.36346174823154
2958.5202,135.93361287279703
2959.6062,131.6066191961512
2960.6916,127.43232969019789
2961.7764,128.610592010775
2962.8605,126.24125253939746
2963.9439,115.67415637147434
2965.0267,114.35914734000215
2966.1089,117.14606812123623
2967.1905,112.4347602478403
2968.2714,114.37506408101825
2969.3516,117.01681885762616
2970.4312,116.35986267076993
2971.5102,117.55403244338748
2972.5885,119.79916393481847
2973.6662,122.64509172886227
2974.7432,122.64164921132681
2975.8196,125.43866854156909
2976.8954,126.13598065253001
2977.9705,125.78341522276395
2979.045,125.08080066946553
2980.1188,117.4779641519956
2981.192,121.27473157890711
2982.2645,116.32092768397365
2983.3364,107.66637598822155
2984.4077,104.86089884946836
2985.4783,103.85431754886775
2986.5483,91.7464523189646
2987.6177,88.33712235376095
2988.6864,82.17614592979453
2989.7545,78.51334044023162
2990.8219,68.69852245647763
2991.8887,65.88150776480444
2992.9548,52.762111464498616
2994.0204,53.99014799603191
2995.0852,44.115431272254796
2996.1495,48.78777466611666
2997.2131,34.55699110941271
2998.276,32.77289304606046
2999.3383,21.18529257440781
3000.4,23.094001465073518
3001.4611,21.59883127682383
3002.5215,13.399593337484987
3003.5812,8.89609875889488
3004.6404,10.538158518895898
3005.6989,7.275583506369799
3006.7567,2.85818450481662
3007.8139,2.3857722249811673
3008.8705,6.758157349026078
3009.9264,3.5251505352567847
3010.9818,-3.4134376256027394
3012.0364,6.9922034219201805
3013.0905,-6.758081666460384
3014.1439,-2.764448304951884
3015.1966,1.2230156054736767
3016.2487,-1.3957502193169375
3017.3002,-0.320806075687301
3018.3511,-1.3521983164562243
3019.4013,-1.039970089589815
3020.4509,-1.6841510345933557
3021.4998,-0.8347604016709056
3022.5481,-0.9918006163580344
3023.5958,3.6947342350660506
3024.6428,0.12485997441001473
3025.6892,2.8485923865352447
3026.735,-1.2840527449453703
3027.7802,5.6769403350954235
3028.8247,4.481600209471367
3029.8685,2.429955404227144
3030.9118,4.822034400591065
3031.9544,4.857865655492674
3032.9963,5.537477577641084
3034.0376,0.110898527166853
3035.0783,8.778156808825685
3036.1184,6.639280726264502
3037.1578,4.894298495348949
3038.1966,8.693238265552026
3039.2348,9.786128137403637
3040.2723,18.97299612450132
3041.3092,14.953870142581309
3042.3455,10.028777917649961
3043.3811,13.697747026175222
3044.4161,13.310804944337235
3045.4505,9.167979011338758
3046.4842,21.01929643327449
3047.5173,24.314784324559184
3048.5498,13.754469589414953
3049.5816,17.388378888916236
3050.6128,17.41653874659292
3051.6434,14.188975512091133
3052.6734,10.305715360891696
3053.7027,17.616784326585787
3054.7314,18.8222083397076
3055.7594,15.12201315462363
3056.7868,18.26622433747832
3057.8136,16.304867303196232
3058.8398,14.08796728403982
3059.8653,16.565549349222863
3060.8902,22.337638427079554
3061.9145,17.60425928028883
3062.9381,19.865436448153247
3063.9612,21.171194293932928
3064.9835,21.721556982233636
3066.0053,19.216548465949245
3067.0264,15.006192480758159
3068.0469,15.190512570173354
3069.0668,15.119532127646067
3070.086,18.693274394722607
3071.1046,16.41176246175411
3072.1226,21.87501923215916
3073.1399,15.68306744523855
3074.1567,18.035929621543033
3075.1727,19.383628124792864
3076.1882,17.47618513834894
3077.203,13.163622651735977
3078.2173,14.495962479717008
3079.2308,9.673226305418979
3080.2438,8.995435667009303
3081.2561,14.712612005923404
3082.2678,10.624776673642316
3083.2789,10.931950874521107
3084.2893,5.034155706667121
3085.2991,12.1314121588683
3086.3083,9.37374116957102
3087.3169,6.861163555907581
3088.3248,11.743700041272916
3089.3321,3.2713712804503245
3090.3388,5.29419781078613
3091.3449,1.1122001369130317
3092.3503,8.725398710522057
3093.3551,6.733813972182247
3094.3593,13.83746627520884
3095.3629,6.9863759055788535
3096.3658,4.430563010894957
3097.3681,5.470047668896086
3098.3698,7.304849913015573
3099.3708,5.734989721986295
3100.3713,2.760487001492862
3101.3711,7.631361599869706
3102.3702,7.34763333784656
3103.3688,4.759321959839582
3104.3667,4.9164471367886335
3105.364,7.219028492040536
3106.3607,6.317085599777613
3107.3568,0.410637961991938
3108.3522,3.4997050175047946
3109.347,6.184306201031177
3110.3412,3.714460912289155
3111.3348,3.1901884891538543
3112.3277,-1.9884917676442342
3113.32,9.3784394107237
3114.3117,1.0410211581189799
3115.3028,3.8992925146185655
3116.2932,6.653292509889155
3117.2831,7.253060134604681
3118.2723,4.698634312906137
3119.2608,3.1900538964041516
3120.2488,4.527357689722976
3121.2361,4.160584465586595
3122.2229,2.139772951445309
3123.209,7.514961833143843
3124.1944,6.236189775129162
3125.1793,4.353495366698638
3126.1635,6.466917134787877
3127.1471,3.2264935627976
3128.1301,7.832263069459543
3129.1125,3.134264041240499
3130.0942,6.132534786284651
3131.0753,11.17711358139357
3132.0558,5.068038642043717
3133.0357,7.55534807194033
3134.015,9.489079924108438
3134.9936,7.719272176019587
3135.9716,4.895962710254537
3136.949,4.669189332201427
3137.9258,4.238989798288685
3138.902,8.855401818253
3139.8775,3.618463059441183
3140.8524,5.8782111006460696
3141.8267,12.03468348447592
3142.8004,11.387917694757022
3143.7735,12.287951094968776
3144.7459,12.484820934711422
3145.7178,9.928564340705776
3146.689,10.919218314824576
3147.6596,6.506819759654931
3148.6295,10.991405468591836
3149.5989,15.323012169962183
3150.5676,10.151676482178829
3151.5357,11.377434870424537
3152.5032,9.750323698365364
3153.4701,15.370379215893138
3154.4364,11.98763757539652
3155.402,13.852134775560287
3156.367,12.163906695192935
3157.3315,14.572989074581614
3158.2952,13.379417532374404
3159.2584,12.933227541489558
3160.221,14.734454441051312
3161.1829,8.083133440851611
3162.1442,12.679299603337867
3163.105,14.472987910126378
3164.065,14.864233216040347
3165.0245,11.503070231173126
3165.9834,10.839533516975791
3166.9416,15.323657519868789
3167.8993,13.955476577877292
3168.8563,15.835024875789927
3169.8127,14.762336458840622
3170.7684,15.737445213913006
3171.7236,10.760384880267367
3172.6782,9.881189039789575
3173.6321,16.7498911667617
3174.5854,14.36652463665392
3175.5381,18.98112265743754
3176.4902,21.893718293418672
3177.4417,15.954344419092237
3178.3926,16.813033690016084
3179.3428,13.719818602204626
3180.2924,17.924731483541933
3181.2415,15.677804524713991
3182.1899,18.029069737159375
3183.1377,17.02855897553873
3184.0848,14.77630391422214
3185.0314,18.922336057294018
3185.9773,17.516686761075803
3186.9227,17.90938719266559
3187.8674,17.60046834399469
3188.8115,13.239961027900435
3189.755,23.977895881215588
3190.6979,21.31430340837329
3191.6402,20.749213874027717
3192.5818,19.532657329690025
3193.5229,18.864663619379314
3194.4633,22.395262391788094
3195.4031,23.474483106962268
3196.3423,23.202355000995084
3197.2809,22.128907075235063
3198.2189,22.404168099007293
3199.1563,23.27816662034786
3200.0931,21.40093096325124
3201.0292,20.322489218930244
3201.9648,24.492869264588506
3202.8997,24.362098774204796
3203.834,26.0302051768292
3204.7677,25.64721565789091
3205.7008,24.213157142517105
3206.6333,28.42805629936285
3207.5652,23.141939554951605
3208.4964,27.704833051526307
3209.4271,25.716762699910532
3210.3571,28.377754133879577
3211.2865,28.48783273004112
3212.2154,27.847023581225436
3213.1436,29.305351495384507
3214.0712,27.96284100200009
3214.9982,27.169516337500497
3215.9246,32.27540145868561
3216.8503,29.830520050660226
3217.7755,26.53489547577515
3218.7001,27.98855079807602
3219.624,30.691508816259486
3220.5473,35.09379204913676
3221.4701,31.095422708603955
3222.3922,29.946422655619266
3223.3137,33.64681344018674
3224.2346,35.04661631284624
3225.1549,32.345852187669564
3226.0746,35.694541628262385
3226.9937,32.44270487477198
3227.9121,33.090361810400154
3228.83,36.63753199392174
3229.7473,32.03423465320793
3230.6639,38.880488649754554
3231.5799,37.026312524715166
3232.4954,35.22172443043851
3233.4102,34.31674214901011
3234.3244,37.511383110298326
3235.238,37.75566440100401
3236.151,35.349602732714075
3237.0634,39.19321443945884
3237.9752,34.83651550177261
3238.8864,37.92952150825752
3239.797,39.62224769915052
3240.7069,38.564708935393284
3241.6163,35.75691968170503
3242.5251,42.54889401715808
3243.4332,37.19064566325558
3244.3408,38.08218791601168
3245.2477,39.67353369953403
3246.154,37.81469555710849
3247.0598,39.405685635285465
3247.9649,42.7965157024685
3248.8694,37.38719713300421
3249.7733,38.92774087327405
3250.6766,39.76815749578755
3251.5793,37.70845718377686
3252.4814,42.89864972279264
3253.3829,42.638744521300865
3254.2838,43.77875055878097
3255.1841,44.66867638832497
3256.0838,44.75853012523727
3256.9829,42.79831943813555
3257.8814,41.1880515480522
3258.7792,42.877733248036336
3259.6765,44.71737091925658
3260.5731,46.45697051410421
3261.4692,43.296537537796695
3262.3647,43.38607703098181
3263.2595,38.62559360134196
3264.1538,43.315091422698735
3265.0474,44.95457428261781
3265.9404,44.644045535513975
3266.8329,41.133508086256434
3267.7247,37.972964393273784
3268.616,42.312416503659506
3269.5066,39.60186608477745
3270.3966,41.14131438086698
3271.286,43.68076224014888
