RamanShift,CorrectedData
30.1047,7061.376756019456
32.3739,6596.507515849769
34.6426,6138.338205066317
36.9109,5683.468687090252
39.1787,5224.3987639593515
41.4461,4770.678180876699
43.7131,4316.156630801392
45.9796,3867.183758985741
48.2456,3422.00916752049
50.5112,2970.832419824539
52.7764,2523.7530450966983
55.0411,2074.0705428274514
57.3054,1628.1843872697493
59.5692,1182.5440319358383
61.8326,740.7489140561197
64.0955,310.5484590355543
66.3579,-123.257915128386
68.6199,-538.6207935437138
70.8815,-923.18952997187
73.1426,-1202.4580973525683
75.4032,-1213.41124596212
77.6634,-482.8217135204445
79.9231,2019.9498842308844
82.1824,8371.347754939208
84.4412,22606.266086052376
86.6995,48678.89898130476
88.9574,59315.790318368054
91.2148,59000.433488124996
93.4717,58513.37128830041
95.7282,58032.99592661477
97.9842,57560.69902565486
100.2398,57089.821627677484
102.4949,56618.95419933248
104.7495,56152.286636371486
107.0036,55681.908268356565
109.2573,55218.707863326956
111.5105,54755.52363250281
113.7632,54281.54323491718
116.0154,53811.95378204793
118.2672,53349.54184255746
120.5185,52887.94344698866
122.7693,52426.89409238902
125.0197,51964.278746926546
127.2696,51503.53185450036
129.519,51035.58733936674
131.7679,50573.02861074672
134.0163,50114.588567505416
136.2642,49658.24960277768
138.5117,49201.39360855249
140.7587,48749.651980236355
143.0052,48293.80562122181
145.2512,47840.684947404894
147.4967,47391.919891743615
149.7417,46944.63990878909
151.9863,46488.32397917327
154.2304,46044.00061408173
156.4739,45598.047859816776
158.717,45148.79330224073
160.9596,44698.86407123544
163.2017,44262.38684519482
165.4433,43820.78785552415
167.6844,43382.79289100483
169.925,42947.177302210424
172.1651,42506.766005886544
174.4047,42068.883489307045
176.6439,41639.25381467813
178.8825,41205.70062351714
181.1206,40772.297140948926
183.3582,40342.46618004129
185.5954,39914.7801461391
187.832,39489.861041162556
190.0681,39059.68046788407
192.3037,38640.8596341775
194.5388,38222.26935731986
196.7734,37800.58006817966
199.0075,37383.86181540265
201.2411,36967.68426962883
203.4742,36554.7167276596
205.7068,36145.528116619535
207.9389,35735.03699808605
210.1704,35328.01157218129
212.4015,34922.51968167708
214.632,34521.77881606509
216.862,34129.20611561184
219.0915,33739.96837536609
221.3205,33343.33204908452
223.549,32959.163253124156
225.777,32565.277770408677
228.0044,32170.441054270166
230.2314,31784.11823238794
232.4578,31396.624110736935
234.6837,31007.92317745088
236.909,30620.579606697327
239.1339,30217.907262564608
241.3582,29851.419702935287
243.582,29442.880183512854
245.8053,29085.851661486646
248.0281,28724.796799617143
250.2503,28352.677969806362
252.472,27974.857256708317
254.6932,27611.096461450295
256.9139,27242.107105411036
259.134,26879.900433858318
261.3536,26526.73741963884
263.5727,26162.078766800347
265.7912,25812.48491412321
268.0092,25462.466038767052
270.2267,25109.88205976662
272.4436,24766.142641532053
274.6601,24411.107197374666
276.8759,24079.08489294436
279.0913,23733.784649779984
281.3061,23388.165148629538
283.5204,23054.13483290322
285.7341,22717.2519121296
287.9473,22372.724365295893
290.16,22046.859944216834
292.3721,21729.716176979906
294.5837,21402.850371204047
296.7947,21080.119617211058
299.0052,20763.78079129425
301.2152,20439.690558945826
303.4246,20127.305378020144
305.6334,19821.281501974714
307.8418,19507.674982994024
310.0495,19197.29167504982
312.2568,18889.837237037114
314.4635,18583.667135878022
316.6696,18278.6366495963
318.8752,17977.100870379072
321.0802,17687.964707627092
323.2847,17389.782890970135
325.4887,17097.109973158367
327.692,16813.000333044154
329.8949,16529.60817850878
332.0972,16238.68754930354
334.2989,15950.642319883656
336.5001,15675.726202317492
338.7007,15397.79274916699
340.9008,15124.445356236865
343.1003,14851.187265353925
345.2992,14579.371567100556
347.4976,14310.25120354732
349.6955,14043.52897097107
351.8927,13779.307522546209
354.0895,13510.739371011841
356.2856,13264.526891314039
358.4812,13011.272323291509
360.6763,12757.22777413774
362.8707,12504.245220933517
365.0646,12257.276513187368
367.258,12011.173375365383
369.4508,11764.83740936093
371.643,11523.870096955667
373.8346,11289.572802282884
376.0257,11050.64677423719
378.2162,10819.24314881747
380.4062,10587.362951516188
382.5956,10359.907099633398
384.7844,10134.726404595567
386.9726,9907.1215742301
389.1603,9694.643215017197
391.3474,9431.941834365862
393.5339,9254.71784273874
395.7199,9054.071556279087
397.9052,8844.103198582954
400.09,8637.662902705742
402.2743,8430.800713261793
404.4579,8232.866588488912
406.641,8032.360402316888
408.8235,7831.481946346896
411.0054,7640.5309318565705
413.1868,7440.206991808787
415.3675,7248.709682761102
417.5477,7063.088486869063
419.7273,6872.542813801148
421.9064,6684.222002594986
424.0848,6509.525323562819
426.2627,6329.851980174637
428.4399,6158.101110805212
430.6166,5976.571790530805
432.7928,5803.2630328466985
434.9683,5641.873791482452
437.1432,5475.752962135077
439.3176,5316.249384082868
441.4914,5158.861841846621
443.6645,4993.939066784689
445.8371,4835.229738666836
448.0091,4684.182487323458
450.1806,4536.445894232733
452.3514,4386.768494031072
454.5216,4232.24877599044
456.6913,4099.235185515143
458.8603,3957.32612568701
461.0288,3819.9699585955823
463.1967,3686.115006757085
465.3639,3548.559554488136
467.5306,3417.5518492441915
469.6967,3291.690102995133
471.8622,3166.3724935353457
474.0271,3038.397165742339
476.1914,2914.562232829936
478.3551,2797.615777628038
480.5182,2679.4058538209356
482.6807,2574.6804871167915
484.8426,2470.4376764297776
487.0039,2354.475394927278
489.1647,2239.991591072314
491.3248,2135.134189783159
493.4843,2037.9010935782062
495.6432,1936.940183624567
497.8015,1831.949320710366
499.9592,1731.526346254359
502.1163,1639.8190833558183
504.2728,1562.9753377988018
506.4287,1480.3928989691558
508.5839,1395.5195406229977
510.7386,1306.903021712511
512.8927,1217.3910872347042
515.0461,1139.3314691175547
517.199,1063.3218871151985
519.3512,992.0600495885374
521.5029,919.943654265262
523.6539,853.620388952535
525.8043,787.4379322580935
527.9541,717.5439542534805
530.1033,663.4861171359371
532.2519,605.3120759272715
534.3999,545.9194790144829
536.5472,499.1559687314948
538.694,448.1637336765416
540.8401,390.7799758797919
542.9856,332.5374202156163
545.1305,284.2648876663952
547.2748,246.3378771656935
549.4185,201.32904784077982
551.5615,168.35859790356335
553.704,133.84471428873803
555.8458,102.20390202858835
557.987,74.45132904669299
560.1276,42.951142249585246
562.2675,16.96674477493798
564.4069,-10.638889321468014
566.5456,-27.9529554816545
568.6837,-48.31254286515468
570.8212,-65.50446138147527
572.958,-82.8150382978929
575.0942,-97.77994649214816
577.2299,-107.33403151983657
579.3648,-108.16116211488406
581.4992,-113.64413474425237
583.6329,-120.71466534495994
585.766,-132.45333454910724
587.8985,-142.28951704929932
590.0304,-163.7512643294467
592.1616,-161.11520640127128
594.2922,-164.40633740132034
596.4222,-165.7480419253261
598.5515,-165.26206214966805
600.6802,-157.9184844278061
602.8083,-149.68574414523027
604.9358,-145.08069908184552
607.0626,-138.6187116569199
609.1888,-131.76369493361562
611.3144,-122.22817717422004
613.4393,-105.52337032171636
615.5636,-91.70926525966934
617.6873,-71.54479869322677
619.8103,-56.13799115196889
621.9327,-33.34614843297459
624.0544,-10.776015514798928
626.1756,10.46566295750381
628.2961,28.272142446614453
630.4159,52.43667831060884
632.5351,74.8525256248322
634.6537,100.91293894030969
636.7716,121.91117205953924
638.8889,158.69047777594096
641.0056,184.69410766383953
643.1216,221.61531171064416
645.237,254.1973380568379
647.3518,297.18343262685084
649.4659,341.6668388031103
651.5793,373.74079699624417
653.6922,412.1485442002304
655.8043,419.73331367169885
657.9159,487.13833454583073
660.0268,398.7068317605008
662.137,567.7820253822356
664.2466,603.3071314905028
666.3556,627.3753604869999
668.4639,705.129916740334
670.5716,725.2139983453962
672.6786,799.420796345803
674.785,816.7934945330926
676.8907,884.0752687046188
678.9958,962.959286489815
681.1002,1015.0887066774158
683.204,1020.4066784265742
685.3072,1001.4563407456153
687.4097,1114.2308224388544
689.5115,1102.8732422961111
691.6127,1274.6767079648707
693.7132,1236.9343160638964
695.8131,1271.9891504652114
697.9123,1381.5842826715016
700.0109,1448.2627714655391
702.1089,1345.0176618142723
704.2061,1462.3419842020667
706.3028,1543.2787556631301
708.3987,1662.8709786083273
710.4941,1666.4616400157174
712.5887,1870.7437102347176
714.6827,1867.3101429501621
716.7761,2071.4038731394758
718.8688,2161.017817106993
720.9608,2151.8448704430266
723.0522,2199.5279071276746
725.1429,2149.659779622649
727.233,2469.333318394405
729.3224,1918.041332412853
731.4112,2268.4266059545553
733.4993,2337.481904115695
735.5867,2430.649969308237
737.6735,2313.8735205693083
739.7596,2176.795252629563
741.845,2229.8078370809526
743.9298,2688.1539237475226
746.014,2364.476140155224
748.0974,2104.817086948533
750.1802,2860.869341127189
752.2624,2173.4754586427516
754.3439,2381.727966838116
756.4247,2662.0193713214176
758.5048,2413.5921538835464
760.5843,2662.888769695179
762.6631,2994.5016497911056
764.7413,2998.6231985771883
766.8188,3240.2957905143703
768.8956,3699.2117700773306
770.9718,3748.3634493378268
773.0473,3684.3931033755216
775.1221,3189.792969786402
777.1962,3209.3552493225725
779.2697,2616.4721108382437
781.3426,3200.735691094036
783.4147,3608.3881006858646
785.4862,3728.7214182023163
787.557,3230.1276861481165
789.6271,3803.8489097408165
791.6966,3208.0770618968018
793.7654,2412.1540774940077
795.8335,2489.4718593295984
797.901,2809.172286079265
799.9678,2461.1972115239914
802.0339,2441.588461353058
804.0993,2667.437836643847
806.1641,2476.187114057844
808.2282,2385.3280435822016
810.2916,2203.202350442276
812.3544,2795.1017360101105
814.4164,1924.9678796257285
816.4778,2121.042432678165
818.5385,2297.217027306775
820.5986,2274.6832744405183
822.658,2475.932762036209
824.7166,2587.057055303856
826.7747,1885.2976946941853
828.832,2425.6961947873788
830.8886,2979.0940513106616
832.9446,3130.9327357343645
834.9999,1932.4536897378857
837.0545,2830.948323691344
839.1085,3327.4080286402896
841.1618,3181.7241673208555
843.2143,2392.138069195098
845.2662,2483.391031907886
847.3175,2893.574329182753
849.368,1916.8292099093524
851.4179,2788.6468940416016
853.467,2115.218582365138
855.5155,2411.1854477791494
857.5633,1904.088642030707
859.6105,1650.8692927550655
861.6569,2032.668508546616
863.7027,1433.1773814911285
865.7478,1748.4369833476667
867.7922,1714.6383715435877
869.8359,2240.7225860218896
871.8789,1616.680649579168
873.9212,2269.003562604834
875.9629,2466.9823093214873
878.0039,2635.0078512617547
880.0441,2488.971125288437
882.0837,2522.313041914298
884.1226,2498.124486762419
886.1609,2454.846320232733
888.1984,2195.9693777439534
890.2352,2661.084470166359
892.2714,2056.8323864105478
894.3069,2379.2038887763047
896.3416,2227.439718995127
898.3757,2255.830595006475
900.4091,1769.817212475471
902.4418,2485.1902445089145
904.4739,2052.4403465154755
906.5052,2341.2081490519413
908.5358,2084.434262150702
910.5658,1836.8592724320479
912.595,1847.6737456720002
914.6236,1424.26822927795
916.6515,2206.8332521805933
918.6786,1400.3093290679753
920.7051,1798.1369525597765
922.7309,1897.7066012726427
924.756,2098.208735841865
926.7804,1979.8337979256903
928.8041,1616.3722082002714
930.8272,1964.1143675434796
932.8495,1911.3506606694573
934.8711,1589.721452651218
936.892,1422.3170894483046
938.9123,1420.2279011230712
940.9318,1193.844203514731
942.9506,1022.556298260235
944.9688,1074.2544750581437
946.9862,720.579013381488
949.003,789.020181960761
951.019,582.2182423207269
953.0344,722.4134480959692
955.0491,742.1960470989434
957.063,1006.3062799179606
959.0763,1206.8343797193957
961.0888,1154.8205696065415
963.1007,1398.2550606143923
965.1119,1412.428052229785
967.1223,1428.2797299569575
969.1321,1618.4502651759321
971.1412,1530.7798149840091
973.1495,1499.8085202939474
975.1572,1691.776506710754
977.1641,1718.2238848413763
979.1704,1661.8407483750343
981.1759,1700.7171738187099
983.1808,1784.7432210609477
985.1849,1873.0089329831899
987.1884,2059.2543346194434
989.1911,2347.6694322736585
991.1932,2447.294211657245
993.1945,2487.56863500498
995.1951,2370.83264007869
997.1951,2326.0761397645474
999.1943,2221.339023240398
1001.1928,2111.711156423349
1003.1906,2080.882383017175
1005.1877,2102.9925256085407
1007.1841,1982.6813859752947
1009.1798,1821.6887448653943
1011.1748,1528.4543632000205
1013.1691,1349.3679836834272
1015.1627,1080.319333735395
1017.1556,780.4981272820005
1019.1477,772.844067446189
1021.1392,563.6468495459194
1023.1299,573.5961611707462
1025.12,523.2316842738
1027.1093,510.9930950722337
1029.0979,538.1200645509307
1031.0859,579.5522585848594
1033.0731,512.2793376677946
1035.0596,447.7909564980291
1037.0454,250.47676465105178
1039.0304,101.77640722445358
1041.0148,-14.62047318891564
1042.9985,-63.374235013950965
1044.9814,17.35476347067015
1046.9636,-117.59320290510368
1048.9452,-145.5778594848598
1050.926,-102.4577568560926
1052.9061,-151.68999128347787
1054.8855,-134.73063547871425
1056.8642,-75.9842467705239
1058.8421,-15.354036528602592
1060.8194,30.807542959941202
1062.7959,99.64819279483345
1064.7717,60.31561376774334
1066.7469,114.25750567386422
1068.7213,26.02156770527654
1070.695,34.755497911479324
1072.6679,-99.7430059182152
1074.6402,-116.17624634200183
1076.6117,-17.995529485488078
1078.5826,50.09899912642868
1080.5527,105.40737374413584
1082.5221,249.47962811705656
1084.4908,484.01579494052567
1086.4587,769.7159044151267
1088.426,1062.2299819012624
1090.3925,925.1080450621957
1092.3584,958.000100938938
1094.3235,609.2061473214126
1096.2879,528.4261724195749
1098.2515,520.3601583513737
1100.2145,566.9580819505063
1102.1767,611.769914847071
1104.1382,796.3456230015945
1106.099,1010.8351662568894
1108.0591,1170.6884964924102
1110.0185,1342.9055554792212
1111.9771,1381.0362732816575
1113.9351,1103.4805665349413
1115.8923,782.6383380639963
1117.8488,401.0094796589183
1119.8045,85.39387528348743
1121.7596,-39.20859510855371
1123.7139,-41.44805241739232
1125.6675,-41.32422584936285
1127.6204,146.31356945525476
1129.5726,176.26643118518405
1131.524,234.33545556604076
1133.4748,313.17173706081667
1135.4248,312.47636778916785
1137.3741,416.7504367390575
1139.3226,362.0450297736679
1141.2705,445.0112285887226
1143.2176,306.95011125950987
1145.164,347.9127514112188
1147.1097,382.35021959956066
1149.0546,500.5635829011153
1150.9989,439.35390456901223
1152.9424,335.57224285074335
1154.8852,163.26965160027612
1156.8272,84.94718131590344
1158.7686,89.75588086322387
1160.7092,-30.25320174160879
1162.6491,-74.02901937997376
1164.5883,57.129777296191605
1166.5267,139.82527718482743
1168.4644,355.75956861257873
1170.4014,491.6847385078654
1172.3377,850.852870241506
1174.2732,1040.1660422674977
1176.2081,1337.176324531334
1178.1421,1431.0857765768524
1180.0755,1604.446444576155
1182.0082,1546.8603603904921
1183.9401,1556.529539836687
1185.8713,1391.8559832629762
1187.8017,1162.141675452287
1189.7315,963.8385872690633
1191.6605,629.448677956294
1193.5888,392.27389711864816
1195.5163,339.2661880663218
1197.4432,230.87749018678005
1199.3693,195.209739474838
1201.2947,65.16486961657574
1203.2193,68.34481234597843
1205.1432,133.60149874538183
1207.0664,169.08685921369033
1208.9889,236.1028228138057
1210.9106,259.8513169177713
1212.8316,389.18426653661663
1214.7519,502.50359408288205
1216.6715,442.8112180772587
1218.5903,455.40905201540954
1220.5084,397.8990049649001
1222.4257,476.882981439212
1224.3424,296.8628819728474
1226.2583,379.2406023314943
1228.1735,509.4680353122276
1230.0879,538.7970699197285
1232.0016,702.4795900640238
1233.9146,731.8674742671828
1235.8269,689.8125940264872
1237.7384,590.1668135205728
1239.6492,354.9319900299306
1241.5592,266.05997493341056
1243.4686,157.45261606057102
1245.3772,131.8617585803804
1247.285,49.839246087281936
1249.1922,-8.663079142876086
1251.0986,53.85662466736176
1253.0042,17.700285839575372
1254.9092,156.26983215678774
1256.8134,220.16719122504946
1258.7169,415.5442890877057
1260.6196,566.0030495864448
1262.5216,809.1453924075322
1264.4229,919.6232315772031
1266.3234,1121.7384730302656
1268.2232,1169.0930135053022
1270.1223,1181.8887385235284
1272.0207,1106.377521915234
1273.9183,1113.3612256918605
1275.8151,1103.7917008010809
1277.7113,1015.2207870569509
1279.6067,814.750313235636
1281.5014,675.8820979611264
1283.3953,566.1679517099037
1285.2885,508.80967819962825
1287.181,481.6590754862955
1289.0727,547.3179365378164
1290.9637,566.9380495055084
1292.854,775.3211970675366
1294.7435,890.0691562326829
1296.6323,1095.6836962565285
1298.5204,1428.0665774939662
1300.4077,1744.3195493430612
1302.2943,1945.4943469212267
1304.1802,2108.9426879027233
1306.0653,2044.016270506865
1307.9497,1940.116771863566
1309.8333,1893.945848662588
1311.7162,1900.0551381925397
1313.5984,2027.7962588026094
1315.4798,2171.0208098414187
1317.3605,2414.2303703796606
1319.2405,2632.576497777809
1321.1197,2648.760725254062
1322.9982,2625.7845597008527
1324.876,2682.799481523012
1326.753,2621.9569448675393
1328.6293,2769.9083770534744
1330.5048,2863.1051791802747
1332.3796,2802.298724648339
1334.2537,2865.040358227023
1336.127,2780.231396662697
1337.9996,2761.473128051355
1339.8714,2750.8168126866694
1341.7426,2638.1636832475997
1343.6129,2668.8149449049597
1345.4826,2613.9217764479326
1347.3515,2566.785329977567
1349.2196,2534.4067314556996
1351.087,2605.287081176328
1352.9537,2676.727454089385
1354.8197,2876.728899091977
1356.6849,3075.992438313955
1358.5493,3154.769065117929
1360.4131,3202.0097421066057
1362.276,3110.715400335008
1364.1383,2918.686938838109
1365.9998,2729.575225543729
1367.8606,2441.881099192833
1369.7206,2202.4553712306333
1371.5799,2043.5988286835636
1373.4384,1945.2122365534924
1375.2962,1847.246339406338
1377.1533,1600.5518623558964
1379.0096,1295.879512043477
1380.8652,1017.8299791048521
1382.7201,796.653941216995
1384.5742,591.9020658786285
1386.4275,434.27501262192527
1388.2802,398.87343506005345
1390.132,264.8979824634516
1391.9832,271.5493001138457
1393.8336,137.3280306439774
1395.6832,115.28481397112046
1397.5322,64.92028863928135
1399.3803,53.185092039631854
1401.2278,5.679860914166056
1403.0745,49.35523147303684
1404.9204,-50.03816013036703
1406.7656,5.5503217637960915
1408.6101,-7.978187303426239
1410.4538,-9.12255184647438
1412.2968,41.11844332228429
1414.139,61.44610452477718
1415.9805,200.96173767173605
1417.8213,244.81664805943728
1419.6613,386.11213897455673
1421.5006,603.6495112556258
1423.3391,849.9800618800582
1425.1769,1236.3050817887815
1427.0139,1774.5258534229324
1428.8502,2409.6936468605963
1430.6858,3031.4097144346088
1432.5206,3439.5252843808703
1434.3547,3698.091554621209
1436.188,3826.309688682184
1438.0206,3770.130813109452
1439.8524,3603.5060161855763
1441.6835,3563.0863484918336
1443.5139,3527.872824574446
1445.3435,3437.36642334878
1447.1724,3414.368088451487
1449.0005,3363.4787291455686
1450.8279,3302.39922055036
1452.6545,3225.3804041504045
1454.4804,3375.173088406271
1456.3056,3372.2780495247134
1458.13,3294.646029960779
1459.9536,3133.127738446732
1461.7766,2765.3738507683884
1463.5987,2351.785011380285
1465.4202,1988.6618370832257
1467.2409,1643.0549211601865
1469.0608,1448.5148370075294
1470.88,1217.792141591075
1472.6984,1006.3373773914973
1474.5161,792.3510747115615
1476.3331,668.7837537906635
1478.1493,573.8859269446948
1479.9648,505.3580998017205
1481.7795,445.35077225095665
1483.5935,415.21443912804534
1485.4067,392.69959081512934
1487.2192,409.1567135422338
1489.031,379.5862896124054
1490.842,334.4387972371187
1492.6522,356.0647108320045
1494.4618,384.86450146832794
1496.2705,391.8386366567029
1498.0785,326.5375800591064
1499.8858,358.3117914191316
1501.6924,327.7617272150055
1503.4981,366.53784034185446
1505.3032,409.59058041718527
1507.1075,430.3703933931647
1508.911,378.3777211260458
1510.7138,357.2630011683941
1512.5159,322.77666728900294
1514.3172,318.11914968402925
1516.1178,312.54087532188714
1517.9176,301.14226798981326
1519.7166,254.02374834962393
1521.515,229.53573405174393
1523.3126,255.82864020634952
1525.1094,230.20287962828297
1526.9055,187.65886257410602
1528.7008,203.29699699834237
1530.4954,179.66768897891598
1532.2893,191.07134256081918
1534.0824,140.6083599923477
1535.8747,168.47914161110384
1537.6663,172.88408634861844
1539.4572,141.673591451643
1541.2473,127.5480524380946
1543.0367,184.6578634091711
1544.8253,138.65341719059506
1546.6132,180.38510476151714
1548.4003,138.9033157145641
1550.1867,175.20843783850432
1551.9723,216.40085753309177
1553.7572,236.830959445997
1555.5414,267.04912606089783
1557.3247,326.45573749316463
1559.1074,355.7011711876912
1560.8893,450.1858013248093
1562.6705,438.60999852784516
1564.4509,552.2241289182784
1566.2305,643.6785542314974
1568.0094,784.5236306806473
1569.7876,860.2097080421154
1571.565,972.3371282470471
1573.3417,1075.6062246244946
1575.1176,1128.7673207801417
1576.8928,1077.0207295636355
1578.6672,1012.2167525369514
1580.4409,913.8056804918633
1582.2138,819.0377940979924
1583.986,706.4633648868839
1585.7575,648.0326561997208
1587.5282,518.6959243130623
1589.2981,519.1534190231323
1591.0673,453.3553849392156
1592.8358,463.65206147906065
1594.6035,476.19368352687525
1596.3704,455.38048133035045
1598.1366,479.8626803752577
1599.9021,546.5405015935576
1601.6668,527.5641611186038
1603.4308,585.33386961836
1605.194,658.8998324851618
1606.9564,735.6122492580089
1608.7182,874.5713128869029
1610.4791,1016.4772089657417
1612.2394,1139.9801143426994
1613.9988,1351.7301957011878
1615.7576,1602.9776083248144
1617.5156,1856.172493979897
1619.2728,2101.8649784029712
1621.0293,2321.7551687688683
1622.785,2406.8431512337593
1624.54,2383.6289887362836
1626.2942,2229.512720146653
1628.0477,1920.2943604987922
1629.8005,1690.3239025314906
1631.5525,1497.851319780595
1633.3037,1313.6265688787244
1635.0542,1174.7995914800067
1636.804,1026.8703161023022
1638.553,941.9886595154876
1640.3013,888.5545282207368
1642.0488,816.1678192993495
1643.7955,835.9784209470927
1645.5416,886.1862131980542
1647.2868,933.4910677265507
1649.0313,999.1428473450487
1650.7751,1162.3914055311034
1652.5181,1376.0365857708603
1654.2604,1584.8282199265614
1656.0019,1911.216126100082
1657.7427,2269.600106545031
1659.4828,2699.0299444028533
1661.222,2945.8554001190078
1662.9606,3008.4762071486566
1664.6984,2916.542069488416
1666.4354,2643.3526610501413
1668.1717,2206.057626580272
1669.9072,1734.1565843917197
1671.642,1381.249130736851
1673.3761,1113.58484452646
1675.1094,883.1632908588635
1676.8419,710.2340236965356
1678.5737,592.546588170324
1680.3048,481.2005223087526
1682.0351,415.1953582148726
1683.7646,349.1306231797498
1685.4934,341.20584034249987
1687.2215,314.4705293509396
1688.9488,247.02420644083577
1690.6754,217.9663847032498
1692.4012,228.2465747590104
1694.1263,201.21428504928735
1695.8506,198.46902173278977
1697.5742,201.9102889560927
1699.297,180.5375888810686
1701.0191,125.40042165049272
1702.7404,111.04828560176975
1704.461,74.7306778183065
1706.1808,56.19709427302769
1707.8999,68.94703019155895
1709.6182,48.029980237561176
1711.3358,77.49543838522914
1713.0527,55.39289812845709
1714.7688,22.821852186185424
1716.4841,48.28179272343186
1718.1987,41.52221167699645
1719.9126,20.59260050087687
1721.6257,36.74245023384901
1723.338,51.2712517087748
1725.0496,-6.971504608894975
1726.7605,11.613671233566492
1728.4706,1.4763388342234975
1730.18,-51.13394232499013
1731.8886,-9.217612776898022
1733.5964,-12.124602226240313
1735.3036,0.945251706189083
1737.0099,25.192232524363135
1738.7156,36.01662372280043
1740.4204,-31.33129145589737
1742.1246,11.648769870715114
1743.8279,20.657403584675194
1745.5306,13.34520545153282
1747.2325,6.512771030276781
1748.9336,-9.539304253545197
1750.634,-13.860425039503752
1752.3336,15.600099330473313
1754.0325,11.39309798010072
1755.7307,19.269399877095566
1757.4281,68.52983387526547
1759.1247,87.0252286357154
1760.8206,97.15641213427625
1762.5158,116.62421147653185
1764.2102,85.22945279650594
1765.9039,69.82296106198191
1767.5968,80.50556038844843
1769.289,98.82807419316487
1770.9804,99.99132508834373
1772.6711,116.34613469791475
1774.361,116.34332364590955
1776.0502,139.38371139290393
1777.7386,126.41811623604008
1779.4263,140.04735507864098
1781.1132,178.87224355984472
1782.7994,144.6435959183309
1784.4849,167.26222460405188
1786.1696,127.52894062053747
1787.8535,153.89455329870725
1789.5367,165.1598706941877
1791.2192,187.02569932367442
1792.9009,193.69284405227336
1794.5818,169.6121078748347
1796.2621,189.53429184928063
1797.9415,194.71019533742765
1799.6202,156.44061580575544
1801.2982,206.92634877364253
1802.9755,214.96818819607142
1804.6519,202.2669259587583
1806.3277,215.57335179775146
1808.0027,216.28825342642995
1809.6769,262.4624164024426
1811.3504,229.14662412056714
1813.0231,217.04165735096467
1814.6951,234.29829457233427
1816.3664,247.36731209296704
1818.0369,270.04948387817603
1819.7067,238.89558141959606
1821.3757,254.20637350839388
1823.044,274.7326265467691
1824.7115,284.42510439486796
1826.3783,269.28456816551807
1828.0443,272.41177612730826
1829.7096,274.5574838559696
1831.3741,289.3224442031369
1833.0379,276.35740727487064
1834.701,302.41312028400534
1836.3633,297.9403276798039
1838.0248,313.13977088741194
1839.6856,313.56218835256914
1841.3457,327.95831538962557
1843.005,365.52888417731265
1844.6636,339.57462361478974
1846.3214,348.5962589459232
1847.9785,385.9445120188502
1849.6349,388.520101195747
1851.2904,390.57374097934917
1852.9453,395.05614198719013
1854.5994,392.71801093108115
1856.2528,421.46005057226284
1857.9054,426.6329597448039
1859.5572,430.9874330681796
1861.2083,439.8241608955359
1862.8587,440.24382927014085
1864.5084,442.4471198370393
1866.1572,460.7347098388309
1867.8054,434.0572720936507
1869.4528,454.4654748122939
1871.0994,455.65998186498837
1872.7453,458.9914525773129
1874.3905,473.2105417182411
1876.0349,441.11789946684075
1877.6786,479.3641712700901
1879.3215,489.99999816377203
1880.9637,489.52601639004206
1882.6051,480.49285729105395
1884.2458,511.8011473137067
1885.8858,454.5015080999765
1887.525,506.7945561738288
1889.1634,519.930903514216
1890.8011,498.26115703215874
1892.4381,493.3859184393623
1894.0743,488.25578446493273
1895.7098,511.6213469041213
1897.3446,502.38319266962935
1898.9786,508.24190355794417
1900.6118,500.34805634173244
1902.2443,490.60222271124076
1903.8761,499.05496935324845
1905.5071,484.856858048508
1907.1374,471.95844558723
1908.7669,494.51028391104956
1910.3957,504.7629202420303
1912.0237,469.11689685712554
1913.651,475.3727509856726
1915.2776,475.7810151658359
1916.9034,462.3422171820639
1918.5285,439.55688006098717
1920.1528,438.7755222058331
1921.7764,461.2486576242536
1923.3992,452.17679593616595
1925.0213,407.4604421489985
1926.6427,422.40009674842076
1928.2633,400.9462561455075
1929.8832,447.0994125273337
1931.5023,385.7100540715146
1933.1207,421.52866448467284
1934.7383,395.2057236163364
1936.3552,401.14170710074904
1937.9714,390.9370866200952
1939.5868,381.64232984515
1941.2015,364.4079005373187
1942.8154,379.1342586415831
1944.4286,320.1218604588539
1946.041,301.8211584987039
1947.6528,307.3826020694869
1949.2637,320.8566374613456
1950.8739,301.99370789059685
1952.4834,331.44425336499444
1954.0921,349.508710872371
1955.7001,329.8375140861099
1957.3074,321.38109318451916
1958.9139,301.0898750475262
1960.5197,304.7642833412565
1962.1247,288.60473872093917
1963.729,281.8116587941595
1965.3325,257.78545828245296
1966.9353,216.97654908924414
1968.5374,230.33534054010215
1970.1387,259.11223979083843
1971.7393,238.55765169392544
1973.3392,248.57197851071123
1974.9383,241.05562011697566
1976.5366,217.85897390278296
1978.1342,242.5324348476479
1979.7311,224.07639575249686
1981.3273,241.94124699293116
1982.9227,232.47737670379502
1984.5173,212.18517060052818
1986.1112,237.01501207379079
1987.7044,220.51728239240128
1989.2968,229.14236045502912
1990.8885,214.3406229551747
1992.4795,222.862444294924
1994.0697,212.80819673295537
1995.6592,211.8782502993281
1997.2479,212.77297289601665
1998.8359,214.99273030621316
2000.4232,202.28788618538874
2002.0097,187.3588020390871
2003.5955,178.05583734997708
2005.1805,230.97934972714575
2006.7648,204.72969499912415
2008.3484,194.4072266846606
2009.9312,222.51229625520682
2011.5133,202.54525323815778
2013.0946,201.40644493578475
2014.6752,207.14621662491118
2016.2551,229.06491156829998
2017.8342,206.26287095725365
2019.4126,190.7404336924301
2020.9902,175.1979366118585
2022.5672,204.58571464616944
2024.1433,184.15410097400945
2025.7188,179.15342672817314
2027.2935,175.98402119991988
2028.8674,183.3962118889758
2030.4406,191.6903245352305
2032.0131,138.91668304461473
2033.5849,150.6756094061593
2035.1559,186.91742421972504
2036.7261,157.09244657842555
2038.2957,198.50099370620137
2039.8645,178.39338125607082
2041.4325,213.66992289604605
2042.9998,185.48093051020624
2044.5664,210.62671384593796
2046.1323,190.9575807958181
2047.6974,190.0238371461619
2049.2617,191.92578677370966
2050.8254,205.01373165496716
2052.3883,191.53797184718314
2053.9504,183.3988053574758
2055.5118,187.24652827758746
2057.0725,171.0314348652746
2058.6325,181.55381750583183
2060.1917,183.76396687424676
2061.7502,202.76217182996606
2063.3079,173.9987193948009
2064.8649,176.12389456294113
2066.4212,179.18798058859284
2067.9767,175.29125896472306
2069.5315,166.83400939242438
2071.0856,145.21650981988023
2072.6389,145.88903652693716
2074.1915,125.65186434127645
2075.7433,131.35526663169549
2077.2945,140.59951551046834
2078.8448,123.83488177632807
2080.3945,116.46163482201246
2081.9434,151.78004280191635
2083.4916,133.54037270582194
2085.039,95.64289000571989
2086.5857,106.43785883819783
2088.1317,131.72554238341854
2089.677,137.55620275717047
2091.2215,124.93010075798975
2092.7652,135.89749580885564
2094.3083,145.35864608345582
2095.8506,131.86380839650337
2097.3921,154.66323810912854
2098.933,148.6071892638247
2100.4731,151.99591435645834
2102.0124,171.67966439682004
2103.5511,157.40868887474699
2105.089,171.68323556328778
2106.6261,165.10355066140983
2108.1626,173.81987865125302
2109.6983,167.63246236392933
2111.2332,185.5915428923554
2112.7675,161.74735965312993
2114.301,149.30015020693827
2115.8337,173.95015049699668
2117.3657,168.29759497351824
2118.897,173.4927163472248
2120.4276,183.23574564586397
2121.9575,160.47691216226212
2123.4866,186.46644335689052
2125.0149,195.30456508545103
2126.5426,158.9915013389891
2128.0695,151.02747415550766
2129.5956,193.96270398309207
2131.1211,182.19740975955847
2132.6458,170.33180848309712
2134.1698,179.61611532992083
2135.693,189.750543772926
2137.2155,190.7853054888492
2138.7373,173.5206102569282
2140.2584,184.3566659485541
2141.7787,179.49367869991056
2143.2983,191.08185280361977
2144.8171,159.62139075736468
2146.3353,184.4124931480119
2147.8527,159.35535896621968
2149.3693,181.85018535852487
2150.8853,171.29716787791313
2152.4005,159.54650025886986
2153.9149,153.8483745229123
2155.4287,137.45298109609666
2156.9417,189.2105088659955
2158.454,176.62114534565717
2159.9655,167.23507615602557
2161.4764,154.15248515183885
2162.9865,159.27355451548738
2164.4958,173.44846488783605
2166.0045,154.77739531701627
2167.5124,174.0605231166819
2169.0195,181.5980240527124
2170.526,178.94007215038891
2172.0317,169.5868396190126
2173.5367,180.6884968784907
2175.0409,189.84521265286003
2176.5445,170.0571538592758
2178.0473,196.3744855164423
2179.5494,168.04737094249958
2181.0507,162.2259714918473
2182.5513,146.360446838411
2184.0512,178.050955033862
2185.5504,135.54765266627055
2187.0488,145.45069454319946
2188.5465,125.06023411673868
2190.0435,147.02642338447822
2191.5397,141.24941309340647
2193.0353,151.679352520252
2194.5301,137.9663895292524
2196.0241,137.81067046785938
2197.5175,147.2623403038633
2199.0101,151.92154262695294
2200.502,128.63841955419502
2201.9931,107.86311168344582
2203.4835,104.89575832617811
2204.9733,125.68649771523906
2206.4622,132.2354670345212
2207.9505,117.99280221105619
2209.438,104.50863784952435
2210.9248,101.03310737467473
2212.4109,92.06634316617055
2213.8962,97.10847659334559
2215.3809,116.65963810487392
2216.8648,136.91995717834925
2218.3479,114.08956212477187
2219.8304,105.71857988594638
2221.3121,107.35713626278448
2222.7931,98.55535599902032
2224.2733,85.91336276482798
2225.7529,75.08127924483142
2227.2317,79.70922726452318
2228.7098,100.0473278985819
2230.1872,91.89570142459434
2231.6638,101.75446711968016
2233.1397,88.4237433420094
2234.6149,79.35364743220453
2236.0894,85.14429584665504
2237.5632,86.6458042482127
2239.0362,69.65828744829469
2240.5085,74.78185939186096
2241.9801,73.26663332729822
2243.4509,67.81272175517006
2244.921,62.02023644338169
2246.3904,72.43928848171436
2247.8591,70.51998833975449
2249.3271,82.31244576269637
2250.7943,48.316769790541
2252.2608,57.58306864016777
2253.7266,59.81145004528935
2255.1917,63.852021163790596
2256.656,51.904888555443904
2258.1197,62.970158141506545
2259.5826,41.49793532418789
2261.0447,55.43832487600139
2262.5062,58.29143115447914
2263.9669,48.20735796277495
2265.4269,72.53620852112181
2266.8862,66.5280855676856
2268.3448,63.73309111526942
2269.8026,67.65132651139811
2271.2598,79.7328924662661
2272.7162,83.57788901355525
2274.1719,90.63641538962293
2275.6268,68.95856999504758
2277.0811,66.99445032405129
2278.5346,74.74415318126648
2279.9874,81.55777470138491
2281.4395,92.1854102716552
2282.8908,68.17715446375405
2284.3414,73.5831009275089
2285.7914,76.10334263097775
2287.2406,84.5879718063934
2288.689,88.03707992495129
2290.1368,88.55075761196804
2291.5838,80.77909461239688
2293.0302,87.77217978568115
2294.4758,85.23010118347884
2295.9206,75.00294597972788
2297.3648,62.49080049606255
2298.8082,80.54375030409437
2300.251,64.26188035052382
2301.693,80.99527477662286
2303.1343,87.34401708104951
2304.5748,79.05818995250729
2306.0147,71.58787520626265
2307.4538,87.83315386700542
2308.8922,87.74410624354232
2310.3299,74.62081176635047
2311.7669,79.16334898847208
2313.2031,82.82179571673896
2314.6387,66.54622896635192
2316.0735,60.136724924300324
2317.5076,76.89335911211765
2318.941,85.91620644996692
2320.3737,73.5053410890796
2321.8056,66.96083632151885
2323.2369,101.18276470429646
2324.6674,75.17119812481997
2326.0972,86.12620745867207
2327.5263,76.19786282972291
2328.9547,77.03623350057978
2330.3823,71.6913879718768
2331.8092,100.81339397388183
2333.2355,74.00231851994658
2334.661,83.65822761529398
2336.0858,76.6311865251273
2337.5098,81.0712596780686
2338.9332,90.47851073642687
2340.3558,91.80300255179736
2341.7778,82.94479707099026
2343.199,92.40395532279172
2344.6195,74.4305375065378
2346.0393,77.82460289752225
2347.4583,98.83621002673544
2348.8767,100.31541664692486
2350.2943,82.76227952247746
2351.7113,92.32685441462627
2353.1275,84.55919625698243
2354.543,79.95935905988745
2355.9578,102.37739598809412
2357.3718,94.51335940676336
2358.7852,77.96730065728389
2360.1978,92.18927013591065
2361.6098,88.27931745922615
2363.021,78.08749132192179
2364.4315,81.46383953589657
2365.8413,85.5084091321769
2367.2504,97.07124632715204
2368.6587,78.75239648212755
2370.0664,67.50190398769882
2371.4733,66.36981244693789
2372.8795,66.75616478790107
2374.285,57.9110032749486
2375.6899,60.1343695048804
2377.0939,55.57630449538965
2378.4973,59.13684866282574
2379.9,58.91604186777977
2381.3019,50.46392337947782
2382.7032,41.43053187798432
2384.1037,37.415905538730385
2385.5035,54.970082122842086
2386.9027,55.74309901728657
2388.3011,45.93499305933392
2389.6987,53.495800528822656
2391.0957,39.57555724624308
2392.492,47.07429849713071
2393.8876,24.69205917126783
2395.2824,38.87887368769316
2396.6765,47.934776218527986
2398.07,22.959800547103896
2399.4627,30.003979977408108
2400.8547,27.017347583830087
2402.246,6.749936140721275
2403.6366,30.601778152260522
2405.0265,18.62290605512817
2406.4156,33.76335197998742
2407.8041,16.623147871274796
2409.1918,34.65232533579365
2410.5789,21.100915814116888
2411.9652,32.6189504002964
2413.3508,43.00645997737729
2414.7358,32.063475102217126
2416.12,8.690025901610625
2417.5035,28.53614218171697
2418.8863,23.15185366179867
2420.2684,28.337189775756087
2421.6497,26.4421797259738
2423.0304,4.216852431464758
2424.4104,6.861236546823875
2425.7896,12.7753606844758
2427.1682,13.559253388236357
2428.546,0.3129430741696524
2429.9232,19.336458022747138
2431.2996,9.879823388141176
2432.6753,18.343064131159736
2434.0503,21.376205113814194
2435.4246,30.579271014687038
2436.7982,19.002286298598847
2438.1711,16.845275124578166
2439.5433,25.108261461631628
2440.9148,18.241269110314533
2442.2856,1.444321620100709
2443.6557,3.6174423580519033
2445.025,10.410654676790273
2446.3937,29.72398189276373
2447.7617,25.107447218317702
2449.1289,26.16107356855582
2450.4955,37.48488360750889
2451.8613,34.27889973759875
2453.2265,22.09314398640072
2454.5909,26.977638038704754
2455.9546,22.7824033583679
2457.3177,34.40746113947307
2458.68,35.35283234828057
2460.0416,36.11853760697568
2461.4025,50.00459718421962
2462.7627,37.11103098748663
2464.1222,52.08785842420593
2465.4811,45.33509853069654
2466.8392,30.352769822401115
2468.1966,50.14089036141377
2469.5533,53.0494779063024
2470.9093,57.52854971422539
2472.2645,48.12812251184732
2473.6191,53.19821245054982
2474.973,41.73883520043273
2476.3262,48.50000589961519
2477.6787,61.081739268830916
2479.0305,44.23404954381385
2480.3816,33.65695034947976
2481.7319,49.150454868407905
2483.0816,50.114575946608056
2484.4306,41.79932593858484
2485.7789,47.65471669769977
2487.1264,35.88075965932194
2488.4733,43.27746578227834
2489.8195,41.44484566658775
2491.165,42.432909479496175
2492.5097,23.941666973803876
2493.8538,38.92112747798183
2495.1972,26.471300081086156
2496.5398,23.392193482963194
2497.8818,40.53381611874602
2499.2231,29.49617618964976
2500.5637,24.879281491551865
2501.9035,40.03313952537064
2503.2427,34.607757543232765
2504.5812,29.303142396933254
2505.919,46.519300592192394
2507.256,37.60623834170019
2508.5924,26.063961392954297
2509.9281,38.49247511739259
2511.2631,39.941784625816126
2512.5974,32.81189464410045
2513.9309,43.9528094987063
2515.2638,41.71453318797694
2516.596,54.24706927072884
2517.9275,25.85042088863247
2519.2583,37.87459064088898
2520.5884,36.819580868198955
2521.9178,45.135393532515536
2523.2465,33.52203022759886
2524.5745,23.97949209585431
2525.9018,35.10777994447062
2527.2284,28.506894340839608
2528.5543,33.526835501277674
2529.8796,45.41760335703293
2531.2041,32.52919750408637
2532.5279,29.16161708424488
2533.851,55.66486091402521
2535.1735,53.58892751832718
2536.4952,47.73381486540666
2537.8163,48.49952038762831
2539.1366,63.98604104002061
2540.4562,55.94337329261543
2541.7752,59.3715129755883
2543.0935,70.87045535968082
2544.411,56.590195121919805
2545.7279,62.98072623062944
2547.0441,61.79204208823103
2548.3596,71.27413546734078
2549.6744,83.92699852265605
2550.9885,70.05062269613245
2552.3019,73.84499859045854
2553.6146,60.56011610781616
2554.9266,67.8959644119368
2556.2379,61.60253206095331
2557.5485,76.92980693403888
2558.8585,72.67777629434386
2560.1677,74.59642663571958
2561.4762,79.68574372524199
2562.7841,99.3457125840257
2564.0913,83.97631743632792
2565.3977,92.2775415129513
2566.7035,72.34936720493715
2568.0086,79.29177598055026
2569.313,98.304748584565
2570.6167,95.63826496883735
2571.9197,97.04230410217087
2573.222,99.66684399698829
2574.5236,102.61186169528901
2575.8246,104.82733324240462
2577.1248,91.56323365754906
2578.4244,107.06953691166223
2579.7232,115.59621606005226
2581.0214,119.34324308733153
2582.3189,126.01058882215125
2583.6157,125.1482228997304
2584.9118,116.15611369518479
2586.2072,134.93422833214754
2587.5019,132.98253277269077
2588.7959,140.45099162954602
2590.0893,144.13956818561996
2591.3819,139.1982243193106
2592.6739,130.67692046762272
2593.9652,137.37561567557918
2595.2557,145.7942676814348
2596.5456,158.68283284968788
2597.8348,165.19126608689612
2599.1234,150.36952071278824
2600.4112,151.66754839518262
2601.6983,149.03529929820343
2602.9848,156.27272206930093
2604.2705,147.17976386557302
2605.5556,151.95637028139163
2606.84,152.20248543933167
2608.1237,152.86805194240628
2609.4067,144.75301087160324
2610.689,138.50730177923128
2611.9707,138.4308627700716
2613.2516,141.57363056383224
2614.5319,140.53554049591526
2615.8115,135.3165264859863
2617.0903,132.21652104835653
2618.3685,124.38545534417267
2619.6461,135.973259212416
2620.9229,142.07986124821423
2622.199,140.10518868696317
2623.4745,145.94916734326057
2624.7493,140.26172163065303
2626.0234,146.7927745031966
2627.2968,147.9422475123315
2628.5695,133.66006074156917
2629.8415,137.0461327950004
2631.1128,135.25038094011643
2632.3835,136.57272107394624
2633.6535,133.9130677410153
2634.9228,142.47133412012363
2636.1914,146.44743205094073
2637.4593,150.0912719484245
2638.7265,138.50276276305863
2639.9931,141.98181194441509
2641.259,131.428325557039
2642.5242,157.84220824565728
2643.7887,149.42336334071365
2645.0525,142.17169259423144
2646.3156,135.28709626400223
2647.5781,130.11947318610123
2648.8398,143.46872084373467
2650.1009,129.53473541891321
2651.3613,138.4674116589615
2652.6211,139.06664301585784
2653.8801,129.53232155690534
2655.1385,132.41433795874377
2656.3961,144.4625816026894
2657.6531,138.82694054591684
2658.9094,131.00730140097403
2660.1651,141.20354939214144
2661.42,138.11556843362678
2662.6743,153.94324102760265
2663.9279,159.43644829508617
2665.1808,162.345069817663
2666.433,157.46898358255544
2667.6846,152.45806595353542
2668.9354,153.56219171968633
2670.1856,159.431234145512
2671.4351,150.9650649598932
2672.6839,167.96355429740038
2673.9321,171.77657078295306
2675.1795,169.10398136183676
2676.4263,166.19565126157113
2677.6724,172.00144401863872
2678.9179,181.0712215075646
2680.1626,172.0048438828603
2681.4067,171.85216948832613
2682.6501,179.06305494771618
2683.8928,178.1373551662632
2685.1348,171.37492325856942
2686.3761,158.5756105578655
2687.6168,164.38926668363183
2688.8568,171.91573966959504
2690.0961,160.95487590558992
2691.3348,163.30652006229502
2692.5727,155.67051520084078
2693.81,155.99670274929326
2695.0466,157.93492257901312
2696.2826,152.43501300139633
2697.5178,162.7468107484899
2698.7524,156.67015102799246
2699.9863,160.50486742013481
2701.2195,154.40079193844736
2702.452,158.90775499141182
2703.6839,159.7755854435045
2704.9151,161.40411057012375
2706.1456,173.69315604891358
2707.3755,167.0925459434775
2708.6046,177.55210258048805
2709.8331,193.87164661569295
2711.0609,192.70099692931944
2712.2881,187.93997046287996
2713.5145,218.03838223087678
2714.7403,228.34604536841357
2715.9654,213.26277083021
2717.1899,232.13836728752608
2718.4136,253.72264127899462
2719.6367,255.71539702186442
2720.8591,259.0164361961606
2722.0809,269.8755579247527
2723.3019,281.6425587403487
2724.5223,290.5672324769005
2725.7421,284.84937015193555
2726.9611,297.63875987730944
2728.1795,298.2351869163856
2729.3972,287.93843355613944
2730.6142,272.34827910119543
2731.8306,254.2144999767945
2733.0462,236.3368698846964
2734.2612,230.91515998451564
2735.4756,199.94913907249975
2736.6892,185.88857363574425
2737.9022,181.78322816185414
2739.1145,164.0328652795488
2740.3262,143.83724579971613
2741.5372,131.49612889291575
2742.7475,121.05927229133522
2743.9571,115.87643241220258
2745.1661,95.04736446215338
2746.3744,91.72182248906051
2747.582,71.89955959032386
2748.7889,69.28032794612614
2749.9952,63.11387901765488
2751.2008,54.9999635732961
2752.4057,54.3883317502964
2753.61,46.428733135904395
2754.8136,54.420916773483896
2756.0165,47.814631242112455
2757.2188,42.30962457665896
2758.4204,40.10564433384593
2759.6213,41.752437647300894
2760.8215,32.54975124959469
2762.0211,33.6973314557747
2763.22,24.794924255390242
2764.4182,20.24227530101848
2765.6158,21.189129997287637
2766.8127,12.085233546403742
2768.009,4.980330938682073
2769.2045,11.624167043585658
2770.3994,2.166486680775961
2771.5936,1.657034553672247
2772.7872,-18.704444655969382
2773.9801,-12.668206282961592
2775.1723,-9.534318804715213
2776.3639,-0.5027241432608207
2777.5548,-21.473268972785036
2778.745,-23.19579494526033
2779.9346,-16.019929194703536
2781.1235,-18.39506712913976
2782.3117,-9.520444117502393
2783.4992,-11.045111762004808
2784.6861,-9.718026555625556
2785.8723,-5.888034650675991
2787.0579,-5.203885116384072
2788.2428,-1.514268200512106
2789.427,-1.7678221640098855
2790.6106,15.486829859711179
2791.7935,22.45108239778301
2792.9757,31.67632982246937
2794.1573,38.963966281524335
2795.3382,46.11538560593863
2796.5184,68.18198123706406
2797.698,84.51514615510064
2798.8769,92.01627265842876
2800.0551,103.58675220027862
2801.2327,114.37797531371962
2802.4096,131.84133149595414
2803.5859,150.22820910040696
2804.7615,180.88999516208924
2805.9364,201.32807521372933
2807.1106,227.5938329791568
2808.2842,247.08865016891878
2809.4572,280.7639062176263
2810.6294,320.27097808900385
2811.801,355.7112399391383
2812.972,384.93606272140687
2814.1423,436.8968138320763
2815.3119,476.54485681805386
2816.4808,531.531550857278
2817.6491,575.8082503622388
2818.8167,621.976304430111
2819.9837,661.6370563999874
2821.15,706.2918433911977
2822.3157,742.7919959067021
2823.4807,797.5888373865437
2824.645,839.083683842847
2825.8086,874.9278433118477
2826.9716,921.9226154389467
2828.134,952.0692911202673
2829.2957,984.7691520327069
2830.4567,1024.2734703324702
2831.617,1026.1835083280707
2832.7767,1027.150518085288
2833.9358,1028.5257414080663
2835.0941,1020.8604098288456
2836.2519,999.4557445948094
2837.4089,1001.1629567445361
2838.5653,992.4332473220493
2839.7211,976.1678073597427
2840.8761,996.3178179656784
2842.0306,1023.0344504862405
2843.1843,1050.3188663046353
2844.3374,1114.2722165737257
2845.4899,1163.5456419431873
2846.6417,1258.440271919972
2847.7928,1310.0572243755778
2848.9433,1398.3476045971001
2850.0931,1479.5125047710624
2851.2422,1554.5530031005133
2852.3907,1624.1701629933773
2853.5385,1679.1150323120482
2854.6857,1737.3886426772199
2855.8323,1794.5420089184358
2856.9781,1822.2261284913543
2858.1233,1890.7919809062123
2859.2679,1928.190527450987
2860.4118,1965.8727105057355
2861.555,2010.8394531686104
2862.6976,2040.941658879038
2863.8395,2077.5302109680497
2864.9808,2086.005972357264
2866.1214,2107.669785192995
2867.2614,2130.472470761498
2868.4007,2130.9648292723305
2869.5393,2142.397639630327
2870.6773,2149.171659430673
2871.8146,2150.887624844581
2872.9513,2159.2962505515443
2874.0874,2151.748229722183
2875.2227,2137.3442339341555
2876.3574,2141.384913247636
2877.4915,2112.2708963493587
2878.6249,2068.9027905122093
2879.7577,2041.7811818863656
2880.8898,2022.3066359329782
2882.0212,2016.9296976953872
2883.152,2001.5008919938655
2884.2821,1991.1707234793914
2885.4116,1979.7896767879345
2886.5405,1973.1082166437568
2887.6686,1983.0267879732235
2888.7962,2013.445815971618
2889.923,1980.2157060039585
2891.0493,2019.586843300803
2892.1748,2013.8095932905535
2893.2997,2028.5843012057455
2894.424,2047.6612921408173
2895.5476,2066.5908709043642
2896.6706,2088.823321828369
2897.7929,2123.758908578907
2898.9145,2149.9478739338206
2900.0355,2172.440439433364
2901.1559,2209.3868051183144
2902.2756,2235.937149305042
2903.3946,2277.3416282160515
2904.513,2302.250375714475
2905.6308,2328.7135028900284
2906.7479,2350.331097809925
2907.8643,2389.8032252542407
2908.9801,2396.0299264997448
2910.0953,2389.411218925172
2911.2098,2396.3470959489587
2912.3236,2375.537527095431
2913.4368,2385.682457925446
2914.5494,2352.331810244483
2915.6613,2327.5854820011996
2916.7725,2325.9933476209353
2917.8831,2284.0552582531745
2918.9931,2252.62104178747
2920.1024,2222.24050327282
2921.211,2217.513425232015
2922.319,2182.439567965441
2923.4264,2177.718669598349
2924.5331,2151.0504464315964
2925.6391,2155.4345929888523
2926.7445,2146.4207822832836
2927.8493,2130.758665773711
2928.9534,2123.447873454748
2930.0569,2120.088014013422
2931.1597,2115.478674902284
2932.2619,2097.269422373005
2933.3634,2104.9098015224686
2934.4643,2090.1993364748673
2935.5645,2078.287530305296
2936.6641,2031.2238651868565
2937.763,1982.1078025097768
2938.8613,1942.6887833520457
2939.959,1886.466228970576
2941.056,1817.489541195392
2942.1523,1721.3081029918555
2943.248,1655.971279150434
2944.3431,1553.6284172485136
2945.4375,1444.4288483037694
2946.5313,1351.8218877975912
2947.6244,1252.906836767081
2948.7169,1149.0329827311223
2949.8087,1063.3496006795312
2950.8999,969.105954111795
2951.9904,895.0012958939049
2953.0803,824.6848692007934
2954.1696,762.1059082573813
2955.2582,720.9636390417414
2956.3462,664.3072799108876
2957.4335,628.8360420121987
2958.5202,601.099129849981
2959.6062,563.995741640181
2960.6916,560.6250695877549
2961.7764,539.6363002577014
2962.8605,540.0786146087696
2963.9439,522.8511882033459
2965.0267,508.4031912030314
2966.1089,503.13378854091616
2967.1905,510.042140066059
2968.2714,509.87740059618204
2969.3516,512.3387198485859
2970.4312,518.6252424417978
2971.5102,521.9861078709584
2972.5885,519.1704504449561
2973.6662,521.2273992528189
2974.7432,525.8060781918716
2975.8196,529.0556059471651
2976.8954,507.8250959456899
2977.9705,511.01365632388104
2979.045,497.970390139923
2980.1188,487.7943953418634
2981.192,465.5347648980478
2982.2645,455.440586898877
2983.3364,431.1109447794054
2984.4077,407.54491742028245
2985.4783,384.5915793910483
2986.5483,352.7500011857936
2987.6177,318.0692494526945
2988.6864,287.0983873124278
2989.7545,255.78647470497663
2990.8219,238.68256869934316
2991.8887,192.18572380666365
2992.9548,185.94499215125063
2994.0204,157.8094239355595
2995.0852,123.27806750259572
2996.1495,109.34996961727086
2997.2131,78.47417581171567
2998.276,75.099730524562
2999.3383,48.07567740970023
3000.4,39.50105937002343
3001.4611,26.474918827668375
3002.5215,23.59629780976138
3003.5812,7.164238078680455
3004.6404,10.527781160841528
3005.6989,-3.864031488982164
3006.7567,-6.812158521295032
3007.8139,-9.767519984927276
3008.8705,-13.730967875245938
3009.9264,-11.103256610093695
3010.9818,-14.285003434944201
3012.0364,-7.576714673737683
3013.0905,-6.878753943230777
3014.1439,-4.0914091688007375
3015.1966,3.9351004429265686
3016.2487,-3.9494034414972248
3017.3002,5.154900805128818
3018.3511,11.497874264545658
3019.4013,12.279377966945503
3020.4509,8.5492728275417
3021.4998,17.757419638753504
3022.5481,17.453679107508492
3023.5958,25.187911763159946
3024.6428,28.909977960524657
3025.6892,42.36973780254027
3026.735,44.467051103046174
3027.7802,47.95177725218457
3028.8247,59.673775195427424
3029.8685,66.83290339872974
3030.9118,83.67901973130915
3031.9544,76.31198139405569
3032.9963,94.3316447510698
3034.0376,105.63786540333342
3035.0783,102.9304980085119
3036.1184,117.35939616789278
3037.1578,130.1244124534586
3038.1966,124.27539826359862
3039.2348,142.4122036954584
3040.2723,143.38467760342974
3041.3092,136.0426674177828
3042.3455,147.6360191349405
3043.3811,137.96457739090033
3044.4161,141.32818534529997
3045.4505,142.3766847781319
3046.4842,138.559916056107
3047.5173,131.2277181221699
3048.5498,132.52992853366607
3049.5816,131.0163835356641
3050.6128,124.28691804793334
3051.6434,127.89136568007984
3052.6734,120.27955879884075
3053.7027,126.15132849203951
3054.7314,112.65650464470411
3055.7594,108.24491588035016
3056.7868,105.36638969592798
3057.8136,113.67075250593939
3058.8398,113.50782967122268
3059.8653,104.87744541590848
3060.8902,107.87942282904964
3061.9145,107.16358395092425
3062.9381,100.52974974301662
3063.9612,94.47774009517582
3064.9835,98.05737389195349
3066.0053,93.81846907312399
3067.0264,94.46084259788864
3068.0469,92.08431048726379
3069.0668,84.038687817658
3070.086,74.37378874463673
3071.1046,76.88942658337942
3072.1226,67.68541390532744
3073.1399,60.56156251302872
3074.1567,55.867683532176386
3075.1727,49.703587482848434
3076.1882,40.5690843264465
3077.203,36.61398352733613
3078.2173,41.18809414419263
3079.2308,29.741224869551274
3080.2438,24.67318398406661
3081.2561,20.283779470980903
3082.2678,14.272819066804914
3083.2789,7.840110305212136
3084.2893,13.985460577147535
3085.2991,15.808677195155383
3086.3083,9.55956733192562
3087.3169,2.487938002061469
3088.3248,5.243596124570956
3089.3321,1.5763485935826793
3090.3388,1.136002250789545
3091.3449,-5.077636077878992
3092.3503,-4.064759577853351
3093.3551,-1.8755107089794478
3094.3593,-8.459991324155169
3095.3629,-8.068284539926879
3096.3658,-0.05038895752784356
3097.3681,-1.0562225760286879
3098.3698,-2.8357028911147495
3099.3708,4.611263153192112
3100.3713,-1.7652030584585532
3101.3711,0.6350198124707163
3102.3702,-1.9379292611045003
3103.3688,2.5660823498831746
3104.3667,-4.00279336558566
3105.364,2.955595555808884
3106.3607,2.091441065292372
3107.3568,4.2549350845342815
3108.3522,5.446269514289895
3109.347,9.46563621276539
3110.3412,13.263226983704328
3111.3348,10.78923353619416
3112.3277,10.99384744669021
3113.32,11.5272601837558
3114.3117,14.339663106016076
3115.3028,16.33124745682352
3116.2932,19.352204336134378
3117.2831,10.002724680592337
3118.2723,11.582999233319413
3119.2608,17.743218637410394
3120.2488,15.28357342013021
3121.2361,20.60425393131169
3122.2229,21.355450367952244
3123.209,29.587352721006823
3124.1944,23.350150767876073
3125.1793,24.894033990086996
3126.1635,22.519191635665493
3127.1471,32.37581270369719
3128.1301,27.814085968075858
3129.1125,31.43419987893742
3130.0942,33.38634260827706
3131.0753,31.670702013747984
3132.0558,36.98746561913964
3133.0357,34.88682063153425
3134.015,33.76895388813941
3134.9936,35.13405187729484
3135.9716,39.782300749650574
3136.949,42.06388630451647
3137.9258,39.37899394337944
3138.902,41.627808647087704
3139.8775,44.3605150026996
3140.8524,48.77729718099559
3141.8267,45.42833890915105
3142.8004,48.9138234265684
3143.7735,47.73393351836674
3144.7459,52.98885148052722
3145.7178,54.178759131691436
3146.689,51.203837760612885
3147.6596,53.16426811425731
3148.6295,51.810230427552426
3149.5989,56.99190440378334
3150.5676,58.209469228133
3151.5357,61.31310351586552
3152.5032,58.15298530015028
3153.4701,60.87929200102576
3154.4364,63.99220045700068
3155.402,65.44188689779097
3156.367,63.17852691319058
3157.3315,57.45229543857462
3158.2952,65.06336677753299
3159.2584,63.61191465913271
3160.221,68.14811216180712
3161.1829,66.12213172787048
3162.1442,72.73414511815605
3163.105,70.63432343227578
3164.065,70.17283704250028
3165.0245,72.149855614757
3165.9834,79.61554811324507
3166.9416,76.97008278066508
3167.8993,79.0136270635623
3168.8563,74.74634763878115
3169.8127,75.96841039302981
3170.7684,78.72998046555315
3171.7236,81.03122223591197
3172.6782,81.32229929636728
3173.6321,81.60337442886797
3174.5854,84.12460960214
3175.5381,91.13616596887562
3176.4902,88.18820384052117
3177.4417,87.48088261716133
3178.3926,86.11436081699871
3179.3428,89.78879608342729
3180.2924,92.65434519869743
3181.2415,92.36116404717158
3182.1899,97.70940758666879
3183.1377,99.7992298513966
3184.0848,98.68078389846846
3185.0314,97.70422178700561
3185.9773,100.86969458932148
3186.9227,98.82735240068736
3187.8674,103.4273443076776
3188.8115,103.06981840859322
3189.755,107.9549217674617
3190.6979,109.58280041761242
3191.6402,108.20359931282567
3192.5818,110.91746231105371
3193.5229,107.07453218821281
3194.4633,112.4749506110447
3195.4031,118.86885817554588
3196.3423,113.15639435296336
3197.2809,114.6876974258556
3198.2189,117.1629045452171
3199.1563,114.28215171516544
3200.0931,118.84557376818918
3201.0292,120.50330439395546
3201.9648,125.1554760936756
3202.8997,128.95222016352798
3203.834,123.29366664813621
3204.7677,128.4299443026018
3205.7008,127.01118064908951
3206.6333,128.0375019254647
3207.5652,133.10903309948108
3208.4964,135.22589785851707
3209.4271,132.7382185588611
3210.3571,132.49611620454237
3211.2865,133.09971047220813
3212.2154,139.19911971354435
3213.1436,138.1944609492399
3214.0712,142.58584980799247
3214.9982,146.77340053655522
3215.9246,142.75722595582278
3216.8503,144.78743741895585
3217.7755,146.01414485154285
3218.7001,145.5374567312978
3219.624,149.2574800757933
3220.5473,143.5243204472275
3221.4701,152.03808191522361
3222.3922,155.49886711416173
3223.3137,153.60677715804113
3224.2346,157.91191160587238
3225.1549,155.11436848059824
3226.0746,151.21424422604252
3226.9937,159.01163373488515
3227.9121,158.30663038766377
3228.83,161.24932597479963
3229.7473,166.03981070364762
3230.6639,164.77817316906948
3231.5799,165.21450030552876
3232.4954,165.84887739970736
3233.4102,170.93138808614214
3234.3244,169.06211434088107
3235.238,169.04113643065838
3236.151,171.66853293158707
3237.0634,175.49438072936877
3237.9752,173.1187549930198
3238.8864,169.19172913661265
3239.797,177.26337484303218
3240.7069,180.88376210324608
3241.6163,172.40295913558816
3242.5251,177.12103234955464
3243.4332,182.58804643061202
3244.3408,180.15406429301666
3245.2477,183.36914702514423
3246.154,182.38335391382986
3247.0598,190.39674241221715
3247.9649,184.5593681496161
3248.8694,187.57128485136934
3249.7733,191.13254439722576
3250.6766,190.99319679122135
3251.5793,190.10329012606664
3252.4814,193.01287058454017
3253.3829,195.7719824483875
3254.2838,198.18066806922548
3255.1841,201.83896784095109
3256.0838,198.09692017565467
3256.9829,196.1545614670368
3257.8814,202.76192612782887
3258.7792,198.86904660921658
3259.6765,202.7259533347663
3260.5731,201.88267473935386
3261.4692,197.3392372305956
3262.3647,202.2456651972809
3263.2595,203.75198105480706
3264.1538,202.4082051961144
3265.0474,206.41435597662357
3265.9404,202.57044972767306
3266.8329,206.87650071645777
3267.7247,201.53252118446807
3268.616,207.43852130442923
3269.5066,200.79450923374134
3270.3966,204.2504910554191
3271.286,203.25647084453217
