RamanShift,CorrectedData
30.1047,6809.746231472139
32.3739,6352.084655160111
34.6426,5910.42301075062
36.9109,5466.211166625359
39.1787,5017.998932061784
41.4461,4571.736061675245
43.7131,4135.872259901095
45.9796,3691.4071854573303
48.2456,3252.190455703216
50.5112,2809.5716510839434
52.7764,2381.200319522801
55.0411,1939.6259808473571
57.3054,1505.4481310731771
59.5692,1075.1162468195653
61.8326,652.6297896513441
64.0955,219.5882103821741
66.3579,-195.4590467005827
68.6199,-603.6625395054458
70.8815,-970.2208733050588
73.1426,-1221.876622783296
75.4032,-1151.362670117508
77.6634,-279.24969093758773
79.9231,2603.053141239647
82.1824,9885.989442601789
84.4412,28440.0028033059
86.6995,56092.136714649154
88.9574,59417.13438352869
91.2148,58926.33845592029
93.4717,58443.74098362839
95.7282,57969.33342919404
97.9842,57502.40667072088
100.2398,57040.001006619226
102.4949,56578.15616027532
104.7495,56118.26128467542
107.0036,55655.70496702422
109.2573,55203.02523334379
111.5105,54738.459553099165
113.7632,54281.24484372514
116.0154,53813.66747527191
118.2672,53365.81327497724
120.5185,52910.61753194223
122.7693,52455.015001609834
125.0197,51997.88991031683
127.2696,51545.97595984986
129.519,51092.45633201665
131.7679,50635.8636931652
134.0163,50181.93019871894
136.2642,49731.68749774267
138.5117,49281.71673748191
140.7587,48838.79856786528
143.0052,48385.46314600427
145.2512,47945.49014062238
147.4967,47507.60873658846
149.7417,47062.24763931647
151.9863,46617.58507914432
154.2304,46177.09881578742
156.4739,45734.66614278534
158.717,45297.813891906684
160.9596,44861.41843757335
163.2017,44424.15570122915
165.4433,43995.4011557037
167.6844,43562.42982958507
169.925,43129.1163115073
172.1651,42704.334754480165
174.4047,42275.458880222264
176.6439,41849.41198340888
178.8825,41423.016935960666
181.1206,40991.5461913042
183.3582,40569.67178863585
185.5954,40149.665357236576
187.832,39729.69812069058
190.0681,39315.59090108547
192.3037,38899.91412321186
194.5388,38484.58781870452
196.7734,38067.53163019904
199.0075,37661.71481548517
201.2411,37249.456251677344
203.4742,36854.374439272884
205.7068,36442.23750627457
207.9389,36046.01321214141
210.1704,35643.71895191011
212.4015,35243.52176015721
214.632,34850.6383150221
216.862,34464.63494220897
219.0915,34080.127618915634
221.3205,33692.931977693566
223.549,33307.41331029298
225.777,32926.886571534735
228.0044,32538.416383165626
230.2314,32161.617037663564
232.4578,31777.852502122325
234.6837,31391.286422019526
236.909,31012.68212505427
239.1339,30616.45262501284
241.3582,30256.760625554714
243.582,29859.168524174864
245.8053,29507.53841580065
248.0281,29146.982096767766
250.2503,28777.311068336487
252.472,28410.386540297317
254.6932,28049.969434667648
256.9139,27699.120389361044
259.134,27329.899761791392
261.3536,26988.117632381356
263.5727,26630.68380825463
265.7912,26286.157826653776
268.0092,25939.848958514514
270.2267,25595.716211911
272.4436,25248.21833551892
274.6601,24905.313822056814
276.8759,24575.61091176104
279.0913,24234.467595814836
281.3061,23898.99161964535
283.5204,23569.490486335068
285.7341,23236.72145997661
287.9473,22897.341568967662
290.16,22577.957609338744
292.3721,22265.626148146977
294.5837,21940.45352666991
296.7947,21620.695863528883
299.0052,21309.75905794074
301.2152,20992.098792915393
303.4246,20689.47053836518
305.6334,20387.229554281475
307.8418,20073.880893761
310.0495,19765.429406028226
312.2568,19462.07973956887
314.4635,19167.536345214357
316.6696,18864.55347917531
318.8752,18566.98520598704
321.0802,18278.93540153932
323.2847,17986.90775605211
325.4887,17699.75577695605
327.692,17410.132791812714
329.8949,17130.691951186156
332.0972,16848.3862315391
334.2989,16565.918438027365
336.5001,16289.441207322925
338.7007,16020.4570104386
340.9008,15744.918155492778
343.1003,15472.27679039933
345.2992,15207.284905622982
347.4976,14941.84433690572
349.6955,14679.156767916706
351.8927,14416.473732906685
354.0895,14149.896619334868
356.2856,13903.87667049576
358.4812,13652.714988184933
360.6763,13400.912535159208
362.8707,13151.770137648302
365.0646,12908.638487872835
367.258,12663.468146535728
369.4508,12419.409545253555
371.643,12184.112989008245
373.8346,11943.128658587615
376.0257,11707.506612938407
378.2162,11480.396791576044
380.4062,11249.599016940949
382.5956,11022.862996669595
384.7844,10798.138325902517
386.9726,10576.874489551607
389.1603,10357.370864547433
391.3474,10102.676722051867
393.5339,9928.591229653124
395.7199,9725.06345391267
397.9052,9513.592362106057
400.09,9308.22682425825
402.2743,9105.465615258283
404.4579,8899.407416912982
406.641,8700.200819974532
408.8235,8504.594326201084
411.0054,8308.636350348846
413.1868,8107.675222128135
415.3675,7915.709188162931
417.5477,7726.486414000472
419.7273,7536.654986030961
421.9064,7348.612913379773
424.0848,7170.558129805744
426.2627,6992.53849558159
428.4399,6814.351799274453
430.6166,6632.995759526115
432.7928,6465.268026834849
434.9683,6300.0661853690035
437.1432,6129.537754644283
439.3176,5970.030191175778
441.4914,5811.64089018324
443.6645,5641.217187186143
445.8371,5478.556359587601
448.0091,5328.30562837857
450.1806,5177.762159764534
452.3514,5022.773066667942
454.5216,4867.835410233674
456.6913,4723.74620137889
458.8603,4586.202402342424
461.0288,4445.350928125648
463.1967,4306.73864786794
465.3639,4161.312386255209
467.5306,4028.5189249059913
469.6967,3896.5050038256886
471.8622,3767.0673227345687
474.0271,3637.1025423878455
476.1914,3507.807285870127
478.3551,3383.6781398950043
480.5182,3261.9116560980547
482.6807,3149.5043522780907
484.8426,3036.3027136148594
487.0039,2915.753193793076
489.1647,2800.152216134462
491.3248,2687.1461748032016
493.4843,2585.2814359620097
495.6432,2476.104338902165
497.8015,2365.0611970621976
499.9592,2257.4482991195982
502.1163,2157.211910101265
504.2728,2069.2482724596557
506.4287,1982.903607075088
508.5839,1890.3741141354258
510.7386,1794.4559739995093
512.8927,1694.6453481224235
515.0461,1614.9883800147145
517.199,1524.2311962405438
519.3512,1448.8199072142597
521.5029,1364.6006081079177
523.6539,1291.4193796054387
525.8043,1216.1222887447366
527.9541,1141.5053896495665
530.1033,1073.6147242825318
532.2519,1003.3963231911621
534.3999,932.3462061869359
536.5472,879.8603830473439
538.694,812.0348542264837
540.8401,751.415611379889
542.9856,686.7986380427683
545.1305,627.3799102362173
547.2748,569.4053971133617
549.4185,513.3710615534874
551.5615,471.1671780759716
553.704,418.77889262319513
555.8458,382.63664417745167
557.987,335.26668811978743
560.1276,293.1414572911817
562.2675,253.13003521831706
564.4069,226.89857694473176
566.5456,190.31070874482248
568.6837,159.57779017619032
570.8212,129.80927959243127
572.958,98.96304116501415
575.0942,73.8956422706542
577.2299,52.6126616452093
579.3648,41.7189398071132
581.4992,25.668791674201202
583.6329,5.0161153920707875
585.766,-20.235447324936104
587.8985,-41.532304873500834
590.0304,-92.27066349820961
592.1616,-91.34631453597103
594.2922,-106.60412753975106
596.4222,-121.13805951287213
598.5515,-131.2910024834855
600.6802,-141.20463831054076
602.8083,-147.019337255937
604.9358,-154.27405894730327
607.0626,-163.05629428914835
609.1888,-174.80199298814114
611.3144,-176.6954758185966
613.4393,-178.76931728296768
615.5636,-185.75432669593283
617.6873,-183.62952746670635
619.8103,-182.82208731883293
621.9327,-181.25733951688744
624.0544,-173.1587909328373
626.1756,-169.6481376778902
628.2961,-170.89534600701882
630.4159,-166.96868739035563
632.5351,-165.0347260535491
634.6537,-161.308358205104
636.7716,-156.65283135663776
638.8889,-149.07978154932061
641.0056,-144.09927986253024
643.1216,-131.8699080686638
645.237,-122.39880838830868
647.3518,-106.99180566172436
649.4659,-89.15350196506915
651.5793,-79.03743052641221
653.6922,-64.39623393035436
655.8043,-53.83176517760148
657.9159,-44.89523395049764
660.0268,-28.337312152078084
662.137,-14.858223181996436
664.2466,-3.558190156480123
666.3556,13.462563956876693
668.4639,35.4038162261204
670.5716,60.36534358465724
672.6786,72.14692261196615
674.785,86.34832928388641
676.8907,112.0693388547952
678.9958,136.70972571562015
681.1002,151.51926313666627
683.204,168.69772302119964
685.3072,197.89487575731619
687.4097,222.9104900461898
689.5115,243.99433261007653
691.6127,273.54616794210597
693.7132,303.71575809554633
695.8131,302.5028623881735
697.9123,351.3072371007147
700.0109,378.2786354888085
702.1089,406.5168072950546
704.2061,438.3214984793158
706.3028,464.0424509363147
708.3987,498.1794021776368
710.4941,531.3320850744421
712.5887,567.3002275161343
714.6827,595.18355207883
716.7761,632.8817756656572
718.8688,668.3446092279046
720.9608,694.3217573880829
723.0522,727.2129180852862
725.1429,774.4677823153688
727.233,814.4860338021172
729.3224,850.0173485246851
731.4112,889.8113943173739
733.4993,927.9178305143869
735.5867,968.0863075518282
737.6735,1010.5664665866498
739.7596,1049.2579390949832
741.845,1094.2103464472966
743.9298,1137.7232995215163
746.014,1179.696398253458
748.0974,1219.9292312017424
750.1802,1265.6713751280477
752.2624,1308.5723945948266
754.3439,1359.3318415078393
756.4247,1400.9492546871625
758.5048,1460.1741593595725
760.5843,1504.9060667424055
762.6631,1553.2944734512785
764.7413,1608.788861052788
766.8188,1656.9886955805996
768.8956,1706.4934269805526
770.9718,1763.352488628596
773.0473,1815.6652968358103
775.1221,1868.3812502797737
777.1962,1922.4497294814282
779.2697,1977.1700962778923
781.3426,2014.291693281848
783.4147,2094.0138433342872
785.4862,2148.4858491333507
787.557,2204.8069924370793
789.6271,2266.226533518675
791.6966,2326.5937106033307
793.7654,2386.657739253984
795.8335,2449.2178117676667
797.901,2507.3230965748517
799.9678,2569.4227376138515
802.0339,2632.6158537497395
804.0993,2681.6515381534045
806.1641,2759.8788576695806
808.2282,2827.6468523265794
810.2916,2887.754534553904
812.3544,2959.050888504593
814.4164,3027.484869454209
816.4778,3084.805403087783
818.5385,3158.5613848155263
820.5986,3228.3516791996226
822.658,3300.375119216631
824.7166,3369.980505559688
826.7747,3431.2166059182055
828.832,3501.7821542818347
830.8886,3581.5758503280667
832.9446,3652.4463587166174
834.9999,3702.8923082914625
837.0545,3794.112291372141
839.1085,3881.204863249288
841.1618,3952.0685412724415
843.2143,4005.8018039791277
845.2662,4077.303090386209
847.3175,4174.720799452603
849.368,4128.553289364223
851.4179,4315.298876559791
853.467,4308.35583619251
855.5155,4460.1224002626695
857.5633,4420.996757686989
859.6105,4438.527052780992
861.6569,4598.261385650207
863.7027,4478.447812014965
865.7478,4638.8343416129865
867.7922,4709.568939397577
869.8359,4878.549523933689
871.8789,4759.673966690629
873.9212,4951.540090352217
875.9629,5117.745670005577
878.0039,5148.488431222468
880.0441,5190.166048397245
882.0837,5269.926144439414
884.1226,5316.166290356865
886.1609,5354.6340044582685
888.1984,5332.376751890639
890.2352,5591.141944254698
892.2714,5413.176939827499
894.3069,5647.079040974633
896.3416,5600.745495929965
898.3757,5669.973496456601
900.4091,5364.460178310212
902.4418,5989.652620546738
904.4739,5827.647848577544
906.5052,5925.442827917497
908.5358,5843.034465804994
910.5658,5785.219610224056
912.595,5850.8450507284
914.6236,5384.207519019576
916.6515,6276.003688290679
918.6786,5590.780177892753
920.7051,5933.983544416842
922.7309,5906.060288546185
924.756,6174.356851624245
926.7804,5994.269615933896
928.8041,5424.444902014446
930.8272,6046.978970462544
932.8495,6192.5680276304265
934.8711,5780.708219400571
936.892,5452.745629729761
938.9123,5784.276284767744
940.9318,5442.246156136811
942.9506,5435.201157616517
944.9688,5598.987148563974
946.9862,4688.749933984262
949.003,5229.2852628926485
951.019,4381.338837416857
953.0344,4747.206307391811
955.0491,4664.733278839041
957.063,5108.115310308029
959.0763,5318.49791370098
961.0888,4743.626549838933
963.1007,5405.496626357992
965.1119,5464.803503458032
967.1223,5017.192487283952
969.1321,5767.708829332667
971.1412,5035.947730929212
973.1495,4785.654335721549
975.1572,5213.223736998167
977.1641,5037.300980191052
979.1704,4982.081058599986
981.1759,5209.858915151759
983.1808,4854.3294429523885
985.1849,5047.887483009348
987.1884,5354.677827786829
989.1911,5969.295219270178
991.1932,4859.184345897986
993.1945,5320.489836415887
995.1951,5648.406270977706
997.1951,5046.978176532408
999.1943,4905.0000235449625
1001.1928,4768.816232010562
1003.1906,5024.52117287444
1005.1877,4350.359169393676
1007.1841,4172.874494580137
1009.1798,4237.411377942153
1011.1748,4133.064007259316
1013.1691,3969.026527937145
1015.1627,2866.59304405054
1017.1556,2965.257619984164
1019.1477,3291.9142914567856
1021.1392,2790.757064534577
1023.1299,2221.629912364602
1025.12,2654.826780186355
1027.1093,2365.0415910230586
1029.0979,2428.718241349685
1031.0859,2521.4006039908563
1033.0731,2022.5825274840317
1035.0596,2202.807835152642
1037.0454,2044.5703300943715
1039.0304,1674.6637933788224
1041.0148,1360.5319856299175
1042.9985,1319.2686507249746
1044.9814,1513.2175189360496
1046.9636,1229.6723073424946
1048.9452,1145.5267178915383
1050.926,1142.7744402336903
1052.9061,1117.7091525641808
1054.8855,1153.7745216505791
1056.8642,971.6642030833609
1058.8421,1087.2218409152701
1060.8194,1112.241069482392
1062.7959,1066.9155122486627
1064.7717,1143.1387815555645
1066.7469,1100.904479075507
1068.7213,1116.106195049484
1070.695,1035.687508709525
1072.6679,736.8419881266163
1074.6402,783.7631910148848
1076.6117,762.4946677200642
1078.5826,861.679960750269
1080.5527,855.6126049887098
1082.5221,1023.0361267017652
1084.4908,1246.5440435997589
1086.4587,1435.9798631626545
1088.426,1613.5370804049599
1090.3925,1536.2091759814284
1092.3584,1519.3896144114187
1094.3235,1199.5718448522748
1096.2879,1067.6493012674473
1098.2515,1018.4654056247091
1100.2145,1098.7135692153242
1102.1767,1106.887193145929
1104.1382,1241.5796675360252
1106.099,1417.0343714362898
1108.0591,1567.744671481596
1110.0185,1673.153920136545
1111.9771,1779.7054541882899
1113.9351,1400.5925936924978
1115.8923,1029.1086409077834
1117.8488,691.5468840868416
1119.8045,272.10060119136324
1121.7596,250.2130632675471
1123.7139,81.17753864060796
1125.6675,116.13729313367367
1127.6204,337.13559175813134
1129.5726,281.5656983639856
1131.524,397.7708734299449
1133.4748,527.8943746190562
1135.4248,521.5294556166773
1137.3741,555.6193648292683
1139.3226,532.2573454480007
1141.2705,643.0366351078264
1143.2176,346.1004661211846
1145.164,438.4920643701844
1147.1097,475.5046522759658
1149.0546,490.43144787476194
1150.9989,546.4156644477989
1152.9424,397.50051037201047
1154.8852,261.7291885601953
1156.8272,95.34489795020636
1158.7686,133.3908348625846
1160.7092,1.4601946644615964
1162.6491,-83.15382861092075
1164.5883,140.24195905511442
1166.5267,139.59158238796954
1168.4644,382.43906471066293
1170.4014,540.2284279502855
1172.3377,836.403690209554
1174.2732,1076.408864188903
1176.2081,1325.6379542247887
1178.1421,1516.5349538895898
1180.0755,1709.193843499379
1182.0082,1590.6585882048967
1183.9401,1574.9731360649603
1185.8713,1369.0314192318401
1187.8017,1118.5273541080824
1189.7315,968.2548434059718
1191.6605,638.1077786525057
1193.5888,369.88004169218766
1195.5163,312.1655079884513
1197.4432,184.1580493059373
1199.3693,131.75153428769408
1201.2947,17.289829735193052
1203.2193,-47.53319886759709
1205.1432,79.32631379041413
1207.0664,115.56270787692483
1208.9889,168.57032276639802
1210.9106,203.7434966777073
1212.8316,234.32656614400912
1214.7519,372.2138656610696
1216.6715,331.74972738141514
1218.5903,427.9284797354412
1220.5084,330.7444478360485
1222.4257,384.89195251688943
1224.3424,127.16531130418298
1226.2583,252.65883787522762
1228.1735,333.1668446357071
1230.0879,421.4336414647041
1232.0016,532.6535349096812
1233.9146,591.9208273037657
1235.8269,502.07981565354567
1237.7384,486.17479104641825
1239.6492,209.95003954896674
1241.5592,141.19984236604068
1243.4686,14.968478603012045
1245.3772,-57.59977404669917
1247.285,-111.66063803937868
1249.1922,-224.81926040956023
1251.0986,-119.97967270205118
1253.0042,-184.3436605172683
1254.9092,-74.01181085870485
1256.8134,50.76713086322707
1258.7169,287.44515861610853
1260.6196,446.5242658598436
1262.5216,659.3064431798775
1264.4229,822.1436766964252
1266.3234,996.0879459366697
1268.2232,1048.7912222063605
1270.1223,1052.9054668503813
1272.0207,1013.0326307257128
1273.9183,998.574654160293
1275.8151,964.5834673517456
1277.7113,928.5609905119927
1279.6067,746.75913420711
1281.5014,533.5297997175803
1283.3953,404.7248808563527
1285.2885,401.5962661010635
1287.181,328.94583988211525
1289.0727,448.7754826139644
1290.9637,415.83707142165076
1292.854,678.5824789424805
1294.7435,792.8135736553959
1296.6323,1028.0822172535482
1298.5204,1271.1402635019476
1300.4077,1605.1395558848235
1302.2943,1883.5319251750043
1304.1802,2006.9691860939274
1306.0653,1990.3031345277413
1307.9497,1847.9855462929117
1309.8333,1830.1681773028831
1311.7162,1877.7527649912518
1313.5984,1954.9910284899452
1315.4798,2090.7846681533592
1317.3605,2340.8853647860014
1319.2405,2561.294778284555
1321.1197,2594.2145451368706
1322.9982,2550.7462762178475
1324.876,2686.0915564603056
1326.753,2624.001945289576
1328.6293,2739.2789752701065
1330.5048,2834.6241527263737
1332.3796,2844.738956590045
1334.2537,2863.27483744661
1336.127,2797.73321743415
1337.9996,2770.415490058018
1339.8714,2743.4730208462533
1341.7426,2724.807147622778
1343.6129,2700.3191807767726
1345.4826,2604.4104034493794
1347.3515,2696.9820717785624
1349.2196,2596.435415858199
1351.087,2668.8216388123838
1352.9537,2698.94191780085
1354.8197,2913.0474032951533
1356.6849,3140.139218777411
1358.5493,3192.9184585993135
1360.4131,3250.1861857111726
1362.276,3139.393431134129
1364.1383,2981.841193387474
1365.9998,2786.280439596605
1367.8606,2493.8121070684792
1369.7206,2288.087105247283
1371.5799,2097.2063186390915
1373.4384,1997.2206088691346
1375.2962,1940.3808165905903
1377.1533,1638.037762484466
1379.0096,1314.142247827942
1380.8652,1143.1450575178642
1382.7201,857.4969633096589
1384.5742,621.2487255273227
1386.4275,501.6510959198931
1388.2802,424.10482002393474
1390.132,291.5606383595223
1391.9832,294.21928720570213
1393.8336,174.13149992593026
1395.6832,140.29800694149162
1397.5322,62.41953693236792
1399.3803,80.99681717557905
1401.2278,-18.169425676067476
1403.0745,3.471534220283502
1404.9204,-60.97939577995567
1406.7656,19.77865699797985
1408.6101,6.147174413010362
1410.4538,-9.672361873723275
1412.2968,48.67152973746488
1414.139,58.8304274731272
1415.9805,157.855909073136
1417.8213,246.34955168904708
1419.6613,320.962930893882
1421.5006,570.8976197971933
1423.3391,838.3051882989057
1425.1769,1153.2372005899815
1427.0139,1730.3452124783544
1428.8502,2375.0307682395796
1430.6858,2981.9453948458067
1432.5206,3346.840595518879
1434.3547,3705.11784366121
1436.188,3791.07857920682
1438.0206,3827.674205038551
1439.8524,3582.506086128469
1441.6835,3537.57554917191
1443.5139,3472.5338850391527
1445.3435,3367.332349224722
1447.1724,3384.7721624978076
1449.0005,3321.65451195429
1450.8279,3230.430550842335
1452.6545,3209.9513991935855
1454.4804,3380.1681447353876
1456.3056,3375.5818430955696
1458.13,3342.743516100287
1459.9536,3171.2541518198923
1461.7766,2820.8647048973216
1463.5987,2364.4260982629785
1465.4202,1990.0392266386407
1467.2409,1658.7549611018185
1469.0608,1484.9741528296363
1470.88,1239.9476364116636
1472.6984,1081.7762315877553
1474.5161,805.960745698274
1476.3331,686.0519752658183
1478.1493,639.7007087534184
1479.9648,581.2577277635792
1481.7795,493.62380750180455
1483.5935,488.54971736104926
1485.4067,461.03622179804006
1487.2192,482.53408038404814
1489.031,507.9440480800222
1490.842,423.4168750215795
1492.6522,448.4533062649207
1494.4618,410.4040826321034
1496.2705,462.41994046064065
1498.0785,465.6016119840424
1499.8858,432.29982481160914
1501.6924,437.7653018966412
1503.4981,424.94876186944384
1505.3032,435.8509189826764
1507.1075,484.4724832395259
1508.911,449.91416028468666
1510.7138,494.92665091812887
1512.5159,406.8106514407009
1514.3172,382.16685320398756
1516.1178,356.94594349150066
1517.9176,381.5486057650851
1519.7166,352.4255199171239
1521.515,356.52736202451706
1523.3126,339.904804639933
1525.1094,363.90851675076556
1526.9055,298.18916394538246
1528.7008,265.59740817305646
1530.4954,215.58390840118955
1532.2893,239.4993209412023
1534.0824,186.49429994869934
1535.8747,275.56949718428586
1537.6663,234.925562543649
1539.4572,220.7131431667949
1541.2473,273.58288384448315
1543.0367,231.2854271603428
1544.8253,232.37141296219852
1546.6132,299.69147878502554
1548.4003,224.8962598401049
1550.1867,280.83638834182057
1551.9723,284.4124942556009
1553.7572,355.6752047385271
1555.5414,362.32514410356816
1557.3247,445.3129331069431
1559.1074,474.2891888816448
1560.8893,497.55452410752696
1562.6705,539.6095467215637
1564.4509,660.2048596852073
1566.2305,673.2410605638179
1568.0094,872.4687403207099
1569.7876,1001.1384831867945
1571.565,1053.5008646683127
1573.3417,1154.456450260117
1575.1176,1180.755794922079
1576.8928,1209.2994420695068
1578.6672,1109.6879233101718
1580.4409,1011.8217581588651
1582.2138,823.651455033505
1583.986,753.7775122338171
1585.7575,680.9004198230141
1587.5282,620.4206603265447
1589.2981,586.1387094608508
1591.0673,487.40503673819694
1592.8358,516.0701058094455
1594.6035,524.8843754514346
1596.3704,497.5482992802936
1598.1366,537.6123256633255
1599.9021,568.2768979923676
1601.6668,583.2424542831504
1603.4308,627.2594268686516
1605.194,707.8782422494332
1606.9564,815.3493206534913
1608.7182,928.1730752300318
1610.4791,1091.3499109747972
1612.2394,1189.4302236018048
1613.9988,1366.0143979115965
1615.7576,1634.8028068104104
1617.5156,1864.4958095443362
1619.2728,2164.2937490114455
1621.0293,2386.7969494648605
1622.785,2522.8557135147603
1624.54,2409.820319903367
1626.2942,2311.641022144344
1628.0477,2002.2680496531866
1629.8005,1806.2516087289878
1631.5525,1550.1418856481469
1633.3037,1330.7890486245742
1635.0542,1186.9432503707503
1636.804,1064.4546302912604
1638.553,1012.3233159212687
1640.3013,955.1994241514112
1642.0488,908.7330617490843
1643.7955,909.374325929708
1645.5416,925.8733048213726
1647.2868,1006.7300774584255
1649.0313,1079.6447136164934
1650.7751,1251.917273003899
1652.5181,1422.997804532537
1654.2604,1656.8863445951429
1656.0019,1975.332915354491
1657.7427,2347.4375224044816
1659.4828,2758.8001515857322
1661.222,2981.2707652644567
1662.9606,3080.0992982189127
1664.6984,2995.8856554146478
1666.4354,2693.829711016235
1668.1717,2276.6813092293887
1669.9072,1782.1902673215445
1671.642,1450.3563797933093
1673.3761,1184.579423323412
1675.1094,951.0091600870219
1676.8419,788.095340413518
1678.5737,645.0877051222051
1680.3048,575.5359871514447
1682.0351,499.58991298872206
1683.7646,414.69920336616997
1685.4934,367.4635740200283
1687.2215,325.98273653954675
1688.9488,268.10639883935073
1690.6754,252.63426557423736
1692.4012,288.81603871795596
1694.1263,255.30141771793933
1695.8506,226.9900991334489
1697.5742,214.08177697076098
1699.297,211.32614296625616
1701.0191,181.8228867154994
1702.7404,142.42169570081205
1704.461,98.87225558629507
1706.1808,54.2742506118484
1707.8999,72.92736402866467
1709.6182,40.13127854518825
1711.3358,51.03567614061649
1713.0527,59.090238392827814
1714.7688,67.64464636936282
1716.4841,26.698580546859375
1718.1987,51.35172072552632
1719.9126,56.903746438585586
1721.6257,39.85433670574639
1723.338,60.60316997768314
1725.0496,-30.350075693464532
1726.7605,-13.755722861586037
1728.4706,-20.41379088332542
1730.18,3.02583830432377
1731.8886,0.913486698134875
1733.5964,-20.45052373537692
1735.3036,6.584128961179886
1737.0099,-7.882028954096313
1738.7156,40.00152871106911
1740.4204,-26.61459310958344
1742.1246,-5.4297898823406285
1743.8279,-1.0431911936939287
1745.5306,9.34612761346034
1747.2325,4.339101617702909
1748.9336,0.4866658041573828
1750.634,9.589755114568106
1752.3336,12.599304485815082
1754.0325,47.766248758880465
1755.7307,67.54152264875847
1757.4281,57.67606039278871
1759.1247,83.07079555289965
1760.8206,76.82666111426806
1762.5158,105.09458923136845
1764.2102,94.17551129042113
1765.9039,91.67035762669002
1767.5968,93.53005763369947
1769.289,97.95553978827047
1770.9804,110.69773163193895
1772.6711,147.25755972668594
1774.361,124.3859495275301
1776.0502,146.28382501690794
1777.7386,155.95210893339936
1779.4263,142.14172255275844
1781.1132,185.00358559122287
1782.7994,162.4886163436331
1784.4849,198.09773125479842
1786.1696,160.3318451446503
1787.8535,171.14187085216145
1789.5367,174.92871961296623
1791.2192,188.2433009513352
1792.9009,159.08652264222656
1794.5818,206.55929057817775
1796.2621,180.4625090608588
1797.9415,206.69708032635572
1799.6202,223.06390480612572
1801.2982,243.26388086466613
1802.9755,240.09790463583886
1804.6519,253.5168698208654
1806.3277,214.17166772000382
1808.0027,229.61318709834086
1809.6769,254.14231457924143
1811.3504,257.25993448996087
1813.0231,257.7669286163364
1814.6951,277.0641761716179
1816.3664,328.20255379139417
1818.0369,294.63293534061813
1819.7067,285.1061914022357
1821.3757,317.723189612856
1823.044,316.43479475803724
1824.7115,314.29186844612013
1826.3783,299.4952691210965
1828.0443,298.34585208404496
1829.7096,331.74446964108756
1831.3741,306.6419711149083
1833.0379,321.5892025107478
1834.701,359.537006767443
1836.3633,361.0362236079418
1838.0248,363.3376891598309
1839.6856,369.2422359403463
1841.3457,409.60069283334815
1843.005,379.21388503029266
1844.6636,426.48263362662146
1846.3214,425.8577559256446
1847.9785,452.84006496584516
1849.6349,446.7303695271312
1851.2904,461.5294738610173
1852.9453,451.588177751717
1854.5994,446.65727636815427
1856.2528,499.1375603633769
1857.9054,488.22981592386714
1859.5572,539.8348242447337
1861.2083,530.1033616387886
1862.8587,531.3361990205067
1864.5084,517.7341020033291
1866.1572,516.6978308873458
1867.8054,499.8781407953138
1869.4528,510.17578168301407
1871.0994,510.641498507448
1872.7453,527.1260311238748
1874.3905,554.8801142811335
1876.0349,524.7544774568069
1877.6786,549.6998445796853
1879.3215,591.4669343310288
1880.9637,580.5564598951023
1882.6051,604.3191285415087
1884.2458,589.305641734285
1885.8858,572.2166948942959
1887.525,589.2029775493374
1889.1634,527.7651735050604
1890.8011,527.7539606750779
1892.4381,577.620011695366
1894.0743,592.9139939243632
1895.7098,555.536568944306
1897.3446,611.2383924083042
1898.9786,585.2201144140981
1900.6118,600.3823789470553
1902.2443,566.775824140348
1903.8761,586.4010821233314
1905.5071,531.7087793576047
1907.1374,542.0995364407645
1908.7669,564.9239686533183
1910.3957,602.5326858547905
1912.0237,528.8262922554586
1913.651,526.9553860402975
1915.2776,541.9205601060112
1916.9034,528.0224020797505
1918.5285,499.21149416946537
1920.1528,486.9884133028918
1921.7764,516.9037314156521
1923.3992,522.2080155734839
1925.0213,487.25182767309707
1926.6427,459.8357243891296
1928.2633,459.11025752370733
1929.8832,483.97597428060544
1931.5023,435.53341727250154
1933.1207,452.2831242723187
1934.7383,444.57562869765025
1936.3552,461.81145944325726
1937.9714,459.8411409581622
1939.5868,441.61519307326125
1941.2015,394.13413102105187
1942.8154,389.39846561788
1944.4286,389.35870373876423
1946.041,363.2653483647355
1947.6528,347.11889858323775
1949.2637,372.36984984907394
1950.8739,362.36869414586545
1952.4834,355.865919733531
1954.0921,371.6620112483197
1955.7001,346.6074497678255
1957.3074,362.5527126530269
1958.9139,327.29827379882954
1960.5197,367.5946034746248
1962.1247,323.39216867681716
1963.729,291.6414327258608
1965.3325,280.1928557083029
1966.9353,307.84689479427834
1968.5374,291.8040043519959
1970.1387,287.66463567120445
1971.7393,274.2292371236108
1973.3392,257.24825420427806
1974.9383,254.5721296659849
1976.5366,233.45130368903483
1978.1342,250.9862139080069
1979.7311,274.7272956229717
1981.3273,282.7749816241376
1982.9227,254.62970195444723
1984.5173,242.44188382909851
1986.1112,228.26195191698935
1987.7044,236.1903284626187
1989.2968,226.6274334278569
1990.8885,246.47368441267827
1992.4795,237.22949675078416
1994.0697,222.54528331113943
1995.6592,231.87145459041676
1997.2479,218.15841885983536
1998.8359,226.00658207190463
2000.4232,245.16634799754502
2002.0097,226.78811814761684
2003.5955,207.3722915813214
2005.1805,234.46926508998513
2006.7648,224.8794333912083
2008.3484,201.55318885790984
2009.9312,265.74092161420776
2011.5133,230.79301976869647
2013.0946,218.55986877255964
2014.6752,214.9418517690574
2016.2551,227.43934971584713
2017.8342,216.9027414211796
2019.4126,217.08240341890996
2020.9902,196.92871007387294
2022.5672,234.59203358008745
2024.1433,203.87274416228502
2025.7188,209.7212096992771
2027.2935,213.2377960311569
2028.8674,196.97286690080546
2030.4406,188.7267839187316
2032.0131,181.64990672571912
2033.5849,172.39259307528118
2035.1559,175.25519890444775
2036.7261,186.0880784263154
2038.2957,178.54158410143827
2039.8645,184.86606652949558
2041.4325,232.41187452475424
2042.9998,200.3793550528262
2044.5664,210.36885275520672
2046.1323,190.78071026959697
2047.6974,176.76526813001692
2049.2617,197.02286496267334
2050.8254,199.40383762612691
2052.3883,229.55852100870834
2053.9504,243.6872480047041
2055.5118,201.79034921283073
2057.0725,172.21815279492876
2058.6325,192.82098489494274
2060.1917,179.3991699346352
2061.7502,206.4030304075677
2063.3079,184.78288701330985
2064.8649,196.58905838740975
2066.4212,187.47186131758554
2067.9767,189.33161062567433
2069.5315,198.2186192587942
2071.0856,182.03319827075575
2072.6389,156.7256567331824
2074.1915,149.34630189737072
2075.7433,115.34543944736379
2077.2945,143.07337357374854
2078.8448,130.68040731366636
2080.3945,132.5668422735198
2081.9434,137.8829787529139
2083.4916,140.62911572578832
2085.039,144.4055507872581
2086.5857,131.5625801261458
2088.1317,133.60049848722156
2089.677,149.8695992996427
2091.2215,147.72017465656154
2092.7652,138.45251515243945
2094.3083,130.81690990454354
2095.8506,151.76364664561333
2097.3921,190.54301180022594
2098.933,172.9552902753203
2100.4731,154.70076507240356
2102.0124,173.92971746344028
2103.5511,167.9924271733871
2105.089,191.73917218791212
2106.6261,207.72022881275643
2108.1626,190.48587143627174
2109.6983,169.88637236961222
2111.2332,204.47200201908072
2112.7675,176.44302909211365
2114.301,187.34972025143543
2115.8337,183.79234039534094
2117.3657,189.87115254863784
2118.897,208.78641789820722
2120.4276,197.78839573222467
2121.9575,160.17734325099445
2123.4866,210.25351567694725
2125.0149,186.8671666307373
2126.5426,147.91854763048832
2128.0695,174.9579083256549
2129.5956,189.98549688650655
2131.1211,198.2515597337324
2132.6458,197.2063413881715
2134.1698,185.2500843881453
2135.693,205.38302929992642
2137.2155,203.20541483728175
2138.7373,182.86747766015105
2140.2584,192.26945239641918
2141.7787,186.76157184529438
2143.2983,173.59406688329182
2144.8171,147.01716651931565
2146.3353,179.48109802633553
2147.8527,162.9860872071513
2149.3693,173.03235806976227
2150.8853,181.3701329923024
2152.4005,149.39963262258607
2153.9149,170.57107579472722
2155.4287,149.034679848849
2156.9417,181.99066041936385
2158.454,177.03923165034303
2159.9655,188.13060586594565
2161.4764,192.16499361994465
2162.9865,170.54260358480678
2164.4958,188.413642511352
2166.0045,172.67831544497858
2167.5124,190.93682554694806
2169.0195,181.43937425174317
2170.526,180.8361610844804
2172.0317,191.12738375588924
2173.5367,192.21323816833592
2175.0409,201.7439183129245
2176.5445,232.41961625862677
2178.0473,197.9405220569779
2179.5494,170.60682343532335
2181.0507,170.3687061416049
2182.5513,172.92635421769955
2184.0512,199.77995000179908
2185.5504,203.77967410283327
2187.0488,173.52570513193768
2188.5465,164.26821966245734
2190.0435,157.9073925324883
2191.5397,172.1933969374477
2193.0353,158.37640449368155
2194.5301,133.60658509560562
2196.0241,147.9841070538705
2197.5175,155.5591373430634
2199.0101,131.4318414579311
2200.502,124.75238333763446
2201.9931,124.32092560701676
2203.4835,112.38762964339912
2204.9733,116.50265558089995
2206.4622,132.3161624297627
2207.9505,124.27830803520828
2209.438,108.28924891929819
2210.9248,108.14914036131177
2212.4109,122.70813655763959
2213.8962,110.66639062318154
2215.3809,131.17405444575525
2216.8648,107.68127880652173
2218.3479,133.2882131749011
2219.8304,106.94500594350666
2221.3121,107.65180417207193
2222.7931,114.35875385088093
2224.2733,86.21599989370225
2225.7529,110.82368607071385
2227.2317,91.63195528993856
2228.7098,87.89094935116646
2230.1872,87.85080913786805
2231.6638,87.41167465461331
2233.1397,82.82368502746613
2234.6149,106.68697850837816
2236.0894,76.75169252106207
2237.5632,100.66796342236921
2239.0362,71.58592680163565
2240.5085,88.20571724151978
2241.9801,68.17746860882289
2243.4509,105.10131388828631
2244.921,91.57738538288413
2246.3904,58.70581434457745
2247.8591,77.18673110955842
2249.3271,71.37026542696458
2250.7943,61.35654627406802
2252.2608,72.29570191444145
2253.7266,65.13785999809807
2255.1917,70.53314745209536
2256.656,59.98169055211929
2258.1197,60.283614868526456
2259.5826,54.589045371860266
2261.0447,66.44810642982793
2262.5062,62.610921864252305
2263.9669,66.9276148324725
2265.4269,73.44830786572493
2266.8862,68.62312282597577
2268.3448,85.85218084070311
2269.8026,84.98560235115656
2271.2598,88.92350694006927
2272.7162,70.86601334031911
2274.1719,90.01323939555368
2275.6268,81.0653022407605
2277.0811,77.72231811080201
2278.5346,91.384402429886
2279.9874,75.80166984499829
2281.4395,102.17423408927607
2282.8908,91.85220813784144
2284.3414,105.7357039440858
2285.7914,99.02483254287836
2287.2406,76.06970391173763
2288.689,90.47042703793977
2290.1368,92.52711014806482
2291.5838,86.08986056399226
2293.0302,94.00878468233168
2294.4758,93.983988038799
2295.9206,82.31557522901858
2297.3648,75.55364990877388
2298.8082,84.09831491069508
2300.251,96.99967231188111
2301.693,88.85782334844225
2303.1343,94.07286828650012
2304.5748,99.19490650360149
2306.0147,85.32403643656653
2307.4538,100.41035553027359
2308.8922,99.00396037636074
2310.3299,77.95494656236951
2311.7669,87.66340868579482
2313.2031,91.17944056458327
2314.6387,94.30313514005138
2316.0735,72.1845844417212
2317.5076,80.97387955608974
2318.941,102.12111084781009
2320.3737,92.37636787180145
2321.8056,96.33973916177183
2323.2369,77.26131232767148
2324.6674,82.84117401605909
2326.0972,79.3794101008798
2327.5263,92.2261056276684
2328.9547,79.08134484816583
2330.3823,71.04521109185225
2331.8092,100.26778689740058
2333.2355,95.09915409303358
2334.661,101.33939350429318
2336.0858,89.23858500572624
2337.5098,109.84680745848527
2338.9332,87.86413883134355
2340.3558,97.19065599460828
2341.7778,105.67643493994547
2343.199,85.921550687116
2344.6195,88.12607719911739
2346.0393,104.69008757973461
2347.4583,96.31365405149609
2348.8767,88.34684779003146
2350.2943,90.63973900784549
2351.7113,119.5923970339727
2353.1275,108.10489029105793
2354.543,93.82728600582323
2355.9578,113.30965032394579
2357.3718,99.45204845283479
2358.7852,89.0545444667996
2360.1978,82.56720144563587
2361.6098,102.99008157859134
2363.021,91.62324622924734
2364.4315,79.66675573128668
2365.8413,97.42066950216031
2367.2504,90.68504616264909
2368.6587,71.95994335933665
2370.0664,79.24541783195855
2371.4733,63.34152560065013
2372.8795,78.34832189309554
2374.285,64.06586130356709
2375.6899,65.74419764284994
2377.0939,48.98338408106656
2378.4973,47.58347313091099
2379.9,51.844516815239786
2381.3019,54.96656668108062
2382.7032,64.09967375701308
2384.1037,60.49388852195443
2385.5035,39.849260813820365
2386.9027,49.365839865588896
2388.3011,45.493674511751124
2389.6987,63.03281309314616
2391.0957,38.783303495677046
2392.492,46.44519297492343
2393.8876,25.9685283986355
2395.2824,33.503356170116604
2396.6765,19.399722432994622
2398.07,25.05767299586205
2399.4627,51.977253473311976
2400.8547,40.60850922936015
2402.246,41.25148510825011
2403.6366,31.006225548151633
2405.0265,21.72277457472319
2406.4156,16.401175903564308
2407.8041,15.741473033041075
2409.1918,22.89370929751749
2410.5789,20.707927873941117
2411.9652,34.834171710326245
2413.3508,27.122483547610955
2414.7358,16.072905778392396
2416.12,23.33548052404285
2417.5035,18.510249745208966
2418.8863,15.147255169183154
2420.2684,11.546538338156097
2421.6497,11.858140642849776
2423.0304,1.9821033585203622
2424.4104,5.318467641845018
2425.7896,12.617254848286393
2427.1682,7.178486280124162
2428.546,4.852183113466708
2429.9232,19.98836645264055
2431.2996,25.33705735345302
2432.6753,33.148276671828626
2434.0503,34.72204501032229
2435.4246,15.358382640004947
2436.7982,9.257309484733469
2438.1711,21.718845314777354
2439.5433,34.09300980783655
2440.9148,6.929822424422582
2442.2856,10.679302284118421
2443.6557,-2.6085315627938144
2445.025,5.216339827180491
2446.3937,31.403961456763682
2447.7617,10.304378276514399
2449.1289,12.217634922954858
2450.4955,31.49377592956307
2451.8613,25.582845707647266
2453.2265,27.784888353577117
2454.5909,17.499947707898627
2455.9546,32.42806733330599
2457.3177,30.119290617496517
2458.68,29.523660623888645
2460.0416,40.19122011470836
2461.4025,40.022011556947746
2462.7627,43.76607701568628
2464.1222,47.97345815578319
2465.4811,40.94419620443887
2466.8392,46.72833190911933
2468.1966,33.875905607848836
2469.5533,57.78695717136907
2470.9093,59.461526131660776
2472.2645,49.89965144283724
2473.6191,72.5513714643962
2474.973,54.51672405684167
2476.3262,63.89574635516419
2477.6787,49.98847494918982
2479.0305,46.94494578978947
2480.3816,58.56519432794994
2481.7319,48.449255545209326
2483.0816,39.9971638374559
2484.4306,33.60895311608738
2485.7789,45.5846568925308
2487.1264,34.52430834212646
2488.4733,42.27794018436771
2489.8195,46.89558479350808
2491.165,41.67727412102113
2492.5097,36.77303964942712
2493.8538,26.482912444474096
2495.1972,28.856923204182294
2496.5398,2.6951023617425562
2497.8818,38.797480061778515
2499.2231,26.51408642196475
2500.5637,30.944951172001765
2501.9035,23.04010377645045
2503.2427,27.249573390425212
2504.5812,40.02338893863771
2505.919,42.11157907330744
2507.256,53.764172046419844
2508.5924,25.5311956888454
2509.9281,17.612677293813704
2511.2631,24.70864389924327
2512.5974,38.26912236692942
2513.9309,42.2941393115816
2515.2638,22.583720965219527
2516.596,43.287893136923685
2517.9275,36.55668140993885
2519.2583,35.99011093462968
2520.5884,35.738206495796476
2521.9178,45.150992518340445
2523.2465,28.978493069781507
2524.5745,29.070731766132212
2525.9018,34.07773193362027
2527.2284,41.249516607766054
2528.5543,27.786108483317093
2529.8796,36.58752984252442
2531.2041,19.103802689779513
2532.5279,27.534948663598698
2533.851,31.430989211460655
2535.1735,39.2919455054971
2536.4952,48.91783840353264
2537.8163,59.40868837047219
2539.1366,48.71451538204519
2540.4562,53.035338819895514
2541.7752,61.071177578525294
2543.0935,54.12205002208157
2544.411,54.3379739040015
2545.7279,57.91896643650398
2547.0441,75.91504428842745
2548.3596,73.4762235494236
2549.6744,73.40251954999303
2550.9885,72.59394688587554
2552.3019,71.80051941878719
2553.6146,79.8722502845053
2554.9266,82.35915190080232
2556.2379,79.51123588673136
2557.5485,79.92851303775478
2558.8585,57.31099335422232
2560.1677,81.85868603720019
2561.4762,83.27159971464607
2562.7841,81.24974219593196
2564.0913,89.14312045771385
2565.3977,81.2517406641523
2566.7035,93.42560808797725
2568.0086,89.91472718940395
2569.313,103.96910149439145
2570.6167,99.53873362975582
2571.9197,115.12362518261989
2573.222,116.32377674472264
2574.5236,103.53918775656803
2575.8246,111.86985649542203
2577.1248,117.16578020316138
2578.4244,113.27695500296431
2579.7232,120.45337584635081
2581.0214,121.04503655207463
2582.3189,138.50192973435696
2583.6157,138.07404679696992
2584.9118,132.06137775866546
2586.2072,144.01391125745658
2587.5019,140.38163461074282
2588.7959,146.26453369578894
2590.0893,149.66259298604245
2591.3819,146.52579549230722
2592.6739,138.00412272876247
2593.9652,142.14755474432968
2595.2557,156.40607020789002
2596.5456,161.82964636685074
2597.8348,161.5682589045573
2599.1234,157.1218818860625
2600.4112,154.04048776073478
2601.6983,144.3240474067279
2602.9848,159.77253016178975
2604.2705,146.5859039204297
2605.5556,160.9641349794283
2606.84,159.6571881697114
2608.1237,155.1150267125613
2609.4067,152.13761223269285
2610.689,178.02490480367032
2611.9707,146.67686297768296
2613.2516,163.39344352666967
2614.5319,149.47460175580454
2615.8115,141.92029133632673
2617.0903,154.43046444473134
2618.3685,141.95507183831205
2619.6461,148.59406273005834
2620.9229,149.69738491341104
2622.199,152.91498469587145
2623.4745,165.74680688796866
2624.7493,153.34279477108157
2626.0234,150.20288996912177
2627.2968,161.17703257257403
2628.5695,161.21516116989415
2629.8415,139.1672127377683
2631.1128,141.0331226407302
2632.3835,151.71282485164352
2633.6535,137.4562519330409
2634.9228,137.31333493032798
2636.1914,139.73400351434975
2637.4593,139.36818598281866
2638.7265,149.71580923610782
2639.9931,135.92679878091099
2641.259,135.9510786267656
2642.5242,142.73857142394127
2643.7887,148.8391984631994
2645.0525,144.75287960791684
2646.3156,131.17953323307847
2647.5781,144.31907626614316
2648.8398,134.22142432277474
2650.1009,116.53649157544692
2651.3613,137.61419085441935
2652.6211,141.85443382458607
2653.8801,127.95713077469918
2655.1385,141.27219057496768
2656.3961,130.7495208160301
2657.6531,139.83902767580253
2658.9094,135.84061602470706
2660.1651,141.05418933477677
2661.42,144.57964971963906
2662.6743,145.81689788238054
2663.9279,154.8158330802912
2665.1808,146.5263531124931
2666.433,164.49835422995056
2667.6846,171.88173121836417
2668.9354,159.2263772184508
2670.1856,162.93218365211123
2671.4351,165.09904034898204
2672.6839,164.276835509379
2673.9321,161.11545568262932
2675.1795,177.8647857752917
2676.4263,175.57470908277128
2677.6724,178.59510712182555
2678.9179,181.4258596534671
2680.1626,172.6168446527588
2681.4067,176.1679382805048
2682.6501,181.32901497134276
2683.8928,181.99994739823205
2685.1348,174.58060642084365
2686.3761,183.5208610788493
2687.6168,170.0705786661165
2688.8568,160.27962464130383
2690.0961,162.74786276236478
2691.3348,170.72515518445857
2692.5727,159.56136243526635
2693.81,155.85634333521875
2695.0466,164.8099551091343
2696.2826,150.7720534232676
2697.5178,163.3924922957749
2698.7524,149.5211242370915
2699.9863,159.85780012372834
2701.2195,160.85236933698593
2702.452,163.804679659587
2703.6839,169.3645772657303
2704.9151,168.63190669157007
2706.1456,162.95651077961497
2707.3755,181.48823068605566
2708.6046,184.32690593751772
2709.8331,185.87237424574482
2711.0609,204.7744714792118
2712.2881,201.73303164767208
2713.5145,206.54788671313327
2714.7403,233.36886662027382
2715.9654,226.6957992482935
2717.1899,233.87851014270404
2718.4136,255.66682258205992
2719.6367,260.9105575061294
2720.8591,271.35953329801555
2722.0809,270.51356573171483
2723.3019,287.5224678676302
2724.5223,287.1860500610296
2725.7421,287.30411979195696
2726.9611,292.7264816685961
2728.1795,289.85293742609156
2729.3972,285.63328587232263
2730.6142,265.51732291664007
2731.8306,243.20484161206286
2733.0462,226.8456323564385
2734.2612,215.93948311556665
2735.4756,209.93617958679124
2736.6892,190.03550530806206
2737.9022,165.73724171796744
2739.1145,147.49116835474115
2740.3262,138.94706309924527
2741.5372,133.30470235743178
2742.7475,116.06386114578345
2743.9571,97.67431314773626
2745.1661,96.63583088608925
2746.3744,80.29818590689729
2747.582,63.211148789857816
2748.7889,63.174489311686784
2749.9952,62.137976616989135
2751.2008,57.50137921862688
2752.4057,49.014465008082425
2753.61,44.02700130182643
2754.8136,41.63875492618445
2756.0165,40.89949226721228
2757.2188,41.25897929458006
2758.4204,34.06698156896232
2759.6213,27.473264238446063
2760.8215,39.77759211044781
2762.0211,37.07972971765207
2763.22,24.52944119496874
2764.4182,27.126490306509822
2765.6158,23.120640571095464
2766.8127,14.911655236281149
2768.009,11.849297318417257
2769.2045,8.333329684739056
2770.3994,11.513515083991251
2771.5936,-12.86038381841513
2772.7872,-4.4886044722038605
2773.9801,-13.921255851863862
2775.1723,-3.8084020907267586
2776.3639,-17.749968248778487
2777.5548,-14.49584134006841
2778.745,-19.895731056463546
2779.9346,-19.849202276377582
2781.1235,-11.805621119871148
2782.3117,-11.96415541347551
2783.4992,-2.5238550455671884
2784.6861,-14.533650382611313
2785.8723,-13.692446577761302
2787.0579,-1.7490035930040904
2788.2428,3.4480553972139205
2789.427,1.650124690991106
2790.6106,7.758598551945852
2791.7935,24.2248712271969
2792.9757,21.200336886276318
2794.1573,25.386389456469487
2795.3382,51.03442265305944
2796.5184,57.34582993746449
2797.698,73.27200426076092
2798.8769,85.46433800056593
2800.0551,99.27422280177734
2801.2327,123.70304945464977
2802.4096,132.2022077566969
2803.5859,151.07308626840495
2804.7615,173.26707222823575
2805.9364,190.1355513639228
2807.1106,209.8799076705261
2808.2842,238.20152324175137
2809.4572,286.70177807250366
2810.6294,307.58204977567425
2811.801,346.1937130971362
2812.972,386.8381397069438
2814.1423,417.3166978132142
2815.3119,481.5807517556832
2816.4808,523.2316617009178
2817.6491,571.3207829996811
2818.8167,624.3994657704175
2819.9837,664.6690544183643
2821.15,708.9308871047633
2822.3157,757.4362953441671
2823.4807,785.9866035618179
2824.645,834.1331286085956
2825.8086,866.7771794755149
2826.9716,913.1700568122599
2828.134,950.5630526007435
2829.2957,978.7074496911789
2830.4567,1011.604521428148
2831.617,1025.3555313691602
2832.7767,1036.5617329556812
2833.9358,1028.424369375621
2835.0941,1037.9946734512735
2836.2519,1021.2238677206883
2837.4089,1000.4131643419703
2838.5653,995.8137652609846
2839.7211,990.7768624194673
2840.8761,981.5036378010163
2842.0306,1023.8452634814612
2843.1843,1071.3529017215978
2844.3374,1098.4777045437695
2845.4899,1171.9708132567891
2846.6417,1241.6833581846954
2847.7928,1323.0664579318186
2848.9433,1406.6712186856553
2850.0931,1481.2487334030393
2851.2422,1558.2000809740912
2852.3907,1628.1263254764451
2853.5385,1680.6785154057345
2854.6857,1743.3576829763306
2855.8323,1799.6648435958202
2856.9781,1841.0509952382145
2858.1233,1886.1171178808777
2859.2679,1931.3141730906652
2860.4118,1990.44310357326
2861.555,2026.5548327212043
2862.6976,2049.000264022611
2863.8395,2079.180280700044
2864.9808,2092.2457454860664
2866.1214,2099.0975003214385
2867.2614,2121.6863662244637
2868.4007,2129.163143222471
2869.5393,2133.9786101259256
2870.6773,2156.733524453662
2871.8146,2172.528622384729
2872.9513,2165.214618530841
2874.0874,2176.5922057784264
2875.2227,2164.612055361768
2876.3574,2132.4748167492266
2877.4915,2122.381117763045
2878.6249,2081.4315649007167
2879.7577,2059.626743435927
2880.8898,2030.9172178280448
2882.0212,2026.6035319401733
2883.152,2018.6362093262446
2884.2821,1989.7657532741548
2885.4116,1977.8426468854402
2886.5405,1984.1173533639808
2887.6686,2005.4403161352293
2888.7962,1994.9119587834653
2889.923,2001.632684838568
2891.0493,2018.9528778812937
2892.1748,2022.772901476077
2893.2997,2042.4930989978213
2894.424,2067.4137935937024
2895.5476,2074.785287985965
2896.6706,2096.1578642227178
2897.7929,2120.9817836042153
2898.9145,2148.807286469135
2900.0355,2177.6845919463376
2901.1559,2220.713897676611
2902.2756,2236.295379523898
2903.3946,2277.2291911450043
2904.513,2300.4154638337823
2905.6308,2338.104306111792
2906.7479,2337.0958034964415
2907.8643,2376.340018124095
2908.9801,2399.3369887601584
2910.0953,2410.3867304066403
2911.2098,2403.189234072177
2912.3236,2401.694466661542
2913.4368,2395.6523710476135
2914.5494,2368.5628660863276
2915.6613,2346.8258466770967
2916.7725,2310.391184033704
2917.8831,2300.708725901677
2918.9931,2257.6782969226306
2920.1024,2219.749698731093
2921.211,2201.472710384811
2922.319,2196.947088744034
2923.4264,2184.0225686542863
2924.5331,2165.2988629916226
2925.6391,2168.525662791871
2926.7445,2142.552637437874
2927.8493,2142.9794346272156
2928.9534,2144.3556806319557
2930.0569,2134.9809802943582
2931.1597,2142.704917013133
2932.2619,2129.8770528371806
2933.3634,2116.196928388351
2934.4643,2116.1640629897265
2935.5645,2093.627954802418
2936.6641,2050.4380808258984
2937.763,2006.4438971233603
2938.8613,1959.244839253616
2939.959,1898.5403227110394
2941.056,1821.1797433975566
2942.1523,1747.1624782296913
2943.248,1649.9378859121705
2944.3431,1563.605307678096
2945.4375,1470.514068261192
2946.5313,1380.7134767591301
2947.6244,1273.0528275644413
2948.7169,1168.8314012625226
2949.8087,1066.1484657082447
2950.8999,971.803277068163
2951.9904,905.8450808473492
2953.0803,839.7731128328421
2954.1696,771.3865997532307
2955.2582,721.1847599393732
2956.3462,677.7668040082624
2957.4335,637.4319353650442
2958.5202,604.1293506371971
2959.6062,573.3082400778824
2960.6916,560.9677878989671
2961.7764,541.8071725792374
2962.8605,536.4255669878005
2963.9439,511.7721385756936
2965.0267,517.8960494296978
2966.1089,516.6964565188741
2967.1905,510.672511633323
2968.2714,512.4733613961798
2969.3516,511.04814732385626
2970.4312,509.49600580803076
2971.5102,523.2160681299015
2972.5885,515.9074604757066
2973.6662,528.5193037995227
2974.7432,541.0007138963542
2975.8196,529.8508012760115
2976.8954,517.9186710382992
2977.9705,507.8534229845134
2979.045,501.45415173676565
2980.1188,485.919946838633
2981.192,474.3498928191523
2982.2645,460.7930693481625
2983.3364,445.848551352003
2984.4077,412.1154091490846
2985.4783,384.04270859933206
2986.5483,363.0295114415178
2987.6177,328.0248755739867
2988.6864,285.77785526479
2989.7545,265.68750150173
2990.8219,239.35286241483107
2991.8887,211.1729834772434
2992.9548,182.3969077685888
2994.0204,155.22367625675997
2995.0852,132.4523280856804
2996.1495,112.38190084703717
2997.2131,90.41143080799532
2998.276,70.63995311190104
2999.3383,51.16650199798653
3000.4,40.24011099908512
3001.4611,25.409813136365415
3002.5215,29.974641028594533
3003.5812,18.383627040441866
3004.6404,7.535803236830247
3005.6989,-5.469798501152809
3006.7567,-3.584146367777862
3007.8139,-17.858153914028776
3008.8705,-11.692698885267532
3009.9264,-9.03848062389875
3010.9818,-12.696081662265556
3012.0364,-10.965994238289454
3013.0905,-7.298583756036919
3014.1439,-5.044106069292297
3015.1966,-0.25274411898885774
3016.2487,-0.4746304554400922
3017.3002,0.39010489595284525
3018.3511,7.0413366513478195
3019.4013,21.278939523001895
3020.4509,19.952788152759013
3021.4998,13.46275696967382
3022.5481,24.00872020327313
3023.5958,29.040551948457278
3024.6428,42.558126060039854
3025.6892,48.36131610242944
3026.735,53.2999952144537
3027.7802,56.22403605132786
3028.8247,60.98331073526788
3029.8685,75.17769082624898
3030.9118,75.5070472744145
3031.9544,82.02125027813122
3032.9963,96.07016928069481
3034.0376,105.70367290518925
3035.0783,114.82162881399722
3036.1184,119.87390361246503
3037.1578,115.06036275772283
3038.1966,131.33087050816187
3039.2348,127.93528997157023
3040.2723,144.1734829424272
3041.3092,146.24530993586006
3042.3455,141.70063002526103
3043.3811,146.03930082157
3044.4161,138.01117851872084
3045.4505,140.36611785025468
3046.4842,144.8039721696017
3047.5173,133.47459342653053
3048.5498,135.17783212277072
3049.5816,128.61353742530582
3050.6128,128.63155714934078
3051.6434,126.43173782394592
3052.6734,124.46392469187572
3053.7027,120.4279617315683
3054.7314,116.77369167682275
3055.7594,110.1509560571584
3056.7868,114.45959523435829
3057.8136,108.69944846869612
3058.8398,110.17035387584986
3059.8653,110.72214848450335
3060.8902,106.05466822163703
3061.9145,101.21774790701033
3062.9381,106.06122129983612
3063.9612,99.98492114715066
3064.9835,96.63867913537763
3066.0053,98.62232595109185
3067.0264,96.23569131448164
3068.0469,96.72860395951204
3069.0668,86.20089165779211
3070.086,79.70238121364468
3071.1046,79.9328985693844
3072.1226,70.6922688703014
3073.1399,64.38031646235777
3074.1567,51.54686498459307
3075.1727,61.79173743224362
3076.1882,49.164756285077715
3077.203,37.51574340494659
3078.2173,37.244520162054414
3079.2308,32.900907551448086
3080.2438,27.48472619572965
3081.2561,26.24579638849218
3082.2678,23.6839381484819
3083.2789,12.04897123198731
3084.2893,15.99071515845776
3085.2991,6.55898932685335
3086.3083,8.253612976226975
3087.3169,-4.775594719958008
3088.3248,-2.028814670774068
3089.3321,-5.106180077102863
3090.3388,-3.3578038719673486
3091.3449,-8.183747977651933
3092.3503,0.6659592280198012
3093.3551,-4.008628877134015
3094.3593,-2.9074655682280763
3095.3629,0.9195359258251301
3096.3658,1.7224914216940306
3097.3681,6.851516726852083
3098.3698,-2.6932723684520283
3099.3708,2.138239857515657
3100.3713,-2.2538039677205006
3101.3711,0.13073876198160406
3102.3702,5.192033168265425
3103.3688,2.180243066694061
3104.3667,3.4955322209104907
3105.364,-3.111935627244634
3106.3607,0.3580032291141606
3107.3568,3.105543585109274
3108.3522,1.480876659410285
3109.347,3.5341936396314395
3110.3412,3.615685698578261
3111.3348,7.1255439737144
3112.3277,3.0139595663470686
3113.32,7.131123506528127
3114.3117,15.627226794169928
3115.3028,12.152460357873622
3116.2932,14.507014969968623
3117.2831,21.041081281259494
3118.2723,14.554849797480983
3119.2608,13.14851081395733
3120.2488,18.322254480464494
3121.2361,24.82627081529364
3122.2229,14.010749653513528
3123.209,20.625880581930346
3124.1944,23.471853047242917
3125.1793,26.64885628989117
3126.1635,27.25707931559714
3127.1471,23.89671086359425
3128.1301,24.017939400545174
3129.1125,27.570953154144945
3130.0942,36.405940111909615
3131.0753,34.07308798564583
3132.0558,30.622584123101035
3133.0357,31.85461553129187
3134.015,32.46936891100904
3134.9936,29.567030644497663
3135.9716,40.09778678930883
3136.949,41.211823107323994
3137.9258,43.15932495944645
3138.902,42.74047729446181
3139.8775,48.55546462956204
3140.8524,46.15447105453484
3141.8267,52.037680173613126
3142.8004,46.905275129485176
3143.7735,51.157438544462764
3144.7459,46.1943525718047
3145.7178,48.96619885319569
3146.689,49.623158568376965
3147.6596,50.965412407427834
3148.6295,53.143140564196045
3149.5989,57.90652272287562
3150.5676,57.055738036229315
3151.5357,58.09096507795479
3152.5032,61.21238185119245
3153.4701,58.62016577817303
3154.4364,57.16449366900372
3155.402,63.145541747590215
3156.367,64.21348566619312
3157.3315,60.968500445617764
3158.2952,67.26076046453483
3159.2584,60.99043949193009
3160.221,65.65771062418162
3161.1829,63.51274634776345
3162.1442,65.95571849257246
3163.105,67.38679825337815
3164.065,68.40615616539321
3165.0245,71.01396208996209
3165.9834,72.9603852043679
3166.9416,71.99559397575433
3167.8993,75.7197561416614
3168.8563,70.83303871967323
3169.8127,76.68560797017653
3170.7684,80.32762944522764
3171.7236,78.30926793002703
3172.6782,79.7306874064989
3173.6321,84.44205107347483
3174.5854,85.59352133247981
3175.5381,85.03525974061847
3176.4902,86.21742699906011
3177.4417,89.39018295862155
3178.3926,87.35368660794546
3179.3428,94.30809604177281
3180.2924,86.85356848130766
3181.2415,92.89026020467315
3182.1899,94.11832662145684
3183.1377,91.43792221234364
3184.0848,92.59920051683525
3185.0314,98.50231416005442
3185.9773,102.14741484113179
3186.9227,98.38465327417495
3187.8674,104.56417915181738
3188.8115,105.73614118284601
3189.755,105.50068703040601
3190.6979,111.30796330028132
3191.6402,99.15811554324908
3192.5818,110.25128819700682
3193.5229,105.3876247076711
3194.4633,114.7172674188457
3195.4031,115.19035762025823
3196.3423,116.40703545446364
3197.2809,116.71743991211335
3198.2189,117.62170881978842
3199.1563,120.86997883689557
3200.0931,122.56238544662442
3201.0292,122.69906292346488
3201.9648,124.63014431628307
3202.8997,118.50576144695451
3203.834,125.7260448910532
3204.7677,119.49112403909574
3205.7008,124.05112702433814
3206.6333,125.8061807851254
3207.5652,128.40641101929106
3208.4964,137.25194216660702
3209.4271,132.59289738278116
3210.3571,137.42939845100184
3211.2865,137.01156582852866
3212.2154,142.7895185983271
3213.1436,141.71337447324717
3214.0712,140.93324973824355
3214.9982,140.79925926113737
3215.9246,138.06151650041727
3216.8503,142.37013350657932
3217.7755,142.9252209495046
3218.7001,148.77688807537268
3219.624,147.5252427011111
3220.5473,151.77039115587846
3221.4701,148.21243829358102
3222.3922,154.30148745042106
3223.3137,156.1876404804766
3224.2346,158.4209976948107
3225.1549,152.65165784261006
3226.0746,158.0297180888514
3226.9937,159.10527407199498
3227.9121,166.32841985020377
3228.83,161.99924789058804
3229.7473,163.86784899697392
3230.6639,166.58431235319495
3231.5799,168.7487255044063
3232.4954,164.16117432992002
3233.4102,169.62174302156086
3234.3244,166.68051412954182
3235.238,173.73756850785853
3236.151,168.59298534370146
3237.0634,170.09684208688532
3237.9752,176.94921450129513
3238.8864,175.70017664984732
3239.797,179.54980082596634
3240.7069,178.1981575660747
3241.6163,177.09531561109702
3242.5251,180.34134191997623
3243.4332,180.38630168070227
3244.3408,183.08025827785144
3245.2477,186.62327329213716
3246.154,187.46540647347018
3247.0598,187.25671570552853
3247.9649,190.99725699733617
3248.8694,190.4370844853499
3249.7733,192.92625039605394
3250.6766,195.6648050515616
3251.5793,192.20279684472365
3252.4814,195.24027221174282
3253.3829,192.42727566679386
3254.2838,195.21384977164874
3255.1841,196.95003516380663
3256.0838,200.48587052862828
3256.9829,199.17139258197398
3257.8814,201.10663603484528
3258.7792,201.29163360652984
3259.6765,199.97641600524895
3260.5731,206.36101192630738
3261.4692,201.44544806524587
3262.3647,204.17974905399487
3263.2595,206.76393751003047
3264.1538,205.7480340090312
3265.0474,210.88205705903619
3265.9404,210.56602311060416
3266.8329,206.94994650547335
3267.7247,205.2338394797215
3268.616,203.56771219992703
3269.5066,202.65157278032996
3270.3966,204.285427299493
3271.286,200.9192798094632
