RamanShift,CorrectedData
30.1047,468.88815429860847
32.3739,438.05801640695336
34.6426,405.47787382641667
36.9109,373.4977174875367
39.1787,340.46753426607296
41.4461,307.3873073028075
43.7131,277.0070163338472
45.9796,243.8766380214256
48.2456,216.59614625770575
50.5112,180.3655124960842
52.7764,149.88470602399602
55.0411,117.10369432522101
57.3054,87.82244338469192
59.5692,57.790918016304424
61.8326,25.00908215572981
64.0955,-5.7731008392698655
66.3579,-36.80566786102335
68.6199,-67.13859812858202
70.8815,-84.47150317237532
73.1426,-100.85332380823756
75.4032,-86.93215698168625
77.6634,-7.055092113534215
79.9231,233.23164982765388
82.1824,785.5819183536832
84.4412,1741.0995606440429
86.6995,3022.088416022403
88.9574,4331.352306401437
91.2148,5283.595023472938
93.4717,5769.420315615172
95.7282,5928.1318783704555
97.9842,5958.283349586905
100.2398,5925.478307831318
102.4949,5855.020272087655
104.7495,5800.962702085098
107.0036,5748.258999002622
109.2573,5658.412506009581
111.5105,5549.776508792734
113.7632,5473.854236454716
116.0154,5365.3988626004
118.2672,5299.4635060961145
120.5185,5178.3512321542
122.7693,5085.965052992365
125.0197,4981.907929044802
127.2696,4924.732769886055
129.519,4855.392435271593
131.7679,4812.9897357095515
134.0163,4731.327433154145
136.2642,4692.50824142969
138.5117,4667.834827047229
140.7587,4601.609809592721
143.0052,4559.685761973779
145.2512,4473.415211081918
147.4967,4383.750638211793
149.7417,4309.894479923912
151.9863,4239.9491289412745
154.2304,4188.316934887936
156.4739,4131.650204988467
158.717,4107.901204584258
160.9596,4084.672157700208
163.2017,4050.415247282197
165.4433,4045.532615429389
167.6844,4009.7263637367914
169.925,3944.5485533440915
172.1651,3862.201205293707
174.4047,3803.3363011825777
176.6439,3727.5057839856267
178.8825,3667.4615586444174
181.1206,3610.655492825455
183.3582,3554.2394175206277
185.5954,3508.8151276152757
187.832,3470.5343824523397
190.0681,3447.3989062866144
192.3037,3409.710388667551
194.5388,3384.7204846706127
196.7734,3358.5308152741586
199.0075,3330.5929676093465
201.2411,3335.458495222024
203.4742,3299.628918352111
205.7068,3310.805723884942
207.9389,3292.6903657095613
210.1704,3264.534264606958
212.4015,3222.5388084312167
214.632,3201.905352391083
216.862,3174.6852194699136
219.0915,3155.4297006320126
221.3205,3136.490055094832
223.549,3121.0675105215296
225.777,3090.3132632103625
228.0044,3048.9284782489126
230.2314,3026.264289821631
232.4578,2972.4718016236848
234.6837,2927.9520870876013
236.909,2898.5561899211916
239.1339,2852.9851245527448
241.3582,2826.0398764249912
243.582,2756.3714024508095
245.8053,2758.4806312826804
248.0281,2722.118464009376
250.2503,2696.735774134861
252.472,2667.2834079419204
254.6932,2642.3621847459817
256.9139,2610.222897189641
259.134,2574.4663114918726
261.3536,2578.3931677694222
263.5727,2574.4041803943755
265.7912,2560.7000379548854
268.0092,2578.931403295065
270.2267,2572.248913652028
272.4436,2586.0531804735756
274.6601,2586.944789485024
276.8759,2561.0243005511556
279.0913,2562.0922476673086
281.3061,2536.3491392185765
283.5204,2539.795457969134
285.7341,2539.1316613196664
287.9473,2529.8581812729044
290.16,2509.875424440264
292.3721,2455.833772134579
294.5837,2390.833580569935
296.7947,2333.375181402076
299.0052,2286.0588823784146
301.2152,2250.9849679126123
303.4246,2226.8536995577438
305.6334,2163.0153163570353
307.8418,2150.2200350851776
310.0495,2113.918050886709
312.2568,2054.8095374039676
314.4635,1989.4446471401134
316.6696,1934.3735120502088
318.8752,1864.7962441948735
321.0802,1813.2629362909938
323.2847,1755.6736624074938
325.4887,1747.2784784806686
327.692,1719.0274228900757
329.8949,1741.52051654249
332.0972,1738.9577631544162
334.2989,1769.0891490271538
336.5001,1754.5646430724273
338.7007,1718.2341965110727
340.9008,1654.8477430182793
343.1003,1581.155199086893
345.2992,1525.1064646612867
347.4976,1477.0514238742835
349.6955,1413.9399456076426
351.8927,1397.1718839726068
354.0895,1353.297078941026
356.2856,1327.0653565130297
358.4812,1290.7765291557812
360.6763,1268.5303960657916
362.8707,1242.2267435318045
365.0646,1222.215345157265
367.258,1220.595962123351
369.4508,1194.6683433890885
371.643,1200.0322257075504
373.8346,1199.8373338851266
376.0257,1199.5833807278882
378.2162,1217.4200670435357
380.4062,1226.6470816439337
382.5956,1174.0141011667483
384.7844,1128.6207899831784
386.9726,1057.0668007242834
389.1603,1023.8017747349168
391.3474,972.1753427892686
393.5339,960.0871254235126
395.7199,919.8367334520731
397.9052,942.8237680885045
400.09,959.1978213479947
402.2743,980.9584758174979
404.4579,984.955304491988
406.641,1008.7378705568608
408.8235,1013.5057273479565
411.0054,1077.3584181137421
413.1868,1154.095475967627
415.3675,1231.7164232494406
417.5477,1265.2707707580585
419.7273,1187.0580169751938
421.9064,1008.8776477298516
424.0848,929.4291369804596
426.2627,844.2619485966698
428.4399,782.4755371538431
430.6166,742.0193487847232
432.7928,659.6928217973004
434.9683,617.5953870793733
437.1432,587.9764689218146
439.3176,539.2354854395439
441.4914,502.17184886771656
443.6645,494.53496604913653
445.8371,497.0242388048928
448.0091,459.03906401072345
450.1806,446.87883357212604
452.3514,410.5429348042071
454.5216,405.5807505532848
456.6913,368.44165956025245
458.8603,361.8750365101946
461.0288,375.4802524037809
463.1967,346.0066746229345
465.3639,337.8536667947765
467.5306,322.6205890863639
469.6967,321.30679828621805
471.8622,294.2616479566559
474.0271,268.2344884469285
476.1914,254.07466716367298
478.3551,257.33152883118237
480.5182,251.25441563300774
482.6807,257.59266717938726
484.8426,256.94562056801715
487.0039,274.2126103206706
489.1647,316.492968389663
491.3248,360.6360239851856
493.4843,366.2411031524998
495.6432,353.55752833051156
497.8015,326.7346182957185
499.9592,302.5716882890424
502.1163,235.1680502840636
504.2728,201.2730132286465
506.4287,187.03588371897695
508.5839,146.50596633851046
510.7386,130.38256380034272
512.8927,137.1149773525135
515.0461,137.40250693923554
517.199,153.6944511335755
519.3512,175.94010713457465
521.5029,214.18877060433306
523.6539,271.23973544555065
525.8043,268.94229341904247
527.9541,231.74573357322924
530.1033,182.99934226711184
532.2519,130.7524035422348
534.3999,107.35419961014759
536.5472,110.95401137487852
538.694,79.6011186669175
540.8401,104.8448002072164
542.9856,118.6835395015496
545.1305,138.26581900724796
547.2748,157.69011999480927
549.4185,156.85492235207494
551.5615,147.80870438999136
553.704,173.7999428509538
555.8458,172.87711299927014
557.987,162.23868836125257
560.1276,199.08314073444353
562.2675,229.85894029399606
564.4069,304.66455522423576
566.5456,347.4484514108972
568.6837,355.2590916930717
570.8212,266.8949354353731
572.958,217.8544384498241
575.0942,197.5860538794982
577.2299,152.98823268893284
579.3648,116.20942386680099
581.4992,74.84807487190255
583.6329,74.05263200094032
585.766,76.07154080214377
587.8985,112.65324608321589
590.0304,131.29619189114737
592.1616,156.6988211463995
594.2922,156.25957545647043
596.4222,135.5768948618752
598.5515,95.5992178405345
600.6802,49.07498151460777
602.8083,13.352622050256741
604.9358,19.93057512290079
607.0626,0.45714301526140844
609.1888,-9.819571096385971
611.3144,23.59853139737379
613.4393,34.70964720346683
615.5636,69.36173727949017
617.6873,128.00276223594165
619.8103,175.28068198970095
621.9327,159.69345517762167
624.0544,145.3390386837541
626.1756,108.91538779521534
628.2961,54.77045634573551
630.4159,48.00219707989254
632.5351,31.858562194563547
634.6537,43.58750340660799
636.7716,41.28697211430108
638.8889,27.904919280045306
641.0056,32.589295453373325
643.1216,51.48805090477208
645.237,84.94913557883501
647.3518,63.47049890527569
649.4659,34.9500894643179
651.5793,39.38585520148308
653.6922,18.52574371279661
655.8043,14.417702200424628
657.9159,0.1596776812762073
660.0268,-13.100382971914769
662.137,-20.514534481596456
664.2466,-3.4347006973916905
666.3556,5.037399471274057
668.4639,-9.799918572365186
670.5716,-7.848339475448483
672.6786,12.040550016073212
674.785,-20.184758438841072
676.8907,-16.675773301633853
678.9958,0.26619861198787476
681.1002,-29.959982922707695
683.204,-8.15545813311337
685.3072,-28.37106794639385
687.4097,-18.907571816688687
689.5115,-19.26544577117238
691.6127,3.9550230496238328
693.7132,9.95373996697299
695.8131,-0.3693897374005246
697.9123,17.835539118691486
700.0109,20.418431721133857
702.1089,20.829193077458967
704.2061,39.76772799101445
706.3028,59.88394105685984
708.3987,71.17773647238027
710.4941,94.5490178361224
712.5887,119.64768803485913
714.6827,118.22364900987668
716.7761,124.0268015059869
718.8688,126.05704508576582
720.9608,112.76427807152413
723.0522,129.29839752500402
725.1429,132.15929938030604
727.233,179.94687827854978
729.3224,231.41102753926407
731.4112,272.901638682511
733.4993,288.51860091424305
735.5867,265.9618007113995
737.6735,225.88112166573183
739.7596,186.5764447093752
741.845,147.0476485156555
743.9298,174.99460989213458
746.014,185.8172041758994
748.0974,199.8653049540926
750.1802,212.5887839556881
752.2624,194.78751091100776
754.3439,151.46135342448815
756.4247,154.6601771526898
758.5048,146.1838462375631
760.5843,156.58222327445628
762.6631,161.3051693968805
764.7413,189.60254417252463
766.8188,249.77420555602976
768.8956,303.3700096060111
770.9718,363.8398098833445
773.0473,376.0834569152071
775.1221,344.8007975903788
777.1962,318.99167503680974
779.2697,353.205928934442
781.3426,443.7433957733033
783.4147,499.1039085113639
785.4862,516.5872956691592
787.557,445.7933807761906
789.6271,354.471982196088
791.6966,265.92291383454904
793.7654,162.09598605255132
795.8335,125.39100655184575
797.901,111.40778141322289
799.9678,107.09611546356746
802.0339,83.90581241568907
804.0993,88.08667491143706
806.1641,100.23850475360769
808.2282,112.11110286413214
810.2916,96.60426916255665
812.3544,75.31780244731908
814.4164,66.00150055081622
816.4778,80.10516055227026
818.5385,99.42857887089076
820.5986,114.47155112483688
822.658,151.78387193798608
824.7166,176.61533478950196
826.7747,266.06573164071233
828.832,331.6848526867934
830.8886,358.57248546226674
832.9446,402.6284141848055
834.9999,383.35241948635894
837.0545,352.89427797259214
839.1085,289.1037624156488
841.1618,227.0306420587358
843.2143,189.62468325402097
845.2662,158.28565008336864
847.3175,129.9133047323985
849.368,130.80740780387487
851.4179,135.01771860143026
853.467,130.64399512062346
855.5155,147.58599400683852
857.5633,147.19347059902248
859.6105,140.06617876026166
861.6569,133.70387088171128
863.7027,118.60629795386558
865.7478,123.12320963018055
867.7922,116.35435437804927
869.8359,120.1494794336345
871.8789,117.50833086955663
873.9212,112.43065355694443
875.9629,118.66619119184134
878.0039,114.0146863459886
880.0441,130.47588040446726
882.0837,151.54951361221356
884.1226,187.98532490940624
886.1609,191.7830517207285
888.1984,243.99242959101502
890.2352,292.1131921472693
892.2714,300.7450705765732
894.3069,300.3877931448774
896.3416,258.2910851106858
898.3757,226.2546687286249
900.4091,219.2782636704119
902.4418,203.51158734521914
904.4739,207.0043549694351
906.5052,238.95627972433294
908.5358,243.0170727211448
910.5658,244.43644268154185
912.595,200.51409589702598
914.6236,177.54973621473437
916.6515,153.99306547666356
918.6786,145.19378374931557
920.7051,129.25158955926145
922.7309,141.96617998113743
924.756,128.1872507970652
926.7804,146.86449636950783
928.8041,142.3476097790567
930.8272,143.58628263765922
932.8495,156.48020513378833
934.8711,167.57906602005642
936.892,164.4825524842754
938.9123,172.84035003846748
940.9318,212.25214254983166
942.9506,213.4676121571656
944.9688,211.3364388767459
946.9862,200.45830059017499
949.003,172.88287306569327
951.019,148.40983006695842
953.0344,127.98884362879926
955.0491,122.41958430195109
957.063,133.0517213572598
959.0763,123.13492284137737
961.0888,140.81885547044203
963.1007,138.75318472924346
965.1119,128.4875746943817
967.1223,126.27168805492784
969.1321,125.65518621507863
971.1412,133.1377293163141
973.1495,108.76897624356525
975.1572,113.54858455038448
977.1641,132.97621070263767
979.1704,115.10151003070723
981.1759,115.62413653521344
983.1808,118.79374306576119
985.1849,113.35998131571569
987.1884,101.57250179050607
989.1911,126.03095386196173
991.1932,123.8849858861904
993.1945,121.23424495899144
995.1951,116.17837693731644
997.1951,121.2670264657736
999.1943,112.99983702718919
1001.1928,98.3764508917211
1003.1906,117.19650919953074
1005.1877,139.40965210701552
1007.1841,132.26551859861047
1009.1798,166.41374626465495
1011.1748,160.00397137283244
1013.1691,135.13582852669197
1015.1627,117.30895072974363
1017.1556,76.17296963413855
1019.1477,69.97751571894287
1021.1392,50.82221870149169
1023.1299,39.256707599346555
1025.12,29.930610921846892
1027.1093,29.09355678576776
1029.0979,49.39517300858006
1031.0859,52.68508711681898
1033.0731,67.26292614307022
1035.0596,76.27831659307003
1037.0454,62.33088429992631
1039.0304,55.72025433396493
1041.0148,38.396051142205124
1042.9985,28.857898614463465
1044.9814,13.555420256598609
1046.9636,-5.611760714113188
1048.9452,5.705978784054423
1050.926,24.95826188894398
1052.9061,35.494711681339595
1054.8855,51.61495099244439
1056.8642,49.66860229851682
1058.8421,45.605287559667886
1060.8194,47.47462823932483
1062.7959,40.1762453448614
1064.7717,34.65975940890803
1066.7469,27.024790562330963
1068.7213,40.22095858940247
1070.695,44.39788300414648
1072.6679,67.30518291837916
1074.6402,95.54247699993903
1076.6117,114.60938324361359
1078.5826,110.45551868876737
1080.5527,71.7304992286713
1082.5221,47.883939652040226
1084.4908,23.665454030284764
1086.4587,10.724655955975777
1088.426,6.211158785030875
1090.3925,-9.575424233877584
1092.3584,15.214520085810364
1094.3235,12.880700589140815
1096.2879,22.572825969017686
1098.2515,31.590604789537792
1100.2145,68.5837453890731
1102.1767,74.6019557900895
1104.1382,107.64494332921595
1106.099,147.71241459706198
1108.0591,182.60407510778987
1110.0185,227.16962889843762
1111.9771,258.958778180006
1113.9351,300.57122289179824
1115.8923,336.7066603835324
1117.8488,388.61478499921395
1119.8045,375.4952877157816
1121.7596,300.54785562402685
1123.7139,197.5721720597876
1125.6675,158.2179173534273
1127.6204,150.1847698595866
1129.5726,155.72240635072922
1131.524,171.53050209747198
1133.4748,134.95873081320588
1135.4248,106.00676449601951
1137.3741,47.074273794412875
1139.3226,30.16092829682202
1141.2705,38.36639712093802
1143.2176,32.39034908284475
1145.164,47.98245261496277
1147.1097,51.692375825809904
1149.0546,43.9697863440806
1150.9989,22.264351281544805
1152.9424,2.025737310275872
1154.8852,-5.196389120295407
1156.8272,-29.10236158099542
1158.7686,-15.542461730724881
1160.7092,-7.916680495793571
1162.6491,-7.974853533318765
1164.5883,2.4332625872189055
1166.5267,7.5579909651260095
1168.4644,30.599654675374495
1170.4014,47.15857671736012
1172.3377,77.58507978448188
1174.2732,111.22948609855393
1176.2081,193.99211710553936
1178.1421,273.9232931391084
1180.0755,387.7733325930128
1182.0082,462.39255112177057
1183.9401,484.4812605021682
1185.8713,410.33976788706786
1187.8017,309.0683755845205
1189.7315,212.2173817991793
1191.6605,122.9370816450164
1193.5888,83.77776811383183
1195.5163,71.8397329680547
1197.4432,44.87326713233688
1199.3693,25.078660812935595
1201.2947,9.756203767374018
1203.2193,7.6061855023917815
1205.1432,-9.171104572833656
1207.0664,0.4746228748140311
1208.9889,4.3437487977826095
1210.9106,1.6366494070346107
1212.8316,-2.0462991299032183
1214.7519,-7.804720661871897
1216.6715,9.411781404817475
1218.5903,29.803681633011365
1220.5084,34.52145449144109
1222.4257,43.56557415080056
1224.3424,52.83651443656959
1226.2583,74.9847487385723
1228.1735,94.56074991826836
1230.0879,97.56499008727064
1232.0016,138.9979404115843
1233.9146,162.810071081567
1235.8269,187.65185089759666
1237.7384,186.92374703195173
1239.6492,181.57622478039252
1241.5592,205.20974756944315
1243.4686,225.62477700986642
1245.3772,284.2217726603267
1247.285,351.75119182324283
1249.1922,416.46348895881465
1251.0986,469.10911500973293
1253.0042,521.2385167540526
1254.9092,611.9021362787387
1256.8134,683.1004104583701
1258.7169,767.0337700485068
1260.6196,812.9026389737048
1262.5216,853.1574334881827
1264.4229,854.848561717135
1266.3234,843.1264232541812
1268.2232,790.1914091444578
1270.1223,740.3439020018363
1272.0207,707.0342765382779
1273.9183,693.6129000623025
1275.8151,680.9301328120896
1277.7113,706.5363280896913
1279.6067,765.2318323878578
1281.5014,881.4169851339782
1283.3953,1039.5921181031247
1285.2885,1203.0075542561997
1287.181,1334.4636061581857
1289.0727,1418.5105743439906
1290.9637,1388.848746003888
1292.854,1305.178394143044
1294.7435,1186.4997778781408
1296.6323,1076.8631432740767
1298.5204,982.9687245307541
1300.4077,903.916745079445
1302.2943,858.607418521734
1304.1802,829.4909494200397
1306.0653,805.0675337507064
1307.9497,780.0373591951698
1309.8333,764.4006053841917
1311.7162,754.95744414816
1313.5984,719.1580396734582
1315.4798,705.1025485968962
1317.3605,704.4411203637037
1319.2405,724.2738973680873
1321.1197,716.1510149598419
1322.9982,709.7226012460251
1324.876,664.8887771721843
1326.753,595.749656586644
1328.6293,522.5053466888389
1330.5048,446.5059487207095
1332.3796,374.15155869914247
1334.2537,316.39226817596614
1336.127,279.8281649614921
1337.9996,265.3093337021114
1339.8714,238.63585624593475
1341.7426,222.60781178798106
1343.6129,214.8252771369116
1345.4826,198.43832687531085
1347.3515,188.74703343751048
1349.2196,186.00146727345987
1351.087,184.75169694563897
1352.9537,176.147789156513
1354.8197,180.8898087610305
1356.6849,182.22781885266454
1358.5493,193.4618807159893
1360.4131,216.54205381330303
1362.276,239.41839567228408
1364.1383,282.3909616551914
1365.9998,283.259804730101
1367.8606,283.47497504117905
1369.7206,279.68651989999535
1371.5799,281.0444837833704
1373.4384,289.2489083712592
1375.2962,273.3498325331741
1377.1533,219.2972922461388
1379.0096,191.7913207536783
1380.8652,153.08194910634666
1382.7201,142.01920643678568
1384.5742,117.55312034681856
1386.4275,90.53371701807669
1388.2802,86.56102145666227
1390.132,73.08505776334027
1391.9832,61.805849173267234
1393.8336,51.97341819074927
1395.6832,54.83778670203492
1397.5322,43.9489760736401
1399.3803,47.90700712370335
1401.2278,35.06190023087538
1403.0745,27.713675294735594
1404.9204,11.162351864246375
1406.7656,20.4079492112337
1408.6101,12.750486495900077
1410.4538,6.039982674370094
1412.2968,-2.323543424735817
1414.139,11.759926966802823
1415.9805,12.840435829404441
1417.8213,18.86802502588921
1419.6613,34.89273629067293
1421.5006,55.06461116949322
1423.3391,93.4336908591597
1425.1769,127.20001600583805
1427.0139,200.66362632135701
1428.8502,268.7745602455459
1430.6858,331.58285421159735
1432.5206,360.63854196496004
1434.3547,350.34165393525564
1436.188,344.7422169457211
1438.0206,338.34025431617715
1439.8524,320.1857859190243
1441.6835,322.52882824326093
1443.5139,314.6693945760285
1445.3435,331.9074949791802
1447.1724,334.3431363678767
1449.0005,335.32632233820436
1450.8279,323.90705314281877
1452.6545,317.2853256811136
1454.4804,331.41113361341263
1456.3056,327.13446742718634
1458.13,306.0053142957945
1459.9536,297.92365812125354
1461.7766,268.78947974552625
1463.5987,238.05275703133884
1465.4202,202.5634651535238
1467.2409,183.32157690638633
1469.0608,155.37706305859842
1470.88,135.27989254561567
1472.6984,118.88003274912421
1474.5161,93.07744969801092
1476.3331,79.42210823236292
1478.1493,82.36397226149438
1479.9648,67.75300490049835
1481.7795,62.939168440829235
1483.5935,80.9224244964123
1485.4067,73.15273405178095
1487.2192,86.83005728224589
1489.031,86.0043536315909
1490.842,95.72558167529951
1492.6522,92.74369912881161
1494.4618,92.20866275031176
1496.2705,97.47042837054687
1498.0785,95.72895089817757
1499.8858,84.68418426716175
1501.6924,82.18608145416829
1503.4981,92.18459458902521
1505.3032,78.52967497970167
1507.1075,76.57127301232072
1508.911,73.45933828771058
1510.7138,81.84381964098543
1512.5159,58.37466517266762
1514.3172,62.20182216484068
1516.1178,57.57523731584206
1517.9176,60.89485670199042
1519.7166,54.510625823853616
1521.515,50.97248957305055
1523.3126,57.980392296094124
1525.1094,57.03427782977133
1526.9055,41.23408943106688
1528.7008,49.579769786623956
1530.4954,42.421261170745765
1532.2893,31.858505361939024
1534.0824,35.79144371449729
1535.8747,39.6200172641295
1537.6663,33.79416668862973
1539.4572,32.56383226959292
1541.2473,40.77895395067185
1543.0367,43.43947134988207
1544.8253,34.19532367744955
1546.6132,43.19644970920558
1548.4003,49.09278787902758
1550.1867,51.58427618882911
1551.9723,55.520852149596294
1553.7572,74.35245275647412
1555.5414,95.12901444939871
1557.3247,110.75047292478166
1559.1074,140.1667629277456
1560.8893,168.67781809590906
1562.6705,214.88357066522212
1564.4509,239.58395118485737
1566.2305,235.828888055152
1568.0094,261.5683072806038
1569.7876,259.1021325074223
1571.565,263.630284766135
1573.3417,270.00268249624787
1575.1176,264.7192415009655
1576.8928,281.9798748834661
1578.6672,297.6344930997358
1580.4409,332.9830037859623
1582.2138,349.8253116019897
1583.986,391.3613178778321
1585.7575,423.690920445252
1587.5282,454.91401322239926
1589.2981,507.18048589051455
1591.0673,514.8902235816994
1592.8358,517.7931063562503
1594.6035,530.8890091255621
1596.3704,510.3778016230989
1598.1366,497.65934827343483
1599.9021,473.1835083973667
1601.6668,448.25013633909793
1603.4308,433.359081710998
1605.194,422.1601896429353
1606.9564,442.70330093118696
1608.7182,492.8882521504297
1610.4791,546.3648754483061
1612.2394,645.1829980435773
1613.9988,739.8424416913559
1615.7576,838.3430216949256
1617.5156,878.6845459591452
1619.2728,868.9168140054443
1621.0293,819.6896165684076
1622.785,732.1027356934513
1624.54,604.9559452290964
1626.2942,500.4490117028354
1628.0477,406.43169559260286
1629.8005,324.6037523718427
1631.5525,278.31493344968214
1633.3037,231.61498698921093
1635.0542,189.95365837037014
1636.804,161.9806906569512
1638.553,136.99582501320936
1640.3013,127.14880098359322
1642.0488,98.68935674259376
1643.7955,97.11722919321437
1645.5416,83.78215425156554
1647.2868,74.3838668625857
1649.0313,64.52210113339277
1650.7751,74.59659042726605
1652.5181,69.35706746226413
1654.2604,65.10326421048057
1656.0019,65.98491195043835
1657.7427,82.20174130962812
1659.4828,93.20348225569194
1661.222,117.9398639342553
1662.9606,149.31061455890892
1664.6984,192.31546116384584
1666.4354,212.7541292901526
1668.1717,208.97634255576156
1669.9072,168.13182245106395
1671.642,137.0702883766877
1673.3761,94.74145805194291
1675.1094,70.8450478254374
1676.8419,51.430773098364966
1678.5737,37.74834856346956
1680.3048,34.49748839918698
1682.0351,21.42790640647013
1683.7646,19.28931604129707
1685.4934,15.18143054536722
1687.2215,9.103962967487291
1688.9488,-0.6933737953498849
1690.6754,5.289133062808332
1692.4012,9.151203274719137
1694.1263,11.742556520248058
1695.8506,-1.287087612250616
1697.5742,0.011990348151812213
1699.297,-3.460477269611374
1701.0191,-0.1547581367260591
1702.7404,-2.9710853542109135
1704.461,-11.609690477050435
1706.1808,-4.870775379087831
1707.8999,-1.0044259533578952
1709.6182,-1.6106794338503505
1711.3358,-4.139563020339665
1713.0527,-2.8410878219129927
1714.7688,-1.5152235934235705
1716.4841,-4.561911707256854
1718.1987,-0.08107839871513534
1719.9126,1.0773956703966405
1721.6257,-0.9363693517532283
1723.338,7.427746672230228
1725.0496,2.1698732340709057
1726.7605,0.8401397512160429
1728.4706,6.4386756194144255
1730.18,8.565610226013973
1731.8886,5.721072893976725
1733.5964,10.555192860608372
1735.3036,8.118099306004638
1737.0099,11.259921304709223
1738.7156,8.530787850084948
1740.4204,5.480827822895549
1742.1246,14.160170018597796
1743.8279,13.768943177840242
1745.5306,13.557275899669207
1747.2325,11.025296645443063
1748.9336,13.973133740947105
1750.634,2.900915401713746
1752.3336,16.808769703544726
1754.0325,17.846824693232634
1755.7307,16.86520824948343
1757.4281,18.264048072535616
1759.1247,12.49347169397572
1760.8206,23.803606462749485
1762.5158,18.944579602869453
1764.2102,30.86651810031242
1765.9039,25.469548751610205
1767.5968,18.10379804462923
1769.289,27.519392212541902
1770.9804,20.31645730748187
1772.6711,28.295119106389848
1774.361,33.255503183041924
1776.0502,33.097734828263924
1777.7386,36.67193900032612
1779.4263,36.27824032652234
1781.1132,29.36676306742686
1782.7994,32.63763112083166
1784.4849,29.740968090861884
1786.1696,32.57689725526666
1787.8535,31.24554159438526
1789.5367,37.94702376278826
1791.2192,39.831466102591094
1792.9009,30.74899057643927
1794.5818,36.3997187486641
1796.2621,40.9337718761069
1797.9415,32.45127085161255
1799.6202,34.25233615868831
1801.2982,37.687087956328924
1802.9755,36.655646061006564
1804.6519,45.05812991232244
1806.3277,38.64465858332164
1808.0027,36.365350696468
1809.6769,36.670324487779226
1811.3504,39.25969782961943
1813.0231,42.033588227649716
1814.6951,40.69211279493402
1816.3664,46.23538822420085
1818.0369,47.56353080125746
1819.7067,36.87665634955761
1821.3757,42.57488021692052
1823.044,38.708317382398604
1824.7115,43.02708239929575
1826.3783,42.431289433832944
1828.0443,38.221052221960804
1829.7096,40.29648407531727
1831.3741,49.70769792332999
1833.0379,49.9048062924619
1834.701,45.93792121209913
1836.3633,55.80715421257992
1838.0248,50.41261636486365
1839.6856,42.75441818183822
1841.3457,51.63266967226559
1843.005,43.347480417364295
1844.6636,51.848959482025975
1846.3214,48.7372154976685
1847.9785,54.36235657722011
1849.6349,52.074490346236985
1851.2904,56.023723886652306
1852.9453,54.06016375965373
1854.5994,56.033915966192126
1856.2528,54.79508596661691
1857.9054,49.2437786609384
1859.5572,51.53009840121638
1861.2083,54.95414904707309
1862.8587,53.3160339428303
1864.5084,60.21585588326843
1866.1572,55.553717130007726
1867.8054,55.779719342509964
1869.4528,50.19396362470019
1871.0994,52.94655052270605
1872.7453,57.98758008071616
1874.3905,60.4671518134536
1876.0349,45.68536465576631
1877.6786,50.19231693783098
1879.3215,53.088106532970755
1880.9637,53.92283081258597
1882.6051,57.74658661719627
1884.2458,58.509470248093294
1885.8858,50.91157742910303
1887.525,63.60300329895654
1889.1634,51.93384248726966
1890.8011,57.404188987628345
1892.4381,55.264136274280304
1894.0743,55.46377724743161
1895.7098,58.20320425464695
1897.3446,53.23250908885319
1898.9786,59.501782960945775
1900.6118,56.01111654949534
1902.2443,57.86059993805486
1903.8761,55.80032265006673
1905.5071,53.23037363036775
1907.1374,53.20084126579138
1908.7669,57.461813410867705
1910.3957,56.963377388118374
1912.0237,56.105619945447415
1913.651,62.538627261124816
1915.2776,53.962484952364434
1916.9034,44.07727801099429
1918.5285,57.48309088921752
1920.1528,40.830007598464704
1921.7764,58.26811157533598
1923.3992,50.69748584813135
1925.0213,46.91821286247034
1926.6427,49.880374556997424
1928.2633,52.484052401175234
1929.8832,51.479327365663266
1931.5023,46.76627989628048
1933.1207,45.34498992405287
1934.7383,51.0655369123441
1936.3552,40.07799987106796
1937.9714,47.58245729948288
1939.5868,53.12898729606758
1941.2015,47.61766748347634
1942.8154,47.94857495307406
1944.4286,47.27178632004927
1946.041,40.08737772010505
1947.6528,40.295424816226614
1949.2637,54.09600287052564
1950.8739,43.03918674215987
1952.4834,43.22505074932684
1954.0921,49.00366877983282
1955.7001,46.075114289233795
1957.3074,48.73946024304945
1958.9139,41.99677914604831
1960.5197,50.54714301560466
1962.1247,40.040623449125064
1963.729,49.527291538545
1965.3325,41.10721797539384
1966.9353,43.680472955928394
1968.5374,39.29712626533319
1970.1387,47.35724725198821
1971.7393,37.01090487130227
1973.3392,44.25816760511168
1974.9383,42.29910356514404
1976.5366,40.483780420545145
1978.1342,39.71226541747018
1979.7311,37.53462539723637
1981.3273,49.55092680403891
1982.9227,46.71123570672688
1984.5173,45.865617678640376
1986.1112,40.16413782600756
1987.7044,39.256860796400645
1989.2968,43.593850835750516
1990.8885,34.17517179741998
1992.4795,39.20088709883339
1994.0697,41.12105981566367
1995.6592,40.235752631575224
1997.2479,39.895027819021834
1998.8359,41.09894724809999
2000.4232,36.547572389956144
2002.0097,40.340964304747274
2003.5955,39.22918368715449
2005.1805,38.362290828449545
2006.7648,46.04034562761262
2008.3484,33.963407600001176
2009.9312,40.631535800569225
2011.5133,38.344788944636605
2013.0946,40.30322534120813
2014.6752,41.45690291584083
2016.2551,37.75587919105931
2017.8342,31.10021127481957
2019.4126,39.93995589751876
2020.9902,37.175169478552334
2022.5672,33.455908037916345
2024.1433,41.08222722385523
2025.7188,34.70418235005491
2027.2935,39.7718283193791
2028.8674,35.135219687649965
2030.4406,33.64441061297106
2032.0131,30.4994549020941
2033.5849,32.60040602532678
2035.1559,40.39731714798239
2036.7261,32.74024110937029
2038.2957,37.529230344826715
2039.8645,38.61433696228573
2041.4325,36.9456126943893
2042.9998,36.373108887636306
2044.5664,32.79687651906977
2046.1323,35.11696620200166
2047.6974,34.78342822177592
2049.2617,33.396312512566624
2050.8254,42.70566866071408
2052.3883,39.81154591859536
2053.9504,37.71399311153078
2055.5118,35.063058666725624
2057.0725,35.0587906342455
2058.6325,36.75123671352537
2060.1917,37.440444253412466
2061.7502,36.57646023524177
2063.3079,35.60933126594398
2064.8649,38.63910358668517
2066.4212,34.61582308253821
2067.9767,37.68953525218507
2069.5315,36.91028524814942
2071.0856,36.378117846059865
2072.6389,40.04307745244216
2074.1915,36.20520811004121
2075.7433,34.214553461171306
2077.2945,34.171156786094514
2078.8448,30.925061022927025
2080.3945,32.02630876807393
2081.9434,42.97494230868989
2083.4916,36.27100361166663
2085.039,37.96453421414668
2086.5857,37.505575290562604
2088.1317,38.694167635701774
2089.677,33.130351669296374
2091.2215,32.614167424136724
2092.7652,42.245654601709816
2094.3083,32.47485257736116
2095.8506,34.75180030397968
2097.3921,36.426536409706046
2098.933,35.34909917516319
2100.4731,38.069526516708436
2102.0124,34.53785599720851
2103.5511,40.25412479883465
2105.089,38.668369758379754
2106.6261,42.230627310095656
2108.1626,42.89093350155025
2109.6983,40.0493239580054
2111.2332,37.805833875813676
2112.7675,35.56049805083478
2114.301,45.313350900870375
2115.8337,39.81442648811719
2117.3657,38.61375842163886
2118.897,41.111379912355005
2120.4276,41.90732378504754
2121.9575,44.801622453384596
2123.4866,42.09430791196132
2125.0149,34.78541170735673
2126.5426,41.32496496520673
2128.0695,38.362998463293366
2129.5956,35.0995425661489
2131.1211,35.43462725467617
2132.6458,37.26828215878243
2134.1698,34.50053655402928
2135.693,33.78141934329551
2137.2155,39.46095908445466
2138.7373,39.4891839975665
2140.2584,34.21612190808162
2141.7787,34.39180024655877
2143.2983,37.41624610139587
2144.8171,34.48948621707268
2146.3353,37.86154696390696
2147.8527,30.582454367321702
2149.3693,29.35223407412451
2150.8853,39.57091142529845
2152.4005,31.088511468304716
2153.9149,42.80505885489515
2155.4287,37.02057792593678
2156.9417,40.53509259424618
2158.454,39.848626402434434
2159.9655,37.81120248776125
2161.4764,32.57284358900063
2162.9865,32.583572066814554
2164.4958,32.09340995613667
2166.0045,38.852378966065146
2167.5124,37.11050048476386
2169.0195,37.01779551187349
2170.526,36.824284675930016
2172.0317,40.529988235291626
2173.5367,39.034926080073944
2175.0409,35.73911769509306
2176.5445,36.39258217481574
2178.0473,32.1453382563177
2179.5494,33.29740431274905
2181.0507,39.998798395806716
2182.5513,33.09953822421414
2184.0512,31.79964111670654
2185.5504,36.949124061024236
2187.0488,28.048003726911247
2188.5465,31.34629641461993
2190.0435,31.994018143922972
2191.5397,30.59118462113031
2193.0353,33.587811232611784
2194.5301,28.083913058825487
2196.0241,35.12950484435186
2197.5175,33.87460105293201
2199.0101,33.01921579701229
2200.502,33.16336285029291
2201.9931,25.957055656282307
2203.4835,36.30030732685486
2204.9733,23.793130714314998
2206.4622,23.88553830796394
2207.9505,28.27754235917172
2209.438,29.319154880453084
2210.9248,30.210387601547325
2212.4109,26.201251959002377
2213.8962,30.291759087262562
2215.3809,28.931919858759613
2216.8648,26.471744843007855
2218.3479,23.31124432020249
2219.8304,26.05042830582113
2221.3121,24.63930658222921
2222.7931,20.727888671287985
2224.2733,21.11618384846588
2225.7529,25.454201181952726
2227.2317,24.641949528776877
2228.7098,25.12943749142454
2230.1872,26.76667342596278
2231.6638,24.85366543716418
2233.1397,20.640421362134816
2234.6149,21.126948789443873
2236.0894,20.113255101256698
2237.5632,23.249347468468898
2239.0362,19.785232860843962
2240.5085,19.420918015651807
2241.9801,20.206409472310042
2243.4509,22.641713576027428
2244.921,21.3768364699485
2246.3904,23.41178407080082
2247.8591,23.446562081543732
2249.3271,21.13117597101916
2250.7943,15.1156309736038
2252.2608,19.349932112362865
2253.7266,22.43408425920495
2255.1917,15.41809209253961
2256.656,18.451960066435618
2258.1197,16.235692480780926
2259.5826,20.819293450943917
2261.0447,19.052766929936126
2262.5062,13.136116662576683
2263.9669,22.719346203156874
2265.4269,20.502458974607123
2266.8862,24.53545817266439
2268.3448,13.068346788040913
2269.8026,21.901127566094715
2271.2598,22.53380312150057
2272.7162,11.916375849921963
2274.1719,17.898847921684535
2275.6268,17.631221387950234
2277.0811,20.71349812089278
2278.5346,16.74567981637358
2279.9874,17.427767963119265
2281.4395,16.159763882399602
2282.8908,16.891668721207083
2284.3414,19.07348346493677
2285.7914,13.955208930066988
2287.2406,16.936845742341262
2288.689,12.768394387951304
2290.1368,16.149855183720206
2291.5838,10.931228318787532
2293.0302,19.71251382079447
2294.4758,13.443711608069975
2295.9206,14.624821401817854
2297.3648,17.055842788804796
2298.8082,16.13677520954937
2300.251,16.26761793401181
2301.693,14.948370070784335
2303.1343,20.629030565783097
2304.5748,17.90959821544118
2306.0147,13.590071609900974
2307.4538,14.27044916020941
2308.8922,16.050729141513074
2310.3299,9.530909686254176
2311.7669,14.310988766367927
2313.2031,17.04096425848087
2314.6387,14.970833896109951
2316.0735,10.85059524236263
2317.5076,16.280245710638127
2318.941,12.659782605829975
2320.3737,14.8392030700293
2321.8056,12.368504118729675
2323.2369,13.197682619032747
2324.6674,15.176735314355568
2326.0972,15.255658816138492
2327.5263,18.284449584054585
2328.9547,20.91310392522027
2330.3823,15.741617963907999
2331.8092,17.1699876152596
2333.2355,19.298208637001125
2334.661,12.626276615158815
2336.0858,10.15418694277713
2337.5098,9.931934886637833
2338.9332,9.459515611981033
2340.3558,13.286924184727752
2341.7778,13.714155576203666
2343.199,10.291204624865259
2344.6195,13.468066032027764
2346.0393,14.44473439609439
2347.4583,17.02120418078829
2348.8767,9.847469705385379
2350.2943,13.723525118949851
2351.7113,15.09936447207133
2353.1275,14.774981678104211
2354.543,11.600370499409394
2355.9578,11.275524550597595
2357.3718,16.55043733027594
2358.7852,12.625102224296398
2360.1978,8.69951245300652
2361.6098,11.87366111050315
2363.021,14.197541203887425
2364.4315,14.221145621524556
2365.8413,12.544467109804344
2367.2504,10.267498272905215
2368.6587,9.74023158956146
2370.0664,9.262659435832632
2371.4733,11.68477409037601
2372.8795,11.356567739222527
2374.285,15.028032451555362
2375.6899,12.949160182992216
2377.0939,5.219942738870543
2378.4973,14.940371795036242
2379.9,11.76043897513594
2381.3019,7.280135753412651
2382.7032,11.399453486505053
2384.1037,14.468383458250486
2385.5035,7.936916838491925
2386.9027,10.255044652388563
2388.3011,7.072757845730564
2389.6987,8.290047261757621
2391.0957,7.456903672981923
2392.492,14.07331776901529
2393.8876,10.0892801649006
2395.2824,12.054781334947535
2396.6765,6.219811652573156
2398.07,0.5343613706467067
2399.4627,5.998420679839398
2400.8547,8.761979765478628
2402.246,5.025028752907815
2403.6366,9.487557679850568
2405.0265,6.749556533780492
2406.4156,7.511015207295543
2407.8041,4.621923525498374
2409.1918,7.632271238381691
2410.5789,3.5420480497190283
2411.9652,3.4512435869611693
2413.3508,4.709847442138482
2414.7358,9.417849172768882
2416.12,8.675238289272045
2417.5035,4.182004207889179
2418.8863,-0.3118637418906758
2420.2684,7.3936237276016925
2421.6497,5.048459019554144
2423.0304,3.1026344632185214
2424.4104,2.056142337362047
2425.7896,7.658974889725783
2427.1682,5.9611243474894025
2428.546,5.562582861243101
2429.9232,4.063342521965808
2431.2996,2.0633953650106207
2432.6753,1.8127333850973173
2434.0503,3.1613485563117933
2435.4246,8.409232834612709
2436.7982,6.306378144345416
2438.1711,2.302776325762977
2439.5433,1.398419156054672
2440.9148,4.593298389382085
2442.2856,4.887405765922608
2443.6557,7.030732979920941
2445.025,4.623271676747663
2446.3937,5.165013431466207
2447.7617,2.905949772907263
2449.1289,1.3460721782514895
2450.4955,6.335372095620244
2451.8613,2.723840959674135
2453.2265,5.661470141720201
2454.5909,2.448250985827144
2455.9546,7.234174779449063
2457.3177,5.019232785557477
2458.68,2.9534161947823065
2460.0416,8.986716147561395
2461.4025,5.769123754798471
2462.7627,5.300630037530226
2464.1222,3.931225959102079
2465.4811,6.210902429853462
2466.8392,5.489650320811563
2468.1966,5.617460440894774
2469.5533,7.144323544124859
2470.9093,4.520230328349271
2472.2645,8.195171419972155
2473.6191,5.169137400195439
2474.973,9.142118768269341
2476.3262,4.7141059717528435
2477.6787,1.8350893667837909
2479.0305,3.855059262359106
2480.3816,9.924005949124904
2481.7319,6.09191967917684
2483.0816,5.158790605370427
2484.4306,2.2246088196422136
2485.7789,4.489364362340893
2487.1264,5.253047251569143
2488.4733,-0.08435253946382204
2489.8195,6.627154909920648
2491.165,8.837560363083185
2492.5097,5.046854517112877
2493.8538,1.5050279807232982
2495.1972,8.312071312159532
2496.5398,4.367975054616267
2497.8818,4.772729668167756
2499.2231,2.526325569208467
2500.5637,6.028753126405661
2501.9035,3.6300026831634966
2503.2427,4.480064522598809
2504.5812,5.978928891528398
2505.919,4.47658599196879
2507.256,4.8730259661470825
2508.5924,6.668238911524753
2509.9281,5.412214876833133
2511.2631,1.104943844121152
2512.5974,3.7464157413157295
2513.9309,5.536620485294492
2515.2638,7.175547955471018
2516.596,7.013187975892805
2517.9275,5.749530298851994
2519.2583,6.084564606508877
2520.5884,6.768280523528659
2521.9178,2.75066761373094
2523.2465,4.631715373252661
2524.5745,2.111413270724057
2525.9018,-1.0602492715415224
2527.2284,8.416717147655191
2528.5543,7.942312521403551
2529.8796,9.316536758625858
2531.2041,4.989389688821262
2532.5279,2.8608710483235598
2533.851,7.280980523572879
2535.1735,2.6997177724004473
2536.4952,1.0670823798278946
2537.8163,5.733073903879699
2539.1366,5.397691891909545
2540.4562,3.560935833940448
2541.7752,5.172805166018719
2543.0935,2.9832992885811507
2544.411,7.3924175503367735
2545.7279,5.050159270161544
2547.0441,1.7565236930073524
2548.3596,4.061510013324778
2549.6744,5.4651174079991165
2550.9885,10.21734501330053
2552.3019,3.4181919108482077
2553.6146,5.467657080087747
2554.9266,7.415739466282929
2556.2379,2.362437960020742
2557.5485,9.357751377731006
2558.8585,8.351678512218996
2560.1677,5.94421806271265
2561.4762,7.035368644922897
2562.7841,5.625128815118956
2564.0913,4.1634970592161835
2565.3977,5.200471806878596
2566.7035,6.086051446135514
2568.0086,11.620234313011508
2569.313,8.853018682670807
2570.6167,10.784402714075355
2571.9197,11.464384477657035
2573.222,6.492961936003695
2574.5236,10.020132937059486
2575.8246,6.345895263839054
2577.1248,8.720246599155757
2578.4244,12.543184562364075
2579.7232,6.664706685616096
2581.0214,13.234810375632065
2582.3189,12.103492972485185
2583.6157,8.520751683900642
2584.9118,10.486583596568835
2586.2072,6.8009857119727855
2587.5019,9.963954926729741
2588.7959,10.97548806944711
2590.0893,15.235581869092996
2591.3819,14.644232944880557
2592.6739,9.9514377636673
2593.9652,11.407192645868477
2595.2557,9.56149381238501
2596.5456,16.714337370045868
2597.8348,17.2157193300652
2599.1234,15.415635536513761
2600.4112,10.064081661305224
2601.6983,14.661053222196898
2602.9848,10.006545636305361
2604.2705,14.850554174136647
2605.5556,15.54307400613142
2606.84,8.334100154224927
2608.1237,7.723627484921678
2609.4067,8.761650781385242
2610.689,15.048164749542977
2611.9707,13.233164007705739
2613.2516,12.116643023702764
2614.5319,11.748596133031711
2615.8115,13.479017550023912
2617.0903,10.05790137152475
2618.3685,7.035241559589494
2619.6461,9.811031975694462
2620.9229,8.38526641096361
2622.199,6.107938558410609
2623.4745,12.079042027196536
2624.7493,13.448570365403143
2626.0234,12.766517000321755
2627.2968,9.48287522475816
2628.5695,6.497638203852958
2629.8415,10.860799007918047
2631.1128,11.22235064228903
2632.3835,10.282286003693557
2633.6535,6.340597876635883
2634.9228,11.397278942797456
2636.1914,10.202321820453747
2637.4593,11.355719013907532
2638.7265,8.757462925438318
2639.9931,8.207545843768543
2641.259,11.355959970045987
2642.5242,10.352697423343002
2643.7887,5.547750209172392
2645.0525,10.541110229520058
2646.3156,10.182769330894459
2647.5781,7.172719254392987
2648.8398,11.760951639285366
2650.1009,3.047458053114255
2651.3613,12.782229945812901
2652.6211,7.415258736840002
2653.8801,9.546535717832043
2655.1385,11.926052106272962
2656.3961,9.553799024181387
2657.6531,6.929767474315497
2658.9094,12.153948363895523
2660.1651,6.0263325308440585
2661.42,8.646910691544278
2662.6743,13.665673502116107
2663.9279,8.082611532210336
2665.1808,13.097715214821108
2666.433,9.360974902116524
2667.6846,8.822380815287445
2668.9354,9.781923081915053
2670.1856,9.889591741356767
2671.4351,15.795376735150825
2672.6839,15.44926790593965
2673.9321,11.60125493841197
2675.1795,12.151327362763823
2676.4263,13.2994745931787
2677.6724,10.245685922326913
2678.9179,11.28995050988405
2680.1626,13.882257413068942
2681.4067,13.072595576200953
2682.6501,9.26095380477696
2683.8928,13.747320773567935
2685.1348,11.981685064735302
2686.3761,12.014035122967371
2687.6168,9.644359273135706
2688.8568,11.372645719971487
2690.0961,10.648882571762371
2691.3348,6.573057823069604
2692.5727,6.995159361965619
2693.81,9.215175010792265
2695.0466,7.5330925219399205
2696.2826,6.548899555647239
2697.5178,10.512583696821991
2698.7524,9.274132464883024
2699.9863,10.333533274123326
2701.2195,10.340773446094687
2702.452,6.2958401990136394
2703.6839,11.548720647688995
2704.9151,9.449401843971245
2706.1456,11.547870724223799
2707.3755,14.744114130316134
2708.6046,13.438118788639002
2709.8331,17.679871278142087
2711.0609,8.619358043393987
2712.2881,13.306565352164611
2713.5145,13.341479386030315
2714.7403,16.67408619350188
2715.9654,15.554371689675321
2717.1899,14.18232162290586
2718.4136,17.707921586005
2719.6367,17.331157029961076
2720.8591,15.40201322868323
2722.0809,19.32047528276908
2723.3019,17.78652813879613
2724.5223,19.100156550137186
2725.7421,22.711345092299766
2726.9611,16.27007814978991
2728.1795,15.37633988000033
2729.3972,20.480114277622988
2730.6142,12.431385183586585
2731.8306,11.780136234018613
2733.0462,13.576350940732823
2734.2612,10.920012697741583
2735.4756,11.111104763293852
2736.6892,8.799610286438451
2737.9022,12.985512305113275
2739.1145,13.218793769260145
2740.3262,12.249437498965747
2741.5372,11.67742618212884
2742.7475,12.452742384153893
2743.9571,10.125368553671109
2745.1661,7.7952870147834545
2746.3744,8.662479990340188
2747.582,12.076929625237753
2748.7889,6.388617977747842
2749.9952,12.347526985372937
2751.2008,6.5036385217293144
2752.4057,7.956934336958042
2753.61,7.857396116163855
2754.8136,4.0550054648822
2756.0165,4.4997439100746135
2757.2188,4.691592938152581
2758.4204,6.4805339905302475
2759.6213,6.81654846170585
2760.8215,4.699617681372317
2762.0211,7.629722911057172
2763.22,5.106845365291747
2764.4182,6.530966182310124
2765.6158,1.1020664492779844
2766.8127,2.0701271880513445
2768.009,4.285129409465696
2769.2045,2.4470541036551907
2770.3994,4.405882217902814
2771.5936,-0.4884053249789986
2772.7872,-1.9858276462366007
2773.9801,-1.1363989879471035
2775.1723,2.1098862462304595
2776.3639,2.9530450052629362
2777.5548,1.4930942170182533
2778.745,-1.9699492201660291
2779.9346,0.9139315771167986
2781.1235,3.3447731720660983
2782.3117,0.42261211874195226
2783.4992,2.3474849377566898
2784.6861,0.7194281454966358
2785.8723,2.6884782348732728
2787.0579,-0.9453283083961708
2788.2428,1.5680449745207738
2789.427,-1.1213560137136653
2790.6106,-0.4634853861176822
2791.7935,2.091713946637128
2792.9757,0.4443037040980897
2794.1573,-1.2056544151045614
2795.3382,1.841901283216373
2796.5184,0.8870445377356759
2797.698,4.1298490687091345
2798.8769,-0.17961141247782564
2800.0551,3.558736764261738
2801.2327,2.9949690633327606
2802.4096,2.529160913552829
2803.5859,3.711387713789833
2804.7615,2.041724837620137
2805.9364,5.270247621506272
2807.1106,6.447031381493474
2808.2842,1.922151380924646
2809.4572,3.3456828186723158
2810.6294,4.367700874387481
2811.801,3.0382806942642304
2812.972,7.55749738081964
2814.1423,12.025426006187985
2815.3119,8.592141566928575
2816.4808,9.957718939346464
2817.6491,14.3722329138254
2818.8167,17.585758181171926
2819.9837,18.998369288470315
2821.15,23.36014060694734
2822.3157,29.221146317846035
2823.4807,34.68146036880805
2824.645,48.74115641526369
2825.8086,46.650307765828614
2826.9716,52.70898724170698
2828.134,60.26726719759985
2829.2957,65.67521946111844
2830.4567,73.58291525720134
2831.617,74.04042515403495
2832.7767,81.19781898397655
2833.9358,78.05516583897924
2835.0941,77.9125339990179
2836.2519,77.31999096351593
2837.4089,68.0776034527713
2838.5653,69.38543741388226
2839.7211,64.44355811317098
2840.8761,67.65203012310528
2842.0306,65.76091737171741
2843.1843,63.62028311051944
2844.3374,65.98018993341417
2845.4899,67.59069979810162
2846.6417,67.20187400248003
2847.7928,72.61377316854059
2848.9433,74.67645724625588
2850.0931,68.73998545946074
2851.2422,71.3544162852255
2852.3907,67.56980751322064
2853.5385,74.78621621957268
2854.6857,70.45369880470994
2855.8323,72.32231092119873
2856.9781,72.7421075170683
2858.1233,78.36314281712495
2859.2679,82.7854703187538
2860.4118,88.60914273570866
2861.555,88.23421195388866
2862.6976,92.41072897310151
2863.8395,92.43874391081287
2864.9808,95.26830596038123
2866.1214,93.39946339077761
2867.2614,95.13226351829
2868.4007,96.76675272521177
2869.5393,95.50297644251376
2870.6773,99.74097913349925
2871.8146,106.13080430644183
2872.9513,108.42249447220537
2874.0874,107.06609108034567
2875.2227,114.86163449619372
2876.3574,109.45916401441946
2877.4915,113.15871778107665
2878.6249,115.51033284762744
2879.7577,114.01404513394691
2880.8898,118.61988940480674
2882.0212,122.27789928483824
2883.152,123.43810721247391
2884.2821,128.35054440336722
2885.4116,130.2152408387907
2886.5405,126.48222521651134
2887.6686,129.95152493214394
2888.7962,132.8731661164809
2889.923,134.84717360079955
2891.0493,126.1735708876456
2892.1748,129.8523801310929
2893.2997,128.4836222234798
2894.424,124.16731675862083
2895.5476,126.15348204549427
2896.6706,127.29213515140533
2897.7929,127.43329188212441
2898.9145,126.0269667705006
2900.0355,130.82317307505002
2901.1559,127.62192279401933
2902.2756,130.7732266174234
2903.3946,131.82709395905795
2904.513,128.78353292498645
2905.6308,126.34255030300132
2906.7479,127.35415159305992
2907.8643,123.66834103169393
2908.9801,124.13512158189364
2910.0953,121.25449496996592
2911.2098,121.32646168086649
2912.3236,125.10102098700614
2913.4368,125.92817094753121
2914.5494,122.00790837057777
2915.6613,123.04022880500023
2916.7725,120.12512657957394
2917.8831,118.31259479267193
2918.9931,118.55262534141599
2920.1024,109.34520893980198
2921.211,112.64033511629955
2922.319,110.73799230592633
2923.4264,108.63816781729648
2924.5331,109.84084785164436
2925.6391,106.89601752382262
2926.7445,107.80366085027552
2927.8493,108.16376077848707
2928.9534,109.02629917790478
2930.0569,110.39125683633867
2931.1597,109.90861345133575
2932.2619,115.57834761653046
2933.3634,108.0004368264713
2934.4643,114.27485741992324
2935.5645,114.95158465564704
2936.6641,116.7305926496548
2937.763,120.36185436844286
2938.8613,114.74534161120165
2939.959,115.08102497350303
2941.056,110.16887390346548
2942.1523,107.75885669839728
2943.248,102.60094055391798
2944.3431,94.24509158805853
2945.4375,89.29127489284059
2946.5313,83.28945461783485
2947.6244,76.88959401969927
2948.7169,69.74165552219738
2949.8087,70.09560078019676
2950.8999,60.60139075114843
2951.9904,56.10898569154751
2953.0803,48.46834525187523
2954.1696,47.829428521522985
2955.2582,44.84219410519873
2956.3462,42.95660012931614
2957.4335,38.77260427186706
2958.5202,42.84016378127725
2959.6062,36.509235518246484
2960.6916,39.42977591507292
2961.7764,42.20174103896239
2962.8605,41.22508656282301
2963.9439,43.9997677375455
2965.0267,42.325739401769724
2966.1089,40.95295595413795
2967.1905,41.831371370035015
2968.2714,40.91093921531626
2969.3516,39.09161263752335
2970.4312,37.87334437508851
2971.5102,38.7560867755279
2972.5885,42.53979180762427
2973.6662,40.524411052599525
2974.7432,40.95989566627773
2975.8196,39.84619639923885
2976.8954,39.28326359246397
2977.9705,42.22104718847218
2979.045,41.50949673695
2980.1188,42.6485613653735
2981.192,41.83818978612377
2982.2645,35.378330285096354
2983.3364,40.11893072980487
2984.4077,36.85993863397969
2985.4783,30.901301110161874
2986.5483,28.942964902293156
2987.6177,33.73487644530229
2988.6864,34.22698188468842
2989.7545,27.86922702860192
2990.8219,27.86155734292342
2991.8887,22.253918014841254
2992.9548,23.146253952928227
2994.0204,22.738509843217955
2995.0852,16.430630140281572
2996.1495,15.022559071305125
2997.2131,15.714240699168379
2998.276,16.355618936525545
2999.3383,16.196637538888467
3000.4,10.837240098212781
3001.4611,7.877370044487826
3002.5215,8.166970699330513
3003.5812,5.555985305584066
3004.6404,6.29435702442202
3005.6989,5.282028961458053
3006.7567,3.3689441593623357
3007.8139,1.055045607984745
3008.8705,1.2402762634857822
3009.9264,3.0745790714755117
3010.9818,2.057896965161227
3012.0364,0.6901728470044759
3013.0905,2.071349598887828
3014.1439,-1.04862990420785
3015.1966,-0.569822808015175
3016.2487,1.6077242175459858
3017.3002,2.5339701950855513
3018.3511,0.6088741311362327
3019.4013,1.782395006891079
3020.4509,-1.2455082025455866
3021.4998,-1.6248765398934069
3022.5481,0.594261394754902
3023.5958,-1.3881067661767688
3024.6428,0.7780066037928606
3025.6892,1.692602998331644
3026.735,1.4556839033273548
3027.7802,2.1172507877417743
3028.8247,1.5773051059799101
3029.8685,-0.4641517087257512
3030.9118,0.142881761084233
3031.9544,3.9484115697448843
3032.9963,1.6024437701624095
3034.0376,2.0049843757588945
3035.0783,2.356039383931993
3036.1184,3.45561477202957
3037.1578,-0.496283506160907
3038.1966,3.6003504685918912
3039.2348,4.445527573391537
3040.2723,2.089258649338092
3041.3092,1.4315544930763409
3042.3455,4.5724258803584945
3043.3811,0.9118835726212282
3044.4161,5.149938285576958
3045.4505,4.186600725819353
3046.4842,2.371881548442637
3047.5173,3.9057913666751176
3048.5498,2.638340770026346
3049.5816,5.169540308947994
3050.6128,6.2494005075083265
3051.6434,4.927931838080241
3052.6734,9.605144710542646
3053.7027,3.4810494854951273
3054.7314,6.455656427485863
3055.7594,1.728975766252546
3056.7868,4.351017666976311
3057.8136,9.571792277548568
3058.8398,8.441309702350562
3059.8653,9.959579950045622
3060.8902,9.026612944884025
3061.9145,8.992418511520228
3062.9381,8.757006384342603
3063.9612,6.920386207815319
3064.9835,12.082567538832542
3066.0053,10.143559865084548
3067.0264,7.80337255343597
3068.0469,9.912014869315886
3069.0668,10.369496000119629
3070.086,10.575825034122385
3071.1046,10.681010955904402
3072.1226,9.28506264428767
3073.1399,12.337988871284107
3074.1567,9.639798316055007
3075.1727,9.440499534381821
3076.1882,7.240100985648009
3077.203,8.488611034832065
3078.2173,9.736037974511483
3079.2308,5.632390012377638
3080.2438,5.327675258761573
3081.2561,7.321901767670415
3082.2678,7.215077539834546
3083.2789,7.857210502765355
3084.2893,3.8483085118234364
3085.2991,5.03837934379731
3086.3083,6.777430736992407
3087.3169,5.565470379330392
3088.3248,6.302505890958631
3089.3321,2.7385448363698046
3090.3388,6.32359471703154
3091.3449,2.8076630070260435
3092.3503,1.240757117199582
3093.3551,3.2228844303218125
3094.3593,5.154052316754836
3095.3629,3.334268114631911
3096.3658,4.7635391105457785
3097.3681,4.291872557746512
3098.3698,3.3192756618488133
3099.3708,4.545755585548687
3100.3713,2.771319458349385
3101.3711,6.44597436429661
3102.3702,4.569727359722883
3103.3688,5.092585436500993
3104.3667,7.664555540806468
3105.364,4.085644567889002
3106.3607,2.2058593363527343
3107.3568,3.275206623945376
3108.3522,5.193693186356047
3109.347,4.411325746521825
3110.3412,3.5281109754428748
3111.3348,4.244055500006091
3112.3277,3.8591659118173
3113.32,1.2734487600417452
3114.3117,3.3369105552530343
3115.3028,3.149557795290306
3116.2932,3.1113969446236034
3117.2831,3.522434436227382
3118.2723,3.6826766719621595
3119.2608,5.742130018464131
3120.2488,4.400800805542723
3121.2361,3.5586953055860953
3122.2229,3.2658197469744117
3123.209,2.8721803225009026
3124.1944,2.1777831923005806
3125.1793,2.982634487786676
3126.1635,2.6367403185945832
3127.1471,3.6901067645333647
3128.1301,2.5927398790446787
3129.1125,1.5946456786691243
3130.0942,-0.004169845980076303
3131.0753,2.046299279763833
3132.0558,4.196059072224358
3133.0357,5.645115527262032
3134.015,4.543474598776804
3134.9936,4.341142184217475
3135.9716,4.688124135598105
3136.949,5.8344262615213545
3137.9258,-0.21994567629135275
3138.902,4.025014025537153
3139.8775,0.5693132676413377
3140.8524,4.062959910405542
3141.8267,1.8559618085209877
3142.8004,6.348326776049305
3143.7735,3.840062608492506
3144.7459,4.831177037869363
3145.7178,2.3716777577980075
3146.689,1.7115724135848183
3147.6596,1.3508686268194054
3148.6295,3.63957400197566
3149.5989,4.477696130018774
3150.5676,3.6652425655182324
3151.5357,2.55222081826655
3152.5032,1.488638361403833
3153.4701,2.5245026425479864
3154.4364,1.1598210944305443
3155.402,0.8946011245380099
3156.367,0.028850128758676874
3157.3315,3.712575494034848
3158.2952,2.3457846070203363
3159.2584,5.428484817243209
3160.221,5.460683450773697
3161.1829,5.092387779397203
3162.1442,4.473605020292284
3163.105,1.7543423397136326
3164.065,6.634606859179883
3165.0245,2.814405682666262
3165.9834,5.8437458478019195
3166.9416,3.3226343640719485
3167.8993,5.151078182524001
3168.8563,4.229084220979388
3169.8127,1.8066593457486384
3170.7684,3.9338103808514617
3171.7236,2.6105441322409764
3172.6782,2.636867366532206
3173.6321,3.712786824234737
3174.5854,2.8383092194894957
3175.5381,5.663441229309541
3176.4902,2.938189502324848
3177.4417,5.312560630530983
3178.3926,5.036561176541623
3179.3428,4.660197649844861
3180.2924,5.283476509563183
3181.2415,3.6564041682171116
3182.1899,3.0789869854923957
3183.1377,4.851231284510757
3184.0848,3.3231433576040317
3185.0314,1.894729448591768
3185.9773,3.415995768062075
3186.9227,1.5869485076557819
3187.8674,6.057593824853759
3188.8115,3.9279378612673987
3189.755,3.8479866979321518
3190.6979,5.567746376604102
3191.6402,4.3372229005594605
3192.5818,6.156422217396985
3193.5229,7.375350231343212
3194.4633,7.594012785060457
3195.4031,1.4124156474575553
3196.3423,8.030564511503213
3197.2809,5.598465056041984
3198.2189,4.366122879612783
3199.1563,2.4835435247698854
3200.0931,6.60073249040634
3201.0292,7.817695250579765
3201.9648,8.334437213340463
3202.8997,4.500963708561793
3203.834,6.617279982772743
3204.7677,7.733391237492674
3205.7008,7.249302608068149
3206.6333,8.26501915251183
3207.5652,5.880545856343359
3208.4964,6.045887622432192
3209.4271,5.061049294842327
3210.3571,3.47603565717886
3211.2865,4.040851442436382
3212.2154,7.155501348849137
3213.1436,7.619990034242859
3214.0712,5.8343220848882655
3214.9982,5.698502010856181
3215.9246,7.662534263874211
3216.8503,2.7764232386849397
3217.7755,6.390173253405617
3218.7001,7.40378859838927
3219.624,5.717273500087195
3220.5473,6.0306321109128005
3221.4701,4.493868526106765
3222.3922,4.306986780603449
3223.3137,7.969990864398528
3224.2346,7.482884724417818
3225.1549,5.5956722278872215
3226.0746,6.4083571672038016
3226.9937,6.870943278807898
3227.9121,3.283434235056288
3228.83,5.1958336395963185
3229.7473,6.008145063240992
3230.6639,6.2203720248449805
3231.5799,6.632517983181499
3232.4954,7.594586334820053
3233.4102,8.856580410004966
3234.3244,6.8185034630347054
3235.238,8.030358659641935
3236.151,6.242149097374284
3237.0634,5.5038777934758025
3237.9752,6.215547702769051
3238.8864,8.327161725037817
3239.797,2.0387226979104067
3240.7069,6.100233375743514
3241.6163,6.5116964925066085
3242.5251,8.423114721166824
3243.4332,7.434490669574328
3244.3408,7.79582686134815
3245.2477,5.75712574576241
3246.154,7.26838969413296
3247.0598,7.079621020204401
3247.9649,6.090821965037435
3248.8694,4.701994698896552
3249.7733,8.71314133113803
3250.6766,9.824263924098197
3251.5793,12.285364452981973
3252.4814,9.296444794751633
3253.3829,6.257506703515816
3254.2838,7.368551840418707
3255.1841,7.729581804029435
3256.0838,7.340598119231604
3256.9829,9.701602233613013
3257.8814,7.412595521355472
3258.7792,9.723579259624774
3259.6765,7.034554651460761
3260.5731,9.245522802667475
3261.4692,6.656484748703419
3262.3647,8.46744143257187
3263.2595,7.378393730711251
3264.1538,6.0893424348855785
3265.0474,7.100288263074927
3265.9404,9.11123187236595
3266.8329,8.372173848842415
3267.7247,10.583114687475772
3268.616,8.044054799515736
3269.5066,8.904994490380872
3270.3966,7.565933985049202
3271.286,6.026873419448795
