RamanShift,CorrectedData
30.1047,6741.157982060539
32.3739,6292.295795572156
34.6426,5847.983541672191
36.9109,5400.8710900261085
39.1787,4959.308251819533
41.4461,4516.1947842293785
43.7131,4086.480394839474
45.9796,3643.564746071698
48.2456,3206.347459483123
50.5112,2768.3281201951713
52.7764,2333.306281265788
55.0411,1894.6814680696377
57.3054,1467.50318264832
59.5692,1042.8709080966196
61.8326,613.4341128342892
64.0955,197.14225485237193
66.3579,-224.75521399243007
68.6199,-622.1588438148366
70.8815,-986.3669394249808
73.1426,-1225.5715902661464
75.4032,-1138.355031975892
77.6634,-214.58725673159506
79.9231,2816.4231154561385
82.1824,10378.119608303396
84.4412,30543.245717362035
86.6995,57768.19483440271
88.9574,59378.910045763645
91.2148,58884.28386010107
93.4717,58403.258192282185
95.7282,57933.124368331286
97.9842,57467.02313024012
100.2398,57007.2946406692
102.4949,56543.178487608784
104.7495,56088.21368897622
107.0036,55623.93869725706
109.2573,55167.19140405472
111.5105,54714.80914473325
113.7632,54253.07870298478
116.0154,53789.986315353366
118.2672,53342.31767585226
120.5185,52882.507940594885
122.7693,52432.841732271474
125.0197,51974.65314474717
127.2696,51528.22574755874
129.519,51072.34259049637
131.7679,50616.286208068035
134.0163,50165.73862405827
136.2642,49716.28135608877
138.5117,49263.34542012386
140.7587,48821.761334965006
143.0052,48374.7091267803
145.2512,47938.118333520164
147.4967,47497.31800938795
149.7417,47056.03672920585
151.9863,46613.75259282285
154.2304,46170.29322952761
156.4739,45735.48580247122
158.717,45294.60701310191
160.9596,44856.13310551299
163.2017,44427.889870851744
165.4433,43995.50265170411
167.6844,43562.34634637713
169.925,43137.54541322286
172.1651,42711.973874969866
174.4047,42281.80532297126
176.6439,41853.712921460436
178.8825,41427.319411852746
181.1206,41005.847117026366
183.3582,40582.267945586354
185.5954,40168.70339607923
187.832,39748.57456122889
190.0681,39332.902132072195
192.3037,38916.95640216031
194.5388,38501.80727171535
196.7734,38091.474251789914
199.0075,37681.07646841854
201.2411,37273.28266672101
203.4742,36873.41121500639
205.7068,36464.43010885093
207.9389,36069.30697509678
210.1704,35664.25907594178
212.4015,35275.60331289075
214.632,34880.60623080593
216.862,34498.48402179353
219.0915,34114.8025291537
221.3205,33724.0772512018
223.549,33344.97334510513
225.777,32960.40563079025
228.0044,32570.438594733965
230.2314,32197.13639380908
232.4578,31819.462859184
234.6837,31436.431500055805
236.909,31057.455507426952
239.1339,30656.647757935607
241.3582,30297.470817645415
243.582,29901.93694605356
245.8053,29547.80809968253
248.0281,29197.94593603541
250.2503,28826.711817137235
252.472,28457.866813033586
254.6932,28103.971705502947
256.9139,27743.186991745148
259.134,27386.172887920337
261.3536,27034.58933275676
263.5727,26677.195991121
265.7912,26340.802257533753
268.0092,25997.36725974374
270.2267,25648.79986209172
272.4436,25308.758668944756
274.6601,24962.102028181944
276.8759,24632.1880345948
279.0913,24297.37453335384
281.3061,23958.969123307717
283.5204,23631.029160331338
285.7341,23299.961760709964
287.9473,22965.02380441859
290.16,22642.62193843258
292.3721,22330.262580077084
294.5837,22009.051920251084
296.7947,21691.69592655093
299.0052,21379.90034648253
301.2152,21064.620710634837
303.4246,20759.56233579784
305.6334,20454.830328115335
307.8418,20140.429586135535
310.0495,19839.36480385842
312.2568,19534.7904738797
314.4635,19236.960890401446
316.6696,18943.68015227784
318.8752,18642.052165993482
321.0802,18353.08064859618
323.2847,18063.569130713273
325.4887,17781.02095944128
327.692,17492.489301241105
329.8949,17210.077144763432
332.0972,16931.13730373406
334.2989,16647.072419778044
336.5001,16374.584965209098
338.7007,16098.377245870164
340.9008,15828.50140385842
343.1003,15558.359420287255
345.2992,15291.553117985095
347.4976,15024.034164196819
349.6955,14762.804073251777
351.8927,14501.814209239019
354.0895,14235.365788619572
356.2856,13992.95988283636
358.4812,13743.947420978671
360.6763,13491.779192206253
362.8707,13246.755848239372
365.0646,12997.327905880557
367.258,12754.895749464784
369.4508,12511.009633353773
371.643,12266.41968436032
373.8346,12038.375904187153
376.0257,11803.528171872793
378.2162,11574.276246072019
380.4062,11340.619767404365
382.5956,11111.308260746635
384.7844,10891.491137569472
386.9726,10674.667698230456
389.1603,10455.537134172293
391.3474,10202.548530091051
393.5339,10024.450866127489
395.7199,9820.543020396894
397.9052,9609.773770770058
400.09,9403.641796912358
402.2743,9200.195682391466
404.4579,9001.983916738682
406.641,8798.804897483344
408.8235,8602.006932135017
411.0054,8406.538240215268
413.1868,8205.946955225649
415.3675,8009.931126602372
417.5477,7824.238721722155
419.7273,7645.167627862495
421.9064,7449.715654058527
424.0848,7273.630532893709
426.2627,7086.859922454365
428.4399,6911.401408090533
430.6166,6730.952504283632
432.7928,6562.410656401124
434.9683,6393.023242500938
437.1432,6223.737575016981
439.3176,6063.200902452947
441.4914,5902.560411075181
443.6645,5740.96322651807
445.8371,5575.956415390414
448.0091,5419.186986891422
450.1806,5272.851894460815
452.3514,5123.898037346487
454.5216,4961.722262067844
456.6913,4821.671363905327
458.8603,4678.442088522177
461.0288,4538.031133364944
463.1967,4402.735149095781
465.3639,4263.000740996533
467.5306,4124.824470321742
469.6967,3988.502855695937
471.8622,3858.9823744954265
474.0271,3729.359464211535
476.1914,3593.7805237457724
478.3551,3470.041914706111
480.5182,3353.5899627627514
482.6807,3242.5209588854705
484.8426,3128.3311605082563
487.0039,3008.366792639863
489.1647,2881.774049005762
491.3248,2773.799093247755
493.4843,2670.6880601899684
495.6432,2559.487056918566
497.8015,2446.292163812861
499.9592,2340.899435657324
502.1163,2244.954902773541
504.2728,2154.004572074111
506.4287,2065.044428022091
508.5839,1970.5204335405288
510.7386,1874.6285309019804
512.8927,1777.0146426738647
515.0461,1691.7246726772719
517.199,1605.1045069632528
519.3512,1520.8500146656515
521.5029,1439.707048867327
523.6539,1366.921447442648
525.8043,1285.2890338689685
527.9541,1208.6056179544248
530.1033,1140.0669966543428
532.2519,1071.618954837977
534.3999,1003.5572659740137
536.5472,941.4276928149266
538.694,882.7259880776546
540.8401,813.9478950649282
542.9856,744.089148252242
545.1305,681.9454739756547
547.2748,625.6125911303097
549.4185,574.9862117919256
551.5615,519.6620417800805
553.704,476.730042802119
555.8458,434.9749851415181
557.987,389.1268765486748
560.1276,347.31137937383755
562.2675,305.350268589762
564.4069,267.41184952847107
566.5456,232.76137707279122
568.6837,202.6114346611139
570.8212,166.1222804456629
572.958,136.15214849041513
575.0942,108.95761329776724
577.2299,87.74388921010541
579.3648,72.46510208323161
581.4992,56.424501211513416
583.6329,30.924611962858762
585.766,5.0173960243701
587.8985,-16.695493853781954
590.0304,-55.8124550452485
592.1616,-63.881718135751726
594.2922,-88.75095614457678
596.4222,-96.01720391269919
598.5515,-113.57660965895775
600.6802,-126.37436239048111
602.8083,-132.2545164840485
604.9358,-139.45986383654235
607.0626,-151.93187512225995
609.1888,-170.3606278114894
611.3144,-172.03468157509633
613.4393,-179.64089418131334
615.5636,-176.8144047719543
617.6873,-186.5385578762871
619.8103,-181.29493164770975
621.9327,-183.81324071949348
624.0544,-177.72138858857215
626.1756,-179.19544245765428
628.2961,-184.15969409278478
630.4159,-181.83664509761002
632.5351,-181.79695732046093
634.6537,-183.40947606159898
636.7716,-180.39123046971508
638.8889,-181.5574174328649
641.0056,-176.47143173070071
643.1216,-163.49485438436386
645.237,-157.5375034653698
647.3518,-139.30756373168697
649.4659,-131.4116461416561
651.5793,-121.65496997104492
653.6922,-116.99144169335341
655.8043,-111.62375244891882
657.9159,-104.8534246335621
660.0268,-91.9308655218847
662.137,-83.1054349027836
664.2466,-81.07649164587929
666.3556,-63.29339378961595
668.4639,-46.60549856170837
670.5716,-27.91216255692416
672.6786,-17.962741903946153
674.785,-6.906592452309269
676.8907,12.356930128073145
678.9958,34.2284702363977
681.1002,41.40867214828177
683.204,48.74817979708314
685.3072,74.34763670212851
687.4097,95.8076858952918
689.5115,107.22896966500412
691.6127,135.71212934158393
693.7132,157.15780518312386
695.8131,160.61663609057723
697.9123,189.88925939339242
700.0109,207.47631081484724
702.1089,238.57842417934444
704.2061,262.1962312365649
706.3028,282.93036135037255
708.3987,307.68144126271363
710.4941,332.7000948862478
712.5887,358.33694305687095
714.6827,386.1426032835152
716.7761,418.01768949173857
718.8688,442.76281174573523
720.9608,465.3285759295759
723.0522,492.91558349977277
725.1429,523.0744312595343
727.233,554.6057110829934
729.3224,583.5100096135284
731.4112,615.7879079485065
733.4993,648.039981350179
735.5867,685.3167989230278
737.6735,713.7189232911187
739.7596,748.7969102253992
741.845,786.8513083595899
743.9298,819.0326588395255
746.014,859.3414949425205
748.0974,887.6283417556187
750.1802,921.4437157724897
752.2624,960.2881246105026
754.3439,996.0120666726361
756.4247,1030.9160307589773
758.5048,1079.3504957095283
760.5843,1119.4159300550818
762.6631,1156.7627915329795
764.7413,1203.3415266864104
766.8188,1243.4525704909902
768.8956,1282.4463458889295
770.9718,1330.3232633879452
773.0473,1369.9337206713099
775.1221,1419.7781021190603
777.1962,1464.3567784119077
779.2697,1505.2701060328181
781.3426,1536.5184268212324
783.4147,1599.902067563933
785.4862,1652.071339682545
787.557,1697.1265385997249
789.6271,1743.0679432174147
791.6966,1793.745815466311
793.7654,1845.3103998464721
795.8335,1900.5119229204865
797.901,1951.4505927978898
799.9678,1997.3265985830803
802.0339,2054.2401098659684
804.0993,2097.1912762632637
806.1641,2162.1802268492684
808.2282,2217.507069726489
810.2916,2268.821891375628
812.3544,2329.774756102357
814.4164,2383.1657055241085
816.4778,2436.544757960619
818.5385,2498.11190790002
820.5986,2558.2671254650268
822.658,2613.6603557971903
824.7166,2677.841518455447
826.7747,2736.210506862153
828.832,2794.3171876612832
830.8886,2852.6614001347043
832.9446,2918.8429556211267
834.9999,2987.2616369326715
837.0545,3043.6171976930564
839.1085,3111.65936165343
841.1618,3177.137822128774
843.2143,3242.1522413175626
845.2662,3311.352249646916
847.3175,3373.187445122472
849.368,3443.20739263633
851.4179,3516.7116233487905
853.467,3582.249633988118
855.5155,3650.7708861155406
857.5633,3718.874805469786
859.6105,3791.0107812819188
861.6569,3860.9281655942323
863.7027,3932.476272538959
865.7478,4005.7543776391176
867.7922,4075.861717092972
869.8359,4151.897487041315
871.8789,4224.210842866349
873.9212,4274.750898431383
875.9629,4375.966725357619
878.0039,4454.757352518769
880.0441,4533.1717650289065
882.0837,4609.758903454509
884.1226,4690.417663030399
886.1609,4764.846892893831
888.1984,4835.895395277927
890.2352,4925.511924767343
892.2714,4984.895187587819
894.3069,5081.093840710026
896.3416,5152.356491255654
898.3757,5224.381695535514
900.4091,5207.917958336882
902.4418,5400.7637322032315
904.4739,5452.417417598888
906.5052,5541.9273609805605
908.5358,5577.34185428085
910.5658,5618.309134013107
912.595,5704.6273809173
914.6236,5494.544719550278
916.6515,5955.9592174227
918.6786,5688.6688870997605
920.7051,5918.921681587126
922.7309,5932.115497003746
924.756,6094.9981702794175
926.7804,6037.217479022802
928.8041,5734.2211398926665
930.8272,6166.456809175637
932.8495,6252.772085816156
934.8711,6036.264507094158
936.892,5870.631547761863
938.9123,6125.670622208876
940.9318,6018.579086118458
942.9506,6035.004233917192
944.9688,6183.093299845925
946.9862,5641.893457795479
949.003,5994.8018198258
951.019,5482.815441577899
953.0344,5750.231318744831
955.0491,5747.1963921915085
957.063,6061.257545280576
959.0763,6241.811603902737
961.0888,5868.955333336118
963.1007,6327.68543644077
965.1119,6428.798557387221
967.1223,6147.59127706915
969.1321,6697.510112092292
971.1412,6213.351517586474
973.1495,6068.3618817064635
975.1572,6468.13753047357
977.1641,6325.174729225437
979.1704,6322.769678618381
981.1759,6498.018516057018
983.1808,6181.767315718316
985.1849,6393.06208679908
987.1884,6711.748776678462
989.1911,7139.073268805012
991.1932,6170.881379509818
993.1945,6618.9688537332695
995.1951,7029.431374706968
997.1951,6437.71455947285
999.1943,6403.8639547785715
1001.1928,6210.825042994671
1003.1906,6507.9932424530925
1005.1877,5671.363909377527
1007.1841,5497.582334911785
1009.1798,5636.2937534860175
1011.1748,5621.643344554541
1013.1691,5447.326231208768
1015.1627,3862.687480323708
1017.1556,4469.172104301171
1019.1477,4792.225076916133
1021.1392,4132.491327251875
1023.1299,3313.015736469468
1025.12,3987.1431444050686
1027.1093,3584.618357764739
1029.0979,3677.336143383094
1031.0859,3615.9412322485878
1033.0731,3026.8783185763386
1035.0596,3297.992060422075
1037.0454,3252.877085572756
1039.0304,2846.277988835456
1041.0148,2287.489332488498
1042.9985,2333.8556503474465
1044.9814,2715.071453353019
1046.9636,2155.9312291073657
1048.9452,2156.229438061957
1050.926,2172.260519108968
1052.9061,2140.96888957826
1054.8855,2251.748945077168
1056.8642,1934.2450598033756
1058.8421,1953.1015854370344
1060.8194,1960.5628543159182
1062.7959,1832.373179246737
1064.7717,2113.2768534306597
1066.7469,1981.1681517451507
1068.7213,2038.941327934932
1070.695,1904.1406159330727
1072.6679,1591.010229283238
1074.6402,1677.6443624877502
1076.6117,1586.0871941388177
1078.5826,1620.5328860522422
1080.5527,1670.8255841830032
1082.5221,1738.5094182807297
1084.4908,2002.278501386856
1086.4587,2113.476929157703
1088.426,2344.598777226827
1090.3925,2248.288100093043
1092.3584,2200.5389288091756
1094.3235,1825.5952719452325
1096.2879,1714.3511160658527
1098.2515,1695.2004294797443
1100.2145,1739.337163352131
1102.1767,1673.8552518962024
1104.1382,1910.1486119317851
1106.099,2035.5611435402025
1108.0591,2150.0867277012585
1110.0185,2082.969225039211
1111.9771,2324.6024746775
1113.9351,1987.430294909871
1115.8923,1592.9964807840515
1117.8488,1247.3948074734653
1119.8045,778.7690342216301
1121.7596,700.6629077981197
1123.7139,568.4201671848132
1125.6675,558.7845443570186
1127.6204,794.9497656058666
1129.5726,693.5595516346657
1131.524,794.5076151972607
1133.4748,888.9876621118892
1135.4248,876.993390251766
1137.3741,964.5184886002462
1139.3226,933.3066373707916
1141.2705,938.0015071316811
1143.2176,752.9967591181266
1145.164,798.9360451853354
1147.1097,888.7630096585854
1149.0546,953.2212888737486
1150.9989,867.6545102791206
1152.9424,712.2562917907853
1154.8852,553.5702426482967
1156.8272,396.4899649686922
1158.7686,438.60905533333425
1160.7092,277.52110635870486
1162.6491,206.21970627520204
1164.5883,365.1484405380179
1166.5267,414.20089254016784
1168.4644,595.870642023212
1170.4014,718.9012645867551
1172.3377,1128.7363298716882
1174.2732,1287.1194003298879
1176.2081,1469.744027125933
1178.1421,1623.3537485532288
1180.0755,1869.842088207748
1182.0082,1755.852553451994
1183.9401,1742.5786329500406
1185.8713,1541.2137978075043
1187.8017,1359.351501704201
1189.7315,1181.0351829078645
1191.6605,765.9082660927088
1193.5888,528.0141641226073
1195.5163,506.04628220235463
1197.4432,338.5980202566134
1199.3693,275.8627731496308
1201.2947,142.68393235965777
1203.2193,69.3548866063793
1205.1432,185.01902318262
1207.0664,185.2697286876937
1208.9889,226.7003878707401
1210.9106,265.8543836282115
1212.8316,282.8250965895786
1214.7519,420.15590472580516
1216.6715,363.34018317960727
1218.5903,393.5213028921353
1220.5084,342.2926311711926
1222.4257,427.8975313893825
1224.3424,198.22936349636439
1226.2583,268.3814831628624
1228.1735,354.4472440773243
1230.0879,409.3699972443719
1232.0016,555.293090124178
1233.9146,604.1098660832504
1235.8269,472.4636629351444
1237.7384,455.74781245236227
1239.6492,251.6056416827778
1241.5592,189.28047311679984
1243.4686,9.515626728796633
1245.3772,-32.54557939968072
1247.285,-93.80982728225354
1249.1922,-215.43347380217892
1251.0986,-97.77193868259201
1253.0042,-180.17848946624872
1254.9092,-109.10541695421125
1256.8134,3.0467880355281522
1258.7169,209.0787246480977
1260.6196,358.140991998167
1262.5216,591.5341871096534
1264.4229,738.9589034250603
1266.3234,918.0157284715751
1268.2232,972.0552423868139
1270.1223,940.978016128247
1272.0207,957.2846109328166
1273.9183,934.875578627747
1275.8151,861.4514614674263
1277.7113,840.3627923575041
1279.6067,660.710095589151
1281.5014,518.3438870499012
1283.3953,410.11467602023913
1285.2885,367.7229665971972
1287.181,284.16925877666654
1289.0727,395.1540488773753
1290.9637,394.77783037635527
1292.854,563.6410927991456
1294.7435,707.7443217234904
1296.6323,922.1379970907656
1298.5204,1233.1225917649062
1300.4077,1584.8985693885188
1302.2943,1813.0663812729908
1304.1802,1956.3264628807592
1306.0653,1920.7792315436163
1307.9497,1842.5250850301018
1309.8333,1815.7644019009895
1311.7162,1795.9975422918287
1313.5984,1975.9748481805655
1315.4798,2076.596643585188
1317.3605,2242.3132327639323
1319.2405,2505.724899209068
1321.1197,2584.0819039897688
1322.9982,2519.6844831179696
1324.876,2634.132846764791
1326.753,2564.827179904554
1328.6293,2693.8176411702443
1330.5048,2809.7043635466107
1332.3796,2767.987453080248
1334.2537,2789.516987720708
1336.127,2747.493017737681
1337.9996,2739.9155655057184
1339.8714,2683.9346259244558
1341.7426,2586.200166494411
1343.6129,2662.7121278767518
1345.4826,2620.1704248706483
1347.3515,2694.3249456481644
1349.2196,2639.9255521796695
1351.087,2651.172079492302
1352.9537,2764.764336213946
1354.8197,2899.1521044607907
1356.6849,3152.035138701409
1358.5493,3206.863164412869
1360.4131,3236.7358755519053
1362.276,3151.9029340066118
1364.1383,3021.7639692977355
1365.9998,2741.1185794270095
1367.8606,2490.766332178533
1369.7206,2268.956767925236
1371.5799,2141.289402132399
1373.4384,1984.0137275757588
1375.2962,1970.9292156181582
1377.1533,1641.235317782328
1379.0096,1370.1814658817202
1380.8652,1105.617075317441
1382.7201,888.5415477887946
1384.5742,705.2542739389173
1386.4275,548.5546355255465
1388.2802,345.34200725390474
1390.132,235.91575834367177
1391.9832,264.77525456113653
1393.8336,143.31985931345116
1395.6832,112.04893336003079
1397.5322,98.41183602712408
1399.3803,87.3079255205048
1401.2278,-75.11344093815569
1403.0745,-4.752907000256528
1404.9204,-71.56036593392855
1406.7656,-27.13566352579437
1408.6101,-36.727930674427625
1410.4538,-19.43602719313276
1412.2968,27.89155401679818
1414.139,6.856514219958626
1415.9805,90.06055440206546
1417.8213,105.1553754802735
1419.6613,321.792677471145
1421.5006,496.5741593397215
1423.3391,782.8515168331032
1425.1769,1119.2264407326802
1427.0139,1653.450613991332
1428.8502,2294.575708369677
1430.6858,2907.103379093838
1432.5206,3298.535258444179
1434.3547,3657.672949630047
1436.188,3776.8680228754347
1438.0206,3787.27201182763
1439.8524,3567.0864123652354
1441.6835,3521.762682494158
1443.5139,3430.752244549458
1445.3435,3386.1064856485536
1447.1724,3357.726758601384
1449.0005,3333.36438235682
1450.8279,3242.4206422864954
1452.6545,3297.696790428432
1454.4804,3351.2440463964413
1456.3056,3350.8635968273884
1458.13,3291.4065948456882
1459.9536,3162.7741600671325
1461.7766,2850.3673791934707
1463.5987,2364.8373072987306
1465.4202,2012.984970953301
1467.2409,1677.3613730792058
1469.0608,1476.9674964686164
1470.88,1264.354307140111
1472.6984,1043.0727563425862
1474.5161,855.3237826814257
1476.3331,722.508314331295
1478.1493,618.4272709136458
1479.9648,544.5315648248834
1481.7795,511.67210227713804
1483.5935,542.0497840372445
1485.4067,443.86550575532965
1487.2192,460.7701576610307
1489.031,479.21462554531536
1490.842,475.149790591513
1492.6522,488.3265291907701
1494.4618,449.2457129827926
1496.2705,428.2582087240189
1498.0785,457.514878678423
1499.8858,459.26658082741415
1501.6924,450.7141685772731
1503.4981,459.90849074164
1505.3032,508.8503916270165
1507.1075,512.3907109408392
1508.911,530.7302833020622
1510.7138,492.56993820573916
1512.5159,460.8104998396411
1514.3172,421.052787465851
1516.1178,339.54761573834185
1517.9176,398.2457951005963
1519.7166,372.4481326005953
1521.515,354.25543130387086
1523.3126,406.9184905514885
1525.1094,375.9381061419881
1526.9055,364.31506980470294
1528.7008,323.0501695096209
1530.4954,231.7441895835509
1532.2893,272.34791112283347
1534.0824,216.16211290636056
1535.8747,304.0875709895554
1537.6663,251.62505926624
1539.4572,273.6753485893714
1541.2473,286.4392072956616
1543.0367,297.8174009850736
1544.8253,231.7106923932006
1546.6132,272.369841277472
1548.4003,231.59560507821152
1550.1867,312.68873851206445
1551.9723,350.09999397974025
1553.7572,386.2301207550481
1555.5414,386.27986461082037
1557.3247,408.19996745757817
1559.1074,457.2411673430761
1560.8893,519.8541982330826
1562.6705,562.5897895209746
1564.4509,655.4986654015993
1566.2305,702.3815444439242
1568.0094,887.2891386619267
1569.7876,996.3721530457588
1571.565,1096.381283712708
1573.3417,1172.9672168163452
1575.1176,1204.980627546447
1576.8928,1193.972179363118
1578.6672,1096.592523676678
1580.4409,995.1922999577291
1582.2138,910.9721367109923
1583.986,786.3826524892538
1585.7575,742.124456735597
1587.5282,583.3481510292877
1589.2981,600.1543295283736
1591.0673,535.4935805574241
1592.8358,564.7164864394726
1594.6035,561.9736241426363
1596.3704,530.6655649878921
1598.1366,542.2928746764737
1599.9021,587.8561136029602
1601.6668,595.3058367390404
1603.4308,675.9425931778387
1605.194,722.5669260594441
1606.9564,824.6293717645203
1608.7182,876.0304594480804
1610.4791,1041.2207100188461
1612.2394,1231.6506356252503
1613.9988,1367.2207380035252
1615.7576,1630.481506573422
1617.5156,1894.333417082511
1619.2728,2181.0269289735406
1621.0293,2408.9124827459564
1622.785,2490.8904970889344
1624.54,2424.5613666025492
1626.2942,2325.275460977962
1628.0477,2022.3831256607482
1629.8005,1817.2346828437367
1631.5525,1570.18043449592
1633.3037,1380.8206644139755
1635.0542,1252.3056406927644
1636.804,1087.2856176189634
1638.553,1038.1108369562025
1640.3013,1011.081529595278
1642.0488,913.8479160458701
1643.7955,930.8102067068539
1645.5416,943.2686028386306
1647.2868,1035.1732963935174
1649.0313,1085.1744698911498
1650.7751,1255.5222954994424
1652.5181,1412.7169345345756
1654.2604,1615.408535757495
1656.0019,1963.1972338020023
1657.7427,2361.4331471478145
1659.4828,2771.266374642699
1661.222,3005.496991520089
1662.9606,3088.5750453007677
1664.6984,2994.300553450561
1666.4354,2749.5235025495494
1668.1717,2339.9938492348083
1669.9072,1874.9115226481808
1671.642,1508.6764285315876
1673.3761,1252.6384538778257
1675.1094,995.897470592965
1676.8419,843.1033380566878
1678.5737,699.2059056897124
1680.3048,619.2550144817469
1682.0351,529.8504984304382
1683.7646,437.3421853409054
1685.4934,400.37989771975117
1687.2215,350.4634537001839
1688.9488,282.792667411617
1690.6754,280.26734947883597
1692.4012,272.6373076987293
1694.1263,246.152347065512
1695.8506,273.31226984703244
1697.5742,237.3168758496322
1699.297,188.6659621465442
1701.0191,141.20932343783716
1702.7404,121.99675253694659
1704.461,98.82804084521558
1706.1808,78.35297854402597
1707.8999,92.02135482648737
1709.6182,94.38295810220006
1711.3358,93.03757586054053
1713.0527,89.9349946470793
1714.7688,90.9250000769971
1716.4841,31.057376866148843
1718.1987,84.08190882113195
1719.9126,69.3983794379892
1721.6257,68.8565713719563
1723.338,88.80626658428992
1725.0496,-29.80275365230773
1726.7605,-3.5207089532032114
1728.4706,6.852478795735806
1730.18,-29.383077119477093
1731.8886,7.572736518653983
1733.5964,-2.429673535434631
1735.3036,21.110099396970327
1737.0099,8.342486267001732
1738.7156,33.2679178147082
1740.4204,-22.7131753032736
1742.1246,-22.800362762991426
1743.8279,-8.392987335866565
1745.5306,24.209835982295772
1747.2325,34.15907604161475
1748.9336,26.705701450131528
1750.634,24.000680474293404
1752.3336,33.694981113498216
1754.0325,33.78957112715034
1755.7307,46.93541793771692
1757.4281,92.73348862977218
1759.1247,109.23474981854633
1760.8206,116.39016719193387
1762.5158,131.50070534549377
1764.2102,100.117327710881
1765.9039,95.2409964047456
1767.5968,127.12267254256767
1769.289,120.81331628743465
1770.9804,114.01388653121103
1772.6711,165.32534095763367
1774.361,140.64863611030887
1776.0502,154.93472687959184
1777.7386,194.8345667493577
1779.4263,149.4491076541508
1781.1132,197.42929958018613
1782.7994,165.37609101919224
1784.4849,174.19042848860227
1786.1696,189.47325685211217
1787.8535,180.6255192315257
1789.5367,166.99815685393878
1791.2192,192.2421091402084
1792.9009,155.80831384121666
1794.5818,197.64770678541572
1796.2621,210.31122224319188
1797.9415,229.49979250844808
1799.6202,203.21434777198192
1801.2982,233.95581592959206
1802.9755,248.87512284494187
1804.6519,279.52319204214473
1806.3277,229.80094455656763
1808.0027,264.90929862834673
1809.6769,267.5491701996161
1811.3504,261.67147256342105
1813.0231,273.6771163373178
1814.6951,270.3670095221478
1816.3664,308.4920573819927
1818.0369,337.5031624772655
1819.7067,335.0012242834673
1821.3757,325.2871389010652
1823.044,325.36179908052327
1824.7115,345.02609431944256
1826.3783,330.2309108618156
1828.0443,318.22713150137497
1829.7096,328.2156357295589
1831.3741,383.7472998555313
1833.0379,365.47299690630825
1834.701,346.3435960714396
1836.3633,391.5099628857406
1838.0248,390.92295942060446
1839.6856,384.0334438323225
1841.3457,416.44227036795746
1843.005,407.6502894342484
1844.6636,446.35834727352085
1846.3214,404.96728605160024
1847.9785,443.87794347074305
1849.6349,478.1911531835249
1851.2904,456.1077444037455
1852.9453,458.67854156330577
1854.5994,486.504364533037
1856.2528,505.0860285969957
1857.9054,495.7743441742059
1859.5572,540.0701166328327
1861.2083,539.8741463833194
1862.8587,578.58722843541
1864.5084,542.2601524001184
1866.1572,529.8937021025922
1867.8054,513.838655945392
1869.4528,551.9957870321396
1871.0994,518.4658633280833
1872.7453,560.5996472785137
1874.3905,575.6478961440771
1876.0349,534.4613615794315
1877.6786,590.040789482764
1879.3215,611.4369204076502
1880.9637,591.7004890072712
1882.6051,614.932223820435
1884.2458,601.2328474689657
1885.8858,568.5030764253625
1887.525,595.3436211498138
1889.1634,592.8551864174806
1890.8011,609.5384710500966
1892.4381,605.094167940857
1894.0743,608.6229638875702
1895.7098,621.6255396371034
1897.3446,639.2025698501129
1898.9786,613.0047229709926
1900.6118,628.6326610521246
1902.2443,600.7870400158426
1903.8761,596.3685094981538
1905.5071,559.5277131272069
1907.1374,563.3152885674644
1908.7669,586.7818678881249
1910.3957,614.2280775252384
1912.0237,599.5045380470383
1913.651,581.2118638794836
1915.2776,575.650663453498
1916.9034,539.0215393878934
1918.5285,534.0250885449786
1920.1528,503.26190239685275
1921.7764,563.1325670753649
1923.3992,552.4876636797544
1925.0213,491.32776767792893
1926.6427,477.503449012931
1928.2633,451.4152727145283
1929.8832,499.6137990374573
1931.5023,473.0995837223054
1933.1207,459.5231775135326
1934.7383,492.085126424603
1936.3552,470.8859718737531
1937.9714,466.07625035837737
1939.5868,450.006493667006
1941.2015,394.1272289274257
1942.8154,417.38897876735246
1944.4286,387.9422618732333
1946.041,380.0375927576333
1947.6528,339.62548205369603
1949.2637,389.10643659419657
1950.8739,367.48095981566803
1952.4834,360.79955126358254
1954.0921,378.41270680860725
1955.7001,368.82091871341436
1957.3074,378.4746754565531
1958.9139,354.3244618283825
1960.5197,354.42075883451434
1962.1247,341.0640439373201
1963.729,309.354791054966
1965.3325,282.29347069497817
1966.9353,301.38055027134214
1968.5374,273.91649437511296
1970.1387,281.0517645835407
1971.7393,280.33681973472085
1973.3392,287.7721158562308
1974.9383,273.7581061722831
1976.5366,268.19524102936884
1978.1342,257.183968036401
1979.7311,265.27473212034056
1981.3273,261.7179756363166
1982.9227,271.01413828671684
1984.5173,237.01365715675456
1986.1112,204.46696662150134
1987.7044,241.77449868589974
1989.2968,231.63668331023837
1990.8885,251.9039480370593
1992.4795,250.6267180925497
1994.0697,259.20541618385687
1995.6592,250.34046251186555
1997.2479,236.58227468540827
1998.8359,229.68126780992134
2000.4232,229.487854625022
2002.0097,209.8524455735169
2003.5955,177.77544880334062
2005.1805,232.20727036391145
2006.7648,228.1983145268896
2008.3484,236.79898324186797
2009.9312,254.15967617645583
2011.5133,225.6807906302747
2013.0946,237.01272136136322
2014.6752,257.0558608709507
2016.2551,247.8605992901521
2017.8342,245.62732417952247
2019.4126,195.60642062101215
2020.9902,174.39827124030307
2022.5672,192.90325670701714
2024.1433,201.12175594679138
2025.7188,207.55414595623552
2027.2935,216.40080172075068
2028.8674,177.61209615019652
2030.4406,206.33839999043448
2032.0131,168.63008221120435
2033.5849,182.03750971886257
2035.1559,177.3110477334685
2036.7261,206.25105965471812
2038.2957,184.75790710919136
2039.8645,175.48194966096344
2041.4325,212.57354502653834
2042.9998,200.0330491675977
2044.5664,208.16081592009323
2046.1323,196.85719711965066
2047.6974,192.92254252028943
2049.2617,208.60719990745565
2050.8254,220.86151513737786
2052.3883,214.98583198021515
2053.9504,218.63049199751913
2055.5118,207.54583460097638
2057.0725,182.23219701597918
2058.6325,213.33991439246893
2060.1917,216.81932005805538
2061.7502,215.2207452069597
2063.3079,210.29451886521565
2064.8649,172.14096790664553
2066.4212,171.56041710213321
2067.9767,201.3031895011536
2069.5315,195.3696064375872
2071.0856,176.60998723228295
2072.6389,181.17464925240165
2074.1915,159.5139080990084
2075.7433,125.1280775614141
2077.2945,128.01746983380144
2078.8448,128.28239585906886
2080.3945,133.47316529994623
2081.9434,155.89008653633664
2083.4916,156.2834666134131
2085.039,118.65361101745475
2086.5857,134.0508236719079
2088.1317,150.97540731368736
2089.677,123.22766333920754
2091.2215,105.60789163513255
2092.7652,140.01639085584884
2094.3083,144.65345859966692
2095.8506,156.96939106473837
2097.3921,173.26448300267475
2098.933,185.8890275954036
2100.4731,169.34331629221015
2102.0124,182.27763868348666
2103.5511,164.79228266619975
2105.089,178.33753431453988
2106.6261,174.71367805477075
2108.1626,193.12099652979305
2109.6983,188.35977063536484
2111.2332,205.88027933603462
2112.7675,185.63279971276097
2114.301,191.96760678769806
2115.8337,190.73497372668226
2117.3657,187.43517177587546
2118.897,215.2684702740935
2120.4276,203.68513668580908
2121.9575,168.48543632281144
2123.4866,198.06963246004125
2125.0149,198.2879866875919
2126.5426,185.89075861485708
2128.0695,181.77820586835696
2129.5956,195.35058421570466
2131.1211,198.10814760673838
2132.6458,186.00114803779707
2134.1698,194.0798355241368
2135.693,184.69445822100715
2137.2155,199.09526234285931
2138.7373,219.68249225720592
2140.2584,200.35639034060932
2141.7787,191.71719677281453
2143.2983,200.21514973000558
2144.8171,179.95048547120132
2146.3353,176.77343825326807
2147.8527,183.88424053356994
2149.3693,182.23312300173802
2150.8853,178.87031450856648
2152.4005,173.0460420825184
2153.9149,197.06053096336473
2155.4287,182.96400466041632
2156.9417,206.90668471237677
2158.454,184.83879082831209
2159.9655,195.9105406482231
2161.4764,193.22214996372531
2162.9865,175.37383260733077
2164.4958,170.96580047933458
2166.0045,162.69826372629177
2167.5124,186.12143078510599
2169.0195,216.6855084657027
2170.526,225.3407017167956
2172.0317,198.23721332024616
2173.5367,202.32524380451196
2175.0409,212.45499171567917
2176.5445,211.27665357658861
2178.0473,198.59042378553568
2179.5494,197.74649462805064
2181.0507,200.59505640376392
2182.5513,180.13629743483943
2184.0512,189.47040403749088
2185.5504,179.3475607265791
2187.0488,164.2679501222574
2188.5465,169.7317530512055
2190.0435,173.8891486974244
2191.5397,168.64031454759333
2193.0353,193.73542634950718
2194.5301,153.8246581645608
2196.0241,159.50818211679962
2197.5175,160.68616879202455
2199.0101,119.15878718095883
2200.502,143.47620466746957
2201.9931,121.38858744383742
2203.4835,129.4461002675871
2204.9733,124.04890668235657
2206.4622,129.5471689373244
2207.9505,122.1910480411816
2209.438,109.3307037071454
2210.9248,134.66629442652993
2212.4109,112.69797759734138
2213.8962,119.0259092709257
2215.3809,111.5502443716523
2216.8648,113.32113663363543
2218.3479,115.78873867548737
2219.8304,109.70320198261379
2221.3121,104.9646768825396
2222.7931,108.22331260575538
2224.2733,91.87925733311658
2225.7529,95.98265816325147
2227.2317,91.23366127599729
2228.7098,95.53241189137043
2230.1872,85.12905431704894
2231.6638,111.4737319053911
2233.1397,81.2165871574689
2234.6149,117.00776145961936
2236.0894,91.9973953860208
2237.5632,91.23562834077347
2239.0362,60.32259880800939
2240.5085,85.15844435950385
2241.9801,93.44330196380997
2243.4509,74.87730773789553
2244.921,88.41059686429799
2246.3904,74.79330377678434
2247.8591,86.02556202501273
2249.3271,73.15750441071759
2250.7943,63.28926287537979
2252.2608,70.42096862890503
2253.7266,72.10275224830912
2255.1917,71.58474360640321
2256.656,50.56707185497271
2258.1197,32.39986542995484
2259.5826,51.13325226161851
2261.0447,50.867359956234395
2262.5062,62.902315608744175
2263.9669,66.13824580541768
2265.4269,80.62527650350512
2266.8862,76.46353299886778
2268.3448,81.30313978112645
2269.8026,96.64422057527008
2271.2598,90.63689829326358
2272.7162,85.48129488063205
2274.1719,87.1775313765338
2275.6268,73.02572796532058
2277.0811,85.22600395956397
2278.5346,101.37847794158097
2279.9874,95.23326764143167
2281.4395,110.69048977539478
2282.8908,90.45026010742004
2284.3414,99.21269329455572
2285.7914,105.82790308935091
2287.2406,95.94600225222985
2288.689,94.46710248534328
2290.1368,122.74131453138762
2291.5838,103.16874818839096
2293.0302,105.0995120269763
2294.4758,80.73371358608438
2295.9206,77.5714593536677
2297.3648,93.66285501034145
2298.8082,110.10800546101291
2300.251,82.50701467395811
2301.693,102.50998551637804
2303.1343,109.61702003040227
2304.5748,101.32821923306346
2306.0147,81.24368304522159
2307.4538,77.51351037445602
2308.8922,89.88779931591489
2310.3299,97.3166471896102
2311.7669,82.05015041667866
2313.2031,96.08840444509315
2314.6387,75.08150390232731
2316.0735,69.8295424549733
2317.5076,104.73261301881303
2318.941,98.39080781132907
2320.3737,103.15421800267995
2321.8056,96.72293377912047
2323.2369,96.54704429537287
2324.6674,100.62663773892655
2326.0972,87.61180133180187
2327.5263,102.75262128975919
2328.9547,82.14918295243842
2330.3823,92.90157063195693
2331.8092,103.6098678189419
2333.2355,91.07415707501059
2334.661,87.04451992568647
2336.0858,99.32103698575156
2337.5098,94.35378799954105
2338.9332,80.94285171818137
2340.3558,83.3883059492664
2341.7778,88.94022769095409
2343.199,84.34869310752856
2344.6195,94.96377747387305
2346.0393,86.3855552213845
2347.4583,94.06409983181584
2348.8767,90.09948392306978
2350.2943,98.3917791724034
2351.7113,127.44105635608321
2353.1275,106.54738526645997
2354.543,91.01083442147501
2355.9578,100.03147127359534
2357.3718,95.5593623651821
2358.7852,79.39457323828265
2360.1978,83.93716847935684
2361.6098,93.88721188092222
2363.021,92.69476639612549
2364.4315,96.85989403924032
2365.8413,99.63265589760249
2367.2504,106.86311208994903
2368.6587,86.55132173868878
2370.0664,82.04734289759472
2371.4733,76.65123275493352
2372.8795,76.56304767850452
2374.285,67.03284326959329
2375.6899,66.36067436386384
2377.0939,52.396595126655484
2378.4973,69.09065905970692
2379.9,53.2429191407964
2381.3019,69.85342765679252
2382.7032,56.072236362141666
2384.1037,56.9993963127572
2385.5035,64.88495800383225
2386.9027,64.57897136056818
2388.3011,69.63148565931533
2389.6987,69.9425495306341
2391.0957,45.11221090877552
2392.492,38.79051702857123
2393.8876,25.277514673730366
2395.2824,44.823250240065136
2396.6765,50.777769870616794
2398.07,22.791119260191863
2399.4627,33.71334359582306
2400.8547,33.29448783662792
2402.246,18.88459660459239
2403.6366,22.983714188757858
2405.0265,14.391884689322069
2406.4156,23.05915197665672
2407.8041,13.185559777213712
2409.1918,33.72115158685574
2410.5789,16.41597076959215
2411.9652,22.37006035222248
2413.3508,21.88346319738912
2414.7358,18.606221944033223
2416.12,30.83837901226525
2417.5035,26.87997663613396
2418.8863,37.43105674130629
2420.2684,29.641660984652844
2421.6497,11.311830648736759
2423.0304,20.84160671970494
2424.4104,23.58103007058753
2425.7896,5.830141365999225
2427.1682,10.838981034747121
2428.546,15.257589447341616
2429.9232,18.536006865904255
2431.2996,25.97427339998285
2432.6753,33.122428973766546
2434.0503,33.93051325170427
2435.4246,17.298565567020432
2436.7982,4.7266249136341685
2438.1711,9.714730112480993
2439.5433,17.862919937232164
2440.9148,9.621233064412081
2442.2856,7.589707991916839
2443.6557,3.3183831214309976
2445.025,-1.2427032212553968
2446.3937,10.406487256464516
2447.7617,17.516005261804366
2449.1289,10.185901397911948
2450.4955,21.616226092779925
2451.8613,40.5070296725421
2453.2265,34.00836224716841
2454.5909,20.970273521562376
2455.9546,39.39281286054529
2457.3177,35.226029419238785
2458.68,38.76997195883905
2460.0416,32.92468888828307
2461.4025,55.39022822881361
2462.7627,43.26663767242553
2464.1222,55.853964357212135
2465.4811,34.65225498860491
2466.8392,32.411555713495545
2468.1966,51.631912332256434
2469.5533,48.66337032114643
2470.9093,59.45597464010734
2472.2645,67.05976976244938
2473.6191,67.22479956692132
2474.973,53.7511072616785
2476.3262,50.83873538262924
2477.6787,45.03772592817222
2479.0305,41.14812038832042
2480.3816,46.219959802713674
2481.7319,51.853284799510675
2483.0816,36.598135544672914
2484.4306,37.75455168563349
2485.7789,38.77257250384355
2487.1264,33.55223690321009
2488.4733,33.84358339991513
2489.8195,45.246650174619845
2491.165,30.711475069553217
2492.5097,24.838095474478905
2493.8538,36.226548472046034
2495.1972,24.776870896524997
2496.5398,20.9890992199239
2497.8818,20.26326966648412
2499.2231,23.149418250554845
2500.5637,12.497580783855483
2501.9035,37.45779284661103
2503.2427,25.080089894071534
2504.5812,25.21450700690957
2505.919,30.461079014996812
2507.256,48.569840496061715
2508.5924,46.990825723222315
2509.9281,35.32406848389928
2511.2631,45.319602095607934
2512.5974,34.37745952262276
2513.9309,36.34767327602367
2515.2638,34.78027552311687
2516.596,36.52529806773191
2517.9275,30.382772365897836
2519.2583,24.652729508393804
2520.5884,18.985200282171718
2521.9178,17.380215227657573
2523.2465,32.1878046954248
2524.5745,36.30799886224531
2525.9018,24.59082758301429
2527.2284,19.836320349549624
2528.5543,44.29450640776486
2529.8796,35.41541480521073
2531.2041,34.59907414649615
2532.5279,45.99551268207733
2533.851,43.60475831642043
2535.1735,51.52683849403729
2536.4952,35.511780223390815
2537.8163,44.15960999767958
2539.1366,42.97035395498369
2540.4562,40.14403779178838
2541.7752,49.08068677487745
2543.0935,48.93032576959604
2544.411,58.59297915048364
2545.7279,73.91867080277825
2547.0441,68.60742402578899
2548.3596,77.90926137963834
2549.6744,62.174204738377284
2550.9885,52.802275196961546
2552.3019,67.49349322860826
2553.6146,83.24787877851259
2554.9266,86.71545111693513
2556.2379,77.04622868166052
2557.5485,78.84022904331778
2558.8585,72.64746900207547
2560.1677,70.26796456970033
2561.4762,87.80173103148718
2562.7841,87.64878297005089
2564.0913,89.40913408999131
2565.3977,98.43279721942326
2566.7035,86.56978429237142
2568.0086,96.87010625853463
2569.313,107.88377320191421
2570.6167,94.91079423781048
2571.9197,103.1511774026867
2573.222,97.45492978389757
2574.5236,117.02205743728928
2575.8246,112.80256544415488
2577.1248,117.14645771557252
2578.4244,122.50373703459263
2579.7232,114.22440501280198
2581.0214,125.2584620367511
2582.3189,138.35590735074948
2583.6157,134.56673894651885
2584.9118,152.14095343222561
2586.2072,139.67854607036952
2587.5019,138.12951060203977
2588.7959,139.89383937154253
2590.0893,149.17152334188768
2591.3819,167.16255207714948
2592.6739,152.21691364968729
2593.9652,152.63459446023444
2595.2557,154.6655793873565
2596.5456,164.1598517832731
2597.8348,156.31739345355027
2599.1234,159.48818456215713
2600.4112,164.02220370989016
2601.6983,162.01942790266367
2602.9848,165.42983250617135
2604.2705,160.55339126591343
2605.5556,162.19007627309156
2606.84,151.0898580133735
2608.1237,169.0527053505284
2609.4067,162.62858563742702
2610.689,160.56746453641517
2611.9707,158.2193060835516
2613.2516,145.93407270922353
2614.5319,142.6117252616259
2615.8115,149.6022231296106
2617.0903,134.50552427591765
2618.3685,142.67158516726295
2619.6461,149.05036092530827
2620.9229,151.99180524500343
2622.199,155.39587033079306
2623.4745,154.06250686720614
2624.7493,157.44166398481502
2626.0234,144.83328927356843
2627.2968,147.78732874899924
2628.5695,144.45372697830862
2629.8415,150.13242705082394
2631.1128,145.52337061133585
2632.3835,129.6264978033123
2633.6535,142.7417473149876
2634.9228,141.3690565383331
2636.1914,146.9583614379021
2637.4593,154.40959656455925
2638.7265,152.97269499958657
2639.9931,152.59758828017175
2641.259,135.9842064137756
2642.5242,150.13247788188414
2643.7887,137.04232980614233
2645.0525,145.56368780687149
2646.3156,134.39647613396892
2647.5781,131.19061758169755
2648.8398,136.14603360035517
2650.1009,143.06264432833495
2651.3613,159.79036854256947
2652.6211,129.37912358936637
2653.8801,140.77882521713127
2655.1385,149.43938788047944
2656.3961,140.56072462623843
2657.6531,144.04274700684323
2658.9094,142.08536516912272
2660.1651,128.78848781948136
2661.42,139.15202224346717
2662.6743,148.52587443874768
2663.9279,156.2099490114722
2665.1808,162.25414908253174
2666.433,170.00837621071832
2667.6846,163.72253033228276
2668.9354,169.84650968339292
2670.1856,162.8302108629914
2671.4351,168.72352877155754
2672.6839,169.72635668126918
2673.9321,172.48858617707015
2675.1795,163.31010714664194
2676.4263,170.5408077527818
2677.6724,176.28057452518578
2678.9179,176.22929228814291
2680.1626,187.83684410313663
2681.4067,174.25311126935844
2682.6501,181.87797320763116
2683.8928,173.66130759624798
2685.1348,184.40299029472408
2686.3761,183.20289542596356
2687.6168,178.4608952688411
2688.8568,176.97686027020427
2690.0961,158.05065909229188
2691.3348,161.38215862757602
2692.5727,159.12122418802278
2693.81,158.86771947177772
2695.0466,146.97150658577516
2696.2826,145.23244604827232
2697.5178,148.9503969078121
2698.7524,142.22521676061274
2699.9863,160.90676171339146
2701.2195,166.294886450612
2702.452,157.0394440476714
2703.6839,172.99028591701858
2704.9151,170.0472619007087
2706.1456,172.7102201108935
2707.3755,183.6290069592535
2708.6046,175.75346713036697
2709.8331,194.63344347252382
2711.0609,193.41877707647927
2712.2881,197.95930708665537
2713.5145,206.35487071328816
2714.7403,221.40530318701985
2715.9654,224.4104376749442
2717.1899,241.82010513010232
2718.4136,254.23413426143225
2719.6367,269.25235135967046
2720.8591,273.5745801732144
2722.0809,269.2006417579373
2723.3019,292.5303544339681
2724.5223,304.16353382943
2725.7421,289.3999926471429
2726.9611,297.38954054829287
2728.1795,299.2819843000673
2729.3972,286.827127695758
2730.6142,271.1747715358383
2731.8306,255.72471375250962
2733.0462,245.27674956622673
2734.2612,219.280671640199
2735.4756,206.28627018486804
2736.6892,190.69333321787008
2737.9022,173.60164669397864
2739.1145,156.66099466103492
2740.3262,152.22115943086374
2741.5372,130.53192174868127
2742.7475,119.29306083749316
2743.9571,108.40435461498646
2745.1661,93.61557980591851
2746.3744,96.47651205100374
2747.582,87.83692605480132
2748.7889,72.04659555710623
2749.9952,63.85529341934512
2751.2008,57.21279178247846
2752.4057,57.11886214891547
2753.61,42.373275448936056
2754.8136,42.92580204163346
2756.0165,36.97621186236802
2757.2188,40.27427441724353
2758.4204,34.419758842602505
2759.6213,35.06243387204631
2760.8215,34.30206789497879
2762.0211,25.988428950180833
2763.22,20.071284733412995
2764.4182,21.350402680551497
2765.6158,28.125550026761175
2766.8127,26.24649379370385
2768.009,-1.4369992782142162
2769.2045,5.324837288949766
2770.3994,14.08178432876025
2771.5936,4.53362262153405
2772.7872,-6.519867193229857
2773.9801,-7.878904521367076
2775.1723,-14.39364363524055
2776.3639,-7.16416009695763
2777.5548,-15.840385676126743
2778.745,-15.572180572396292
2779.9346,-18.159246739961418
2781.1235,-14.35113056693558
2782.3117,-19.8471970305568
2783.4992,-10.046667740271005
2784.6861,-19.648566032024746
2785.8723,-13.001814875556647
2787.0579,-0.3551409514293482
2788.2428,5.192858947924151
2789.427,16.443591577927236
2790.6106,6.648463642077104
2791.7935,15.658881679434899
2792.9757,30.97625216257734
2794.1573,44.85198140749412
2795.3382,46.0874754204126
2796.5184,58.18413975904127
2797.698,61.39337952021492
2798.8769,85.06659921892765
2800.0551,98.0552027562403
2801.2327,106.91059318254906
2802.4096,121.0841725676978
2803.5859,140.77734191242598
2804.7615,179.54150100663105
2805.9364,178.17804823243955
2807.1106,217.88838017656462
2808.2842,238.173891643939
2809.4572,273.93597526061194
2810.6294,324.12602127089644
2811.801,338.745417179746
2812.972,377.8955472508537
2814.1423,428.82779236045894
2815.3119,483.1935296058489
2816.4808,515.8941317960325
2817.6491,566.5809669080836
2818.8167,614.6553977601357
2819.9837,656.3687815045132
2821.15,701.4224691469894
2822.3157,739.6678051296487
2823.4807,787.5061268803515
2824.645,842.8387644302827
2825.8086,873.8170399355652
2826.9716,920.6922671239347
2828.134,953.615750984959
2829.2957,981.588787301281
2830.4567,1027.0626623193887
2831.617,1011.8886524698814
2832.7767,1021.0680239127335
2833.9358,1039.802032689034
2835.0941,1025.5419246291917
2836.2519,1014.988935165597
2837.4089,998.4942894752207
2838.5653,998.5092025851445
2839.7211,1009.3848795375075
2840.8761,994.1225153893581
2842.0306,1012.0732951038972
2843.1843,1054.6883937030998
2844.3374,1112.5689760882094
2845.4899,1153.5161966135859
2846.6417,1233.9811985079002
2847.7928,1308.7651134646626
2848.9433,1396.8190608375714
2850.0931,1471.6941468926748
2851.2422,1555.4414639278318
2852.3907,1619.4620895239618
2853.5385,1673.0570857075693
2854.6857,1736.1774983105402
2855.8323,1799.2243564341898
2856.9781,1853.9486718180601
2858.1233,1898.1514382094476
2859.2679,1914.1836308161644
2860.4118,1971.796205864508
2861.555,2014.440100438941
2862.6976,2048.716231905965
2863.8395,2071.325497487681
2864.9808,2095.8187739190294
2866.1214,2110.5969172216937
2867.2614,2123.560762459173
2868.4007,2129.161123588997
2869.5393,2138.1987933330893
2870.6773,2168.9245431217605
2871.8146,2168.6391230033378
2872.9513,2186.6432613368993
2874.0874,2170.687664795134
2875.2227,2160.0730181842996
2876.3574,2149.099984603776
2877.4915,2102.2192055522155
2878.6249,2078.331301037268
2879.7577,2058.0368700443946
2880.8898,2032.0864907757432
2882.0212,2005.7307208530917
2883.152,1996.0200975773564
2884.2821,2000.555138192146
2885.4116,1991.036339980868
2886.5405,1998.2141802213805
2887.6686,1992.7391162811782
2888.7962,2005.2615855456136
2889.923,2014.5820054726491
2891.0493,2015.1507734676327
2892.1748,1997.1182667900914
2893.2997,2039.0348425480458
2894.424,2037.200837878335
2895.5476,2053.4165695274505
2896.6706,2090.182333869875
2897.7929,2116.498406745929
2898.9145,2147.2650430941103
2900.0355,2177.782476687932
2901.1559,2189.40091982826
2902.2756,2246.0705630381353
2903.3946,2274.49157494659
2904.513,2295.8641017219516
2905.6308,2332.7382667876336
2906.7479,2355.6641706084065
2907.8643,2374.441890321661
2908.9801,2375.7714795081456
2910.0953,2405.4029680041904
2911.2098,2398.4863618884115
2912.3236,2388.0716431853957
2913.4368,2388.508769934867
2914.5494,2355.397676295831
2915.6613,2340.8882725422104
2916.7725,2304.430445393949
2917.8831,2305.07405816211
2918.9931,2245.168951113452
2920.1024,2237.964941463995
2921.211,2211.0118239780686
2922.319,2201.0093710403535
2923.4264,2184.1073329254123
2924.5331,2168.3054378977167
2925.6391,2142.2533923806623
2926.7445,2144.200881114594
2927.8493,2147.2475674173215
2928.9534,2137.793093164647
2930.0569,2131.087078759897
2931.1597,2124.279123228467
2932.2619,2099.8188042848833
2933.3634,2106.6556784008817
2934.4643,2112.6392810500074
2935.5645,2096.1191266392516
2936.6641,2062.394708449212
2937.763,2012.0654987992962
2938.8613,1959.980949384965
2939.959,1906.9904917810247
2941.056,1830.2935379624714
2942.1523,1748.289480834398
2943.248,1666.477694998962
2944.3431,1570.7575375754266
2945.4375,1467.9783490182772
2946.5313,1375.2394540744265
2947.6244,1279.0401628110017
2948.7169,1179.529771542738
2949.8087,1086.4075637939698
2950.8999,995.3728112937335
2951.9904,905.5747749069908
2953.0803,846.1627055449758
2954.1696,780.4858450631739
2955.2582,721.1434268554447
2956.3462,677.6346765107899
2957.4335,646.0588124067765
2958.5202,611.1150461446266
2959.6062,581.152582864974
2960.6916,573.5206215973028
2961.7764,552.7183555595716
2962.8605,538.9949722345348
2963.9439,525.9996535777627
2965.0267,516.1815761548771
2966.1089,504.5899112715033
2967.1905,509.7738250714515
2968.2714,503.5824786526325
2969.3516,513.8150280152204
2970.4312,516.3706241235645
2971.5102,516.5984128038647
2972.5885,518.4475347186153
2973.6662,526.8171253643263
2974.7432,526.5563150530336
2975.8196,521.2142288286029
2976.8954,518.6899864693362
2977.9705,509.13270254139434
2979.045,508.39148642403893
2980.1188,486.86544240520357
2981.192,479.40366968890817
2982.2645,458.80526261051887
2983.3364,446.3193107113665
2984.4077,411.9448989447292
2985.4783,391.23110780069237
2986.5483,361.8270136498935
2987.6177,327.98168895065953
2988.6864,299.89420254304764
2989.7545,260.51361998729794
2990.8219,238.2890038447091
2991.8887,201.06941407144313
2992.9548,188.10390824077206
2994.0204,157.84154191527455
2995.0852,134.53136877649013
2996.1495,111.72244092754443
2997.2131,90.813809126249
2998.276,74.45452301319199
2999.3383,57.64363132082394
3000.4,46.63018203705087
3001.4611,32.16322257334241
3002.5215,28.341799874868002
3003.5812,12.664960565164847
3004.6404,3.531750984351902
3005.6989,0.6412173459002588
3006.7567,-1.4075941720369656
3007.8139,-10.465637397717956
3008.8705,-4.933852097534896
3009.9264,-5.413073486163057
3010.9818,-12.854087489094582
3012.0364,-18.80762595521935
3013.0905,-14.37429232109298
3014.1439,-6.804502135087887
3015.1966,-7.848527346397077
3016.2487,-2.4565719272370643
3017.3002,3.8712385569630214
3018.3511,13.784803081927294
3019.4013,10.184020584667792
3020.4509,11.468789864348878
3021.4998,21.339009618295677
3022.5481,32.244578429145804
3023.5958,27.83539466614775
3024.6428,34.76135637610457
3025.6892,33.57236132746607
3026.735,49.81830694106861
3027.7802,48.44909030202609
3028.8247,56.06460799726938
3029.8685,58.064756129238845
3030.9118,72.34943023972949
3031.9544,74.21852528988836
3032.9963,83.62193551736948
3034.0376,87.85955441764258
3035.0783,110.43127464995791
3036.1184,117.6869879949719
3037.1578,122.77658512902849
3038.1966,132.3999555516018
3039.2348,124.40698753440051
3040.2723,125.54756802513464
3041.3092,136.2715827274443
3042.3455,137.87891608949394
3043.3811,134.06945119673253
3044.4161,134.49306975582022
3045.4505,133.69965213272292
3046.4842,142.28907734847667
3047.5173,135.311223087121
3048.5498,126.36596560980479
3049.5816,124.35317982456525
3050.6128,119.32273937577975
3051.6434,116.12451666429399
3052.6734,121.30838289772714
3053.7027,113.87420812245318
3054.7314,111.77186117176234
3055.7594,112.80120974020326
3056.7868,107.71212040460637
3057.8136,116.10445861379003
3058.8398,111.1280887394521
3059.8653,107.9828739922458
3060.8902,102.068676471544
3061.9145,97.63535719689105
3062.9381,95.13277616714458
3063.9612,99.8607924048091
3064.9835,93.16926398106182
3066.0053,94.35804796847208
3067.0264,87.42700050791677
3068.0469,85.42597679669302
3069.0668,85.55483115782829
3070.086,74.26341706009032
3071.1046,75.10158711669919
3072.1226,67.01919319824083
3073.1399,60.916086424285595
3074.1567,58.292117244212704
3075.1727,50.947135498240186
3076.1882,49.53099044366547
3077.203,39.84353082831501
3078.2173,36.78460490470536
3079.2308,29.304060526917965
3080.2438,25.00174518118888
3081.2561,20.227506060713324
3082.2678,14.83119010866983
3083.2789,13.962644065961399
3084.2893,7.171714525179539
3085.2991,8.508247939289845
3086.3083,0.5720906895409144
3087.3169,3.9130890720993534
3088.3248,0.43108937741129694
3089.3321,0.025937856791813374
3090.3388,5.4474764549729
3091.3449,0.7955468575672171
3092.3503,-4.43000930428758
3093.3551,-6.529350407408913
3094.3593,-0.5025905728221005
3095.3629,-2.899778693341432
3096.3658,-2.1709586409017447
3097.3681,-3.216145318648728
3098.3698,0.16466805814872032
3099.3708,-2.7784795964869318
3100.3713,-3.745551013567649
3101.3711,5.713518832905777
3102.3702,-2.3511676130131036
3103.3688,4.060492035594109
3104.3667,-2.9013763461898066
3105.364,4.963353076113037
3106.3607,-2.2951648782698157
3107.3568,-1.9267754397441763
3108.3522,4.268699089981226
3109.347,7.091455657683866
3110.3412,9.591691167454428
3111.3348,5.269602452469201
3112.3277,9.925386249988037
3113.32,10.459239244574803
3114.3117,3.8713580215399475
3115.3028,5.911939061601629
3116.2932,10.031178806764672
3117.2831,9.279273639914834
3118.2723,14.156419843626281
3119.2608,18.31281360768054
3120.2488,13.148650980294917
3121.2361,16.664127826558683
3122.2229,20.159439880075013
3123.209,19.234782707805778
3124.1944,23.44035167511862
3125.1793,29.126341955033183
3126.1635,23.642948486166233
3127.1471,25.590365915870905
3128.1301,28.51878865507183
3129.1125,25.62841085878813
3130.0942,30.119426396851793
3131.0753,35.09202888281055
3132.0558,38.54641162901811
3133.0357,35.732767596908104
3134.015,37.50128936245022
3134.9936,34.552169144286324
3135.9716,37.43559878604577
3136.949,34.251769785836245
3137.9258,38.45087326740952
3138.902,38.483100011999795
3139.8775,43.54864041633266
3140.8524,41.24768449230271
3141.8267,47.230421816318426
3142.8004,52.79704155231144
3143.7735,50.39773239190902
3144.7459,57.682682498768486
3145.7178,49.45207953256977
3146.689,51.50611057616658
3147.6596,51.99496221789161
3148.6295,59.2688205310169
3149.5989,54.82787106886474
3150.5676,52.67229879206931
3151.5357,63.25228811298612
3152.5032,61.46802291724799
3153.4701,62.16968645796493
3154.4364,63.55746137356664
3155.402,65.68152968078638
3156.367,65.09207276078263
3157.3315,66.58927133789888
3158.2952,65.17330548555796
3159.2584,66.59435461129016
3160.221,66.10259747089302
3161.1829,67.54821215422047
3162.1442,73.93137609010066
3163.105,70.00226603187974
3164.065,78.66105799359028
3165.0245,73.30792728924223
3165.9834,74.4930484462352
3166.9416,80.1165952588895
3167.8993,75.87874077659501
3168.8563,75.67965724757576
3169.8127,74.76951616126854
3170.7684,77.14848825031373
3171.7236,78.51674349965649
3172.6782,83.12445112275725
3173.6321,86.27177954790892
3174.5854,91.00889637216002
3175.5381,91.7859683298413
3176.4902,88.75316124519463
3177.4417,94.66064002460232
3178.3926,87.95856868691504
3179.3428,88.0471103043773
3180.2924,95.67642706964793
3181.2415,91.34668029491473
3182.1899,95.35803033560137
3183.1377,97.76063663366469
3184.0848,98.75465767748139
3185.0314,96.19025097782176
3185.9773,104.6175730579096
3186.9227,105.58677947906634
3187.8674,107.29802475643771
3188.8115,108.90146234930177
3189.755,109.59724464395657
3190.6979,110.13552293768552
3191.6402,108.56644743179963
3192.5818,115.79016722625478
3193.5229,111.85683033534232
3194.4633,114.16658361545205
3195.4031,114.6195728044055
3196.3423,118.16594249835829
3197.2809,117.95583614727047
3198.2189,119.7393960194427
3199.1563,124.21676320361723
3200.0931,125.28807759114257
3201.0292,127.50347783119955
3201.9648,119.96310132008836
3202.8997,127.61708417907435
3203.834,128.015561329792
3204.7677,131.70866641770496
3205.7008,127.4965318081214
3206.6333,138.0292885492629
3207.5652,136.05706641438576
3208.4964,140.17999379645343
3209.4271,143.14819772785867
3210.3571,137.11180383919447
3211.2865,142.3709363295717
3212.2154,139.97571802698337
3213.1436,142.22627033571305
3214.0712,144.77271326028716
3214.9982,149.16516538296952
3215.9246,141.4037438382968
3216.8503,146.73856426915398
3217.7755,147.7697409043887
3218.7001,156.547386505463
3219.624,154.57161235614154
3220.5473,154.49252817471506
3221.4701,156.06024213375832
3222.3922,154.7248608609207
3223.3137,155.98648942324925
3224.2346,161.4952313405424
3225.1549,161.4011885727338
3226.0746,163.85446146480461
3226.9937,162.35514874772423
3227.9121,165.2533475139175
3228.83,167.94915323225766
3229.7473,165.8426597190845
3230.6639,172.28395911124642
3231.5799,168.82314188716506
3232.4954,169.76029680242254
3233.4102,178.74551092436963
3234.3244,179.32886962275398
3235.238,180.16045647986826
3236.151,174.34035328471637
3237.0634,182.71864002469772
3237.9752,179.44539494380797
3238.8864,179.02069445885667
3239.797,185.49461319219913
3240.7069,185.1172239759839
3241.6163,185.33859778741333
3242.5251,188.75880375251754
3243.4332,183.87790914394068
3244.3408,194.64597934673893
3245.2477,191.91307790718932
3246.154,193.72926642510902
3247.0598,192.4446045811846
3247.9649,194.50915011880974
3248.8694,195.6729588569322
3249.7733,196.73608466940823
3250.6766,200.94857947336445
3251.5793,201.21049321856668
3252.4814,197.6718738452949
3253.3829,199.9827672817241
3254.2838,208.1432174793106
3255.1841,205.20326638968302
3256.0838,205.61295388303773
3256.9829,208.47231777753848
3257.8814,202.03139383521938
3258.7792,207.34021573339132
3259.6765,207.29881512905126
3260.5731,207.85722160579405
3261.4692,208.5654626742262
3262.3647,209.77356376638215
3263.2595,210.2815482286416
3264.1538,214.63943730964854
3265.0474,214.7972501552315
3265.9404,211.80500376482448
3266.8329,211.41271298988906
3267.7247,216.37039056383668
3268.616,215.2780471059516
3269.5066,210.13569107181414
3270.3966,212.94332876422413
3271.286,207.2009643846245
