RamanShift,CorrectedData
30.1047,6554.764911707273
32.3739,6126.964457577985
34.6426,5703.713937901046
36.9109,5279.313225859165
39.1787,4859.312137597905
41.4461,4442.310436469701
43.7131,4019.657837233859
45.9796,3599.9540102265837
48.2456,3180.0485855874954
50.5112,2757.891157456672
52.7764,2346.3312881737047
55.0411,1936.8185124992724
57.3054,1518.8523417307392
59.5692,1113.1822677972837
61.8326,698.4077674395605
64.0955,295.82830626640185
66.3579,-106.15665709743814
68.6199,-502.79766698548804
70.8815,-856.4442072262725
73.1426,-1132.9907386996229
75.4032,-1135.4731664077426
77.6634,-525.066076775357
79.9231,1687.617287149742
82.1824,7293.218927729866
84.4412,19268.430830451158
86.6995,40832.29490786756
88.9574,52623.802879848736
91.2148,55661.89605794138
93.4717,56092.56522745416
95.7282,55984.800617076784
97.9842,55672.54189457331
100.2398,55224.3781678598
102.4949,54739.19798812689
104.7495,54274.18935432146
107.0036,53694.88971799839
109.2573,53350.08598797069
111.5105,52740.464536102445
113.7632,52323.81120075694
116.0154,51910.961292892775
118.2672,51575.29960023046
120.5185,51097.0603913809
122.7693,50643.627419202
125.0197,50035.983925581066
127.2696,49901.862645969115
129.519,49399.04581545736
131.7679,49118.36517011837
134.0163,48324.95195203426
136.2642,48041.586912103514
138.5117,47785.200317975105
140.7587,47244.621956882125
143.0052,46805.28113820569
145.2512,46215.95669888068
147.4967,45999.67700778916
149.7417,45518.31997165367
151.9863,45101.513037199955
154.2304,44531.78319597056
156.4739,44179.156988492934
158.717,43919.06050997667
160.9596,43365.31941383981
163.2017,42763.30891430979
165.4433,42502.95379196084
167.6844,41983.87839973415
169.925,41624.50666554133
172.1651,41076.76209745525
174.4047,40755.667787303675
176.6439,40293.29641614679
178.8825,39761.920257488084
181.1206,39577.26118189809
183.3582,39103.84066232815
185.5954,38634.22977595696
187.832,38250.44920892488
190.0681,37705.61926102995
192.3037,37565.30984956572
194.5388,37398.840514769625
196.7734,36377.38042122596
199.0075,36568.94835953065
201.2411,36045.01275650582
203.4742,35911.69167328414
205.7068,35477.902810548156
207.9389,35083.21350986352
210.1704,34691.44075801686
212.4015,34481.70119096268
214.632,33934.261097741124
216.862,33784.5864225753
219.0915,33321.742770345736
221.3205,32941.5454080871
223.549,32768.30926961663
225.777,32392.648959336144
228.0044,32107.678753964323
230.2314,31706.712606293437
232.4578,31393.614148038952
234.6837,31040.99669384921
236.909,30902.57324443646
239.1339,30217.356490102986
241.3582,30020.408812125377
243.582,29648.14228960668
245.8053,29289.018701445835
248.0281,28953.09953006036
250.2503,28658.595964977605
252.472,28207.568906193927
254.6932,27938.478967119736
256.9139,27538.18647908978
259.134,27396.90149405405
261.3536,26860.58378858064
263.5727,26664.742865268672
265.7912,26274.937958111448
268.0092,25980.37803445485
270.2267,25688.971798895407
272.4436,25273.12769622587
274.6601,25036.05391434927
276.8759,24759.50838843739
279.0913,24376.248803301496
281.3061,24093.582596157765
283.5204,23775.716960459926
285.7341,23474.80884872588
287.9473,23242.664975716376
290.16,22882.09182144412
292.3721,22650.39563349515
294.5837,22284.932430634624
296.7947,21947.158005123776
299.0052,21785.377926374545
301.2152,21445.39754432733
303.4246,21199.171991068768
305.6334,20879.256184231534
307.8418,20452.25482945663
310.0495,20145.92242359255
312.2568,19836.31325896528
314.4635,19536.931426441573
316.6696,19307.480818525073
318.8752,19050.465132350153
321.0802,18550.137871976345
323.2847,18394.952350958607
325.4887,18106.061697350517
327.692,17801.118855256165
329.8949,17599.37658771903
332.0972,17242.487479771436
334.2989,17022.103940451918
336.5001,16803.828206374208
338.7007,16329.81234393095
340.9008,16207.90825147654
343.1003,15972.967664067284
345.2992,15776.242154680462
347.4976,15401.53313656366
349.6955,15199.441865202098
351.8927,14908.819442065687
354.0895,14757.516816629948
356.2856,14492.38478928223
358.4812,14345.424012834737
360.6763,13931.184995175878
362.8707,13872.268100739813
365.0646,13542.723554648917
367.258,13308.901443302864
369.4508,12977.351717674144
371.643,12926.874195646262
373.8346,12629.018565329185
376.0257,12424.684385564186
378.2162,12180.22108890234
380.4062,11782.077983647927
382.5956,11719.004256303022
384.7844,11491.248975548973
386.9726,11329.011092877096
389.1603,11118.989444866253
391.3474,10754.03275480526
393.5339,10657.389634793057
395.7199,10290.308589388289
397.9052,10148.288016575701
400.09,9990.326211436994
402.2743,9936.221367570994
404.4579,9579.371578673286
406.641,9451.674839077321
408.8235,9336.379047322807
411.0054,9185.432007432799
413.1868,9080.981430066618
415.3675,8836.924934029237
417.5477,8654.31004731587
419.7273,8493.984209552546
421.9064,8312.044773822185
424.0848,8152.489008267898
426.2627,8038.714097912365
428.4399,7688.467146253366
430.6166,7329.045176401567
432.7928,7349.995134582976
434.9683,7042.913893733166
437.1432,6837.448253287825
439.3176,6792.844942253505
441.4914,6350.400621262343
443.6645,6288.761883018051
445.8371,6165.2252567203395
448.0091,5876.63720868135
450.1806,5615.294143561034
452.3514,5543.042407253044
454.5216,5198.628289498076
456.6913,5270.648024606417
458.8603,5206.697794902138
461.0288,4816.823730002812
463.1967,4938.371907459055
465.3639,4772.138356653282
467.5306,4230.269057584192
469.6967,4403.009942529119
471.8622,4416.106901462736
474.0271,4141.105780329635
476.1914,4070.4523809133752
478.3551,3969.342463586472
480.5182,4102.371748016987
482.6807,3687.785914179556
484.8426,3630.530601025159
487.0039,3847.8514106269067
489.1647,3772.9439087526625
491.3248,3389.453622691748
493.4843,3643.67604200411
495.6432,3550.706622355181
497.8015,3114.940782973674
499.9592,3227.1239075812555
502.1163,3111.5513487502103
504.2728,2963.1184267815916
506.4287,2805.920430860977
508.5839,2509.3026205427304
510.7386,2532.7602273220255
512.8927,2472.5384576010547
515.0461,2330.4824924543645
517.199,2416.637488231201
519.3512,2112.6485779760696
521.5029,2076.760870567108
523.6539,2062.219453755999
525.8043,1739.9693945268518
527.9541,1923.155739241607
530.1033,1810.0235168625586
532.2519,1631.9177371204496
534.3999,1809.8833916458607
536.5472,1880.9154557501824
538.694,1522.4088866460224
540.8401,1695.9086227368607
542.9856,1704.1095872021615
545.1305,1757.256686262299
547.2748,1489.2448090965481
549.4185,1403.718827311648
551.5615,1517.7235976218653
553.704,1386.153962704324
555.8458,1208.0047500589208
557.987,1248.6207733240299
560.1276,1272.546834058041
562.2675,1126.827721333124
564.4069,1170.2582114960096
566.5456,1299.6830696251563
568.6837,1002.9970490964988
570.8212,1077.6948902891818
572.958,624.7713235523843
575.0942,852.2710684584017
577.2299,594.282603113963
579.3648,531.0443971031273
581.4992,480.58898312671954
583.6329,435.29358875204343
585.766,450.2306404624105
587.8985,559.9182161581484
590.0304,174.61989593540784
592.1616,443.64925429122377
594.2922,257.3681212698648
596.4222,45.38832247913524
598.5515,54.61911241929192
600.6802,204.4692921612368
602.8083,-75.85288286909781
604.9358,-105.99119989403698
607.0626,71.3113116344175
609.1888,-242.03731888371112
611.3144,-32.679774448421085
613.4393,-160.20632010696136
615.5636,-262.30689443567826
617.6873,-153.96983554980397
619.8103,-363.98086111874
621.9327,-102.5241506533057
624.0544,-94.03024749550968
626.1756,-210.4286707711144
628.2961,-203.24800024372962
630.4159,-355.7647134946019
632.5351,-357.4532576574493
634.6537,3.865474223428464
636.7716,-339.87583993819135
638.8889,-258.5945222672599
641.0056,-237.3044995290984
643.1216,-147.46711512985348
645.237,-41.59134180370893
647.3518,-228.2361508101385
649.4659,-180.31051299268438
651.5793,-144.97339691245725
653.6922,-52.13376932746178
655.8043,-283.8505955459186
657.9159,69.96715964534815
660.0268,-456.4894657019395
662.137,-163.8294342357549
664.2466,-90.00714827430056
666.3556,-166.72700849746616
668.4639,-37.64341468500061
670.5716,-109.86076494936424
672.6786,16.816542973421747
674.785,-176.06588755401026
676.8907,-96.01245333719999
678.9958,47.52245057901746
681.1002,134.8844301099307
683.204,-36.63090930434555
685.3072,-103.27796357248735
687.4097,-4.461128236849618
689.5115,-14.98479780692287
691.6127,126.59663325242582
693.7132,51.87877062619373
695.8131,115.55721873345465
697.9123,159.2775814744964
700.0109,253.63546159409452
702.1089,103.07646024426504
704.2061,213.14617604075465
706.3028,279.34020656855864
708.3987,319.10414728125033
710.4941,317.43359083904943
712.5887,465.0741267111662
714.6827,498.72134119247494
716.7761,710.4708159271904
718.8688,779.2181275722978
720.9608,722.608845680079
723.0522,848.0385320107089
725.1429,725.9027410983108
727.233,1074.79701899668
729.3224,665.0669045005707
731.4112,774.3579256567973
733.4993,838.2156038615067
735.5867,813.5354527672462
737.6735,765.6629776444533
739.7596,705.9936756282405
741.845,762.3730361971102
743.9298,866.9965417696803
746.014,804.6096671408086
748.0974,757.4578784354526
750.1802,988.9866337324493
752.2624,791.691383536112
754.3439,916.5675684609087
756.4247,1023.4606212043946
758.5048,970.815965298505
760.5843,1097.6290140406054
762.6631,1240.2451710199166
764.7413,1341.2598288494191
766.8188,1507.3683677396693
768.8956,1665.7661544886214
770.9718,1807.7985408206441
773.0473,1772.2608618024387
775.1221,1684.0984344227472
777.1962,1674.9565579477276
779.2697,1596.3305148025902
781.3426,1705.7155706629928
783.4147,1814.2069752413809
785.4862,1881.2499611930689
787.557,1847.0897430313635
789.6271,1947.2215164570734
791.6966,1794.8404587001423
793.7654,1496.691727518286
795.8335,1494.4204627208674
797.901,1572.8717891502965
799.9678,1453.290816704859
802.0339,1425.2226395541438
804.0993,1532.5623373348571
806.1641,1449.5049754315041
808.2282,1421.1456039029872
810.2916,1422.1292583132308
812.3544,1686.1509600147183
814.4164,1314.5057161386721
816.4778,1480.6885169548332
818.5385,1592.8443395879221
820.5986,1676.2181463557572
822.658,1899.8048836477465
824.7166,2033.5994810911798
826.7747,1932.1468493153152
828.832,2235.7418786134876
830.8886,2481.1294399575927
832.9446,2664.604381962112
834.9999,2040.9615284303
837.0545,2423.5956765194132
839.1085,2666.9016029771083
841.1618,2503.124060315109
843.2143,2097.8577743761416
845.2662,2073.2474459717487
847.3175,2316.837754934895
849.368,1713.723360366108
851.4179,2246.5488981975723
853.467,1869.7589872243116
855.5155,2168.348223775909
857.5633,1828.6611854843868
859.6105,1704.8424282983542
861.6569,2014.7364898798041
863.7027,1573.237890842378
865.7478,1882.39113165241
867.7922,1807.7406970438897
869.8359,2159.381052926925
871.8789,1664.7566471342143
873.9212,2126.411905904679
875.9629,2288.6412388296812
878.0039,2322.5390342364844
880.0441,2228.999657565975
882.0837,2420.0674510336685
884.1226,2467.536734565161
886.1609,2489.8018038853843
888.1984,2358.256930043928
890.2352,2874.1463591923894
892.2714,2369.0143138997882
894.3069,2740.454987993733
896.3416,2422.312551611649
898.3757,2409.381147486478
900.4091,1889.754894128011
902.4418,2776.127885952308
904.4739,2375.1941984778896
906.5052,2559.397879462027
908.5358,2390.032952910129
910.5658,2231.843417233591
912.595,2217.173246943559
914.6236,1593.7663942327345
916.6515,2582.8667891221266
918.6786,1688.8683456950675
920.7051,2035.364952206277
922.7309,2037.200480021791
924.756,2261.3687801540364
926.7804,2055.9136832434524
928.8041,1615.578997316843
930.8272,2079.908509841851
932.8495,2130.4959921303525
934.8711,1769.935194695172
936.892,1560.1198467441645
938.9123,1801.0936597858454
940.9318,1568.0503297275282
942.9506,1586.9335344656647
944.9688,1694.6369362161931
946.9862,1193.7541813257121
949.003,1406.6788991944995
951.019,912.0047072852976
953.0344,1060.3752089940608
955.0491,1102.7339985967556
957.063,1399.37465976565
959.0763,1600.640765145683
961.0888,1352.0258733880764
963.1007,1695.2735271376223
965.1119,1741.2772555189003
967.1223,1569.8805707037973
969.1321,1929.7769674514202
971.1412,1625.0599248220606
973.1495,1544.6229025782304
975.1572,1755.1593442318845
977.1641,1743.7626778487465
979.1704,1656.3263139429619
981.1759,1738.3936455910516
983.1808,1728.3580493063273
985.1849,1767.3628842181643
987.1884,1905.6514921724156
989.1911,2254.6171973412565
991.1932,1887.4033048404453
993.1945,2048.353097239553
995.1951,2096.3098382341777
997.1951,1907.1667710363618
999.1943,1818.8171178950943
1001.1928,1822.5540819877133
1003.1906,1875.6208483033988
1005.1877,1662.9605836058254
1007.1841,1618.0664359024522
1009.1798,1696.3815365711416
1011.1748,1570.9990008090826
1013.1691,1453.5619268497248
1015.1627,1022.5133972164986
1017.1556,837.4464798972913
1019.1477,909.0042326548137
1021.1392,638.8797048773704
1023.1299,460.81593686328415
1025.12,575.0559625220922
1027.1093,499.4928111551999
1029.0979,558.0695063134699
1031.0859,605.3290665528475
1033.0731,454.26450484857196
1035.0596,463.26882812264375
1037.0454,298.48503875441384
1039.0304,150.00613449055527
1041.0148,12.12511009296577
1042.9985,-37.165041176529485
1044.9814,-5.271326177309675
1046.9636,-134.40075139710098
1048.9452,-191.41032327087305
1050.926,-129.45570557012252
1052.9061,-132.7406498772325
1054.8855,-68.56761451209604
1056.8642,-65.58773171552457
1058.8421,29.39786695735529
1060.8194,18.288050607327023
1062.7959,49.031688041177404
1064.7717,101.82764788284112
1066.7469,155.9247982659581
1068.7213,184.87200630588632
1070.695,229.51813755875628
1072.6679,121.21205573203042
1074.6402,131.852622237966
1076.6117,181.73869727671263
1078.5826,241.0691397299015
1080.5527,113.19280666180566
1082.5221,160.25855272600893
1084.4908,286.51523144415114
1086.4587,361.21169473534974
1088.426,469.74679165359703
1090.3925,358.91936764075945
1092.3584,477.92826344133937
1094.3235,261.27231621059036
1096.2879,244.3503583245547
1098.2515,358.3112195465146
1100.2145,491.4037271963025
1102.1767,516.4767050106093
1104.1382,738.3289718121378
1106.099,871.1093412588089
1108.0591,1019.9166196253063
1110.0185,1151.6996044752086
1111.9771,1322.9070831729841
1113.9351,1099.4378315661088
1115.8923,882.7906122730128
1117.8488,695.4641769177761
1119.8045,409.5572682965794
1121.7596,369.4186222509452
1123.7139,302.19697052687843
1125.6675,278.19104117614916
1127.6204,435.14955922861554
1129.5726,372.2712469322287
1131.524,403.0548221834688
1133.4748,399.1989991561277
1135.4248,252.452487993447
1137.3741,276.3139948467069
1139.3226,111.98222334270395
1141.2705,233.3558743450776
1143.2176,-13.716352402312623
1145.164,111.31424051088106
1147.1097,61.496487521304516
1149.0546,64.87922195249848
1150.9989,80.96127651309507
1152.9424,26.991483262907423
1154.8852,-53.13132654783112
1156.8272,-47.808321938777226
1158.7686,18.65985885236296
1160.7092,-74.52694480700302
1162.6491,-132.1690799614953
1164.5883,42.58385086844646
1166.5267,71.6335655314615
1168.4644,280.9817814503913
1170.4014,415.53021533170977
1172.3377,675.2305810721227
1174.2732,905.6845884130089
1176.2081,1271.4939403435274
1178.1421,1506.260330796009
1180.0755,1873.535440987871
1182.0082,1980.0709370739132
1183.9401,2098.1684664736604
1185.8713,1983.7296568059755
1187.8017,1794.3061147081025
1189.7315,1579.5994269799921
1191.6605,1214.9611624785757
1193.5888,965.792874264771
1195.5163,899.6461032498992
1197.4432,883.7223806873444
1199.3693,827.4232288340645
1201.2947,729.8001611098007
1203.2193,633.0046826600446
1205.1432,781.7382913322799
1207.0664,761.3024786439855
1208.9889,748.5987282952337
1210.9106,717.3785163731227
1212.8316,677.5433114787666
1214.7519,739.4945750395054
1216.6715,749.4837617072626
1218.5903,813.0123187390418
1220.5084,830.9316858970051
1222.4257,927.2932948132147
1224.3424,792.1485688104294
1226.2583,906.5489219385126
1228.1735,1027.6457603258314
1230.0879,1019.590481035324
1232.0016,1165.7344708534802
1233.9146,1206.129106370885
1235.8269,1116.7757525208144
1237.7384,1132.4257621752695
1239.6492,944.0804770385221
1241.5592,940.9912274906164
1243.4686,928.6593344707835
1245.3772,976.1361095083703
1247.285,966.4228548461433
1249.1922,1047.6708629655004
1251.0986,1090.8814166836455
1253.0042,1067.2557883410846
1254.9092,1106.895239369518
1256.8134,1218.651020528112
1258.7169,1411.4243715070843
1260.6196,1506.3665198101698
1262.5216,1771.0786788268524
1264.4229,1896.562046882973
1266.3234,2092.567804593593
1268.2232,2160.247113608162
1270.1223,2207.401114650471
1272.0207,2242.780926841853
1273.9183,2228.437647229668
1275.8151,2166.77235043349
1277.7113,2152.986088788508
1279.6067,2120.5298929622404
1281.5014,2128.5047720923467
1283.3953,2253.3617141112045
1285.2885,2503.651685666133
1287.181,2662.2256308708565
1289.0727,3004.584468802601
1290.9637,3153.5790919163555
1292.854,3344.4103626212454
1294.7435,3349.929111790654
1296.6323,3458.0861368538644
1298.5204,3512.932201740903
1300.4077,3552.6180358009624
1302.2943,3544.4443332539013
1304.1802,3515.0617527934482
1306.0653,3276.5209176688586
1307.9497,3065.072415978815
1309.8333,2919.4168030568
1311.7162,2777.7046035856038
1313.5984,2800.186313053844
1315.4798,2784.662399173114
1317.3605,2750.8833016531426
1319.2405,2854.24943235705
1321.1197,2767.1611756391576
1322.9982,2620.568887311285
1324.876,2585.7728955136627
1326.753,2431.773502180833
1328.6293,2441.6709833896384
1330.5048,2450.265590899202
1332.3796,2369.6575520519436
1334.2537,2351.7970696876437
1336.127,2314.784322949512
1337.9996,2348.319467462803
1339.8714,2354.1026357049304
1341.7426,2322.133936670125
1343.6129,2366.263455811597
1345.4826,2376.4412553612565
1347.3515,2468.217373888383
1349.2196,2433.7418261978455
1351.087,2484.9146024123474
1352.9537,2565.6356683171944
1354.8197,2702.104964848557
1356.6849,2901.0224072862693
1358.5493,3021.7878838891156
1360.4131,3110.9512539056814
1362.276,3177.062346366678
1364.1383,3096.370959193333
1365.9998,2943.9268585362515
1367.8606,2644.6297795823666
1369.7206,2422.779428079364
1371.5799,2186.9754833286497
1373.4384,2012.8176004038505
1375.2962,1863.6554125088478
1377.1533,1616.2385327193442
1379.0096,1322.1665554745232
1380.8652,1047.2390590511714
1382.7201,879.0556085044373
1384.5742,630.6657584170716
1386.4275,472.36905458128604
1388.2802,383.46503648265934
1390.132,285.35323888307903
1391.9832,302.7831927097868
1393.8336,134.35442603650517
1395.6832,67.46646390913156
1397.5322,62.26883003002877
1399.3803,26.41104742691823
1401.2278,-15.307361495160876
1403.0745,-7.386874595260451
1404.9204,-61.32781681189954
1406.7656,-6.2304392887381255
1408.6101,-11.344380504549918
1410.4538,-35.96921669603762
1412.2968,35.045589230452606
1414.139,29.300933701026224
1415.9805,151.0477127913582
1417.8213,172.4368222841149
1419.6613,240.8691564515102
1421.5006,422.89560784140485
1423.3391,670.0170665929945
1425.1769,879.2344186165283
1427.0139,1257.598543122087
1428.8502,1778.0103105274284
1430.6858,2193.120578674345
1432.5206,2472.5801876245423
1434.3547,2744.289955508557
1436.188,2769.0006757311385
1438.0206,2718.0631142541424
1439.8524,2580.628009349417
1441.6835,2604.5460721081945
1443.5139,2454.467987815424
1445.3435,2378.444415710601
1447.1724,2426.9759904885614
1449.0005,2442.313323059716
1450.8279,2369.057000064702
1452.6545,2368.0075837210716
1454.4804,2445.6656125557965
1456.3056,2456.981601415766
1458.13,2443.606040691244
1459.9536,2320.7393962026763
1461.7766,2107.432109334506
1463.5987,1810.2345982638108
1465.4202,1561.397260093283
1467.2409,1262.7204738232904
1469.0608,1141.4046028402445
1470.88,968.799997903363
1472.6984,749.206998357804
1474.5161,557.1259338607524
1476.3331,454.75712657733675
1478.1493,438.6508931014323
1479.9648,371.75754547936594
1481.7795,318.82739137097815
1483.5935,329.8107347185505
1485.4067,292.0078762760968
1487.2192,263.66911349953807
1489.031,284.84474092471646
1490.842,282.0850504508089
1492.6522,282.29033112854086
1494.4618,237.81086918780056
1496.2705,265.14694803558086
1498.0785,312.9488487007766
1499.8858,293.1168495608399
1501.6924,265.9512258637478
1503.4981,285.7022499263112
1505.3032,279.3201914058445
1507.1075,279.75531710265204
1508.911,296.8078910238546
1510.7138,270.92817437903796
1512.5159,238.4164254097377
1514.3172,252.72289964822266
1516.1178,178.9978502426129
1517.9176,214.84152781381272
1519.7166,211.95418119274473
1521.515,172.9860570619494
1523.3126,159.23739998443853
1525.1094,163.65845279334826
1526.9055,170.69945672948234
1528.7008,112.16065139703278
1530.4954,47.44227469322141
1532.2893,118.49456339368044
1534.0824,21.717753799621278
1535.8747,74.21208102732999
1537.6663,61.277779975942394
1539.4572,69.51508480245684
1541.2473,88.37422905112544
1543.0367,68.20544557104222
1544.8253,50.0589663275714
1546.6132,116.78502260403548
1548.4003,67.68384518316816
1550.1867,157.55566367987922
1551.9723,223.60070703224847
1553.7572,310.3692026028184
1555.5414,340.9613755181308
1557.3247,415.8774478010382
1559.1074,520.5676380647928
1560.8893,625.3821607638747
1562.6705,715.1212251470897
1564.4509,836.7350342094433
1566.2305,874.0737837947236
1568.0094,1001.2376613793967
1569.7876,1048.276845699169
1571.565,1048.8415054773977
1573.3417,1095.1317989546478
1575.1176,1098.9978738830905
1576.8928,1113.5398670635877
1578.6672,1042.5579043070284
1580.4409,1047.1021002889247
1582.2138,994.0725592591989
1583.986,966.969374996781
1585.7575,992.9926313398646
1587.5282,1017.5924024569686
1589.2981,1060.0687525866997
1591.0673,1068.4217357917478
1592.8358,1136.451395534128
1594.6035,1189.6577645916332
1596.3704,1217.290864377559
1598.1366,1243.5507044086298
1599.9021,1377.98728202868
1601.6668,1386.950582146037
1603.4308,1472.9405758891735
1605.194,1591.107220517053
1606.9564,1732.3504585592527
1608.7182,1920.6702166342948
1610.4791,2133.7664040372147
1612.2394,2282.5889108563315
1613.9988,2515.137605842312
1615.7576,2748.5623349199413
1617.5156,2917.962918862635
1619.2728,3094.689150958213
1621.0293,3151.5907953148635
1622.785,3112.3675850938853
1624.54,2941.6692219406978
1626.2942,2806.595376377034
1628.0477,2529.6956895079275
1629.8005,2302.5697743724813
1631.5525,2130.0172187128446
1633.3037,1931.687587245473
1635.0542,1879.2804233866482
1636.804,1776.4952512357922
1638.553,1714.081576099521
1640.3013,1690.1388855195073
1642.0488,1643.9666498966108
1643.7955,1729.514322730316
1645.5416,1734.6313410804432
1647.2868,1902.9671247116712
1649.0313,1990.021076042376
1650.7751,2124.8925784612766
1652.5181,2283.8309954568867
1654.2604,2393.685669268798
1656.0019,2609.955919298278
1657.7427,2846.641041009774
1659.4828,3126.990303768158
1661.222,3279.052948471919
1662.9606,3272.0781847496364
1664.6984,3150.265189439393
1666.4354,2811.663106658474
1668.1717,2437.121049021527
1669.9072,1923.688101026568
1671.642,1609.2133228004168
1673.3761,1343.2457552330088
1675.1094,1088.58442312216
1676.8419,931.6783378332439
1678.5737,781.4764998457904
1680.3048,676.6279003225391
1682.0351,576.4815226114933
1683.7646,481.48634329436027
1685.4934,421.84133318805834
1687.2215,384.64545829464623
1688.9488,307.3476803977701
1690.6754,286.04695743462617
1692.4012,284.59224426892797
1694.1263,243.28249290393615
1695.8506,214.56665249700018
1697.5742,231.84366977265563
1699.297,215.01248930977454
1701.0191,188.32205336880543
1702.7404,170.32130206006877
1704.461,133.00917361068605
1706.1808,68.13460454456799
1707.8999,91.14653005553737
1709.6182,64.74388465608172
1711.3358,77.62560194722391
1713.0527,65.19061488256921
1714.7688,24.18785563946949
1716.4841,17.316255743375223
1718.1987,52.124746477857116
1719.9126,7.912258953329001
1721.6257,1.7277237589732977
1723.338,35.82007140485075
1725.0496,-0.21176761624337814
1726.7605,15.831136830274772
1728.4706,-4.0522851188852655
1730.18,-38.0131034853257
1731.8886,-39.4523478083247
1733.5964,-21.070667876256266
1735.3036,14.731680651453644
1737.0099,35.10465261135141
1738.7156,21.34820269267584
1740.4204,-22.3377147663723
1742.1246,1.8468543589351611
1743.8279,-5.897912652926607
1745.5306,17.178161458065006
1747.2325,1.0253128720632958
1748.9336,0.6437775974645774
1750.634,-50.66620836759466
1752.3336,-13.704409031406612
1754.0325,-2.9700822468385013
1755.7307,20.43765104027807
1757.4281,64.06969955523164
1759.1247,62.52697181894291
1760.8206,48.46037571164379
1762.5158,66.57081848829512
1764.2102,73.60920691926731
1765.9039,63.576447109231594
1767.5968,86.37344442676294
1769.289,77.00110360469444
1770.9804,54.010328512122214
1772.6711,92.25202224813438
1774.361,98.77708737172543
1776.0502,142.28642551937446
1777.7386,114.33093733978785
1779.4263,121.96152205884209
1781.1132,148.6790777590959
1782.7994,142.33450130351412
1784.4849,160.62868806827828
1786.1696,153.81253200624815
1787.8535,181.68692546400052
1789.5367,172.60275924998496
1791.2192,189.81092235578944
1792.9009,153.86230204697677
1794.5818,191.50778369102227
1796.2621,198.14825111677965
1797.9415,200.08458623803017
1799.6202,198.36766898708083
1801.2982,219.1483772954016
1802.9755,192.67758711078568
1804.6519,246.20617218955522
1806.3277,194.68500436125032
1808.0027,184.0649529933653
1809.6769,206.99688550654537
1811.3504,195.38166748080403
1813.0231,254.2701624261863
1814.6951,264.31323189894283
1816.3664,310.76173491262307
1818.0369,316.51652783765894
1819.7067,295.2784639368674
1821.3757,314.39839330791256
1823.044,301.4771630956784
1824.7115,340.06561730107205
1826.3783,315.51459691023774
1828.0443,321.1249395086761
1829.7096,299.19747952674516
1831.3741,340.1830481835641
1833.0379,326.3324737062885
1834.701,340.346580920248
1836.3633,329.32619138745395
1838.0248,362.32212326646004
1839.6856,378.7851914225648
1841.3457,373.7662070978531
1843.005,381.86597774656366
1844.6636,405.5353070852816
1846.3214,428.97499501193124
1847.9785,453.28583736909604
1849.6349,442.268625709612
1851.2904,468.77414705346746
1852.9453,470.4031839979634
1854.5994,443.45651445266594
1856.2528,494.2349116231235
1857.9054,490.78914428031203
1859.5572,485.06997625287295
1861.2083,513.0781664615588
1862.8587,550.6644689764234
1864.5084,543.6296327367545
1866.1572,508.1744011751962
1867.8054,516.7995122881002
1869.4528,494.95569899007387
1871.0994,502.7936890277524
1872.7453,553.9642051982137
1874.3905,549.5679652706167
1876.0349,530.7056814744847
1877.6786,543.5280605436601
1879.3215,574.4858039049377
1880.9637,580.179607549835
1882.6051,598.0601617250231
1884.2458,606.1281508753855
1885.8858,588.53425346521
1887.525,595.1791418975226
1889.1634,562.1634826900045
1890.8011,552.8879364085515
1892.4381,561.8531579974333
1894.0743,608.109796872046
1895.7098,568.8084968292515
1897.3446,592.799895584827
1898.9786,595.0846251664643
1900.6118,641.4133116738649
1902.2443,602.5865752558857
1903.8761,618.1050296472586
1905.5071,583.2692825568538
1907.1374,587.629935512492
1908.7669,589.2375842092988
1910.3957,594.6428184661145
1912.0237,542.1962222093971
1913.651,564.2983734191712
1915.2776,555.5498446535203
1916.9034,549.3012028275316
1918.5285,520.9530093008034
1920.1528,503.455819939918
1921.7764,521.460185401942
1923.3992,524.4166513093878
1925.0213,452.5757580701702
1926.6427,465.6880408480556
1928.2633,444.5540302810459
1929.8832,486.37425235026603
1931.5023,451.4492285913002
1933.1207,448.27947567600313
1934.7383,461.6655057617372
1936.3552,452.3078265230779
1937.9714,480.0069410179385
1939.5868,432.5633477811698
1941.2015,414.27754054755314
1942.8154,405.20000872623314
1944.4286,405.7312375835918
1946.041,378.62170833400523
1947.6528,371.8718981345537
1949.2637,360.73228035610555
1950.8739,347.0533246508239
1952.4834,399.1354970635475
1954.0921,400.12926016858546
1955.7001,367.83507254889446
1957.3074,377.6533887861442
1958.9139,377.2346597836531
1960.5197,370.8793326682153
1962.1247,340.08785079426707
1963.729,304.5106538074706
1965.3325,304.89817795260205
1966.9353,291.5508564293468
1968.5374,321.8191193884086
1970.1387,305.20339406498897
1971.7393,305.3541044761132
1973.3392,301.52167158676275
1974.9383,260.15651330838955
1976.5366,254.50904453723524
1978.1342,295.8796775679766
1979.7311,282.9188221502027
1981.3273,250.6268850747092
1982.9227,270.0542703031133
1984.5173,260.75137929075936
1986.1112,251.46861079245173
1987.7044,279.90636095548325
1989.2968,258.1650234124718
1990.8885,239.89498899697173
1992.4795,250.29664596088332
1994.0697,243.12038015716826
1995.6592,263.31657493582316
1997.2479,266.3356112156562
1998.8359,245.97786728230858
2000.4232,231.99371875807265
2002.0097,231.53353880545546
2003.5955,187.9476982670385
2005.1805,242.8865656700691
2006.7648,244.25050766233107
2008.3484,244.98988846273642
2009.9312,261.25506984770436
2011.5133,250.79641114375045
2013.0946,234.7142690648434
2014.6752,268.2089978169879
2016.2551,256.5809492590415
2017.8342,229.08047256779173
2019.4126,199.4079143542167
2020.9902,230.76361893848843
2022.5672,219.79792864671435
2024.1433,230.7611834973668
2025.7188,214.4037213109459
2027.2935,213.12587760033784
2028.8674,208.42798573439723
2030.4406,200.7603769507259
2032.0131,216.47338040264913
2033.5849,204.76732323589385
2035.1559,226.09253043146236
2036.7261,212.19932492269072
2038.2957,213.9380273819952
2039.8645,212.5589563598005
2041.4325,241.0124282671568
2042.9998,234.69875738952578
2044.5664,226.96825560225443
2046.1323,218.07123243370188
2047.6974,211.40799514254832
2049.2617,212.82884880676284
2050.8254,217.68409639023594
2052.3883,244.87403872857794
2053.9504,216.59897448056836
2055.5118,201.30919985624496
2057.0725,205.5550088996606
2058.6325,204.08669364178058
2060.1917,211.10454405803102
2061.7502,201.10884808297124
2063.3079,224.74989154011746
2064.8649,193.92795824190762
2066.4212,199.19332975328507
2067.9767,209.29628569992292
2069.5315,194.8371037155648
2071.0856,170.1660593409997
2072.6389,169.58342616864866
2074.1915,159.189476089271
2075.7433,148.03447929779577
2077.2945,139.16870439725972
2078.8448,162.14241851035786
2080.3945,147.45588736809987
2081.9434,147.259375080077
2083.4916,138.1031442813255
2085.039,158.58745613429437
2086.5857,163.41257042040434
2088.1317,182.47874533520644
2089.677,172.63623744012966
2091.2215,155.18530147181445
2092.7652,153.37619044054372
2094.3083,135.7591558047552
2095.8506,166.43444748912862
2097.3921,184.70231406075436
2098.933,180.4630024223834
2100.4731,180.416757629745
2102.0124,201.41382293394418
2103.5511,193.75443978192197
2105.089,200.98884760648707
2106.6261,191.76728390290918
2108.1626,191.88998415656897
2109.6983,180.15718193517841
2111.2332,186.76910888755083
2112.7675,182.72599486093532
2114.301,184.37806783489214
2115.8337,214.37555396171956
2117.3657,213.168677549942
2118.897,221.05766076432792
2120.4276,203.24272363796263
2121.9575,214.17408399335727
2123.4866,193.8019576206034
2125.0149,218.82655816805254
2126.5426,205.9980973460415
2128.0695,188.66678467664042
2129.5956,214.88282762194467
2131.1211,214.34643175739075
2132.6458,204.9078005095871
2134.1698,214.71713516168438
2135.693,200.12463494775693
2137.2155,218.63049695470545
2138.7373,225.53491626819232
2140.2584,198.3880857875729
2141.7787,196.3401961568543
2143.2983,202.24143603616994
2144.8171,171.0919921222503
2146.3353,182.29204908941665
2147.8527,182.24178990106975
2149.3693,208.19139569769868
2150.8853,188.44104579737723
2152.4005,164.59091743627596
2153.9149,196.64118596616026
2155.4287,157.99202509288807
2156.9417,209.29360655591518
2158.454,188.34610051477557
2159.9655,193.59967503606822
2161.4764,185.1544963029337
2162.9865,164.11072856251667
2164.4958,175.11853421042179
2166.0045,190.77807400114125
2167.5124,201.78950693798743
2169.0195,178.75299011648895
2170.526,196.41867861428545
2172.0317,193.78672572148935
2173.5367,195.80728276402988
2175.0409,212.63049912997212
2176.5445,196.90652224930727
2178.0473,210.23549742572777
2179.5494,213.36756799386148
2181.0507,204.0528751859856
2182.5513,198.24155810070533
2184.0512,208.33375379609788
2185.5504,184.0295973478287
2187.0488,165.0792217482258
2188.5465,170.4827581493273
2190.0435,187.49033605237673
2191.5397,168.60208325378971
2193.0353,176.26812567508205
2194.5301,158.88858755174988
2196.0241,152.06359135661023
2197.5175,153.19325797359852
2199.0101,120.52770676601085
2200.502,148.06705556521138
2201.9931,158.36142099729204
2203.4835,123.9609182076756
2204.9733,144.61566075817518
2206.4622,143.82576097099354
2207.9505,153.0913297221823
2209.438,126.21247644953746
2210.9248,109.13930905994675
2212.4109,97.57193419817486
2213.8962,101.91045741759535
2215.3809,119.70498329586735
2216.8648,107.80561539154405
2218.3479,107.86245606613011
2219.8304,122.42560660308118
2221.3121,108.04516720722859
2222.7931,110.17123685915249
2224.2733,92.25391345898788
2225.7529,84.34329380515919
2227.2317,95.93947377355107
2228.7098,114.04254839661462
2230.1872,81.00261174741081
2231.6638,88.61975675857866
2233.1397,87.2440755527341
2234.6149,106.67565936629671
2236.0894,74.714598563246
2237.5632,76.86098244080767
2239.0362,68.21489954905974
2240.5085,96.67643766947185
2241.9801,79.64568390136901
2243.4509,77.2227243773159
2244.921,77.75764443341996
2246.3904,74.95052863355977
2247.8591,77.6514607640429
2249.3271,84.81052386167084
2250.7943,50.3778001867322
2252.2608,40.55337115140901
2253.7266,61.23731766411129
2255.1917,72.52972022771792
2256.656,49.98065873273845
2258.1197,63.44021234438969
2259.5826,54.608459728090565
2261.0447,70.38547891486633
2262.5062,62.671347389661605
2263.9669,64.01614193357
2265.4269,83.46993870097594
2266.8862,73.43281320610458
2268.3448,77.20484012848283
2269.8026,66.93609341331103
2271.2598,67.72664623374021
2272.7162,72.87657109356314
2274.1719,90.43593981931099
2275.6268,83.75482350875518
2277.0811,69.08329235531164
2278.5346,79.07141571484408
2279.9874,85.36926225239313
2281.4395,90.02689984228437
2282.8908,74.54439550515963
2284.3414,88.02181536139324
2285.7914,78.35922478592147
2287.2406,86.10668827345762
2288.689,119.21426953512582
2290.1368,92.282031420983
2291.5838,109.01003558894718
2293.0302,90.99834277411992
2294.4758,64.09701262150065
2295.9206,79.95610386610679
2297.3648,89.4756746019857
2298.8082,75.90578212362652
2300.251,102.99648283075658
2301.693,81.79783236404455
2303.1343,92.90988533419568
2304.5748,80.08269553394075
2306.0147,101.01631582691607
2307.4538,92.06079827592566
2308.8922,94.46619393361561
2310.3299,84.53255293202437
2311.7669,74.20992445853244
2313.2031,81.94835685519683
2314.6387,94.8978977219831
2316.0735,82.30859383937513
2317.5076,73.33049103888425
2318.941,87.86363432893904
2320.3737,82.85806798466274
2321.8056,77.81383540254319
2323.2369,90.63097915049093
2324.6674,91.15954101827992
2326.0972,89.64956188937686
2327.5263,88.00108173565695
2328.9547,90.46413963250143
2330.3823,89.13877377528479
2331.8092,110.525021454735
2333.2355,86.27291907020208
2334.661,96.03250191579082
2336.0858,109.80380442287424
2337.5098,104.18686006251028
2338.9332,93.43170120772265
2340.3558,94.68835918966852
2341.7778,81.85686440520021
2343.199,95.98724630428114
2344.6195,84.37953351831038
2346.0393,88.5337537188143
2347.4583,112.49993373352754
2348.8767,111.37809950484461
2350.2943,112.86827585016636
2351.7113,111.92048647310912
2353.1275,105.08475394860852
2354.543,101.31109973240018
2355.9578,130.04954422936407
2357.3718,111.50010683127675
2358.7852,95.91280562941938
2360.1978,91.23765760007245
2361.6098,96.47467876038263
2363.021,99.67388421513351
2364.4315,94.58528810435837
2365.8413,117.65890357135049
2367.2504,104.34474281356506
2368.6587,86.8928168518687
2370.0664,66.20313566369532
2371.4733,90.67570835754577
2372.8795,78.31054337990372
2374.285,94.60764827048934
2375.6899,77.76702978592766
2377.0939,78.73869373676007
2378.4973,80.57264515586212
2379.9,79.51888828872052
2381.3019,69.4774265750957
2382.7032,61.74826265956199
2384.1037,82.58139849191866
2385.5035,57.92683540448343
2386.9027,66.6845739037617
2388.3011,89.80461391699737
2389.6987,67.68695470458897
2391.0957,81.13159462888507
2392.492,64.18853137536644
2393.8876,43.25776181819765
2395.2824,43.73928218966557
2396.6765,36.483088289476655
2398.07,34.63917547994242
2399.4627,42.40753875854762
2400.8547,70.88817277638782
2402.246,61.08107176048179
2403.6366,41.58622922896939
2405.0265,28.103638089177366
2406.4156,33.5832908325724
2407.8041,34.025179669583395
2409.1918,32.97929647481078
2410.5789,17.14563278260448
2411.9652,34.97417979752072
2413.3508,23.364928552661695
2414.7358,30.8178697313906
2416.12,23.082993783424627
2417.5035,20.510290850303136
2418.8863,18.74975084273592
2420.2684,27.001363466332805
2421.6497,22.91511823920837
2423.0304,-4.958995590533959
2424.4104,9.579010996059878
2425.7896,4.429176558308427
2427.1682,23.191539559743433
2428.546,19.666138419604977
2429.9232,17.20301132522036
2431.2996,24.502196267258114
2432.6753,32.91373106436049
2434.0503,29.737653290146227
2435.4246,8.374000189098297
2436.7982,-2.4271912916769907
2438.1711,22.43411571118895
2439.5433,29.50798230870805
2440.9148,6.394469387552363
2442.2856,6.993637539316296
2443.6557,20.555547291648054
2445.025,19.08025910226479
2446.3937,11.267833223325852
2447.7617,1.6183297161906012
2449.1289,23.931808529539012
2450.4955,24.85832959586878
2451.8613,33.547952608362266
2453.2265,17.05073701161973
2454.5909,20.666741914762042
2455.9546,6.096026256404002
2457.3177,18.638648768492658
2458.68,34.99466812201808
2460.0416,21.614142801582602
2461.4025,26.947130941846353
2462.7627,46.59369046132679
2464.1222,44.50387900907572
2465.4811,35.07775376820791
2466.8392,38.51537147679937
2468.1966,41.71678852214882
2469.5533,53.48206090640542
2470.9093,54.56124421455024
2472.2645,44.1043934967488
2473.6191,57.311563257552734
2474.973,37.23280756047279
2476.3262,47.318179895903995
2477.6787,46.767733381914695
2479.0305,45.681520663390984
2480.3816,43.909593917543134
2481.7319,41.05200486476815
2483.0816,24.208804786368546
2484.4306,38.530044553128846
2485.7789,23.815774793746186
2487.1264,21.56604575161873
2488.4733,24.230907431991
2489.8195,13.660409624446402
2491.165,25.05460187626295
2492.5097,28.313533598113736
2493.8538,19.63725395012716
2495.1972,31.97581180929683
2496.5398,27.579255856243435
2497.8818,18.74763445183089
2499.2231,17.6309956811333
2500.5637,8.429387441748986
2501.9035,14.042857454967361
2503.2427,16.67145335778423
2504.5812,14.115222646770235
2505.919,18.32421265178118
2507.256,23.048470561523118
2508.5924,36.78804338146256
2509.9281,25.642977886583594
2511.2631,20.66332048399181
2512.5974,20.249117324367035
2513.9309,38.35041435175617
2515.2638,11.317257307715863
2516.596,23.699691550302305
2517.9275,17.647762324400446
2519.2583,12.46151463789829
2520.5884,19.09099332220876
2521.9178,17.986243084130365
2523.2465,15.64730843955158
2524.5745,26.374233724499845
2525.9018,10.267063118530587
2527.2284,19.425840537458953
2528.5543,19.900609794431602
2529.8796,21.291414508337766
2531.2041,21.698298099063777
2532.5279,33.32130377358044
2533.851,23.410474521880587
2535.1735,32.41585300074257
2536.4952,35.237481632843355
2537.8163,38.875402516703616
2539.1366,19.379657398470954
2540.4562,30.850287635539644
2541.7752,40.43733439150992
2543.0935,45.44083852147833
2544.411,54.91084047617187
2545.7279,49.29738025190636
2547.0441,61.700497295896184
2548.3596,75.32023056237904
2549.6744,61.356618388592324
2550.9885,62.60969835857077
2552.3019,71.62950744278487
2553.6146,64.51608198560825
2554.9266,66.01945761512297
2556.2379,51.38966931425239
2557.5485,62.62675140572492
2558.8585,56.98073769837583
2560.1677,68.801661374775
2561.4762,74.98955504768355
2562.7841,83.89445064184883
2564.0913,89.31637933212232
2565.3977,87.30537145441167
2566.7035,80.81145645146216
2568.0086,88.78466289296603
2569.313,95.37501854050151
2570.6167,101.18255026780116
2571.9197,110.05728399484815
2573.222,102.5992446298037
2574.5236,98.85845598025844
2575.8246,103.73494082781099
2577.1248,115.17872096547535
2578.4244,110.33981714891843
2579.7232,108.56824898202103
2581.0214,103.01403496526473
2582.3189,125.52719251344934
2583.6157,119.90773801123851
2584.9118,117.30568658802349
2586.2072,125.521052174121
2587.5019,116.70384752679229
2588.7959,128.60408414809035
2590.0893,121.97177237303003
2591.3819,146.70692125058622
2592.6739,141.0595386100158
2593.9652,122.32963081351045
2595.2557,145.1672028126668
2596.5456,137.97225833578614
2597.8348,139.99479965949877
2599.1234,144.33482768071372
2600.4112,132.09234189639392
2601.6983,157.11734036015423
2602.9848,132.10981980468705
2604.2705,135.01977539151585
2605.5556,144.34720096106457
2606.84,138.7420890035619
2608.1237,140.05443056576496
2609.4067,127.23421530701307
2610.689,130.0314314861016
2611.9707,130.39606608948452
2613.2516,129.07810480330045
2614.5319,138.72753200972602
2615.8115,125.19433080016051
2617.0903,120.57848287872957
2618.3685,124.02996869761591
2619.6461,123.49876750322028
2620.9229,127.68485730164139
2622.199,125.98821486399402
2623.4745,121.10881568454442
2624.7493,130.79663399767833
2626.0234,122.7016428266943
2627.2968,128.12381388692302
2628.5695,120.36311766668268
2629.8415,126.96952337305402
2631.1128,112.792999009489
2632.3835,112.28351130974397
2633.6535,106.69102587964835
2634.9228,108.51550720219575
2636.1914,113.10691869347193
2637.4593,106.66522268440804
2638.7265,104.84038037486698
2639.9931,106.08235189805919
2641.259,110.24109633879516
2642.5242,110.81657172106043
2643.7887,108.25873496643362
2645.0525,123.21754188832574
2646.3156,106.09294721756169
2647.5781,107.13490445279285
2648.8398,104.49336603174015
2650.1009,105.6182833207763
2651.3613,106.55960664134318
2652.6211,106.06728525869948
2653.8801,104.3412673725104
2655.1385,108.68150012176807
2656.3961,115.13792960205274
2657.6531,120.71050082213242
2658.9094,115.14915763939553
2660.1651,123.95384270412819
2661.42,114.0744975151249
2662.6743,126.26106233164319
2663.9279,124.81347627219725
2665.1808,129.08167719269113
2666.433,142.41560170089633
2667.6846,116.11518511376835
2668.9354,122.38036132410753
2670.1856,129.56106306356332
2671.4351,139.7572218399814
2672.6839,131.41876786559783
2673.9321,150.6956299550784
2675.1795,142.73773560890118
2676.4263,142.3450108205907
2677.6724,145.61738015629385
2678.9179,150.20476675870805
2680.1626,146.10709231435953
2681.4067,149.42427700772737
2682.6501,151.00623956222125
2683.8928,155.85289720700825
2685.1348,144.21416566119433
2686.3761,146.78995908535694
2687.6168,146.3801901979325
2688.8568,136.83477024946046
2690.0961,121.15360902667862
2691.3348,121.18661494797834
2692.5727,129.88369522021753
2693.81,120.44475583838926
2695.0466,128.369701498651
2696.2826,125.85843569271424
2697.5178,125.61086062859317
2698.7524,131.27687725571968
2699.9863,130.806385267417
2701.2195,138.44928304424138
2702.452,131.6054676586848
2703.6839,144.9248347987475
2704.9151,142.00727883637546
2706.1456,133.55269269426776
2707.3755,144.46096787505257
2708.6046,158.28199454583137
2709.8331,154.96566142909865
2711.0609,168.26185566452682
2712.2881,163.2704628421336
2713.5145,165.29136686931884
2714.7403,173.22445002077802
2715.9654,186.71959291829285
2717.1899,184.7266744514011
2718.4136,195.8955716424448
2719.6367,205.27615966649932
2720.8591,198.31831173968658
2722.0809,213.02189902536747
2723.3019,218.73679070372077
2724.5223,234.4128538247055
2725.7421,227.7999532509134
2726.9611,236.14795150080818
2728.1795,229.3067088148539
2729.3972,218.5760830720369
2730.6142,214.4559298582776
2731.8306,197.19610257373574
2733.0462,182.4464524740133
2734.2612,172.70682884275197
2735.4756,160.02707913912923
2736.6892,150.35704909525612
2737.9022,136.1465828429741
2739.1145,120.5955230105551
2740.3262,115.90371086480536
2741.5372,102.37098646657591
2742.7475,98.34718871768177
2743.9571,86.08215549622878
2745.1661,77.72572369685236
2746.3744,81.0777293533672
2747.582,59.63800772233185
2748.7889,59.00639324952863
2749.9952,52.63271978436069
2751.2008,48.01682058616916
2752.4057,40.008528387969136
2753.61,50.60767544260807
2754.8136,30.51409360284856
2756.0165,26.727614215378708
2757.2188,24.798068321744495
2758.4204,25.77528669621711
2759.6213,30.50909986508691
2760.8215,36.64933809689251
2762.0211,25.74583135508101
2763.22,17.448409236608086
2764.4182,18.306901080971556
2765.6158,17.821136053187047
2766.8127,19.64094313520195
2768.009,11.216151130751769
2769.2045,19.0465886471643
2770.3994,12.882084179606863
2771.5936,-8.47753396721896
2772.7872,-2.1324376174309236
2773.9801,-11.032713904584853
2775.1723,1.9215713408159445
2776.3639,-8.919537494922452
2777.5548,-10.755996044708581
2778.745,-6.487670835271501
2779.9346,-12.714320940941207
2781.1235,-3.185640624216603
2782.3117,-2.401197131531262
2783.4992,-14.110525884768549
2784.6861,-16.863138317854236
2785.8723,-8.708404900560481
2787.0579,-3.1455276399090053
2788.2428,-8.02362154595653
2789.427,-4.191770204940667
2790.6106,-3.4989770471202064
2791.7935,6.555796373030262
2792.9757,18.223623455816323
2794.1573,17.65557753598614
2795.3382,15.00273176605333
2796.5184,31.716159121975352
2797.698,33.69693242968333
2798.8769,45.096124197947574
2800.0551,65.11480659857125
2801.2327,55.154051352397346
2802.4096,68.41492952912063
2803.5859,90.24851164689562
2804.7615,87.15586753972616
2805.9364,113.58806613913134
2807.1106,133.04617550507396
2808.2842,153.08126256163564
2809.4572,162.44439290243895
2810.6294,197.9366305902961
2811.801,214.75903806357542
2812.972,242.6126757812808
2814.1423,285.9986020548247
2815.3119,318.817872769494
2816.4808,357.1215409505887
2817.6491,390.1606564352296
2818.8167,432.3862654893212
2819.9837,480.59941047716393
2821.15,514.401129439198
2822.3157,556.6424556098686
2823.4807,599.4744170796109
2824.645,638.3480363724361
2825.8086,681.6643300176129
2826.9716,713.5743081609298
2828.134,765.7789741315332
2829.2957,792.5793241228266
2830.4567,805.2763466704259
2831.617,829.3710223841517
2832.7767,850.2143238210635
2833.9358,835.6572152445103
2835.0941,834.8506524157003
2836.2519,837.3455827392679
2837.4089,819.4929452713423
2838.5653,801.8936706945974
2839.7211,795.998681496779
2840.8761,793.8088921466958
2842.0306,806.5252091531725
2843.1843,819.6985310869427
2844.3374,858.1297484534887
2845.4899,903.1197435613087
2846.6417,944.8193901376044
2847.7928,1006.9295528783796
2848.9433,1054.6010870314476
2850.0931,1108.6848377753236
2851.2422,1165.5316397425147
2852.3907,1212.0923164786805
2853.5385,1260.017679874164
2854.6857,1285.7085296983864
2855.8323,1340.5156531205942
2856.9781,1370.3398244529483
2858.1233,1419.5818046024538
2859.2679,1455.1923407727186
2860.4118,1503.3721659715334
2861.555,1537.9219986547669
2862.6976,1561.0425422445671
2863.8395,1586.0344847838635
2864.9808,1613.6484987051583
2866.1214,1628.735240580612
2867.2614,1636.3953508458972
2868.4007,1654.1294536493367
2869.5393,1661.2381567752975
2870.6773,1668.3220514668546
2871.8146,1677.931712354702
2872.9513,1667.5676973863137
2874.0874,1668.9305477298485
2875.2227,1653.620787877788
2876.3574,1634.3889256333105
2877.4915,1627.4354522633862
2878.6249,1595.2108426910968
2879.7577,1578.2155555651705
2880.8898,1560.7000335822263
2882.0212,1528.2147036567283
2883.152,1538.259977096141
2884.2821,1521.386249925782
2885.4116,1521.193902788371
2886.5405,1524.2333011127648
2887.6686,1537.4547951158818
2888.7962,1539.7587197723092
2889.923,1542.945394682086
2891.0493,1544.6151240476636
2892.1748,1554.7181966420412
2893.2997,1557.3048857920664
2894.424,1559.0254492774066
2895.5476,1577.8801293046804
2896.6706,1597.219152490251
2897.7929,1603.0427296716828
2898.9145,1642.6510557143483
2900.0355,1657.5943094531945
2901.1559,1694.4726532966579
2902.2756,1713.6862330772333
2903.3946,1736.2851776826885
2904.513,1765.269598863931
2905.6308,1780.989591009015
2906.7479,1787.845230853301
2907.8643,1811.7865773222545
2908.9801,1828.6636714628894
2910.0953,1838.7265362043531
2911.2098,1834.3251761891574
2912.3236,1825.409577672549
2913.4368,1828.9297085665223
2914.5494,1799.8855185289785
2915.6613,1777.2269389285216
2916.7725,1761.5538831349
2917.8831,1752.7162467455958
2918.9931,1717.4139077425511
2920.1024,1691.4467265805483
2921.211,1674.8645465402299
2922.319,1652.2671939877716
2923.4264,1665.0044785407042
2924.5331,1627.6261932938867
2925.6391,1634.2821146921337
2926.7445,1626.5720029039999
2927.8493,1622.445601755218
2928.9534,1630.5026388058018
2930.0569,1613.79282539131
2931.1597,1643.5158565422753
2932.2619,1643.6714111513024
2933.3634,1647.0591516758382
2934.4643,1640.0787241366152
2935.5645,1625.429758083777
2936.6641,1610.3618666666775
2937.763,1572.0746467803767
2938.8613,1544.6176792163142
2939.959,1518.790529045184
2941.056,1453.4927458915051
2942.1523,1405.4238641918896
2943.248,1339.0334038480237
2944.3431,1268.970870707355
2945.4375,1192.3357572269988
2946.5313,1114.4775431743612
2947.6244,1019.9956963934915
2948.7169,945.7896735836625
2949.8087,876.9589212441929
2950.8999,817.1528764165032
2951.9904,745.5209673724271
2953.0803,682.4126142122689
2954.1696,640.7772295811242
2955.2582,606.014219299962
2956.3462,559.2229827819801
2957.4335,539.5529133802345
2958.5202,496.60339885555163
2959.6062,475.5238215732295
2960.6916,470.7635589325332
2961.7764,452.77198357748966
2962.8605,443.04846344449084
2963.9439,443.49236194220975
2965.0267,428.0530380488369
2966.1089,432.9298463076386
2967.1905,423.8221369813516
2968.2714,430.979256003414
2969.3516,421.25054506904485
2970.4312,431.9353415636699
2971.5102,428.53297866021103
2972.5885,437.8427852122362
2973.6662,429.9140857879852
2974.7432,439.19620057727
2975.8196,439.2884454707621
2976.8954,442.09013196717206
2977.9705,426.8505671723258
2979.045,426.06905377114845
2980.1188,413.74489018005966
2981.192,402.9773705547889
2982.2645,404.7657849136169
2983.3364,376.45941924505166
2984.4077,360.7075554899434
2985.4783,345.35947182454754
2986.5483,316.0144428180457
2987.6177,291.5217395860244
2988.6864,268.0806300839256
2989.7545,240.9403793519748
2990.8219,215.7002497495912
2991.8887,196.25950122679092
2992.9548,175.46739157658783
2994.0204,153.8231766294016
2995.0852,132.22611046097836
2996.1495,111.82544560883332
2997.2131,92.82043328822033
2998.276,82.71032359613946
2999.3383,67.09436570138689
3000.4,49.27180794565584
3001.4611,46.34189799969613
3002.5215,33.603883041539575
3003.5812,24.10700978579996
3004.6404,9.750524611052015
3005.6989,4.833673654800805
3006.7567,6.405702957046742
3007.8139,11.615858509453801
3008.8705,3.7633862396293125
3009.9264,-10.702468040977692
3010.9818,-3.0824585585522755
3012.0364,-10.277232621623284
3013.0905,-9.237406744959685
3014.1439,-9.81349477377637
3015.1966,-1.905918271595283
3016.2487,-10.815000765126115
3017.3002,-10.191046740955471
3018.3511,-1.934252643812556
3019.4013,-4.794713109870372
3020.4509,-2.32250345211844
3021.4998,2.132348915637749
3022.5481,-2.3801602185978936
3023.5958,9.289964911854895
3024.6428,7.192743851476507
3025.6892,15.028196051848113
3026.735,8.946340892623425
3027.7802,16.947197603175482
3028.8247,27.730785323414125
3029.8685,28.647123023777112
3030.9118,30.446229397395086
3031.9544,37.67812285092782
3032.9963,40.99282148657346
3034.0376,44.190343029749556
3035.0783,53.37070479594581
3036.1184,49.38392365874972
3037.1578,63.28001595804358
3038.1966,63.208997539870325
3039.2348,70.3208836174731
3040.2723,67.71568877200559
3041.3092,73.94342688141262
3042.3455,77.5041111464825
3043.3811,77.19775402856942
3044.4161,74.42436721398678
3045.4505,78.13396161707044
3046.4842,84.77654740791354
3047.5173,83.35213397527002
3048.5498,68.46072986012825
3049.5816,67.3523427699555
3050.6128,73.57697972761218
3051.6434,76.2346470824358
3052.6734,69.62535044799381
3053.7027,76.49909467550765
3054.7314,67.45588391994579
3055.7594,73.79572157128621
3056.7868,71.21861034494839
3057.8136,64.3245522183945
3058.8398,73.81354845690089
3059.8653,68.88559968249945
3060.8902,61.840705779086306
3061.9145,70.42886594170182
3062.9381,66.40007874697915
3063.9612,69.30434206726329
3064.9835,67.24165311089826
3066.0053,69.5620083931858
3067.0264,62.36540375701077
3068.0469,62.70183434963792
3069.0668,61.42129469467841
3070.086,58.423778688725406
3071.1046,50.75927961415948
3072.1226,55.62779016912327
3073.1399,49.27930254416731
3074.1567,50.663808373564734
3075.1727,39.28129879879532
3076.1882,37.6317644547014
3077.203,25.215195583312266
3078.2173,28.981582050340307
3079.2308,30.030913469345478
3080.2438,25.56317916407272
3081.2561,24.028368157957516
3082.2678,15.226469218803913
3083.2789,15.657470874132287
3084.2893,19.671361499198497
3085.2991,11.018129312684096
3086.3083,5.747762336557059
3087.3169,9.060248482604095
3088.3248,6.605575605134618
3089.3321,4.03373146785583
3090.3388,6.044703768419538
3091.3449,2.5384801641408217
3092.3503,3.065048251887731
3093.3551,5.324395603143671
3094.3593,-0.6834902412578572
3095.3629,-1.5086217937274
3096.3658,1.098995261391508
3097.3681,10.639370310886704
3098.3698,0.41251273055661386
3099.3708,3.6184317898060954
3100.3713,-0.14286736296241997
3101.3711,-6.921379615530327
3102.3702,-2.3170984284341216
3103.3688,6.720051882371536
3104.3667,2.3401701487447895
3105.364,4.043355135343518
3106.3607,5.679705583424095
3107.3568,-4.25067980619059
3108.3522,1.6522976105255793
3109.347,11.388778941889825
3110.3412,1.4089052796967962
3111.3348,7.9628176018534305
3112.3277,2.550656872178024
3113.32,9.672563974860623
3114.3117,7.228679768585039
3115.3028,9.019145015309903
3116.2932,0.14410040470681906
3117.2831,5.753686536256168
3118.2723,4.348042569875304
3119.2608,1.7773076079449766
3120.2488,2.6916207093653384
3121.2361,2.891120915263741
3122.2229,12.725947239851621
3123.209,4.246238668429498
3124.1944,8.952134059038258
3125.1793,14.643772227256704
3126.1635,4.771291899142284
3127.1471,12.134831654315008
3128.1301,14.484530024682272
3129.1125,14.02052542080321
3130.0942,15.792956108391877
3131.0753,16.351960212957408
3132.0558,17.747675702079277
3133.0357,18.33024037981744
3134.015,16.849791872755304
3134.9936,23.45646762417374
3135.9716,20.400404908855933
3136.949,26.98174076702071
3137.9258,19.350612034882886
3138.902,30.85715527884031
3139.8775,27.85150687178458
3140.8524,29.03380287803634
3141.8267,24.154179083400948
3142.8004,32.36277098334642
3143.7735,33.85971383179799
3144.7459,33.94514255905318
3145.7178,37.46919175681268
3146.689,32.481995677326154
3147.6596,32.68368819815163
3148.6295,31.37440287202702
3149.5989,34.25427292485375
3150.5676,32.92343126878916
3151.5357,35.38201047344819
3152.5032,36.530142779211246
3153.4701,33.867960072638596
3154.4364,40.39559387498923
3155.402,45.76317536884244
3156.367,42.52083533282172
3157.3315,44.418704087919195
3158.2952,45.906911529918375
3159.2584,43.535587110415975
3160.221,45.95485982193958
3161.1829,47.164858221660836
3162.1442,44.41571040720336
3163.105,44.95754400454172
3164.065,43.790486195494
3165.0245,52.564663712302604
3165.9834,49.93020284930546
3166.9416,49.3872293751939
3167.8993,53.03586855935717
3168.8563,46.97624517731265
3169.8127,46.45848347421881
3170.7684,56.83270722547212
3171.7236,57.89903974188414
3172.6782,52.25760376593951
3173.6321,56.05852146113244
3174.5854,60.45191446838129
3175.5381,59.687903868019134
3176.4902,62.316610135859975
3177.4417,58.08815315083879
3178.3926,60.15265216872447
3179.3428,63.910225864404396
3180.2924,65.81099231123972
3181.2415,65.35506894348921
3182.1899,70.1925725373022
3183.1377,72.87361921527707
3184.0848,70.39832439808674
3185.0314,64.01680277766806
3185.9773,73.72916834197477
3186.9227,69.23553443879274
3187.8674,67.78601367861623
3188.8115,67.43071797958433
3189.755,73.91975858197605
3190.6979,69.45324605176341
3191.6402,79.03129021572107
3192.5818,79.4040002060913
3193.5229,83.37148436480365
3194.4633,83.68385023974784
3195.4031,79.89120454509884
3196.3423,81.04365315819317
3197.2809,84.54130115745534
3198.2189,82.28425281087337
3199.1563,88.2226115410223
3200.0931,84.55647994763459
3201.0292,86.98595974821677
3201.9648,84.36115181471047
3202.8997,89.43215614919791
3203.834,91.44907191014991
3204.7677,95.8619973617158
3205.7008,90.07102985355422
3206.6333,92.22626577670405
3207.5652,93.17780062149396
3208.4964,97.47572895598992
3209.4271,98.1701444164801
3210.3571,93.91113966449538
3211.2865,105.94880637986535
3212.2154,100.18323530330815
3213.1436,102.0645161160542
3214.0712,103.69273749750141
3214.9982,102.56798710640263
3215.9246,103.79035156458346
3216.8503,105.15991646818964
3217.7755,108.42676637546336
3218.7001,109.54098479304777
3219.624,108.15265414331829
3220.5473,112.06185575324062
3221.4701,108.66866986825397
3222.3922,112.62317561317903
3223.3137,117.17545102614982
3224.2346,113.9755730190687
3225.1549,112.72361733208359
3226.0746,122.31965856558666
3226.9937,120.36377019273391
3227.9121,120.50602446348476
3228.83,118.946492424161
3229.7473,125.2352439160241
3230.6639,128.4723475908707
3231.5799,130.257870848145
3232.4954,124.29187980256776
3233.4102,128.12443926628106
3234.3244,131.4556128085082
3235.238,132.23546271722813
3236.151,133.16404996586368
3237.0634,128.24143420548302
3237.9752,137.71767375551394
3238.8864,134.49282565296986
3239.797,132.41694555768754
3240.7069,136.69008778457544
3241.6163,136.36230532437264
3242.5251,136.93364980091735
3243.4332,139.3541714744248
3244.3408,141.0739192357737
3245.2477,139.74294058230103
3246.154,142.36128160060477
3247.0598,141.2789869798533
3247.9649,146.9960999856023
3248.8694,146.4626624706177
3249.7733,148.87871481770424
3250.6766,148.59429594504022
3251.5793,153.35944328201674
3252.4814,147.67419277208202
3253.3829,150.38857882508972
3254.2838,154.3526343741517
3255.1841,158.96639084849397
3256.0838,152.87987813381633
3256.9829,151.1931245261545
3257.8814,157.05615679274555
3258.7792,154.96900018889525
3259.6765,155.33167839934788
3260.5731,159.49421355915757
3261.4692,159.75662625006183
3262.3647,158.0689354588559
3263.2595,164.03115857476877
3264.1538,161.64331140634016
3265.0474,160.30540812179802
3265.9404,162.56746127293738
3266.8329,154.1294818084991
3267.7247,156.7914790515494
3268.616,154.8034607838597
3269.5066,157.46543321928664
3270.3966,155.12740102365223
3271.286,153.98936728812419
