RamanShift,CorrectedData
30.1047,6806.901080357949
32.3739,6355.200387707197
34.6426,5906.449626987433
36.9109,5458.898666577644
39.1787,5019.747315792316
41.4461,4577.1953293569495
43.7131,4137.49241179957
45.9796,3688.338221876246
48.2456,3251.5823769681197
50.5112,2820.674457572948
52.7764,2379.014011672664
55.0411,1943.400559042453
57.3054,1502.9835956673612
59.5692,1075.4125980984272
61.8326,644.7370278568542
64.0955,222.5563357097182
66.3579,-198.78003402327408
68.6199,-600.8226392479795
70.8815,-969.7200520577156
73.1426,-1212.8148423276334
75.4032,-1147.7898924295662
77.6634,-291.415968715075
79.9231,2605.5476288853056
82.1824,9856.494511686566
84.4412,28320.56826494822
86.6995,55702.36237536484
88.9574,59421.470046425326
91.2148,58930.733924594926
93.4717,58445.04606212424
95.7282,57970.89792195647
97.9842,57504.680382584396
100.2398,57041.98374279183
102.4949,56582.59772631574
104.7495,56121.11148647332
107.0036,55665.363610755754
109.2573,55202.24212544311
111.5105,54741.58450016186
113.7632,54286.27765251603
116.0154,53821.70795269382
118.2672,53371.311228020655
120.5185,52915.22276760489
122.7693,52462.827326841776
125.0197,52003.25913197433
127.2696,51545.301884617285
129.519,51094.9887663528
131.7679,50639.95244331002
134.0163,50187.225070668224
136.2642,49737.23829720714
138.5117,49287.82326983429
140.7587,48841.96063808478
143.0052,48391.93055861554
145.2512,47947.612699663834
147.4967,47513.28624554767
149.7417,47068.879901108936
151.9863,46623.12189605662
154.2304,46179.88998941096
156.4739,45742.56147396097
158.717,45304.41318069675
160.9596,44864.12148318281
163.2017,44424.51230193952
165.4433,43993.31110884603
167.6844,43565.1429315364
169.925,43134.482357711575
172.1651,42705.80353942107
174.4047,42278.83019736959
176.6439,41846.685625203776
178.8825,41423.84269378202
181.1206,40997.37385549581
183.3582,40574.30114849827
185.5954,40158.54620096871
187.832,39736.28023534352
190.0681,39318.524072473585
192.3037,38906.39813584704
194.5388,38489.12245576681
196.7734,38079.21667347181
199.0075,37665.650045309776
201.2411,37254.24144683628
203.4742,36851.45937695041
205.7068,36447.921962008884
207.9389,36049.59695985379
210.1704,35649.35176384804
212.4015,35249.20340685861
214.632,34858.518565258935
216.862,34474.16356293046
219.0915,34089.60437516944
221.3205,33701.50663253053
223.549,33317.73562467232
225.777,32928.95630423834
228.0044,32543.33329069478
230.2314,32165.880874218296
232.4578,31782.41301955223
234.6837,31399.2433697811
236.909,31020.18525016535
239.1339,30624.801671972986
241.3582,30261.005336270217
243.582,29865.158637875218
245.8053,29511.87366899615
248.0281,29151.412223189567
250.2503,28780.88579889328
252.472,28413.505603031
254.6932,28056.88255471761
256.9139,27701.227288932954
259.134,27341.65016008806
261.3536,26989.861245581676
263.5727,26634.22034939609
265.7912,26293.437005614993
268.0092,25946.2204819799
270.2267,25598.42978329795
272.4436,25254.37365491409
274.6601,24909.060586189
276.8759,24579.348813939614
279.0913,24240.846325892293
281.3061,23906.460863979926
283.5204,23571.249927726945
285.7341,23237.02077759322
287.9473,22899.080438326106
290.16,22583.235702302787
292.3721,22265.643132909652
294.5837,21945.709067700765
296.7947,21631.8896215738
299.0052,21317.040689969348
301.2152,21004.267952009177
303.4246,20694.676873644647
305.6334,20389.222710784445
307.8418,20076.010512390574
310.0495,19769.745123532834
312.2568,19470.33118852097
314.4635,19173.97315396728
316.6696,18868.775271780767
318.8752,18571.84160213075
321.0802,18285.72601649876
323.2847,17989.632200647982
325.4887,17706.563657484352
327.692,17422.67371001753
329.8949,17133.115504191534
332.0972,16853.59201172369
334.2989,16567.80603300013
336.5001,16296.860199871131
338.7007,16023.656978508909
340.9008,15751.798672117075
343.1003,15480.887423662709
345.2992,15208.12521859497
347.4976,14948.51388755413
349.6955,14681.75510909925
351.8927,14417.950412304308
354.0895,14156.601179425728
356.2856,13906.958648540458
358.4812,13658.923916159489
360.6763,13406.04793972423
362.8707,13157.081540086918
365.0646,12912.075404039293
367.258,12670.680086802342
369.4508,12424.196014476278
371.643,12188.673486454587
373.8346,11947.962677888761
376.0257,11712.313642043628
378.2162,11484.82631270434
380.4062,11255.600506532995
382.5956,11026.785925343429
384.7844,10808.532158393522
386.9726,10582.638684673308
389.1603,10367.354875087556
391.3474,10106.829994714659
393.5339,9927.313204959552
395.7199,9723.653566158857
397.9052,9516.850039376099
400.09,9307.95148843828
402.2743,9105.506682003914
404.4579,8910.01429565205
406.641,8705.122913906693
408.8235,8501.781032191757
411.0054,8307.037058879963
413.1868,8106.639317326313
415.3675,7918.736047815415
417.5477,7733.075409565543
419.7273,7542.755482607623
421.9064,7349.674269641888
424.0848,7176.579697941044
426.2627,6996.819621281014
428.4399,6811.291821671999
430.6166,6638.544011155951
432.7928,6469.073833661976
434.9683,6297.928866733739
437.1432,6132.506623224217
439.3176,5970.654553007153
441.4914,5809.920044631239
443.6645,5640.400426938664
445.8371,5485.192970672448
448.0091,5331.89489017165
450.1806,5178.953344923444
452.3514,5028.165441096142
454.5216,4873.228233068534
456.6913,4728.48872493775
458.8603,4585.743872068699
461.0288,4447.340582541394
463.1967,4307.825718578431
465.3639,4166.446097929045
467.5306,4029.8984952642277
469.6967,3901.6796435905126
471.8622,3772.73623561547
474.0271,3638.2649250299146
476.1914,3505.562327797321
478.3551,3382.7250234985695
480.5182,3268.449556658925
482.6807,3149.682437976451
484.8426,3036.9201454647555
487.0039,2914.309125640655
489.1647,2799.595794651759
491.3248,2690.526539502629
493.4843,2584.6977192018676
495.6432,2477.5056658528993
497.8015,2367.6966857121806
499.9592,2263.9670602611295
502.1163,2156.863047304243
504.2728,2067.3308820063467
506.4287,1984.5167779636613
508.5839,1893.1169280991016
510.7386,1796.2775054904196
512.8927,1693.7446642842187
515.0461,1615.6645406643001
517.199,1528.1832538771196
519.3512,1451.0469070125691
521.5029,1365.3015878786828
523.6539,1291.5933697731234
525.8043,1217.8183123405324
527.9541,1142.072462309654
530.1033,1071.451854231098
532.2519,1003.7025112347692
534.3999,937.5704457361207
536.5472,874.4016601135663
538.694,812.792147369888
540.8401,753.6878917638605
542.9856,678.5348694264248
545.1305,623.879048951625
547.2748,567.216392148177
549.4185,513.9928545860021
551.5615,466.1987253432526
553.704,422.8691587093781
555.8458,380.0846516485617
557.987,338.22147666202363
560.1276,298.20210920526006
562.2675,255.69564590121445
564.4069,218.66820433368412
566.5456,187.78334768694185
568.6837,153.40245464986947
570.8212,124.83502795565437
572.958,97.58903784699942
575.0942,70.97120746458677
577.2299,47.33728503459133
579.3648,33.89230978078558
581.4992,23.390848027447646
583.6329,2.0371275145735126
585.766,-20.864857692395162
587.8985,-46.6111338789633
590.0304,-96.39751889072795
592.1616,-93.26936492812092
594.2922,-109.52106118033407
596.4222,-121.14606507564167
598.5515,-136.18673992696858
600.6802,-141.43423879809416
602.8083,-150.6283542473102
604.9358,-161.15746590494382
607.0626,-167.30844862412778
609.1888,-176.71656729487586
611.3144,-183.66541539585887
613.4393,-185.73682100722363
615.5636,-184.86077739167376
617.6873,-185.06542230107152
619.8103,-188.82704672817636
621.9327,-178.0200928622071
624.0544,-179.76711651020014
626.1756,-175.33889505855768
628.2961,-178.2544100202649
630.4159,-170.73089127278217
632.5351,-166.0337879320723
634.6537,-158.97684351249336
636.7716,-161.7221428509365
638.8889,-155.0301826056384
641.0056,-143.70984383064206
643.1216,-136.11845882849593
645.237,-123.06192424041365
647.3518,-108.19477688423649
649.4659,-92.17032418921008
651.5793,-76.24079271877417
653.6922,-66.85748825487099
655.8043,-58.57095493396628
657.9159,-42.23173622385366
660.0268,-29.04037500659615
662.137,-17.397413741950004
664.2466,-1.9033945992268855
666.3556,17.641140426218044
668.4639,35.78564935810573
670.5716,58.3295900437588
672.6786,75.67241997273231
674.785,92.06359605130274
676.8907,112.40257442901202
678.9958,142.53881033483776
681.1002,160.42175787372253
683.204,170.65086972531572
685.3072,203.12559696504468
687.4097,229.6953889618453
689.5115,255.55969305339386
691.6127,281.7179542804806
693.7132,312.3196151283264
695.8131,313.2641152650467
697.9123,357.1508912355712
700.0109,388.8293764522532
702.1089,422.64900075599144
704.2061,453.3591900993779
706.3028,480.00936620856373
708.3987,512.4489462761048
710.4941,548.7773426945278
712.5887,581.6939627318934
714.6827,615.9982081685157
716.7761,653.1394749677493
718.8688,689.5671529330139
720.9608,724.9306253363175
723.0522,751.9792685540306
725.1429,796.2124517132761
727.233,837.3295364214646
729.3224,874.629876323881
731.4112,922.1628166925802
733.4993,955.7276940533266
735.5867,1000.8238357102673
737.6735,1041.4005594103583
739.7596,1080.2571728923285
741.845,1134.2929734809586
743.9298,1173.0572476984307
746.014,1217.0492707241428
748.0974,1258.4683060068855
750.1802,1305.6636048249784
752.2624,1353.4344058721472
754.3439,1404.9299347854976
756.4247,1446.8994036678268
758.5048,1500.5420105726662
760.5843,1550.8569390845878
762.6631,1605.9933577827032
764.7413,1658.5004197376402
766.8188,1712.4772619601208
768.8956,1758.623004875888
770.9718,1819.9867517859602
773.0473,1874.4175884051583
775.1221,1927.3645822484978
777.1962,1982.1267820868306
779.2697,2040.6032174173888
781.3426,2080.1928979161166
783.4147,2155.4948128530013
785.4862,2216.457930696095
787.557,2274.0311983585634
789.6271,2333.3135405890425
791.6966,2395.953859395908
793.7654,2455.8510334544335
795.8335,2522.2039174804086
797.901,2583.961341631155
799.9678,2641.4221108419515
802.0339,2703.3850042085032
804.0993,2762.648774412388
806.1641,2830.062147101329
808.2282,2891.9738202965964
810.2916,2951.0824637189
812.3544,3043.6867181692724
814.4164,3064.4851949379445
816.4778,3134.4264748783316
818.5385,3207.0091081990395
820.5986,3266.7816137644477
822.658,3357.1424783688562
824.7166,3438.8901561387393
826.7747,3429.5730676292296
828.832,3528.489599006585
830.8886,3651.388102141369
832.9446,3735.91689361928
834.9999,3668.0242535121506
837.0545,3813.5084245326943
839.1085,3955.2676127133964
841.1618,4011.1499859517353
843.2143,3967.6036725925806
845.2662,4029.4767608693073
847.3175,4181.217299339296
849.368,4028.473296265176
851.4179,4303.542718097429
853.467,4241.9234910018495
855.5155,4388.763498108849
857.5633,4288.5105801296595
859.6105,4278.312533887882
861.6569,4500.467113322062
863.7027,4242.472029587661
865.7478,4467.174948835469
867.7922,4465.923494791627
869.8359,4744.0152465105275
871.8789,4452.147738387386
873.9212,4779.218457377261
875.9629,4989.424845913767
878.0039,4992.9642986383915
880.0441,4938.134160298396
882.0837,5028.431725711474
884.1226,5055.154240313983
886.1609,5067.798899257992
888.1984,4903.36284714409
890.2352,5295.643177894919
892.2714,4960.886936399547
894.3069,5251.141114590617
896.3416,5125.902654791906
898.3757,5182.418446815835
900.4091,4718.43532921579
902.4418,5546.950088721031
904.4739,5229.909464876488
906.5052,5366.310141757604
908.5358,5219.898751140761
910.5658,5124.671871139231
912.595,5243.926027667345
914.6236,4782.807695392716
916.6515,5636.463296543676
918.6786,4940.739205520542
920.7051,5260.581740359012
922.7309,5236.337169687409
924.756,5506.651709528269
926.7804,5381.471523540793
928.8041,4926.1927203176965
930.8272,5429.961354636958
932.8495,5516.7734320147065
934.8711,5123.874903667456
936.892,4950.561665643974
938.9123,5204.679562754332
940.9318,4923.324390303031
942.9506,4958.391891547792
944.9688,5121.777760513141
946.9862,4380.877641639723
949.003,4770.537128150441
951.019,4103.951769459454
953.0344,4401.317067275551
955.0491,4365.328482268073
957.063,4811.93143109318
959.0763,4943.871286753798
961.0888,4460.793374133602
963.1007,5012.442968677562
965.1119,5110.915301222718
967.1223,4717.655552481745
969.1321,5384.508852058163
971.1412,4740.820282378991
973.1495,4568.7348720261725
975.1572,4987.797602173545
977.1641,4841.853408307594
979.1704,4722.14717603688
981.1759,4950.673742551429
983.1808,4650.727897819881
985.1849,4793.95438230416
987.1884,5061.597889958939
989.1911,5652.503066799371
991.1932,4708.164508224661
993.1945,5043.976753109033
995.1951,5374.58429324512
997.1951,4874.731569985801
999.1943,4756.862970938157
1001.1928,4639.122834961949
1003.1906,4877.555453348337
1005.1877,4278.9050709973235
1007.1841,4104.015884033339
1009.1798,4093.1320457918337
1011.1748,4043.147668568141
1013.1691,3891.1068237262443
1015.1627,2776.1535421987064
1017.1556,2962.2818160070383
1019.1477,3211.5856094112532
1021.1392,2714.1588570485837
1023.1299,2152.3454614403745
1025.12,2556.7392979664364
1027.1093,2276.084220483084
1029.0979,2392.9740572792507
1031.0859,2393.9026138830523
1033.0731,1937.0636718929163
1035.0596,2081.300988968207
1037.0454,1988.5583033977455
1039.0304,1686.7793326573155
1041.0148,1256.9077743371672
1042.9985,1241.3873091598289
1044.9814,1487.8616052787256
1046.9636,1115.0243184334977
1048.9452,1121.969089485181
1050.926,1150.8395481445696
1052.9061,1084.8793129028272
1054.8855,1082.23199074273
1056.8642,946.0411777982954
1058.8421,1014.2004593812162
1060.8194,999.5034113428046
1062.7959,1008.1435993923878
1064.7717,1106.364579244313
1066.7469,1077.659896531506
1068.7213,992.2730858232171
1070.695,931.8476709121605
1072.6679,683.3771656682948
1074.6402,771.0050746431443
1076.6117,720.4248955544317
1078.5826,785.8301184098818
1080.5527,840.2142260129622
1082.5221,890.3206933088804
1084.4908,1222.842986840733
1086.4587,1355.5745642484326
1088.426,1558.958870943483
1090.3925,1526.1393387816643
1092.3584,1499.009384029203
1094.3235,1183.9624076909604
1096.2879,1039.1417957817393
1098.2515,1036.1409224767267
1100.2145,1084.7531515597439
1102.1767,1029.7718364531902
1104.1382,1171.4903197319582
1106.099,1398.7519336732948
1108.0591,1548.849998839527
1110.0185,1595.9278218055188
1111.9771,1743.1786936576245
1113.9351,1378.9958895229283
1115.8923,1001.4226670967255
1117.8488,704.1022702843693
1119.8045,256.42793297699245
1121.7596,205.34288202475
1123.7139,121.0403417134803
1125.6675,161.6135342756752
1127.6204,332.6556807334273
1129.5726,287.11000049272843
1131.524,400.269709633023
1133.4748,475.8780213626742
1135.4248,477.87814488735603
1137.3741,568.5132846539927
1139.3226,495.37664033074543
1141.2705,598.8114059006693
1143.2176,377.56077039310185
1145.164,422.31791684927884
1147.1097,503.67602453483414
1149.0546,572.0282684922713
1150.9989,501.0678187273443
1152.9424,396.13783952557424
1154.8852,234.83149016175594
1156.8272,79.14192594934138
1158.7686,114.26229985350801
1160.7092,-50.61423595199449
1162.6491,-106.24453043597168
1164.5883,89.21507306894637
1166.5267,151.00929261295823
1168.4644,312.93284535413113
1170.4014,512.8804469405004
1172.3377,830.3968098907571
1174.2732,1079.326641594831
1176.2081,1306.9646411387075
1178.1421,1483.9554968151206
1180.0755,1620.2438838471862
1182.0082,1555.524462618465
1183.9401,1574.9418773101206
1185.8713,1385.040756548071
1187.8017,1176.0157132088498
1189.7315,925.211346318596
1191.6605,619.872243143298
1193.5888,388.04298169685353
1195.5163,293.4681337944421
1197.4432,199.7922673708308
1199.3693,122.05994742611801
1201.2947,-5.784263037516212
1203.2193,-28.74580223846715
1205.1432,20.66994938962307
1207.0664,116.45789858367061
1208.9889,146.36295187388896
1210.9106,245.2300146259513
1212.8316,272.1539907418919
1214.7519,300.1297816714796
1216.6715,338.552286142949
1218.5903,404.5163998832577
1220.5084,292.76701523386146
1222.4257,351.9990204910646
1224.3424,177.40730102350062
1226.2583,215.286738679868
1228.1735,370.98221353474946
1230.0879,426.53860350991454
1232.0016,586.3507828172878
1233.9146,595.4636214034181
1235.8269,520.6219833512805
1237.7384,439.6207267892096
1239.6492,202.20470463929087
1241.5592,132.5687654274734
1243.4686,41.90775565768854
1245.3772,-37.78347949186718
1247.285,-108.36009526201815
1249.1922,-135.02686943665321
1251.0986,-137.3874972823105
1253.0042,-215.49432514714863
1254.9092,-68.49832687820162
1256.8134,43.75167646573391
1258.7169,272.8575481241496
1260.6196,386.22115089905856
1262.5216,678.1443448639111
1264.4229,795.0289862299906
1266.3234,978.7769244271403
1268.2232,1070.2400009349367
1270.1223,1047.0700474451805
1272.0207,1069.568884947308
1273.9183,1009.3383239600444
1275.8151,953.480164306442
1277.7113,960.1461957161882
1279.6067,727.9881983841842
1281.5014,563.7579429039106
1283.3953,456.2571925889861
1285.2885,405.8377051154457
1287.181,388.1512335968073
1289.0727,469.049527088202
1290.9637,467.93433076328074
1292.854,693.557385105174
1294.7435,777.9704259177524
1296.6323,1029.1751820692662
1298.5204,1338.9733746482962
1300.4077,1638.3667144516585
1302.2943,1844.4068988864528
1304.1802,2036.6956089761297
1306.0653,1949.0345073000935
1307.9497,1846.6752360708233
1309.8333,1845.019418010459
1311.7162,1901.2686573744031
1313.5984,1994.2245399678832
1315.4798,2111.538632583448
1317.3605,2335.3124820714256
1319.2405,2598.197614166769
1321.1197,2734.395531251321
1322.9982,2552.1077097249654
1324.876,2693.185598643642
1326.753,2674.38062154223
1328.6293,2761.594175023758
1330.5048,2893.62762894747
1332.3796,2853.782325556662
1334.2537,2909.4595781583557
1336.127,2838.3606715217975
1337.9996,2792.0868613216517
1339.8714,2753.189374848971
1341.7426,2707.3694114739556
1343.6129,2723.6781430349583
1345.4826,2628.5167142966347
1347.3515,2742.986242786901
1349.2196,2662.7878197485115
1351.087,2677.222508994375
1352.9537,2731.8913477095375
1354.8197,2935.3453463068145
1356.6849,3149.5854878801474
1358.5493,3207.8627261700312
1360.4131,3258.5779834211535
1362.276,3179.932149799577
1364.1383,3000.2760828856153
1365.9998,2777.210608460293
1367.8606,2499.636522301862
1369.7206,2296.6545924164966
1371.5799,2093.415561814003
1373.4384,1994.8701505376775
1375.2962,1928.869057696651
1377.1533,1687.8629624513742
1379.0096,1350.8025246736215
1380.8652,1125.13838735655
1382.7201,924.0711799853125
1384.5742,728.5015207936922
1386.4275,507.880018774762
1388.2802,434.7572756366062
1390.132,314.4838880085226
1391.9832,327.46044817224174
1393.8336,158.18754526468547
1395.6832,158.81576514817425
1397.5322,120.54569210316549
1399.3803,125.0779088219424
1401.2278,28.262996791367186
1403.0745,23.75153624754239
1404.9204,-90.10589285605965
1406.7656,-11.908710803469148
1408.6101,8.294562279141246
1410.4538,-4.54447476641144
1412.2968,47.17577681876719
1414.139,19.406961192860763
1415.9805,204.80072204228782
1417.8213,240.90870285942583
1419.6613,353.8325450886405
1421.5006,576.3738877652177
1423.3391,868.7843663861131
1425.1769,1223.0656106845454
1427.0139,1717.7192417059086
1428.8502,2396.996868264934
1430.6858,3023.0500819991867
1432.5206,3419.980450576273
1434.3547,3755.8395114333034
1436.188,3778.7287678076245
1438.0206,3821.64968537819
1439.8524,3602.603692036664
1441.6835,3590.142177458227
1443.5139,3472.66649529204
1445.3435,3410.277963285822
1447.1724,3404.627864460661
1449.0005,3371.6674477348533
1450.8279,3278.997927980432
1452.6545,3303.520486352765
1454.4804,3371.1862712172733
1456.3056,3397.2963979041597
1458.13,3336.1519480317947
1459.9536,3184.1039692455997
1461.7766,2854.9034758294983
1463.5987,2411.601450226375
1465.4202,2051.498846330109
1467.2409,1733.4965939185713
1469.0608,1500.0456022546532
1470.88,1257.0967632662941
1472.6984,1116.8509538809885
1474.5161,851.4090384552437
1476.3331,726.8218701770857
1478.1493,624.3402937204919
1479.9648,612.415146491232
1481.7795,526.8972596517269
1483.5935,530.3374582402466
1485.4067,469.1365620261058
1487.2192,468.09538547525517
1489.031,442.51473836229707
1490.842,400.2954257808924
1492.6522,468.08824839957015
1494.4618,432.84400288392135
1496.2705,430.1634812186676
1498.0785,447.79747106011564
1499.8858,448.49675576294976
1501.6924,435.56211420388354
1503.4981,432.8943207746852
1505.3032,497.54414551151785
1507.1075,486.46235412162423
1508.911,494.24970733680675
1510.7138,494.3569610242521
1512.5159,448.2348661086544
1514.3172,400.4341685711479
1516.1178,361.75560991053135
1517.9176,394.5499276212686
1519.7166,326.0678555802806
1521.515,344.86012371900506
1523.3126,347.6274587082153
1525.1094,379.570583770088
1526.9055,338.9902186505278
1528.7008,314.53707929974917
1530.4954,240.4118782780606
1532.2893,273.01532500042595
1534.0824,226.09812647768194
1535.8747,272.9609869905289
1537.6663,258.2546085586946
1539.4572,229.0296904723109
1541.2473,280.13692943897695
1543.0367,248.1270198760103
1544.8253,215.50065339935827
1546.6132,246.8585191437196
1548.4003,218.20130408879777
1550.1867,259.8296927457304
1551.9723,314.24436744363265
1553.7572,348.9460079133496
1555.5414,352.68529074329126
1557.3247,414.712889032402
1559.1074,430.5294723527877
1560.8893,476.9857061294206
1562.6705,549.2822514820109
1564.4509,629.9197647604014
1566.2305,692.8488968216188
1568.0094,911.0702922235214
1569.7876,987.7845885954994
1571.565,1074.5924144562305
1573.3417,1143.8443884465742
1575.1176,1214.241118461472
1576.8928,1177.0832009574406
1578.6672,1113.9712202485862
1580.4409,1003.6557488781909
1582.2138,876.0873482498391
1583.986,801.8665697305696
1585.7575,714.0939559265644
1587.5282,622.1200414253435
1589.2981,591.3453536735215
1591.0673,509.3704138964822
1592.8358,502.5957374061836
1594.6035,527.2718344208843
1596.3704,526.6992101329088
1598.1366,534.878364461867
1599.9021,579.7597920603948
1601.6668,589.493982232354
1603.4308,651.0314184840099
1605.194,735.9725784267175
1606.9564,803.5179331615036
1608.7182,920.8679464296911
1610.4791,1059.7230739374427
1612.2394,1189.9337621822233
1613.9988,1350.4004470643013
1615.7576,1592.0235525846074
1617.5156,1884.9034892400596
1619.2728,2186.5906516073665
1621.0293,2371.585415414189
1622.785,2477.438134522301
1624.54,2404.199139077624
1626.2942,2250.1687344517086
1628.0477,2009.797201974132
1629.8005,1792.5348004727748
1631.5525,1564.2317686775496
1633.3037,1346.1883273930289
1635.0542,1229.9546817814771
1636.804,1103.1810235432822
1638.553,1042.4175320792856
1640.3013,948.9643757585291
1642.0488,899.2717125258969
1643.7955,907.0896908366412
1645.5416,935.0184501532931
1647.2868,981.3081208674885
1649.0313,1068.1088240207027
1650.7751,1194.1706708413221
1652.5181,1397.8437618766657
1654.2604,1610.4781857323433
1656.0019,1968.974017035558
1657.7427,2364.4313143087275
1659.4828,2772.400116384557
1661.222,3026.6804384514326
1662.9606,3110.27226797376
1664.6984,2993.325562149148
1666.4354,2683.040247072484
1668.1717,2277.1162189054194
1669.9072,1803.5533469792135
1671.642,1472.0014778539808
1673.3761,1188.4104400543038
1675.1094,977.5300473847747
1676.8419,794.8101017658701
1678.5737,650.300395342776
1680.3048,557.4007123125884
1682.0351,447.96083036938944
1683.7646,423.930521633265
1685.4934,351.3595537447072
1687.2215,347.89769010489545
1688.9488,270.894690601428
1690.6754,214.40031164292668
1692.4012,257.4143069290676
1694.1263,262.08642801554925
1695.8506,252.26642388393338
1697.5742,213.65404089492768
1699.297,208.8490228865885
1701.0191,116.90111156042803
1702.7404,118.81004652948468
1704.461,69.62556623778255
1706.1808,64.69740794126665
1707.8999,50.72530819962776
1709.6182,73.2090029255869
1711.3358,69.54822752461405
1713.0527,48.892716670086884
1714.7688,50.84220433990413
1716.4841,22.346424023038708
1718.1987,50.95510870004
1719.9126,41.667991127997084
1721.6257,42.684803554460814
1723.338,29.805277810306507
1725.0496,18.37914529957561
1726.7605,23.95613712827617
1728.4706,1.8359842186291644
1730.18,-25.981582746691856
1731.8886,-10.54683310335895
1733.5964,-10.80977663102749
1735.3036,-15.670317746498768
1737.0099,-0.2782528769239434
1738.7156,17.366778097028146
1740.4204,-31.93486192558703
1742.1246,-11.382810219367457
1743.8279,6.3236149703534466
1745.5306,18.235209112501252
1747.2325,-12.147232387220356
1748.9336,8.877085694546622
1750.634,0.5090799319968937
1752.3336,33.94966681058395
1754.0325,40.49976281066665
1755.7307,26.510284073132425
1757.4281,92.2821463338696
1759.1247,112.66626506367356
1760.8206,82.41355481052597
1762.5158,115.12492899574681
1764.2102,76.5513002165244
1765.9039,78.94357991881589
1767.5968,89.05267878305858
1769.289,104.07950670026548
1770.9804,91.17497267093313
1772.6711,147.13998465477562
1774.361,118.4254496997637
1776.0502,116.93227338248835
1777.7386,134.7113600952689
1779.4263,122.2136130611234
1781.1132,157.78993415596233
1782.7994,142.09122403355832
1784.4849,157.91838176981219
1786.1696,147.37230501971135
1787.8535,159.45388985905083
1789.5367,185.2140308899434
1791.2192,213.70362111998293
1792.9009,175.57355170461778
1794.5818,210.22471166227297
1796.2621,226.6579882556489
1797.9415,195.72426664520572
1799.6202,204.87442972482495
1801.2982,224.0593584311482
1802.9755,233.479931652073
1804.6519,273.5370260349009
1806.3277,194.38151589214795
1808.0027,175.7142728009494
1809.6769,237.73616639464672
1811.3504,261.348064549431
1813.0231,266.850832764143
1814.6951,258.99533392415105
1816.3664,293.83242824632
1818.0369,288.7129733575712
1819.7067,297.33782394650007
1821.3757,278.50783181458064
1823.044,324.8238457899115
1824.7115,292.98671191551875
1826.3783,322.59727298620055
1828.0443,302.656368866903
1829.7096,303.0148361965985
1831.3741,319.5735085877077
1833.0379,345.83321662250637
1834.701,327.5947876875398
1836.3633,325.2590457110273
1838.0248,347.176811345249
1839.6856,347.3989019898945
1841.3457,381.6261315729025
1843.005,368.7093105482163
1844.6636,381.5992455535343
1846.3214,356.69673953946585
1847.9785,425.85259164063064
1849.6349,415.8175974246824
1851.2904,420.74254820075475
1852.9453,439.2782311198116
1854.5994,436.42542912539466
1856.2528,473.4349207682717
1857.9054,452.207480234958
1859.5572,494.54387697763013
1861.2083,496.344875926392
1862.8587,536.4112370659186
1864.5084,491.69371541744295
1866.1572,491.5930606380989
1867.8054,478.7100174680854
1869.4528,504.6453257316807
1871.0994,512.5997204660653
1872.7453,510.5239316619791
1874.3905,508.91868418416016
1876.0349,508.08469779211737
1877.6786,509.17268715617683
1879.3215,537.6333618658282
1880.9637,574.6174264188412
1882.6051,571.2255799366521
1884.2458,558.4085157945337
1885.8858,555.466921655503
1887.525,591.7514795984953
1889.1634,542.4128661477826
1890.8011,542.6017519101279
1892.4381,555.368802068173
1894.0743,586.4146763785484
1895.7098,577.9400290442009
1897.3446,578.2455084039357
1898.9786,593.1317570171705
1900.6118,597.9494116608694
1902.2443,555.6491031806872
1903.8761,575.3314564427892
1905.5071,548.4970907568604
1907.1374,574.446619679271
1908.7669,534.0306512814223
1910.3957,554.3997878902537
1912.0237,516.2046264924084
1913.651,533.6957585305336
1915.2776,529.173770285237
1916.9034,530.839242700169
1918.5285,492.8927514272473
1920.1528,484.08486681000613
1921.7764,510.56615426305507
1923.3992,512.0871743601565
1925.0213,461.99848256942096
1926.6427,458.70062923808655
1928.2633,451.69416009341876
1929.8832,473.729616275672
1931.5023,460.00753440817425
1933.1207,443.0784463769651
1934.7383,445.04287946802106
1936.3552,455.5013565365389
1937.9714,424.95439598729354
1939.5868,404.3525116700457
1941.2015,397.3962131850258
1942.8154,414.0360060889343
1944.4286,380.3223919645079
1946.041,378.005868254133
1947.6528,372.23692859697985
1949.2637,352.06606285216185
1950.8739,334.193757156434
1952.4834,358.0704941258937
1954.0921,358.54675303470685
1955.7001,336.8230095763356
1957.3074,358.64973585877124
1958.9139,341.3274006217871
1960.5197,325.106469018654
1962.1247,295.6874027893864
1963.729,288.9206604229257
1965.3325,291.0066974513484
1966.9353,285.29596651752763
1968.5374,304.3889173542739
1970.1387,289.68599684144647
1971.7393,261.63764881501265
1973.3392,281.094314214095
1974.9383,262.3064313614432
1976.5366,241.97443576887053
1978.1342,251.24876032513384
1979.7311,251.0298354992501
1981.3273,242.96808924774632
1982.9227,251.46394701685495
1984.5173,242.3678318231323
1986.1112,236.53016416849096
1987.7044,247.20136213117985
1989.2968,223.88184142414866
1990.8885,225.42201528834084
1992.4795,240.77229472588078
1994.0697,216.83308848467823
1995.6592,227.20480290492014
1997.2479,219.78784215846463
1998.8359,234.13260814512796
2000.4232,211.4395005668539
2002.0097,204.85891678426196
2003.5955,205.29125204357842
2005.1805,229.23689954245128
2006.7648,221.8462504256113
2008.3484,217.66969354544017
2009.9312,231.15761553584707
2011.5133,218.2604008540493
2013.0946,206.62843164569495
2014.6752,202.9120878738304
2016.2551,226.81174743522752
2017.8342,225.02778619753917
2019.4126,190.0605777603123
2020.9902,162.01049347281514
2022.5672,197.87790278371176
2024.1433,205.91317352156693
2025.7188,193.76667153617564
2027.2935,188.93876061820993
2028.8674,183.82980262067213
2030.4406,187.59015750718936
2032.0131,152.6201834030835
2033.5849,157.5202365577843
2035.1559,156.74067169452428
2036.7261,196.18184196133916
2038.2957,189.59409893886004
2039.8645,178.82779224590377
2041.4325,200.63326960535233
2042.9998,219.5108769518156
2044.5664,237.91095821357248
2046.1323,191.1838551237979
2047.6974,195.72990703655705
2049.2617,180.74945139407828
2050.8254,207.3928236813017
2052.3883,206.81035757567133
2053.9504,203.15238468070856
2055.5118,190.31923453184027
2057.0725,176.16123463296935
2058.6325,204.47871058481178
2060.1917,193.12198622647338
2061.7502,219.09138335227544
2063.3079,193.38722182532456
2064.8649,177.00981931781098
2066.4212,201.20949156805818
2067.9767,192.93655254429996
2069.5315,182.94131420267695
2071.0856,174.6240865699674
2072.6389,158.13517784354008
2074.1915,126.57489447452735
2075.7433,123.89354133271627
2077.2945,129.59142202214753
2078.8448,137.06883890792597
2080.3945,133.2260930592438
2081.9434,148.1134841746143
2083.4916,139.43131062028897
2085.039,137.97986928138744
2086.5857,150.30945564872673
2088.1317,160.8703638333227
2089.677,146.31288644310098
2091.2215,146.38731447728333
2092.7652,137.4939374719661
2094.3083,137.83304349938044
2095.8506,156.20491925682109
2097.3921,182.7598500632639
2098.933,165.74811967563528
2100.4731,164.7200100232758
2102.0124,151.92580137804543
2103.5511,187.01577236461162
2105.089,192.79020008838233
2106.6261,180.59935978461726
2108.1626,151.24352476067907
2109.6983,182.1729665179373
2111.2332,193.93795504532955
2112.7675,181.1887585100676
2114.301,172.4756431399819
2115.8337,190.6988733510234
2117.3657,192.3587118343803
2118.897,179.1054193742566
2120.4276,198.03925483127023
2121.9575,183.3104752749914
2123.4866,211.4693357946071
2125.0149,204.71608964619736
2126.5426,173.2509879711606
2128.0695,188.42427986373878
2129.5956,187.33621268567003
2131.1211,192.63703191445165
2132.6458,210.47698115422736
2134.1698,228.95630208276725
2135.693,189.87523427308133
2137.2155,201.6840150086182
2138.7373,193.13287967407723
2140.2584,213.9720616373197
2141.7787,197.3017923348816
2143.2983,183.12230106358493
2144.8171,161.3838151472337
2146.3353,177.5865600784109
2147.8527,156.9807597358713
2149.3693,185.56663622250562
2150.8853,166.54441007140122
2152.4005,175.01429995997842
2153.9149,177.5265229002116
2155.4287,130.08129415393796
2156.9417,208.5788272077316
2158.454,193.6193342473607
2159.9655,187.85302537280495
2161.4764,202.08010874785668
2162.9865,193.00079065777663
2164.4958,199.86527536702852
2166.0045,172.37376521006354
2167.5124,169.77646052269301
2169.0195,181.57355991698478
2170.526,182.26526030724835
2172.0317,190.5517567920624
2173.5367,201.68324264735293
2175.0409,216.85990924353246
2176.5445,210.28194593418175
2178.0473,207.8995399042842
2179.5494,179.96287623601165
2181.0507,172.67213793253632
2182.5513,169.77750619741164
2184.0512,152.72916050746971
2185.5504,184.17727864176868
2187.0488,174.07203685207605
2188.5465,162.36360954838892
2190.0435,151.05216939998627
2191.5397,149.28788745251313
2193.0353,169.02093324109774
2194.5301,147.45147480799096
2196.0241,148.67967850523837
2197.5175,145.90570921037488
2199.0101,142.17973031414294
2200.502,134.85190374823378
2201.9931,143.3223900225439
2203.4835,114.3913482984517
2204.9733,115.1089363041192
2206.4622,120.92531062379294
2207.9505,133.84062669063587
2209.438,117.60503872856134
2210.9248,115.21869962307665
2212.4109,109.88176108364587
2213.8962,105.6943736675421
2215.3809,116.45668683323129
2216.8648,127.81884898223143
2218.3479,122.13100735149783
2219.8304,118.94330789979995
2221.3121,88.90589536459447
2222.7931,93.36891329391347
2224.2733,101.38250434673137
2225.7529,103.6968102483388
2227.2317,81.31197171020176
2228.7098,96.62812840681818
2230.1872,87.74541919956937
2231.6638,103.41398198355273
2233.1397,77.58395377641682
2234.6149,77.85547056167798
2236.0894,97.27866754702154
2237.5632,109.10367916157793
2239.0362,85.5306388616973
2240.5085,77.45967901269341
2241.9801,69.44093112457631
2243.4509,92.32452593276321
2244.921,77.71059347826667
2246.3904,65.74926287885319
2247.8591,75.64066247518713
2249.3271,83.08491995043823
2250.7943,86.43216223137915
2252.2608,53.28251541393274
2253.7266,70.08610472969849
2255.1917,70.79305487745296
2256.656,51.10348985511973
2258.1197,64.51753295269009
2259.5826,47.98530694912097
2261.0447,77.45693397820014
2262.5062,63.58253569386852
2263.9669,69.6622329754955
2265.4269,82.44614606662708
2266.8862,69.78439451418853
2268.3448,76.17709704064237
2269.8026,75.07437167061107
2271.2598,85.72633566694822
2272.7162,88.38310554176314
2274.1719,73.44479694990514
2275.6268,95.86152466239946
2277.0811,79.03340271582329
2278.5346,87.61054418814274
2279.9874,85.19306136699288
2281.4395,106.63106566390434
2282.8908,109.42466763848097
2284.3414,99.07397678401776
2285.7914,88.82910149956751
2287.2406,85.54014919344172
2288.689,94.35722638566767
2290.1368,89.98043874087125
2291.5838,93.00989098010905
2293.0302,100.945686924636
2294.4758,103.43792946561189
2295.9206,103.13672048474018
2297.3648,88.44216082934872
2298.8082,94.55435031540037
2300.251,107.42338787443805
2301.693,101.14937149246725
2303.1343,94.08239808125927
2304.5748,98.17256354109577
2306.0147,95.11996283143617
2307.4538,108.57468993001385
2308.8922,85.63683786336333
2310.3299,93.406498572278
2311.7669,89.18376314118905
2313.2031,100.51872172045842
2314.6387,74.31146356861245
2316.0735,58.36207693898905
2317.5076,86.42064934181144
2318.941,78.83726770368412
2320.3737,96.91201808700316
2321.8056,82.54498576579499
2323.2369,106.33625504496467
2324.6674,92.58590940396789
2326.0972,85.74403125890058
2327.5263,83.31070210000416
2328.9547,93.08600256007776
2330.3823,71.7700124388175
2331.8092,93.51281060506062
2333.2355,88.86447520994898
2334.661,103.42508346949853
2336.0858,103.54471171108526
2337.5098,109.27343522783485
2338.9332,106.0113282774264
2340.3558,105.4584640248122
2341.7778,117.61491457482498
2343.199,107.03075097772034
2344.6195,104.2560431076081
2346.0393,103.7408597682961
2347.4583,98.13526872103103
2348.8767,91.08933668966165
2350.2943,100.05312941668763
2351.7113,105.52671173371346
2353.1275,98.86014747181616
2354.543,108.5034994068019
2355.9578,106.95682932588079
2357.3718,68.72019793123536
2358.7852,93.09366485548253
2360.1978,88.92728904404066
2361.6098,100.57112851138754
2363.021,104.07524038273641
2364.4315,95.83968077760164
2365.8413,94.26450477474827
2367.2504,85.84976649455439
2368.6587,90.04551911475073
2370.0664,71.35181495457437
2371.4733,87.11870543281611
2372.8795,80.39624125475075
2374.285,87.68447225446653
2375.6899,65.03344746208677
2377.0939,41.34321503089177
2378.4973,69.86382246383027
2379.9,58.245316850427116
2381.3019,61.337744581572224
2382.7032,68.34115146570775
2384.1037,68.00558269789872
2385.5035,55.98108278980271
2386.9027,56.31769557302414
2388.3011,67.06546431935703
2389.6987,54.924431737414125
2391.0957,54.29463986515202
2392.492,54.926130191293396
2393.8876,31.76894366161605
2395.2824,49.873120672637015
2396.6765,41.1387013031881
2398.07,32.815725133371416
2399.4627,33.50423133189679
2400.8547,44.6042587393199
2402.246,53.71584586115978
2403.6366,28.38903075689359
2405.0265,27.423850948841846
2406.4156,22.470343675433014
2407.8041,33.528545900850986
2409.1918,32.14849436457689
2410.5789,28.030225470796267
2411.9652,6.7237753022145625
2413.3508,15.429179661235139
2414.7358,33.19647428302551
2416.12,25.375694748458955
2417.5035,26.61687630644701
2418.8863,29.57005395214719
2420.2684,17.235262414548288
2421.6497,4.012536126940631
2423.0304,4.201909350264032
2424.4104,-1.5465836946655145
2425.7896,8.567091170950334
2427.1682,5.4429835762798575
2428.546,17.331143064821845
2429.9232,19.081619125649468
2431.2996,13.244461074524224
2432.6753,14.919718036394443
2434.0503,22.657439003762192
2435.4246,22.007672819936033
2436.7982,13.870468101649294
2438.1711,14.045873245560415
2439.5433,7.883936509625528
2440.9148,21.13470601134304
2442.2856,22.598229789375637
2443.6557,20.574555671042617
2445.025,8.46373125768423
2446.3937,10.965803944896379
2447.7617,23.230821043639025
2449.1289,26.708829755217266
2450.4955,31.99987704862997
2451.8613,31.204009625789695
2453.2265,32.72127386861075
2454.5909,30.701715846967545
2455.9546,42.14538130352457
2457.3177,33.70231567393057
2458.68,33.37256397238434
2460.0416,40.706170876062515
2461.4025,36.90318072841637
2462.7627,44.863637465836746
2464.1222,59.43758465568408
2465.4811,48.42506541668354
2466.8392,35.52612227318468
2468.1966,47.19079726529026
2469.5533,74.11913207784119
2470.9093,67.06116792377225
2472.2645,60.56694527483023
2473.6191,47.08650393215248
2474.973,57.96988309120752
2476.3262,62.46712147660264
2477.6787,64.2282572332465
2479.0305,42.303327881378664
2480.3816,49.092370298957576
2481.7319,51.8454209409083
2483.0816,49.762515771233666
2484.4306,47.24369023548388
2485.7789,32.73897928158567
2487.1264,49.09841738503019
2488.4733,39.92203869392097
2489.8195,32.70987686538183
2491.165,42.81196515731608
2492.5097,55.678336500530804
2493.8538,38.709023397713736
2495.1972,30.65405779477078
2496.5398,14.563471250516159
2497.8818,38.13729501722537
2499.2231,40.42556020154143
2500.5637,21.778297528735948
2501.9035,36.44553731982387
2503.2427,34.72730967804091
2504.5812,31.8736443421667
2505.919,36.68457070370823
2507.256,39.91011783543627
2508.5924,28.7003144432756
2509.9281,26.955188834050205
2511.2631,19.47476902758308
2512.5974,45.809082774146646
2513.9309,37.25815762926686
2515.2638,33.222020690377576
2516.596,27.80069868233386
2517.9275,30.494217997770193
2519.2583,39.15260475131481
2520.5884,40.1758847526562
2521.9178,31.114083419955477
2523.2465,33.61722576961756
2524.5745,28.935336506906424
2525.9018,34.26844000091751
2527.2284,19.816560331392793
2528.5543,38.07972123539321
2529.8796,22.307946251816247
2531.2041,38.00125853876216
2532.5279,42.15968103125351
2533.851,37.08323628430253
2535.1735,39.571946431324704
2536.4952,45.07583323490326
2537.8163,56.44491806190263
2539.1366,42.87922182843158
2540.4562,54.57876488614829
2541.7752,51.49356715792146
2543.0935,51.773648020834116
2544.411,53.96902633703212
2545.7279,52.97972045092865
2547.0441,70.40574816724711
2548.3596,72.0971267609143
2549.6744,76.95387280280283
2550.9885,63.326002142814104
2552.3019,74.91352986131324
2553.6146,73.71647040540574
2554.9266,69.934837473063
2556.2379,69.01864402509409
2557.5485,85.86790232296198
2558.8585,82.03262393794239
2560.1677,74.8628195826359
2561.4762,75.00849914931723
2562.7841,87.21967178163413
2564.0913,91.74634587315177
2565.3977,69.83852894523852
2566.7035,84.14622760180146
2568.0086,94.36944774836138
2569.313,114.2581944489798
2570.6167,101.2124718240234
2571.9197,114.38228285127889
2573.222,103.8176294964087
2574.5236,107.71851258125207
2575.8246,106.18493188947468
2577.1248,110.51688612755515
2578.4244,117.61437294012603
2579.7232,129.9273888666503
2581.0214,111.15592927044918
2582.3189,136.99998821556937
2583.6157,127.80955865450233
2584.9118,130.0846321697377
2586.2072,140.67519906567304
2587.5019,142.38124834585778
2588.7959,135.00276760709312
2590.0893,160.93974302236757
2591.3819,154.592159414643
2592.6739,145.8099999974852
2593.9652,158.49324643853697
2595.2557,143.79187894734378
2596.5456,151.15587614851847
2597.8348,158.0352152287578
2599.1234,169.17987186319897
2600.4112,150.8398201466307
2601.6983,156.56503248204444
2602.9848,154.85547976403495
2604.2705,141.4111313215485
2605.5556,176.43195493497433
2606.84,158.01791697059252
2608.1237,165.7189820303638
2609.4067,149.9851131360715
2610.689,158.96627165230848
2611.9707,162.26241744381787
2613.2516,156.12350878568236
2614.5319,146.29950233036016
2615.8115,151.0903531690774
2617.0903,146.7960149300652
2618.3685,143.31643973065366
2619.6461,132.35157822021347
2620.9229,146.45137961495243
2622.199,141.11579180756053
2623.4745,164.59476122621618
2624.7493,149.2382328879405
2626.0234,150.8961501638073
2627.2968,144.91845493250958
2628.5695,152.5550875637789
2629.8415,136.75598697816213
2631.1128,155.92109057065613
2632.3835,139.95033436869858
2633.6535,146.793652840518
2634.9228,142.15097905484117
2636.1914,149.8222446124596
2637.4593,151.907379692655
2638.7265,149.70631297648902
2639.9931,141.01897162595014
2641.259,135.24528130596377
2642.5242,147.68516627126814
2643.7887,138.2385494241487
2645.0525,145.00535219004064
2646.3156,138.43549461199518
2647.5781,139.7288952830104
2648.8398,138.28547141173158
2650.1009,132.00513880951485
2651.3613,131.03781190486302
2652.6211,125.1834038062284
2653.8801,137.141826311685
2655.1385,133.9629899674742
2656.3961,153.59680394841962
2657.6531,145.04317608971564
2658.9094,145.50201269059016
2660.1651,150.4232185998403
2661.42,157.40669721124323
2662.6743,153.80235041434662
2663.9279,152.0600785246313
2665.1808,147.02978031955536
2666.433,144.66135305597686
2667.6846,155.6046925204571
2668.9354,158.65969305294516
2670.1856,160.42624743734245
2671.4351,167.85424687095724
2672.6839,166.09358094683466
2673.9321,176.244137579479
2675.1795,164.65580302245917
2676.4263,181.42846176690296
2677.6724,173.76199665738022
2678.9179,175.10628872417647
2680.1626,174.5112172599579
2681.4067,179.87665980632846
2682.6501,179.10249215978183
2683.8928,181.4385883180462
2685.1348,179.78482048782507
2686.3761,167.9910590614361
2687.6168,168.80717263335168
2688.8568,165.93302811813373
2690.0961,162.5684907422733
2691.3348,160.6134240729316
2692.5727,175.06769005158685
2693.81,158.1811490135824
2695.0466,157.80365954358786
2696.2826,152.43507864445974
2697.5178,147.6752617410193
2698.7524,143.42406273373786
2699.9863,164.9813340463336
2701.2195,162.24692666828582
2702.452,167.17068993926023
2703.6839,154.95247157645417
2704.9151,176.59211762536006
2706.1456,167.63947258194594
2707.3755,182.64437917625992
2708.6046,195.7566784619571
2709.8331,185.67620966625077
2711.0609,202.25281005878742
2712.2881,202.18631505245298
2713.5145,207.8765580376048
2714.7403,216.32337038273954
2715.9654,214.77658137758726
2717.1899,239.78601814864646
2718.4136,249.7515056746488
2719.6367,252.77286653646752
2720.8591,263.99992081746086
2722.0809,284.28248607325895
2723.3019,282.52037721949387
2724.5223,293.0634063289722
2725.7421,285.46138264929687
2726.9611,295.91411249743805
2728.1795,281.87139933575145
2729.3972,283.48304366745447
2730.6142,271.29884317705
2731.8306,279.3185927142124
2733.0462,244.54208441562696
2734.2612,222.26910762479383
2735.4756,210.74944923979297
2736.6892,189.28289393601472
2737.9022,168.51922428135413
2739.1145,158.95822095087897
2740.3262,144.74966293446414
2741.5372,136.79332763240313
2742.7475,116.88899099749415
2743.9571,102.23642761460269
2745.1661,103.08541089970481
2746.3744,94.78571324641416
2747.582,80.23710601749099
2748.7889,81.0893596278379
2749.9952,64.79224368998825
2751.2008,49.04552700558111
2752.4057,57.49897772833651
2753.61,53.602363521516054
2754.8136,55.055451473393305
2756.0165,41.75800813621913
2757.2188,42.50979951168961
2758.4204,36.210591183922816
2759.6213,34.66014831193684
2760.8215,35.75823569264662
2762.0211,24.154617776364148
2763.22,34.29905865582191
2764.4182,24.691322182206022
2765.6158,23.631171863712098
2766.8127,2.2183709616256237
2768.009,6.9026825009189
2769.2045,2.6838694843825124
2770.3994,0.1116948457813578
2771.5936,-10.264078507959312
2772.7872,-2.393687671028829
2773.9801,-13.227267199473772
2775.1723,-14.564927736402524
2776.3639,-15.806647784524102
2777.5548,-9.402260342920044
2778.745,-6.80144050226113
2779.9346,-5.703769424638722
2781.1235,-17.358760325754247
2782.3117,-10.965869440652796
2783.4992,-17.22437959036415
2784.6861,-20.883464046882864
2785.8723,-8.642124010651969
2787.0579,-3.2991520563093673
2788.2428,-7.353254423674116
2789.427,3.9968956059626635
2790.6106,13.252698210320204
2791.7935,10.66555352715045
2792.9757,23.28686156167805
2794.1573,25.618022212473306
2795.3382,45.310435145239126
2796.5184,51.26549976949855
2797.698,72.23461504167085
2798.8769,78.76917940552039
2800.0551,96.87059058246632
2801.2327,118.94024550623544
2802.4096,136.02954014184957
2803.5859,146.88986926492908
2804.7615,162.52262629079974
2805.9364,195.77920316588916
2807.1106,221.31099021139926
2808.2842,234.71937579074097
2809.4572,268.1557460542151
2810.6294,310.92148480492915
2811.801,358.2179731644335
2812.972,402.19658914506476
2814.1423,424.05870717697917
2815.3119,476.2556976683686
2816.4808,520.788926786837
2817.6491,559.3097559374341
2818.8167,618.8695413173186
2819.9837,667.0196335305532
2821.15,696.611376992505
2822.3157,748.3961094483473
2823.4807,792.0751616771379
2824.645,837.1498569739765
2825.8086,874.5215107132076
2826.9716,902.0414298976793
2828.134,951.3109127850257
2829.2957,992.7812486124662
2830.4567,999.2537171041108
2831.617,1020.8295880562598
2832.7767,1037.560121272675
2833.9358,1041.2465663488244
2835.0941,1027.740162504576
2836.2519,1011.192138547332
2837.4089,1000.203713007093
2838.5653,987.9760943019392
2839.7211,1005.5104808479127
2840.8761,1004.0080611812978
2842.0306,1017.4200137832738
2843.1843,1047.34750709494
2844.3374,1089.6416993831974
2845.4899,1157.3537384414713
2846.6417,1232.7847611667717
2847.7928,1327.7358928825715
2848.9433,1396.4082465844967
2850.0931,1475.552921990815
2851.2422,1548.5710048557112
2852.3907,1628.3135661778415
2853.5385,1682.481661470154
2854.6857,1752.3763299624609
2855.8323,1792.2485940597587
2856.9781,1830.2994586432822
2858.1233,1896.8299106717798
2859.2679,1937.390918801007
2860.4118,1981.6834327184215
2861.555,2018.2583827375715
2862.6976,2057.616679355173
2863.8395,2067.159212885357
2864.9808,2100.6868530660895
2866.1214,2122.900448963744
2867.2614,2128.1008286378265
2868.4007,2131.038798918837
2869.5393,2155.6651453562704
2870.6773,2152.8306321892323
2871.8146,2172.336002100177
2872.9513,2185.031976243254
2874.0874,2175.2692540492526
2875.2227,2161.348513098643
2876.3574,2150.620409219203
2877.4915,2110.2855766252255
2878.6249,2090.5946280248013
2879.7577,2056.198155023164
2880.8898,2028.296728319603
2882.0212,2022.3908980514252
2883.152,2033.9811940729712
2884.2821,1997.7681260146735
2885.4116,1997.5021831671513
2886.5405,1980.1838348433446
2887.6686,1997.3635303811723
2888.7962,2006.7916993167155
2889.923,2026.5187512124214
2891.0493,2023.2950755628199
2892.1748,2036.0210415972545
2893.2997,2023.1469983121187
2894.424,2045.8732743435958
2895.5476,2071.9001780963986
2896.6706,2094.5779975165096
2897.7929,2130.3069998309093
2898.9145,2135.9874313208006
2900.0355,2174.9695169643155
2901.1559,2214.103460379714
2902.2756,2258.939443435559
2903.3946,2268.027625859383
2904.513,2296.518144789323
2905.6308,2326.96111468324
2906.7479,2344.956627033816
2907.8643,2380.004750064123
2908.9801,2386.3555285476655
2910.0953,2407.1589834579027
2911.2098,2394.7151119047376
2912.3236,2394.4738869264847
2913.4368,2381.385257614309
2914.5494,2352.2991491146354
2915.6613,2335.115462760037
2916.7725,2324.0840763600972
2917.8831,2283.454844373243
2918.9931,2266.5275980170622
2920.1024,2231.2521456745962
2921.211,2216.0782730636092
2922.319,2190.105743589346
2923.4264,2174.634298496267
2924.5331,2171.0136571277762
2925.6391,2162.343517080937
2926.7445,2133.7235542426743
2927.8493,2132.6534228764795
2928.9534,2140.8827559086094
2930.0569,2144.2611649387873
2931.1597,2122.038240157908
2932.2619,2127.063550314256
2933.3634,2106.5366429357355
2934.4643,2092.6070442796135
2935.5645,2094.4742595377943
2936.6641,2037.987772976108
2937.763,1994.5970479156458
2938.8613,1966.0515272976206
2939.959,1909.6506341172749
2941.056,1843.4437717093374
2942.1523,1755.1303243120315
2943.248,1661.0596577291426
2944.3431,1578.2311202131543
2945.4375,1459.294043405954
2946.5313,1373.8477431671186
2947.6244,1271.9415207632833
2948.7169,1174.524663722608
2949.8087,1074.696446853837
2950.8999,971.0561332204691
2951.9904,916.3529751390383
2953.0803,837.2862152155174
2954.1696,773.1550868923512
2955.2582,718.3088152391226
2956.3462,682.2966175938639
2957.4335,627.8177041115196
2958.5202,603.3712781240683
2959.6062,580.7065366853128
2960.6916,557.372670815344
2961.7764,541.468865727187
2962.8605,536.644301060142
2963.9439,530.3981510388198
2965.0267,524.8795845213899
2966.1089,509.68776506204085
2967.1905,512.4218509661653
2968.2714,521.8809954422791
2969.3516,513.9643465746806
2970.4312,529.6710472288567
2971.5102,524.0002351306525
2972.5885,528.7010427092032
2973.6662,530.2725971536411
2974.7432,527.3640203660898
2975.8196,526.2244289459466
2976.8954,529.1029342189688
2977.9705,511.2486422486701
2979.045,505.2606538075345
2980.1188,493.58806455555987
2981.192,467.47996510013854
2982.2645,456.8854411127817
2983.3364,442.40357359020254
2984.4077,413.8334389602603
2985.4783,382.0741092267789
2986.5483,357.42465225524825
2987.6177,325.2341320904178
2988.6864,301.05160920279127
2989.7545,269.27614081053093
2990.8219,247.45678112128292
2991.8887,219.4925816499333
2992.9548,182.78259143679963
2994.0204,158.62585732727462
2995.0852,130.2714243389255
2996.1495,106.4183359030618
2997.2131,95.06563414827849
2998.276,77.51236013898745
2999.3383,59.557553988944846
3000.4,45.000255036783415
3001.4611,33.589502025560705
3002.5215,11.974333248331504
3003.5812,5.953786662255652
3004.6404,-1.1730998952491518
3005.6989,5.442711353696723
3006.7567,-9.299730093758512
3007.8139,-13.001374794893536
3008.8705,-9.463080402683318
3009.9264,-12.335574686369455
3010.9818,-10.569490879020123
3012.0364,-6.415338981312402
3013.0905,-11.773523404709863
3014.1439,-6.14438447143948
3015.1966,-4.578144886229666
3016.2487,1.0250340285908806
3017.3002,3.2650366863612135
3018.3511,5.841747490170974
3019.4013,12.255050810459352
3020.4509,23.454830959248966
3021.4998,27.090972126012048
3022.5481,21.063358265672946
3023.5958,22.371873062246095
3024.6428,40.01639998911264
3025.6892,40.44682229593502
3026.735,45.063022832211686
3027.7802,46.414884042973426
3028.8247,58.152287922621326
3029.8685,63.17511600140733
3030.9118,79.98324922806125
3031.9544,75.37656791956249
3032.9963,93.40495159305738
3034.0376,102.26827901192632
3035.0783,101.96642800550057
3036.1184,116.49927538042789
3037.1578,126.01669692369182
3038.1966,130.16856725728383
3039.2348,137.4547597430285
3040.2723,135.02514644106475
3041.3092,133.82959803698373
3042.3455,139.86798386612588
3043.3811,136.79017192553545
3044.4161,142.94602881357775
3045.4505,131.18541976071697
3046.4842,138.95820856795683
3047.5173,130.6142577244475
3048.5498,135.50342832975764
3049.5816,126.12558017731385
3050.6128,127.63057170550883
3051.6434,124.71826009147969
3052.6734,119.53850123605764
3053.7027,122.19114979289236
3054.7314,121.27605922024804
3055.7594,104.84308175447825
3056.7868,104.94206841917594
3057.8136,111.47286918950351
3058.8398,118.13533299120343
3059.8653,101.52930763528968
3060.8902,106.15463975142279
3061.9145,108.66117495397089
3062.9381,98.34875779575577
3063.9612,97.11723174298811
3064.9835,96.06643927839082
3066.0053,97.04622191351484
3067.0264,90.00642019924692
3068.0469,91.04687371601187
3069.0668,88.71742114417066
3070.086,78.61790025361597
3071.1046,69.24814792706661
3072.1226,67.95800026106178
3073.1399,64.69729265966032
3074.1567,47.46585984734105
3075.1727,51.36353590161025
3076.1882,48.140154425315586
3077.203,41.44554850766963
3078.2173,33.72955075648326
3079.2308,26.441993365112126
3080.2438,21.682708189616847
3081.2561,20.601526821637833
3082.2678,14.848280635988772
3083.2789,15.872800801468259
3084.2893,14.374918338392035
3085.2991,9.904464108347725
3086.3083,9.711268829174003
3087.3169,3.245163119665392
3088.3248,-3.394022498496099
3089.3321,4.493542463920392
3090.3388,-2.892277597569546
3091.3449,-5.401618332385397
3092.3503,1.865413503906268
3093.3551,-1.7912348820940451
3094.3593,3.528383697560457
3095.3629,-2.1257656747472424
3096.3658,-0.453717951917497
3097.3681,-5.505486850451916
3098.3698,1.9189184457902115
3099.3708,-2.630456247237248
3100.3713,-3.0535651327691653
3101.3711,-7.400336135782595
3102.3702,0.02933332386078291
3103.3688,1.9856197556570123
3104.3667,-1.5313006239377955
3105.364,3.9287483816761437
3106.3607,-0.6340417332080506
3107.3568,4.530520486415355
3108.3522,0.4226328296286965
3109.347,3.09249304020949
3110.3412,3.5402946398330073
3111.3348,8.666231119249858
3112.3277,14.820495933807706
3113.32,7.20328245219207
3114.3117,4.66478389488401
3115.3028,12.205193410332015
3116.2932,13.574704100336874
3117.2831,14.423508944647892
3118.2723,13.251800787267257
3119.2608,18.909772327962287
3120.2488,18.097616133982626
3121.2361,25.815524583480283
3122.2229,24.063689873631688
3123.209,14.54230394345808
3124.1944,24.80155849134411
3125.1793,25.64164507025157
3126.1635,22.91275498512681
3127.1471,27.465079284500177
3128.1301,32.04880878777436
3129.1125,27.864134039701582
3130.0942,33.81124526454613
3131.0753,31.340332407931555
3132.0558,30.40158507736902
3133.0357,36.845192566966375
3134.015,34.62134386681595
3134.9936,32.63022759855812
3135.9716,36.17203203762011
3136.949,40.44694513312692
3137.9258,42.505154472483184
3138.902,44.29684723862454
3139.8775,47.57221018943477
3140.8524,44.88142963982966
3141.8267,50.274691429002814
3142.8004,47.15218094733373
3143.7735,47.764083082455215
3144.7459,51.36058225047819
3145.7178,50.54186238987302
3146.689,54.05810692550409
3147.6596,56.80949877681738
3148.6295,56.896220322678005
3149.5989,58.768453373856346
3150.5676,54.42637917216052
3151.5357,55.57017837171432
3152.5032,55.60003108237777
3153.4701,63.8161168583091
3154.4364,66.96861469766637
3155.402,65.0577029604467
3156.367,63.33355933696117
3157.3315,63.59636086694405
3158.2952,66.89628395679404
3159.2584,71.03350437694647
3160.221,67.70819722887396
3161.1829,70.52053690371423
3162.1442,69.92069711552315
3163.105,66.60885087315131
3164.065,72.93517048624253
3165.0245,75.54982759835207
3165.9834,76.20299312368365
3166.9416,74.69483722094301
3167.8993,74.22552928680597
3168.8563,73.745237971
3169.8127,77.90413118099747
3170.7684,83.25237608681832
3171.7236,80.99013907944143
3172.6782,86.61758571732202
3173.6321,82.23488074901397
3174.5854,87.09218805689525
3175.5381,83.23967070099522
3176.4902,87.57749087042134
3177.4417,90.7058099218844
3178.3926,88.12478833632034
3179.3428,87.7845856876072
3180.2924,93.33536066837513
3181.2415,95.82727109340851
3182.1899,100.61047384413823
3183.1377,90.83512484372258
3184.0848,96.70137900921515
3185.0314,99.90939034931833
3185.9773,100.25931190572075
3186.9227,102.25129572101721
3187.8674,106.18549283520935
3188.8115,99.41205326578594
3189.755,107.28112596838086
3190.6979,105.9428589045076
3191.6402,107.09739896286841
3192.5818,112.79489197273699
3193.5229,106.98548269241311
3194.4633,108.76931475224768
3195.4031,116.99653071273676
3196.3423,119.71727204668346
3197.2809,116.58167905692562
3198.2189,113.28989084912838
3199.1563,119.89204536314011
3200.0931,122.78827940591032
3201.0292,120.27872858546813
3201.9648,123.7635272819598
3202.8997,123.29280867274444
3203.834,124.96670469754591
3204.7677,124.63534606315989
3205.7008,123.19886222671515
3206.6333,132.807381398987
3207.5652,130.11103055876205
3208.4964,138.80993535675333
3209.4271,135.35422014256346
3210.3571,138.29400787769583
3211.2865,134.17942017011157
3212.2154,139.26057724483184
3213.1436,139.08759798508345
3214.0712,141.76059988148762
3214.9982,147.42969903378938
3215.9246,148.29501012412794
3216.8503,148.7066463603455
3217.7755,147.96471946733413
3218.7001,147.0193396829195
3219.624,145.42061576528022
3220.5473,157.46865500240136
3221.4701,149.86356322806205
3222.3922,155.65544470135472
3223.3137,159.0444021827363
3224.2346,156.88053687610915
3225.1549,155.86394839493167
3226.0746,159.69473478385694
3226.9937,158.6229925288985
3227.9121,162.49881651912258
3228.83,163.62230005736555
3229.7473,162.39353482147544
3230.6639,163.51261085307746
3231.5799,168.02961656986136
3232.4954,169.84463875439087
3233.4102,170.00776250893355
3234.3244,177.3690712373105
3235.238,171.82864664326536
3236.151,176.2865686568509
3237.0634,172.94291548983352
3237.9752,179.59776359111393
3238.8864,177.1011876801637
3239.797,177.1532606804767
3240.7069,182.304053744535
3241.6163,176.10363625328796
3242.5251,182.30207576464448
3243.4332,179.54943807547707
3244.3408,184.49578715963747
3245.2477,188.79118519548297
3246.154,191.0856925164131
3247.0598,188.6793675679154
3247.9649,191.0722668846207
3248.8694,190.61444511436588
3249.7733,191.25595499426527
3250.6766,196.24684735528868
3251.5793,195.23717111584637
3252.4814,195.02697323188008
3253.3829,200.71629870695972
3254.2838,199.80519059438564
3255.1841,201.043689940295
3256.0838,200.78183579277317
3256.9829,203.31966518946842
3257.8814,202.40721316021077
3258.7792,203.74451270163354
3259.6765,207.03159478629783
3260.5731,201.86848834931965
3261.4692,203.25522025549895
3262.3647,209.6418153509509
3263.2595,204.37829644923832
3264.1538,205.6646842675059
3265.0474,206.80099747911515
3265.9404,208.5372527007808
3266.8329,210.42346448120753
3267.7247,210.00964528372748
3268.616,207.99580546743798
3269.5066,206.63195329134004
3270.3966,204.46809493447648
3271.286,206.80423450957053
