RamanShift,CorrectedData
30.1047,6768.790798797977
32.3739,6318.812922002648
34.6426,5871.284977519409
36.9109,5424.006834472224
39.1787,4987.628303272206
41.4461,4541.2491400903955
43.7131,4104.569051221551
45.9796,3661.087697547935
48.2456,3219.954698906119
50.5112,2792.0196385217923
52.7764,2346.2320674210973
55.0411,1920.8915087099788
57.3054,1479.8474620320603
59.5692,1057.4494078220484
61.8326,627.0468117161761
64.0955,199.38912877618117
66.3579,-210.02419220666627
68.6199,-614.6937044349872
70.8815,-978.5178629697228
73.1426,-1224.5889820817074
75.4032,-1144.139600648326
77.6634,-248.44002390303513
79.9231,2759.4008728753197
82.1824,10219.176696323731
84.4412,29849.731025485184
86.6995,57237.60733721089
88.9574,59381.898809854756
91.2148,58893.49804939464
93.4717,58406.747067989374
95.7282,57942.18728886284
97.9842,57472.60955117143
100.2398,57012.004114649695
102.4949,56547.61066430605
104.7495,56089.76831502892
107.0036,55627.41561623062
109.2573,55173.94055642575
111.5105,54708.7305678548
113.7632,54251.72253101885
116.0154,53783.25277933166
118.2672,53341.85710368981
120.5185,52880.57075715732
122.7693,52425.67845937967
125.0197,51971.06440119661
127.2696,51517.01224919111
129.519,51061.25515023551
131.7679,50603.52573603205
134.0163,50155.90612767037
136.2642,49709.37794020493
138.5117,49257.97228713109
140.7587,48808.81978485044
143.0052,48365.45055718487
145.2512,47919.74423986807
147.4967,47482.12998497922
149.7417,47034.98646540007
151.9863,46592.49187919106
154.2304,46146.57395406281
156.4739,45713.55995180097
158.717,45274.52667272551
160.9596,44832.65046002077
163.2017,44400.80720412583
165.4433,43966.72234715328
167.6844,43539.77088720764
169.925,43106.27738272621
172.1651,42677.3159567486
174.4047,42251.060301251644
176.6439,41821.73368143899
178.8825,41395.408940003734
181.1206,40974.35850142161
183.3582,40549.55437621426
185.5954,40133.46816515976
187.832,39710.42106354064
190.0681,39294.98386530479
192.3037,38878.72696729588
194.5388,38465.07037340778
196.7734,38051.1836987471
199.0075,37642.33617376974
201.2411,37232.996648419816
203.4742,36828.683596218056
205.7068,36426.515118355266
207.9389,36027.508947735434
210.1704,35627.33245299739
212.4015,35231.8026425049
214.632,34835.38616834843
216.862,34451.94933030042
219.0915,34067.308079779476
221.3205,33678.02802368471
223.549,33292.97442824216
225.777,32910.8122228976
228.0044,32525.356004167053
230.2314,32145.670039458455
232.4578,31763.468270926183
234.6837,31378.914319267933
236.909,31001.471487546754
239.1339,30604.20276503655
241.3582,30249.570830996563
243.582,29846.688058644017
245.8053,29493.66651870041
248.0281,29131.7179834204
250.2503,28760.053930121932
252.472,28397.885544805817
254.6932,28039.323725872324
256.9139,27684.629087742927
259.134,27322.161964445855
261.3536,26971.532413163048
263.5727,26621.300217854834
265.7912,26276.72489276626
268.0092,25928.165685929394
270.2267,25583.681582609046
272.4436,25243.331308788394
274.6601,24896.823334613815
276.8759,24563.76587779836
279.0913,24226.716907086913
281.3061,23893.284145586666
283.5204,23557.37507413768
285.7341,23223.49693464722
287.9473,22888.506733448776
290.16,22573.06124464092
292.3721,22256.81701343714
294.5837,21936.330359320367
296.7947,21618.357379205387
299.0052,21303.45395064372
301.2152,20988.82573500333
303.4246,20686.678180617695
305.6334,20379.766525932027
307.8418,20067.245802524805
310.0495,19760.22083817693
312.2568,19462.49625999685
314.4635,19160.12649749081
316.6696,18862.86578554014
318.8752,18557.61816742491
321.0802,18273.037497796526
323.2847,17980.377445730286
325.4887,17697.741497571107
327.692,17409.232959860186
329.8949,17127.55496216131
332.0972,16843.460459945934
334.2989,16568.902237409995
336.5001,16288.58291031485
338.7007,16015.304928732825
340.9008,15742.870579850438
343.1003,15476.881990701186
345.2992,15204.441130889922
347.4976,14939.199815252665
349.6955,14673.959706581081
351.8927,14416.722318274871
354.0895,14145.73901699415
356.2856,13907.711025231838
358.4812,13656.439424023512
360.6763,13402.875155327667
362.8707,13152.36902453842
365.0646,12910.771703021186
367.258,12665.083730617684
369.4508,12420.45551806195
371.643,12180.337349437214
373.8346,11944.12938462216
376.0257,11708.531661692126
378.2162,11478.944099281158
380.4062,11248.666498938008
382.5956,11025.348547422036
384.7844,10802.289819005964
386.9726,10578.039777709047
389.1603,10366.747779527686
391.3474,10107.06307467792
393.5339,9937.284809708377
395.7199,9721.06203009707
397.9052,9521.393681949172
400.09,9309.328614159247
402.2743,9108.91558040795
404.4579,8904.903241282715
406.641,8700.640166281817
408.8235,8502.624835854527
411.0054,8311.15564344381
413.1868,8111.280897466415
415.3675,7917.998823227557
417.5477,7729.357564919665
419.7273,7543.405187555247
421.9064,7350.089678853241
424.0848,7176.608951098569
426.2627,6992.560843075262
428.4399,6816.743121801272
430.6166,6637.553484368924
432.7928,6467.139559703195
434.9683,6298.49891035349
437.1432,6131.079034197923
439.3176,5967.827366129597
441.4914,5810.541279730904
443.6645,5647.968088905989
445.8371,5485.705049453609
448.0091,5331.049360692879
450.1806,5182.448167085939
452.3514,5028.948559784469
454.5216,4871.547578115707
456.6913,4724.092211117422
458.8603,4586.329399111921
461.0288,4446.306035180634
463.1967,4313.768966541684
465.3639,4173.51499595018
467.5306,4031.7908830235538
469.6967,3902.343345644098
471.8622,3769.3190613762417
474.0271,3643.514668760974
476.1914,3510.2267686461346
478.3551,3386.101925444491
480.5182,3271.086668466516
482.6807,3159.6774931617547
484.8426,3041.7208622688922
487.0039,2920.5632069298736
489.1647,2805.150927869465
491.3248,2688.480396606785
493.4843,2586.09795660949
495.6432,2483.449924460503
497.8015,2368.5325908817686
499.9592,2264.342221760766
502.1163,2163.8750592996876
504.2728,2074.6773230573017
506.4287,1992.095210953652
508.5839,1896.7249001620148
510.7386,1799.7625479347262
512.8927,1701.6042925568545
515.0461,1618.7962543158792
517.199,1536.0345364833047
519.3512,1450.3652261427196
521.5029,1371.5343950173992
523.6539,1296.538100327045
525.8043,1222.5723855760007
527.9541,1143.4832813032772
530.1033,1077.8668058221883
532.2519,1005.3189660112621
534.3999,937.8357579704025
536.5472,881.5131677463505
538.694,822.7971720074929
540.8401,758.333738607158
542.9856,686.8688271707506
545.1305,626.6483897403377
547.2748,572.1683714893297
549.4185,519.6247113246209
551.5615,473.6576321910761
553.704,425.25216598261613
555.8458,387.93861275341624
557.987,346.09302428842784
560.1276,305.1375768658181
562.2675,265.5909892944328
564.4069,229.26893205867964
566.5456,194.63442238892458
568.6837,162.94818711889093
570.8212,131.31900868437515
572.958,97.80404166880908
575.0942,79.35912877863302
577.2299,56.339135657915904
579.3648,40.89813515297283
581.4992,25.989637282131298
583.6329,8.866743491256784
585.766,-17.36770441025874
587.8985,-39.560953191816225
590.0304,-88.51007611949899
592.1616,-87.61175124548754
594.2922,-104.01177240630204
596.4222,-118.55505819711834
598.5515,-129.38548813553643
600.6802,-137.34575737417617
602.8083,-143.0772685046686
604.9358,-152.02005203462613
607.0626,-161.41270912979235
609.1888,-173.44232227556495
611.3144,-178.94436144442443
613.4393,-182.1525639200845
615.5636,-184.2988793321274
617.6873,-180.26343760601594
619.8103,-187.27452752149838
621.9327,-183.50863702658535
624.0544,-174.64038319679094
626.1756,-173.09254985641746
628.2961,-174.0361761724198
630.4159,-169.1905721172443
632.5351,-167.6733090419366
634.6537,-164.3002680838108
636.7716,-165.88565532382927
638.8889,-158.3420354832997
641.0056,-151.23031608586462
643.1216,-140.15982281824836
645.237,-132.63837057632918
647.3518,-111.67237405938795
649.4659,-101.66692290938954
651.5793,-92.32599116132769
653.6922,-80.95253719764878
655.8043,-72.99859706420102
657.9159,-63.2153980909643
660.0268,-48.75343835199601
662.137,-37.062584399522166
664.2466,-26.592702298155928
666.3556,-8.043657741858624
668.4639,7.284683841382503
670.5716,35.9424571040654
672.6786,42.779796625887684
674.785,57.54683662716707
676.8907,83.29371090043423
678.9958,103.07055266278621
681.1002,118.27749429841788
683.204,134.8146671609211
685.3072,161.38220142114733
687.4097,184.23022590182518
689.5115,203.90886781191512
691.6127,229.46825251804694
693.7132,257.15850334787683
695.8131,264.5297413343578
697.9123,296.73208493890706
700.0109,327.46564997766836
702.1089,358.930549299439
704.2061,386.2768924784468
706.3028,408.9047854996388
708.3987,440.06433048524195
710.4941,471.0556254684707
712.5887,503.52876408190787
714.6827,530.7838352476319
716.7761,566.7709228524254
718.8688,598.3901054753005
720.9608,623.6414560275443
723.0522,657.9250414366034
725.1429,696.2409223934665
727.233,730.4891530099485
729.3224,768.519780435483
731.4112,803.2328445146559
733.4993,841.8783774069307
735.5867,883.4064032394526
737.6735,918.5669377206286
739.7596,955.5099877248213
741.845,1001.1855509407542
743.9298,1036.8936155020565
746.014,1080.034159530529
748.0974,1113.6071507790402
750.1802,1160.762546200167
752.2624,1201.2002916104539
754.3439,1245.32032121886
756.4247,1284.3225572223673
758.5048,1340.4069093648068
760.5843,1384.073274546805
762.6631,1429.3215362649426
764.7413,1482.8515641751292
766.8188,1527.2632136400644
768.8956,1574.8563251939631
770.9718,1625.5307240984475
773.0473,1675.9362198666277
775.1221,1727.9726057563093
777.1962,1776.039658265996
779.2697,1832.5871366144202
781.3426,1864.2147822599873
783.4147,1938.322318335253
785.4862,1991.8094493306708
787.557,2044.875860353517
789.6271,2098.9212165930294
791.6966,2157.1451627896604
793.7654,2215.7473226947623
795.8335,2273.7772984882104
797.901,2332.6346701924194
799.9678,2386.5189950920612
802.0339,2450.479807145457
804.0993,2499.916616445793
806.1641,2569.628908581457
808.2282,2635.066144141718
810.2916,2693.2777580195907
812.3544,2760.813158757439
814.4164,2821.9717279648758
816.4778,2883.7528196433705
818.5385,2950.8057595747377
820.5986,3015.1298447032386
822.658,3081.824342465108
824.7166,3150.8884901453494
826.7747,3207.921494210772
828.832,3277.92252961934
830.8886,3352.5407392497946
832.9446,3425.1252332016957
834.9999,3473.9250880492327
837.0545,3552.0893461153755
839.1085,3640.3670149838363
841.1618,3701.5570667174834
843.2143,3751.558436975538
845.2662,3828.2700244016887
847.3175,3918.44069012408
849.368,3932.9692569881954
851.4179,4065.80450865515
853.467,4097.245189456371
855.5155,4197.790003065304
857.5633,4215.837612182942
859.6105,4273.5366375323865
861.6569,4393.635657678373
863.7027,4398.233208450314
865.7478,4490.17778174128
867.7922,4563.967825462059
869.8359,4685.651742621667
871.8789,4691.777890589488
873.9212,4798.594579878365
875.9629,4930.850074083442
878.0039,4984.792588813943
880.0441,5045.370290370651
882.0837,5139.931295206421
884.1226,5209.673669320502
886.1609,5285.045427312834
888.1984,5296.894531686652
890.2352,5467.568892094772
892.2714,5402.86636522114
894.3069,5576.934753074027
896.3416,5578.571803633029
898.3757,5647.4752091084665
900.4091,5399.842605924925
902.4418,5897.571574032285
904.4739,5816.359639381997
906.5052,5931.954268949834
908.5358,5849.002871547971
910.5658,5832.702796669102
912.595,5939.151335315939
914.6236,5536.445720164193
916.6515,6297.083124498058
918.6786,5737.460666237283
920.7051,6017.475400330819
922.7309,5975.674324353044
924.756,6204.804375703614
926.7804,6088.412432025463
928.8041,5585.99530891348
930.8272,6149.049761078459
932.8495,6266.972487371291
934.8711,5901.36012515238
936.892,5677.759249112423
938.9123,5949.316374928538
940.9318,5713.97796150027
942.9506,5724.640408234009
944.9688,5870.750057396392
946.9862,5189.953194007641
949.003,5616.746044380496
951.019,4970.574782928197
953.0344,5230.035527896507
955.0491,5223.524347825456
957.063,5674.087258954743
959.0763,5801.720225288875
961.0888,5272.369154091473
963.1007,5840.379894609003
965.1119,5965.198243364255
967.1223,5640.869938476229
969.1321,6281.890658411998
971.1412,5664.806025229962
973.1495,5495.211598169633
975.1572,5835.052879822506
977.1641,5646.57531782797
979.1704,5635.874301474905
981.1759,5835.595163586484
983.1808,5510.583180627174
985.1849,5692.133570705504
987.1884,5971.491496824245
989.1911,6480.352065064799
991.1932,5446.860321793683
993.1945,5839.611248573921
995.1951,6272.1497724999645
997.1951,5621.970762270183
999.1943,5552.2190238614785
1001.1928,5425.589307031107
1003.1906,5658.276306014144
1005.1877,4898.674660789809
1007.1841,4733.928954754512
1009.1798,4805.933722318034
1011.1748,4732.083450550817
1013.1691,4575.722578464018
1015.1627,3360.695497747998
1017.1556,3622.3965543359445
1019.1477,3854.7700605540667
1021.1392,3264.060292504648
1023.1299,2686.661487742247
1025.12,3123.7178511808597
1027.1093,2838.323560867895
1029.0979,2905.9727636136085
1031.0859,2905.4095778450646
1033.0731,2434.7780929295914
1035.0596,2595.5723691804596
1037.0454,2462.186442563201
1039.0304,2059.7143230876245
1041.0148,1630.6499961416994
1042.9985,1696.6374265163104
1044.9814,1947.520562695834
1046.9636,1551.9933361983349
1048.9452,1548.3996590666793
1050.926,1556.8334278238035
1052.9061,1512.238523508655
1054.8855,1657.9088115919076
1056.8642,1388.938142421881
1058.8421,1453.7703497677794
1060.8194,1422.1992535094687
1062.7959,1355.7186589890916
1064.7717,1469.6223573268508
1066.7469,1374.3041260857572
1068.7213,1424.8077281326332
1070.695,1373.3769125913313
1072.6679,1004.4054143376197
1074.6402,1079.7869545135327
1076.6117,1012.3152442170758
1078.5826,1119.2339837484105
1080.5527,1176.5368632845566
1082.5221,1261.0675618101886
1084.4908,1534.6197465446749
1086.4587,1684.1870720966908
1088.426,1886.3631777287374
1090.3925,1825.4416858614422
1092.3584,1739.0662000518278
1094.3235,1402.4303056025165
1096.2879,1284.6275704255531
1098.2515,1255.0515484086209
1100.2145,1319.1957805931888
1102.1767,1309.1037954702042
1104.1382,1451.919108338654
1106.099,1586.335221406538
1108.0591,1748.895622362681
1110.0185,1798.0437830325754
1111.9771,1931.5731577527986
1113.9351,1591.0771828795405
1115.8923,1189.5992754532417
1117.8488,817.1828366035988
1119.8045,454.5212555643666
1121.7596,411.1079133974854
1123.7139,288.48618661968794
1125.6675,363.8494476366468
1127.6204,547.1410659692483
1129.5726,424.00440749988775
1131.524,530.0328326395465
1133.4748,609.6696975592131
1135.4248,588.8583531295517
1137.3741,689.9921441245606
1139.3226,703.4644094296527
1141.2705,720.5184810303472
1143.2176,514.4976838775256
1145.164,576.5953357169346
1147.1097,567.4047491493839
1149.0546,592.5692310097802
1150.9989,639.6320824589639
1152.9424,507.4365987320998
1154.8852,348.97606866809656
1156.8272,248.44377603151952
1158.7686,226.1330010971942
1160.7092,55.28702165550203
1162.6491,-52.85088676446321
1164.5883,158.81255081354175
1166.5267,264.6711373461221
1168.4644,416.4686742017657
1170.4014,614.2989601022491
1172.3377,935.2057896046681
1174.2732,1149.2829511231466
1176.2081,1419.674223719805
1178.1421,1556.6233749639578
1180.0755,1748.3741582282164
1182.0082,1660.320311319003
1183.9401,1636.3555545590207
1185.8713,1402.3735916677833
1187.8017,1210.568110001288
1189.7315,993.4827828918278
1191.6605,656.911271565994
1193.5888,416.44722731560614
1195.5163,365.8842948633828
1197.4432,228.11611476761027
1199.3693,180.6863239277518
1201.2947,19.6885569621154
1203.2193,-15.933553317816404
1205.1432,59.51362570254423
1207.0664,112.62388581396226
1208.9889,180.99101821208023
1210.9106,204.95881296632433
1212.8316,167.921058336251
1214.7519,343.5715405318333
1216.6715,302.6540440838653
1218.5903,350.2623500874397
1220.5084,312.0902366111113
1222.4257,420.18147822084575
1224.3424,168.77984636172187
1226.2583,212.77910827700543
1228.1735,328.6730295221787
1230.0879,436.75537352495303
1232.0016,560.2699004263122
1233.9146,617.9603659997447
1235.8269,536.6705204160098
1237.7384,421.54410766626825
1239.6492,197.02486637502443
1241.5592,134.90653095129528
1243.4686,-9.817166166110837
1245.3772,-20.352493887410674
1247.285,-146.80562304938212
1249.1922,-186.1825211673713
1251.0986,-143.18768916860427
1253.0042,-147.7737680169157
1254.9092,-110.44196823111997
1256.8134,-22.542024070120533
1258.7169,300.5274335224385
1260.6196,382.4179987978132
1262.5216,651.8312630019645
1264.4229,759.5188135566641
1266.3234,932.9322313653902
1268.2232,1023.1730897364469
1270.1223,1005.0429526488078
1272.0207,1026.2933738497522
1273.9183,1008.3758970361523
1275.8151,897.1420556419471
1277.7113,860.2433730173288
1279.6067,683.4313635411454
1281.5014,507.00753298975906
1283.3953,430.57338030526444
1285.2885,379.4803993596943
1287.181,320.68007971937914
1289.0727,407.77390715583897
1290.9637,444.66336423382745
1292.854,657.999929440346
1294.7435,756.7850768157732
1296.6323,1009.9202738205131
1298.5204,1313.0569803470935
1300.4077,1595.0966461888893
1302.2943,1802.9407080086894
1304.1802,2028.1905865183362
1306.0653,1943.847684400287
1307.9497,1861.9633840550596
1309.8333,1834.789048444749
1311.7162,1854.6760219118369
1313.5984,1996.125630450937
1315.4798,2121.3891815099123
1317.3605,2317.2179625753633
1319.2405,2497.863239920036
1321.1197,2560.1762566445177
1322.9982,2546.3582308707737
1324.876,2663.3103551190616
1326.753,2613.0837964460407
1328.6293,2737.229695275284
1330.5048,2817.199165899532
1332.3796,2794.893295239239
1334.2537,2806.813142042869
1336.127,2775.3597371099568
1337.9996,2803.034083171933
1339.8714,2715.237155206625
1341.7426,2650.6699001615525
1343.6129,2663.883237831873
1345.4826,2593.528061506073
1347.3515,2651.405237833809
1349.2196,2569.8156075294646
1351.087,2642.459984793415
1352.9537,2711.0391581278855
1354.8197,2911.9038896105085
1356.6849,3157.704914208549
1358.5493,3230.2429377702465
1360.4131,3257.818634566811
1362.276,3174.3826465670245
1364.1383,2968.7355831615278
1365.9998,2755.1280219971522
1367.8606,2471.8105110333854
1369.7206,2266.7335706784725
1371.5799,2069.4976966225513
1373.4384,2018.3533618884649
1375.2962,1958.7010188040767
1377.1533,1644.2410995137361
1379.0096,1347.9740165747862
1380.8652,1122.6501661021903
1382.7201,892.8199307311879
1384.5742,675.583681870532
1386.4275,454.5917820008144
1388.2802,350.84458684677156
1390.132,303.8424475872562
1391.9832,302.6857118926673
1393.8336,133.52472439501435
1395.6832,164.75982669945006
1397.5322,90.19135907590316
1399.3803,74.76966014672871
1401.2278,-15.504932367603033
1403.0745,-15.332081494307204
1404.9204,-44.66129536634617
1406.7656,35.158071050795115
1408.6101,-31.02289104204101
1410.4538,-18.053090795569005
1412.2968,-3.1311274418403627
1414.139,3.2445801374560688
1415.9805,118.07564434057713
1417.8213,114.46367753334198
1419.6613,318.6602909008543
1421.5006,557.1170944835976
1423.3391,811.7856951354624
1425.1769,1148.7176941391735
1427.0139,1740.3146846595955
1428.8502,2331.628248374418
1430.6858,2989.5599495581955
1432.5206,3400.6113291692272
1434.3547,3703.483898270235
1436.188,3787.6791339178417
1438.0206,3750.548476133852
1439.8524,3571.5433270632784
1441.6835,3558.6650513456807
1443.5139,3446.4149779051877
1445.3435,3370.5444000792886
1447.1724,3449.5545767413278
1449.0005,3347.9967330592044
1450.8279,3244.9720597052947
1452.6545,3278.3817138720187
1454.4804,3376.526820302104
1456.3056,3380.708470954476
1458.13,3330.32772402282
1459.9536,3165.085603893738
1461.7766,2810.783101650588
1463.5987,2370.521176725855
1465.4202,2009.6007604442239
1467.2409,1653.3227604251624
1469.0608,1465.338064192154
1470.88,1224.8975427354562
1472.6984,1054.2020523919382
1474.5161,844.8524372494903
1476.3331,723.7995308539685
1478.1493,622.9941583027285
1479.9648,558.9871374551294
1481.7795,491.42927994058846
1483.5935,452.3713917986788
1485.4067,439.3642741546828
1487.2192,420.6587236101841
1489.031,456.5555323731314
1490.842,409.6554884449033
1492.6522,467.3093752613313
1494.4618,438.46797216171035
1496.2705,430.9320538122447
1498.0785,434.05239049445663
1499.8858,459.67974818056246
1501.6924,419.06488850226015
1503.4981,470.058568494489
1505.3032,478.311541001538
1507.1075,486.9245541671153
1508.911,467.24835135184185
1510.7138,442.5336710470874
1512.5159,427.8312470717756
1514.3172,376.6918088194725
1516.1178,326.3160814054463
1517.9176,390.6547861780491
1519.7166,341.8586412224722
1521.515,326.8783607173682
1523.3126,355.2646554228122
1525.1094,322.1682328301067
1526.9055,346.1397968779129
1528.7008,310.5300482832208
1530.4954,222.23968430163222
1532.2893,265.31939908345885
1534.0824,195.66988455662795
1535.8747,305.9418299958488
1537.6663,227.9859227191664
1539.4572,227.95284698520845
1541.2473,225.34328477275267
1543.0367,238.80791578107528
1544.8253,194.79741745600768
1546.6132,267.46246485532174
1548.4003,207.35373108883505
1550.1867,242.92188659175736
1551.9723,273.6175997257742
1553.7572,302.4415364233573
1555.5414,351.04435988081605
1557.3247,421.97673027006385
1559.1074,456.6893042525553
1560.8893,497.9827342699973
1562.6705,515.8076681972016
1564.4509,632.6647489291572
1566.2305,686.5546142027888
1568.0094,865.5278954283785
1569.7876,1005.1352171506842
1571.565,1085.877195259196
1573.3417,1181.6044355920712
1575.1176,1196.1175331287195
1576.8928,1168.1170710324986
1578.6672,1121.653620505629
1580.4409,1006.0777410691408
1582.2138,893.8899810275652
1583.986,773.1908786246568
1585.7575,718.5309631652854
1587.5282,614.1607562224053
1589.2981,596.4307721836703
1591.0673,509.34151929513973
1592.8358,572.3434998385601
1594.6035,520.0872110022683
1596.3704,520.1231442511744
1598.1366,537.2017858493236
1599.9021,560.2736168595511
1601.6668,588.0391129726777
1603.4308,631.7487442768033
1605.194,734.9029749796573
1606.9564,842.3522629714935
1608.7182,918.6970587935393
1610.4791,1116.037804563508
1612.2394,1189.0749332121704
1613.9988,1379.7588665099101
1615.7576,1623.1400143363608
1617.5156,1899.1187727735814
1619.2728,2210.195521672238
1621.0293,2442.2706218918247
1622.785,2490.644412189875
1624.54,2409.5672069012326
1626.2942,2271.0892954543087
1628.0477,2015.610943181844
1629.8005,1796.4323927057048
1631.5525,1584.2538664916465
1633.3037,1348.7755690411286
1635.0542,1237.2976890130594
1636.804,1125.4204015786017
1638.553,1032.7938695359444
1640.3013,950.5682444290833
1642.0488,937.8436674740879
1643.7955,910.1702703813389
1645.5416,949.6481754828055
1647.2868,1039.9774960087343
1649.0313,1067.9083356929223
1650.7751,1231.540787869384
1652.5181,1419.1749351930666
1654.2604,1667.6108480035255
1656.0019,1971.8985824485571
1657.7427,2375.238177999854
1659.4828,2738.2796544101366
1661.222,3007.523007679756
1662.9606,3118.018206426288
1664.6984,2988.315189192086
1666.4354,2692.813863339343
1668.1717,2247.4141063471216
1669.9072,1782.8157687663515
1671.642,1480.7686786738268
1673.3761,1224.9726463181723
1675.1094,999.5774671403451
1676.8419,796.8329243315566
1678.5737,680.6887910872792
1680.3048,586.7448326346566
1682.0351,463.9008073939658
1683.7646,427.4564679180294
1685.4934,403.8615621206918
1687.2215,327.16583364124017
1688.9488,280.51902208035244
1690.6754,275.9208637670672
1692.4012,281.12109222523213
1694.1263,246.21943821950117
1695.8506,246.61562970332852
1697.5742,279.3593921679749
1699.297,223.45044863855583
1701.0191,147.6885193466078
1702.7404,152.87332228916603
1704.461,66.55457398639192
1706.1808,106.13198942972122
1707.8999,78.65528294504838
1709.6182,93.4741677969505
1711.3358,69.63835646346706
1713.0527,76.89756048790878
1714.7688,33.80149071720007
1716.4841,40.79985722929996
1718.1987,71.39236976414941
1719.9126,58.92873765371587
1721.6257,42.008669516038935
1723.338,50.38187337987256
1725.0496,-9.301943146105259
1726.7605,32.106927042963434
1728.4706,9.058283978345571
1730.18,-34.2480726297581
1731.8886,-43.36234316171431
1733.5964,-18.43438585964941
1735.3036,25.136374224104657
1737.0099,24.800696196725767
1738.7156,37.109338914035106
1740.4204,-20.536939016157703
1742.1246,38.062620642880574
1743.8279,26.8589812918799
1745.5306,59.703105950951795
1747.2325,56.74595737163145
1748.9336,64.03849770843408
1750.634,7.98168854841424
1752.3336,58.47649083824945
1754.0325,77.3738654448025
1755.7307,45.174772650179875
1757.4281,120.38017196274268
1759.1247,119.14102243911839
1760.8206,119.90828193212838
1762.5158,142.53290710319015
1764.2102,108.0158534146467
1765.9039,115.50807490351326
1767.5968,119.31052452665608
1769.289,113.17415408586385
1770.9804,110.74991418983882
1772.6711,122.83875431554043
1774.361,151.24162283244186
1776.0502,166.55946688163567
1777.7386,150.8932320918011
1779.4263,168.1938624260256
1781.1132,176.8123003384644
1782.7994,185.19948660134105
1784.4849,184.6063602187587
1786.1696,163.68385834282162
1787.8535,199.98291627957224
1789.5367,192.55446769822083
1791.2192,212.14944426815782
1792.9009,200.21877573327401
1794.5818,201.21338971597288
1796.2621,202.68421183648024
1797.9415,184.68216570289223
1799.6202,234.6081728964673
1801.2982,209.31315315164647
1802.9755,236.7980238568016
1804.6519,238.86370030717444
1806.3277,230.7610954300253
1808.0027,232.64111976399545
1809.6769,282.7546815401038
1811.3504,271.95268666296215
1813.0231,263.2360382096467
1814.6951,272.7056365377066
1816.3664,337.5123793723469
1818.0369,319.85716171171225
1819.7067,293.39087517883127
1821.3757,307.7144081981587
1823.044,327.47864626023875
1824.7115,354.73447177848357
1826.3783,297.88276389152634
1828.0443,300.4743981906722
1829.7096,313.56024728840566
1831.3741,320.19118079247346
1833.0379,347.2180651750223
1834.701,329.6417637063005
1836.3633,359.0131361843687
1838.0248,368.2830391108819
1839.6856,370.2023253973639
1841.3457,409.0718442725247
1843.005,394.49244126304984
1844.6636,418.6149578049062
1846.3214,429.14023138914126
1847.9785,457.81909532065583
1849.6349,448.45237861294845
1851.2904,450.7909057013312
1852.9453,455.03549653659866
1854.5994,439.486966561637
1856.2528,492.8961266689894
1857.9054,489.0137833563331
1859.5572,519.0407381923869
1861.2083,535.4777878557379
1862.8587,530.9757238345719
1864.5084,546.3353322622952
1866.1572,529.4573939625716
1867.8054,512.4926842957138
1869.4528,524.1919733274717
1871.0994,506.1060259986789
1872.7453,524.9356020082505
1874.3905,528.5314559940398
1876.0349,511.7443373445658
1877.6786,568.0749901630261
1879.3215,578.274153435188
1880.9637,585.4925604660639
1882.6051,611.8809387779293
1884.2458,593.8400100381459
1885.8858,584.3704897952648
1887.525,618.7230876594494
1889.1634,599.248507397162
1890.8011,571.3974465876327
1892.4381,574.3705968176237
1894.0743,595.0186439599056
1895.7098,592.192268143559
1897.3446,616.1921435474778
1898.9786,598.9189384286401
1900.6118,619.0733148821037
1902.2443,551.4059290137411
1903.8761,594.4174307387075
1905.5071,557.6084644580951
1907.1374,561.2796686288457
1908.7669,575.8316761318092
1910.3957,589.8151142350598
1912.0237,569.1806044483474
1913.651,555.0787623832784
1915.2776,536.810197959654
1916.9034,534.5755155464958
1918.5285,520.6753141447225
1920.1528,498.9101874095122
1921.7764,542.980723789291
1923.3992,535.3875067433892
1925.0213,467.7311143013485
1926.6427,466.9121191388349
1928.2633,456.28108925420565
1929.8832,493.93858797670146
1931.5023,455.8351740727576
1933.1207,449.2714013694258
1934.7383,451.5478191354123
1936.3552,435.2149721467067
1937.9714,451.17340066382894
1939.5868,431.8236405951502
1941.2015,416.01622333732485
1942.8154,414.25167596876236
1944.4286,389.9805214077187
1946.041,376.1532784299452
1947.6528,330.6204619113905
1949.2637,358.8825829664711
1950.8739,359.9901494034075
1952.4834,352.39366544159566
1954.0921,385.44363170053657
1955.7001,389.040545275795
1957.3074,340.93489940850304
1958.9139,345.77718344939785
1960.5197,359.6678833398655
1962.1247,309.2074815635169
1963.729,295.99645700729525
1965.3325,270.98528546607486
1966.9353,317.2244397747709
1968.5374,319.8143900584437
1970.1387,292.60560326992345
1971.7393,288.8985431639012
1973.3392,293.99367056901974
1974.9383,272.39144342493455
1976.5366,277.9923167313773
1978.1342,273.59674276417536
1979.7311,279.8551710192387
1981.3273,269.3180482565076
1982.9227,256.585818437381
1984.5173,230.50892283008397
1986.1112,249.93780013698415
1987.7044,258.57288675536074
1989.2968,251.01461658311928
1990.8885,262.76342093244057
1992.4795,275.219728605367
1994.0697,243.48396577631684
1995.6592,239.85655586751272
1997.2479,240.93791986634642
1998.8359,256.87847636165316
2000.4232,243.07864153288574
2002.0097,242.23882899071214
2003.5955,200.00944991501456
2005.1805,209.99091306329683
2006.7648,222.6836251929708
2008.3484,210.53799096154216
2009.9312,234.9544127996869
2011.5133,216.28329103270335
2013.0946,201.57502363634376
2014.6752,203.03000642353436
2016.2551,251.49863319145334
2017.8342,206.23129570698984
2019.4126,208.57838322204407
2020.9902,219.29028292621297
2022.5672,216.7673799233071
2024.1433,203.16005712424703
2025.7188,193.31869527227718
2027.2935,205.24367307904504
2028.8674,195.5853673230231
2030.4406,198.14415273024133
2032.0131,180.9704020708905
2033.5849,178.56448613371685
2035.1559,205.82677389777382
2036.7261,207.90763255646561
2038.2957,211.10742724494048
2039.8645,209.97652101926178
2041.4325,259.7152748244371
2042.9998,221.07404750570277
2044.5664,210.45319531115092
2046.1323,196.10307227813155
2047.6974,210.52403033946757
2049.2617,217.06641946695254
2050.8254,195.13058752715096
2052.3883,220.916880215952
2053.9504,216.82564127795467
2055.5118,221.90721224859044
2057.0725,200.3619324950305
2058.6325,189.59013916538515
2060.1917,186.44216740414595
2061.7502,204.76835045990538
2063.3079,201.36901971683437
2064.8649,180.9445045114262
2066.4212,198.39513216648447
2067.9767,197.37122819537308
2069.5315,187.92311612750837
2071.0856,173.15111751859695
2072.6389,158.70555204512038
2074.1915,164.2867376520553
2075.7433,145.5949906973201
2077.2945,152.38062589597666
2078.8448,130.04395650713832
2080.3945,132.48529426612004
2081.9434,151.40494960779688
2083.4916,158.053231642195
2085.039,123.83044796529794
2086.5857,154.28690459255267
2088.1317,139.2729063011102
2089.677,153.38875632525742
2091.2215,159.08475650655146
2092.7652,140.41120715266698
2094.3083,168.46840698043798
2095.8506,172.00665330258562
2097.3921,168.17624174715456
2098.933,155.1774662221187
2100.4731,167.4106189537024
2102.0124,176.175990616357
2103.5511,197.52387021043432
2105.089,196.80454497452956
2106.6261,185.418300172003
2108.1626,192.36541909817788
2109.6983,187.49618319418823
2111.2332,191.51087197752258
2112.7675,214.30976309070775
2114.301,198.493132261161
2115.8337,203.31125307321145
2117.3657,193.5143971262578
2118.897,187.8528339865934
2120.4276,186.076831285367
2121.9575,188.8366547752039
2123.4866,200.43256834796284
2125.0149,210.81483400713842
2126.5426,165.7837117519084
2128.0695,205.43945947330212
2129.5956,203.78233340451152
2131.1211,195.01258772434267
2132.6458,190.1804745737818
2134.1698,196.53624414369278
2135.693,216.0801447231397
2137.2155,207.21242263582917
2138.7373,202.68332204466878
2140.2584,210.0430850404473
2141.7787,201.04195168712704
2143.2983,182.78015994824455
2144.8171,146.85794577692013
2146.3353,167.42554329847826
2147.8527,157.43318516966247
2149.3693,188.63110237297224
2150.8853,202.41952431657865
2152.4005,180.04867852233565
2153.9149,169.6187904879098
2155.4287,159.18008391048534
2156.9417,204.43278079106403
2158.454,199.32710153885273
2159.9655,178.51326451873138
2161.4764,202.39148610230677
2162.9865,176.31198087605844
2164.4958,219.3249614025499
2166.0045,185.6806384812271
2167.5124,196.67922071828707
2169.0195,191.57091486313038
2170.526,208.7559256983659
2172.0317,209.63445609090195
2173.5367,196.25670682009059
2175.0409,202.52287656893986
2176.5445,206.63316205789306
2178.0473,178.98775798216502
2179.5494,190.88685697064284
2181.0507,181.98064986233658
2182.5513,174.36932558738954
2184.0512,176.053071256144
2185.5504,170.03207223525078
2187.0488,172.35651213083383
2188.5465,187.4265728486962
2190.0435,151.69243457107677
2191.5397,154.05427560595672
2193.0353,159.56227274439243
2194.5301,157.66660123690326
2196.0241,162.26743473838633
2197.5175,158.96494532707948
2199.0101,157.90930345854576
2200.502,140.1506779987003
2201.9931,144.88923623437313
2203.4835,136.37514405089678
2204.9733,132.00856588470924
2206.4622,143.38966480849558
2207.9505,134.01860257485896
2209.438,108.89553950251138
2210.9248,112.82063456997639
2212.4109,120.64404566682606
2213.8962,124.06592955442738
2215.3809,132.28644178771083
2216.8648,125.8057366809553
2218.3479,108.62396722557241
2219.8304,123.59128515492375
2221.3121,112.75784111613211
2222.7931,111.57378452041121
2224.2733,106.1392636513965
2225.7529,94.25442567699156
2227.2317,78.66941670370943
2228.7098,105.8343818955218
2230.1872,94.49946562970854
2231.6638,96.21481122520709
2233.1397,87.78056105596261
2234.6149,92.94685653377746
2236.0894,90.91383819264502
2237.5632,110.2816456371038
2239.0362,82.65041756255141
2240.5085,80.92029156157423
2241.9801,65.54140440026003
2243.4509,103.46389203549006
2244.921,86.33788976873711
2246.3904,68.91353186684137
2247.8591,67.89095173326405
2249.3271,75.07028208233442
2250.7943,78.5516549494705
2252.2608,59.93520161939523
2253.7266,58.47105259131786
2255.1917,76.40933776510246
2256.656,82.80018645590371
2258.1197,77.84372721478212
2259.5826,69.74008776480332
2261.0447,65.13939505059261
2262.5062,65.19177531937657
2263.9669,62.59735416699277
2265.4269,77.80625653735751
2266.8862,93.31860674842119
2268.3448,76.4345283400744
2269.8026,97.30414391902559
2271.2598,101.27757532763917
2272.7162,76.75494343524133
2274.1719,101.48636809838445
2275.6268,93.27196840607212
2277.0811,109.66186243244738
2278.5346,106.20616731893188
2279.9874,104.75499911033421
2281.4395,108.75847278940364
2282.8908,97.36670229133779
2284.3414,111.12980046375014
2285.7914,107.997879180587
2287.2406,109.37104920449929
2288.689,104.94942021816314
2290.1368,97.43310081054642
2291.5838,83.22219852112539
2293.0302,97.4668199150492
2294.4758,99.36707072525223
2295.9206,88.42305570999997
2297.3648,112.984878633888
2298.8082,107.60264237728279
2300.251,116.276448690709
2301.693,93.25639824866266
2303.1343,108.79259056288356
2304.5748,94.735124212546
2306.0147,90.88409668890472
2307.4538,99.88960453586515
2308.8922,98.85174338849265
2310.3299,84.42060788295657
2311.7669,94.19629166691084
2313.2031,108.3288875438011
2314.6387,97.21848737511391
2316.0735,86.96518193904194
2317.5076,96.1190610415997
2318.941,80.08021361914962
2320.3737,85.6987276468708
2321.8056,94.12469029914064
2323.2369,95.4081878933548
2324.6674,89.74930580565888
2326.0972,101.19812845812521
2327.5263,77.85473937533425
2328.9547,99.01922106988695
2330.3823,96.89165527583737
2331.8092,103.07212273705045
2333.2355,111.16070322847554
2334.661,114.20747549434145
2336.0858,99.56251716727274
2337.5098,117.67590473782184
2338.9332,111.79771370091657
2340.3558,97.8280183747338
2341.7778,109.66689195947674
2343.199,98.76440667707175
2344.6195,94.520633652779
2346.0393,107.38564302421764
2347.4583,113.75950398380246
2348.8767,103.84228465009346
2350.2943,109.63405200405214
2351.7113,126.38487198822168
2353.1275,109.5448094488047
2354.543,117.7139279681578
2355.9578,118.24229003319306
2357.3718,103.22995695368263
2358.7852,111.22698885697719
2360.1978,87.83344483813198
2361.6098,111.24938287993791
2363.021,110.42486008685773
2364.4315,100.25993245085556
2365.8413,91.70465485965815
2367.2504,101.55908119839023
2368.6587,77.07326443513466
2370.0664,72.09725652238103
2371.4733,84.03110864189057
2372.8795,78.37487125445114
2374.285,77.42859398054543
2375.6899,72.0923256568999
2377.0939,62.516114345962706
2378.4973,81.55000738925719
2379.9,61.64405150314997
2381.3019,62.948292588513596
2382.7032,64.6627759297703
2384.1037,65.68754618186222
2385.5035,55.372647353105094
2386.9027,66.36812279494006
2388.3011,63.77401530508132
2389.6987,61.49036701756222
2391.0957,48.36721942867371
2392.492,56.804613419810266
2393.8876,43.002589388693195
2395.2824,41.31118716499532
2396.6765,34.68044614837072
2398.07,45.71040532536426
2399.4627,46.30110333572202
2400.8547,56.85257836208393
2402.246,41.56486812408093
2403.6366,19.53800977282617
2405.0265,31.772040043776997
2406.4156,42.066995477012824
2407.8041,34.27291229489538
2409.1918,26.689826299118977
2410.5789,42.26777294864905
2411.9652,23.35678743555536
2413.3508,35.80690452923227
2414.7358,38.86815876550918
2416.12,25.540584322147424
2417.5035,40.474214988227686
2418.8863,17.769084297427526
2420.2684,17.875225378681534
2421.6497,15.74267118323587
2423.0304,5.971454483584694
2424.4104,3.6616078947968163
2425.7896,-2.3368360277690954
2427.1682,9.676155234627913
2428.546,21.50063754572102
2429.9232,9.486666672479714
2431.2996,30.034298166872304
2432.6753,29.093587485999706
2434.0503,34.96458978662258
2435.4246,28.89735993456634
2436.7982,21.49195244601333
2438.1711,21.698421548170245
2439.5433,30.716821253326998
2440.9148,25.797205356791437
2442.2856,9.589627346702855
2443.6557,11.194140453231284
2445.025,29.560797810651366
2446.3937,25.63965244129986
2447.7617,17.930757071903827
2449.1289,32.38416417279632
2450.4955,28.749926035002773
2451.8613,45.32809462570867
2453.2265,42.16872162460231
2454.5909,41.271858258089196
2455.9546,38.23755533089161
2457.3177,29.91586323501133
2458.68,19.956831980076913
2460.0416,44.96051127656028
2461.4025,59.07695063536585
2462.7627,46.40619911779186
2464.1222,47.84830519437219
2465.4811,31.60331687157577
2466.8392,46.72128167739129
2468.1966,58.852246823775204
2469.5533,59.89625905547291
2470.9093,64.35336452871024
2472.2645,59.32360880075248
2473.6191,70.707036785333
2474.973,65.15369280294999
2476.3262,61.66362046703216
2477.6787,49.886862739474054
2479.0305,45.27346196553526
2480.3816,43.673459991609434
2481.7319,53.786898211358675
2483.0816,44.563817581711646
2484.4306,49.70425852172957
2485.7789,49.90826100483491
2487.1264,37.025864507410915
2488.4733,44.55710800675797
2489.8195,33.45203010991918
2491.165,46.86066897836872
2492.5097,36.03306243906127
2493.8538,37.4192478503478
2495.1972,33.069262210248326
2496.5398,20.73314214259335
2497.8818,27.56092394052166
2499.2231,30.102643689840534
2500.5637,23.608337200747428
2501.9035,24.078039982418886
2503.2427,39.36178730794563
2504.5812,42.65961420963913
2505.919,42.471555326197176
2507.256,40.49764486971981
2508.5924,38.13791662759377
2509.9281,38.492403982229916
2511.2631,37.661139934662515
2512.5974,35.494157101002656
2513.9309,37.04148772075132
2515.2638,35.153163678471174
2516.596,51.12921648830843
2517.9275,38.61967731287996
2519.2583,38.92457680351072
2520.5884,37.19394522532912
2521.9178,38.17781245421975
2523.2465,35.92620799412907
2524.5745,30.889160967225962
2525.9018,39.766700136418876
2527.2284,34.10885395572495
2528.5543,39.815650481495595
2529.8796,45.337117428994134
2531.2041,40.52328211532813
2532.5279,40.42417140423595
2533.851,51.08981175422514
2535.1735,49.920229219562316
2536.4952,46.91544934361718
2537.8163,58.87549717055799
2539.1366,57.50039727539752
2540.4562,51.59017364439387
2541.7752,60.59484968880588
2543.0935,54.814448303987774
2544.411,69.5989917793463
2545.7279,60.848501856144594
2547.0441,74.76299957965557
2548.3596,66.59250538667084
2549.6744,80.18703896635134
2550.9885,73.59661934193537
2552.3019,67.07126473479093
2553.6146,71.66099263032038
2554.9266,73.61581984321447
2556.2379,84.08576247155452
2557.5485,79.3708358772642
2558.8585,82.27105458140886
2560.1677,79.1364323113462
2561.4762,76.96698197172464
2562.7841,88.8627156758298
2564.0913,92.27364476728098
2565.3977,103.74977970107102
2566.7035,88.44113000945799
2568.0086,87.54770418720409
2569.313,104.1695098446612
2570.6167,93.20655371670546
2571.9197,101.20884149651783
2573.222,108.72637794521552
2574.5236,114.70916681182825
2575.8246,116.45721075812389
2577.1248,107.82051129877891
2578.4244,125.34906878389802
2579.7232,124.94288248538078
2581.0214,127.15195042163805
2582.3189,138.2762693616528
2583.6157,141.56583480288828
2584.9118,148.02064086004384
2586.2072,144.79068023216178
2587.5019,142.12594413807938
2588.7959,155.02642234873065
2590.0893,145.49210321379041
2591.3819,141.5729735326736
2592.6739,140.76901864987394
2593.9652,156.43022249415753
2595.2557,163.95656758659925
2596.5456,154.84803488397256
2597.8348,167.50460370348628
2599.1234,165.82625181386766
2600.4112,154.3129553087997
2601.6983,164.01468862370257
2602.9848,156.83142465087167
2604.2705,147.36313464245268
2605.5556,173.00978828228108
2606.84,167.92135378056128
2608.1237,157.14779761740238
2609.4067,164.3890845936985
2610.689,168.79517793886544
2611.9707,154.81603923843113
2613.2516,159.10162838997167
2614.5319,140.30190374290532
2615.8115,142.4668220556332
2617.0903,149.84633868354126
2618.3685,148.84040755734577
2619.6461,150.74898110930258
2620.9229,147.17201028326372
2622.199,149.80944451559117
2623.4745,153.7112317709284
2624.7493,155.9773185158249
2626.0234,149.457649679719
2627.2968,146.5521686322768
2628.5695,148.86081724858968
2629.8415,138.73353593822912
2631.1128,142.47026362215956
2632.3835,136.32093783401206
2633.6535,138.7354946827145
2634.9228,155.36386891399025
2636.1914,149.75599388620572
2637.4593,142.3618014040901
2638.7265,147.0312217748135
2639.9931,150.16418388192687
2641.259,136.56061513867166
2642.5242,145.92044145664863
2643.7887,141.74358738185492
2645.0525,145.17997600108356
2646.3156,139.5795289836924
2647.5781,139.79216654724178
2648.8398,123.71780751349638
2650.1009,134.4063693062999
2651.3613,139.2577681123198
2652.6211,134.0219187741609
2653.8801,134.09873474185156
2655.1385,143.48812812520237
2656.3961,131.54000969303684
2657.6531,141.3042887792983
2658.9094,134.4808734025305
2660.1651,137.7696701682355
2661.42,139.67058433710736
2662.6743,139.233519792145
2663.9279,155.65837901964142
2665.1808,150.49506311355617
2666.433,150.34347161126743
2667.6846,149.15350254520376
2668.9354,167.47505244436206
2670.1856,159.2580163462037
2671.4351,167.50228761344056
2672.6839,166.65775801620612
2673.9321,164.9743176496113
2675.1795,172.8518549421899
2676.4263,175.34025667273318
2677.6724,169.48940789151516
2678.9179,174.49919189540628
2680.1626,178.36949028638492
2681.4067,172.850182921439
2682.6501,186.6411478738612
2683.8928,177.74226148844423
2685.1348,184.2533982435698
2686.3761,163.27443084019706
2687.6168,166.95523013675415
2688.8568,159.04566535892377
2690.0961,161.69560406283972
2691.3348,165.95491221417933
2692.5727,148.32345416166504
2693.81,144.90109259447058
2695.0466,154.88768871853517
2696.2826,162.33310229078916
2697.5178,169.9371915192869
2698.7524,158.6498129887525
2699.9863,165.72082158453964
2701.2195,167.50007060550433
2702.452,167.5374116932951
2703.6839,168.03269481455936
2704.9151,166.28576826057088
2706.1456,169.49647864227654
2707.3755,180.36467090776523
2708.6046,188.1401883101612
2709.8331,187.17287229894305
2711.0609,192.26256244218712
2712.2881,190.05909643624136
2713.5145,204.11231005482978
2714.7403,214.22203717108664
2715.9654,236.08810961702397
2717.1899,241.21035708243403
2718.4136,242.53860689622934
2719.6367,259.07268397521716
2720.8591,268.01241081081866
2722.0809,274.4076073037247
2723.3019,269.9080906745046
2724.5223,307.0636753996505
2725.7421,296.1241732565752
2726.9611,292.1893929520552
2728.1795,295.4591402316255
2729.3972,295.1332179189285
2730.6142,274.56142588301645
2731.8306,248.29356104160843
2733.0462,239.52941756681025
2734.2612,218.76878714779332
2735.4756,214.66145907843452
2736.6892,192.007220464925
2737.9022,172.55585626683978
2739.1145,167.20714952368303
2740.3262,130.36088154940057
2741.5372,127.5168319858683
2742.7475,115.47477917135416
2743.9571,107.38450016895763
2745.1661,99.84577088703213
2746.3744,80.95836616008637
2747.582,72.77205982417172
2748.7889,60.78662490575698
2749.9952,58.20183370359018
2751.2008,50.517457908554206
2752.4057,52.13326862951385
2753.61,35.8490364701604
2754.8136,41.36453151285377
2756.0165,45.82952348146455
2757.2188,40.29378168621952
2758.4204,48.80707497905087
2759.6213,40.91917180895439
2760.8215,24.729840136854364
2762.0211,33.58884751448477
2763.22,32.64596124628224
2764.4182,19.150948300795108
2765.6158,28.853575320112895
2766.8127,29.253608754816014
2768.009,12.350814766949497
2769.2045,3.0949592260233203
2770.3994,-4.064192121960787
2771.5936,3.473126438049576
2772.7872,-6.093278777615751
2773.9801,-2.2136014873578915
2775.1723,-15.087974537723085
2776.3639,-11.116508661380294
2777.5548,-16.049163862133128
2778.745,-21.435789089863192
2779.9346,-9.826072963305478
2781.1235,-11.61948995766329
2782.3117,-17.01541638567096
2783.4992,-12.56311248135944
2784.6861,-18.611668494751484
2785.8723,-4.010049170375396
2787.0579,-8.65703332219232
2788.2428,-5.701359703773051
2789.427,14.30831941507472
2790.6106,26.523408721126316
2791.7935,26.64531275807417
2792.9757,31.375435804377503
2794.1573,40.91518187204247
2795.3382,46.165954659323006
2796.5184,53.879157455320865
2797.698,78.00619308747878
2798.8769,93.84846384444813
2800.0551,102.70737123481922
2801.2327,110.93431582869721
2802.4096,123.48069716911596
2803.5859,153.99791368976548
2804.7615,163.38736258953077
2805.9364,186.60043952731826
2807.1106,218.338538528159
2808.2842,242.85305175108215
2809.4572,281.8953691717302
2810.6294,319.5668783372166
2811.801,348.91896397570144
2812.972,391.00300761967674
2814.1423,430.82038731244666
2815.3119,473.6224771872867
2816.4808,520.1606470692702
2817.6491,575.5362620472442
2818.8167,610.0006820084518
2819.9837,664.6052610847726
2821.15,711.8013473080791
2822.3157,752.4902820641933
2823.4807,792.7233996209211
2824.645,835.2020267211703
2825.8086,868.2774821806115
2826.9716,918.5510764628989
2828.134,945.7741113489112
2829.2957,969.4478794340166
2830.4567,1011.1236638558428
2831.617,1042.1027380575413
2832.7767,1036.8863653710255
2833.9358,1044.025798707182
2835.0941,1022.4722806080349
2836.2519,1021.3770431753508
2837.4089,1003.441308286174
2838.5653,995.1662876037801
2839.7211,981.203182757032
2840.8761,994.9031854231312
2842.0306,1025.517477467248
2843.1843,1066.7972308055212
2844.3374,1095.6436070989155
2845.4899,1166.7577573404224
2846.6417,1237.390821566599
2847.7928,1319.7439281464249
2848.9433,1397.6181930749713
2850.0931,1482.8147191498708
2851.2422,1553.484595192575
2852.3907,1635.0288951963873
2853.5385,1696.3486776197672
2854.6857,1741.0949845708865
2855.8323,1791.0688411944304
2856.9781,1846.5712552241357
2858.1233,1882.8532164830515
2859.2679,1921.8656963285123
2860.4118,1979.1596472893245
2861.555,2029.9360026756367
2862.6976,2057.4956760060018
2863.8395,2088.4395604996125
2864.9808,2100.6185288007046
2866.1214,2108.83343266912
2867.2614,2127.685102858516
2868.4007,2153.7743490342145
2869.5393,2145.9519595846905
2870.6773,2163.568701360672
2871.8146,2176.025319753371
2872.9513,2175.3225385183127
2874.0874,2167.6110596507674
2875.2227,2164.0415633927832
2876.3574,2131.9647083102973
2877.4915,2106.6811313288326
2878.6249,2089.541448054266
2879.7577,2063.9962530256635
2880.8898,2030.4961198866768
2882.0212,2009.341601640995
2883.152,2015.0332309873468
2884.2821,2009.7215205310456
2885.4116,1982.6069627270736
2886.5405,1990.9400299331976
2887.6686,1996.2211746811165
2888.7962,1991.5008295931289
2889.923,2000.879407329322
2891.0493,2025.4073006347771
2892.1748,2032.6348822457805
2893.2997,2041.2625046445457
2894.424,2040.1404999869394
2895.5476,2065.519180016202
2896.6706,2087.248836074172
2897.7929,2136.379738847497
2898.9145,2135.012138150333
2900.0355,2166.046262433044
2901.1559,2222.882318795871
2902.2756,2273.4204926785947
2903.3946,2302.310947292173
2904.513,2286.653823113358
2905.6308,2329.0492375957947
2906.7479,2364.2472853265895
2907.8643,2388.0480376023593
2908.9801,2396.3515420772474
2910.0953,2404.95782252492
2911.2098,2411.2668787555267
2912.3236,2399.178686529639
2913.4368,2381.8431974951627
2914.5494,2364.1603393082123
2915.6613,2339.5800158064753
2916.7725,2309.502107186032
2917.8831,2290.1764702471664
2918.9931,2260.8029386951403
2920.1024,2237.631323333454
2921.211,2200.8114123575765
2922.319,2207.5929715866673
2923.4264,2172.9257448317694
2924.5331,2169.759453827999
2925.6391,2154.9937985812135
2926.7445,2143.6784573996765
2927.8493,2156.963087041714
2928.9534,2136.347322828869
2930.0569,2148.8307785130537
2931.1597,2135.513046482708
2932.2619,2119.1936976379648
2933.3634,2105.7722815238276
2934.4643,2111.398326493363
2935.5645,2082.8713398419154
2936.6641,2050.190807750845
2937.763,2001.056195572801
2938.8613,1959.9169481585232
2939.959,1912.2724903481896
2941.056,1827.9222273828098
2942.1523,1734.965545380669
2943.248,1654.4018121808301
2944.3431,1565.180378272703
2945.4375,1454.5005776016787
2946.5313,1365.8617284613465
2947.6244,1266.4631346002898
2948.7169,1164.4540861084743
2949.8087,1069.7838604112367
2950.8999,986.5517232893724
2951.9904,913.7569298258384
2953.0803,849.3487252380742
2954.1696,775.3763456059512
2955.2582,715.8890185158536
2956.3462,682.7859638004027
2957.4335,648.4663941333301
2958.5202,603.3295153605088
2959.6062,578.5745268431483
2960.6916,564.7006219091625
2961.7764,551.9069881007204
2962.8605,537.2428073129854
2963.9439,533.1572559220522
2965.0267,519.5495049315871
2966.1089,512.4187200136853
2967.1905,513.6140616449468
2968.2714,515.2846851777856
2969.3516,510.6297408284761
2970.4312,514.9983736604456
2971.5102,527.7397236308257
2972.5885,525.1029255467649
2973.6662,535.0371089380151
2974.7432,527.5913980832993
2975.8196,520.4649119109704
2976.8954,524.7067640734672
2977.9705,510.1660630185801
2979.045,501.8919119470328
2980.1188,481.93340895788765
2981.192,480.8896471312887
2982.2645,465.25971472804633
2983.3364,425.44269520007447
2984.4077,398.5876673466921
2985.4783,379.9937057127902
2986.5483,348.00988085738413
2987.6177,334.435259539552
2988.6864,290.86890503827476
2989.7545,270.35987728817986
2990.8219,239.807233315207
2991.8887,208.61002744169627
2992.9548,178.6173115919171
2994.0204,159.42813560403772
2995.0852,129.34154753005419
2996.1495,111.60659382768176
2997.2131,90.22231966122047
2998.276,72.1377690789044
2999.3383,56.50198522674464
3000.4,48.564010529375196
3001.4611,26.222886846410688
3002.5215,12.377655551826024
3003.5812,4.527357757368009
3004.6404,10.221034451007313
3005.6989,2.0577265754415066
3006.7567,-9.963525028841559
3007.8139,-10.693679541930578
3008.8705,-10.933596608299354
3009.9264,-8.734029042563066
3010.9818,-17.19562043270753
3012.0364,-11.518927113768655
3013.0905,-3.0043336365348523
3014.1439,-5.302109477712747
3015.1966,-2.3624941007161624
3016.2487,1.4643259991146351
3017.3002,-3.521812072244529
3018.3511,9.678928776539351
3019.4013,8.166420819702239
3020.4509,27.390536234690785
3021.4998,24.15114711728836
3022.5481,26.598125289372774
3023.5958,34.9813423313102
3024.6428,37.90066955748637
3025.6892,47.255977932473115
3026.735,50.69713804183607
3027.7802,62.3740199985815
3028.8247,69.48649340874465
3029.8685,66.73442725462019
3030.9118,79.76768982363922
3031.9544,85.63614873588824
3032.9963,96.48967081377782
3034.0376,100.72812202335672
3035.0783,101.95136736577774
3036.1184,110.60927083491185
3037.1578,132.15169540511647
3038.1966,130.7785029446576
3039.2348,133.93955400028392
3040.2723,138.13470781095987
3041.3092,143.41382227625502
3042.3455,148.4767539143918
3043.3811,141.57335780945516
3044.4161,138.00348756076232
3045.4505,138.96699535189703
3046.4842,129.31373198640858
3047.5173,130.04354687817624
3048.5498,133.30628814794318
3049.5816,129.60180261601715
3050.6128,129.07993576964304
3051.6434,124.09053180004798
3052.6734,122.13343360766055
3053.7027,120.60848285200404
3054.7314,117.21551997126801
3055.7594,117.40438419755708
3056.7868,110.47491359082096
3057.8136,112.52694503696523
3058.8398,113.66031431714703
3059.8653,103.72485608725367
3060.8902,115.22040386657011
3061.9145,112.99679013713296
3062.9381,100.80384622877477
3063.9612,101.09140234136032
3064.9835,99.30928766671627
3066.0053,94.75733038575538
3067.0264,89.135357686298
3068.0469,83.24319580859094
3069.0668,94.18067010152811
3070.086,86.1476050815711
3071.1046,73.09382432337475
3072.1226,67.91915054011872
3073.1399,67.72340571404436
3074.1567,61.456411148202164
3075.1727,43.21798746840818
3076.1882,50.157954685914774
3077.203,44.82613237979422
3078.2173,34.32233962753969
3079.2308,25.846395058382825
3080.2438,24.048116958332457
3081.2561,25.427323354933037
3082.2678,16.483832035248554
3083.2789,13.51746053206972
3084.2893,13.428026213348915
3085.2991,16.01534631186405
3086.3083,6.379237926113262
3087.3169,8.119517994441253
3088.3248,-7.113996608599166
3089.3321,1.2285109103498257
3090.3388,-1.8030715865281763
3091.3449,4.241143750665572
3092.3503,-7.938937215485225
3093.3551,4.2565913351918425
3094.3593,-5.272285467147924
3095.3629,-1.9755825349152474
3096.3658,-0.0032621103889027836
3097.3681,-4.3552666997786105
3098.3698,-4.681538776705736
3099.3708,-1.0819773056774125
3100.3713,0.34356551737147356
3101.3711,-2.404751694541119
3102.3702,-1.2767737606167202
3103.3688,4.427678523412169
3104.3667,6.808797116783069
3105.364,4.8167739344569895
3106.3607,3.901800823307383
3107.3568,-0.33593041795990075
3108.3522,8.553771970343234
3109.347,7.421103103849475
3110.3412,6.26625801265385
3111.3348,2.989431652640576
3112.3277,11.490818917031106
3113.32,5.120614669152872
3114.3117,9.329013657425321
3115.3028,13.016210579061976
3116.2932,13.28240003798635
3117.2831,19.2277765079603
3118.2723,13.602534329921866
3119.2608,20.206867652531287
3120.2488,24.79097048842368
3121.2361,21.005036648165515
3122.2229,18.399259694413843
3123.209,21.573832979775773
3124.1944,20.878949672865872
3125.1793,27.964802726560436
3126.1635,25.431584884946574
3127.1471,30.22948861246357
3128.1301,30.10870611923508
3129.1125,30.419429313090745
3130.0942,32.261849800773064
3131.0753,34.486158884830616
3132.0558,37.59254754519367
3133.0357,32.731206416931
3134.015,38.25232575918602
3134.9936,39.056095503790345
3135.9716,35.19270520005233
3136.949,38.96234400671972
3137.9258,39.46520073061316
3138.902,43.201463788930084
3139.8775,50.42132120421593
3140.8524,55.72496056700169
3141.8267,45.71256896360512
3142.8004,48.18433292309459
3143.7735,47.64043851741283
3144.7459,53.73107133665937
3145.7178,57.00641649452979
3146.689,60.71665856740907
3147.6596,54.46198156161813
3148.6295,53.592568876311475
3149.5989,55.108603366023885
3150.5676,54.36026734936439
3151.5357,63.84774259385617
3152.5032,62.471210323419825
3153.4701,68.28085112349865
3154.4364,64.67684495482396
3155.402,64.45937109531869
3156.367,67.87860817613725
3157.3315,64.68473418384065
3158.2952,66.22792642620362
3159.2584,69.70836156415376
3160.221,67.77621559633951
3161.1829,69.73166382432566
3162.1442,70.87488087191485
3163.105,66.80604066559354
3164.065,75.67531642309919
3165.0245,78.73288069410918
3165.9834,74.07890527154757
3166.9416,75.56356116100983
3167.8993,80.63701862730244
3168.8563,80.24944717959636
3169.8127,74.5010155206923
3170.7684,81.8418915508966
3171.7236,81.37224242550562
3172.6782,90.94223448139681
3173.6321,89.30203324172527
3174.5854,84.90180332022393
3175.5381,89.64170843760547
3176.4902,86.72191146556457
3177.4417,90.59257437937885
3178.3926,96.10385828710687
3179.3428,86.55592339088159
3180.2924,92.69892893179744
3181.2415,96.2830332853897
3182.1899,90.40839390020446
3183.1377,92.67516726195754
3184.0848,101.88350895228083
3185.0314,97.88357362605475
3185.9773,102.42551491932463
3186.9227,99.40948548930007
3187.8674,102.63563696893573
3188.8115,104.60411999709132
3189.755,108.31508418627031
3190.6979,103.96867810293509
3191.6402,106.31504923039716
3192.5818,105.5043440122813
3193.5229,115.28670782906183
3194.4633,119.4622850061698
3195.4031,116.6312187161691
3196.3423,115.19365093700094
3197.2809,119.69972248029426
3198.2189,116.54957300574148
3199.1563,119.34334097603792
3200.0931,124.8311636883833
3201.0292,118.41317724654387
3201.9648,119.53951650597439
3202.8997,131.1603151379977
3203.834,127.27570561854172
3204.7677,130.53581911193095
3205.7008,129.49078550973297
3206.6333,131.7907333981573
3207.5652,132.68579006850547
3208.4964,135.82608149417177
3209.4271,134.3617323216926
3210.3571,129.8928658393436
3211.2865,140.81960399178314
3212.2154,138.24206742474092
3213.1436,142.46037537575074
3214.0712,136.5746456999257
3214.9982,141.73499482777518
3215.9246,147.29153782406212
3216.8503,145.84438833619964
3217.7755,146.2936585386853
3218.7001,150.03945914757293
3219.624,149.43189941597979
3220.5473,155.67108709662853
3221.4701,149.5071284479228
3222.3922,157.3901281715555
3223.3137,154.27018947414805
3224.2346,157.8974139884208
3225.1549,157.02190180439203
3226.0746,159.59375143310604
3226.9937,160.913059815388
3227.9121,163.42992229612577
3228.83,162.19443261107637
3229.7473,166.0566828616978
3230.6639,166.01676352750366
3231.5799,169.77476342744072
3232.4954,168.48076972028824
3233.4102,168.48486786707767
3234.3244,175.68714164403292
3235.238,173.58767314252916
3236.151,171.88654269707015
3237.0634,177.03382890628296
3237.9752,177.02960864992917
3238.8864,181.3739570374321
3239.797,174.166947407919
3240.7069,179.70865128677758
3241.6163,182.89913845772608
3242.5251,183.73847690739623
3243.4332,184.9767327934283
3244.3408,186.2639704360779
3245.2477,189.40025230583325
3246.154,189.13563901054283
3247.0598,191.0701892640526
3247.9649,187.8039598888521
3248.8694,191.63700579672891
3249.7733,191.66938002143107
3250.6766,196.90113368033647
3251.5793,192.98231597412922
3252.4814,196.31297413448206
3253.3829,201.99315346324454
3254.2838,200.67289729913645
3255.1841,200.05224696094598
3256.0838,204.63124176073234
3256.9829,202.60991901003226
3257.8814,204.58831397407
3258.7792,204.31645989197068
3259.6765,207.0443879569761
3260.5731,207.47212731916358
3261.4692,212.04970505816647
3262.3647,209.57714617889678
3263.2595,211.65447356576948
3264.1538,211.13170800742805
3265.0474,206.10886817597108
3265.9404,210.18597063218022
3266.8329,208.01302987574826
3267.7247,209.24005830450847
3268.616,207.51706623616369
3269.5066,204.24406189601615
3270.3966,209.37105143419734
3271.286,201.39803895839816
