RamanShift,CorrectedData
30.1047,6837.826702457429
32.3739,6383.211699196462
34.6426,5937.196627557227
36.9109,5484.63135532934
39.1787,5040.66569093045
41.4461,4598.59938793189
43.7131,4159.232149498335
45.9796,3712.213632808466
48.2456,3272.393453448634
50.5112,2835.521189883055
52.7764,2394.946387852008
55.0411,1955.3685647405596
57.3054,1518.737213984311
59.5692,1086.1518094651774
61.8326,664.4118098777005
64.0955,230.61666305490525
66.3579,-187.88418981430243
68.6199,-590.9913098471832
70.8815,-960.3533811979407
73.1426,-1221.6131840175951
75.4032,-1161.1539045268885
77.6634,-305.59652503085863
79.9231,2531.749572092965
82.1824,9689.528057376334
84.4412,27553.68257603351
86.6995,54855.10667638346
88.9574,59432.64363120835
91.2148,58940.886164739284
93.4717,58461.52640688089
95.7282,57988.05589812897
97.9842,57523.915594364065
100.2398,57058.945871586155
102.4949,56594.33653055604
104.7495,56130.876801445105
107.0036,55674.605348481375
109.2573,55213.51027458408
111.5105,54751.27912592642
113.7632,54291.7988965465
116.0154,53823.75603296964
118.2672,53375.68643880318
120.5185,52919.475479416906
122.7693,52462.407986423714
125.0197,52004.8682622418
127.2696,51548.04008466521
129.519,51095.60671143937
131.7679,50644.25088482931
134.0163,50184.504836143955
136.2642,49735.40029024977
138.5117,49278.46847016816
140.7587,48832.64010156655
143.0052,48388.595417327655
145.2512,47947.56416200783
147.4967,47501.57559627744
149.7417,47059.908501331265
151.9863,46609.84118334827
154.2304,46171.151477908395
156.4739,45729.26675449314
158.717,45288.41392087251
160.9596,44851.01942752386
163.2017,44414.75927204036
165.4433,43980.15900350505
167.6844,43551.99372685334
169.925,43117.03810721907
172.1651,42689.366374216166
174.4047,42259.10232628815
176.6439,41830.81933498492
178.8825,41407.84034926528
181.1206,40978.88789977993
183.3582,40554.084103101115
185.5954,40133.750666012216
187.832,39715.308889755805
190.0681,39293.279674236925
192.3037,38884.18352220759
194.5388,38467.740543487
196.7734,38050.97045905258
199.0075,37635.892605204324
201.2411,37229.27593773253
203.4742,36826.389036068605
205.7068,36423.45010735123
207.9389,36017.52699045518
210.1704,35614.33716002076
212.4015,35221.497730513016
214.632,34827.22546025363
216.862,34437.08675534934
219.0915,34053.39767363462
221.3205,33662.52392857312
223.549,33279.130893094494
225.777,32892.633603503156
228.0044,32512.446763312233
230.2314,32127.78474710854
232.4578,31741.961604354437
234.6837,31359.84106323444
236.909,30981.38653451347
239.1339,30583.21111535809
241.3582,30223.277593120998
243.582,29821.548449322807
245.8053,29470.485863251357
248.0281,29108.251715979
250.2503,28736.957593873223
252.472,28370.61479221902
254.6932,28012.284318931837
256.9139,27652.72689822098
259.134,27294.902974172932
261.3536,26936.572714346898
263.5727,26589.296013353094
265.7912,26244.03249643604
268.0092,25892.34152294728
270.2267,25547.082189798064
272.4436,25206.613334976246
274.6601,24854.44354099886
276.8759,24528.68113831681
279.0913,24186.28420883661
281.3061,23851.160589177955
283.5204,23514.76787409772
285.7341,23187.463419841202
287.9473,22842.254347506052
290.16,22527.747546315266
292.3721,22214.299677069335
294.5837,21890.567175291304
296.7947,21573.556254361254
299.0052,21256.372908753627
301.2152,20941.672917207332
303.4246,20633.01184589757
305.6334,20332.195051582858
307.8418,20013.477684691607
310.0495,19712.564692330365
312.2568,19406.81082147092
314.4635,19106.170621959413
316.6696,18811.098449573903
318.8752,18504.8984690308
321.0802,18219.274656935493
323.2847,17927.630804844433
325.4887,17640.670522121363
327.692,17356.347238853756
329.8949,17068.114208722356
332.0972,16788.4745118445
334.2989,16505.531057656357
336.5001,16230.836587709397
338.7007,15953.693678499752
340.9008,15679.604744215241
343.1003,15415.222039506749
345.2992,15143.347662229164
347.4976,14878.433556085198
349.6955,14612.93151334409
351.8927,14351.5431774908
354.0895,14084.720045880953
356.2856,13837.513472354818
358.4812,13586.724669905481
360.6763,13337.854713150919
362.8707,13085.454540841893
365.0646,12837.374958350658
367.258,12598.166640194919
369.4508,12351.980132518678
371.643,12111.215855484283
373.8346,11872.224105734298
376.0257,11641.155058799173
378.2162,11412.65877148707
380.4062,11181.635184194674
382.5956,10951.284123192105
384.7844,10726.605302933167
386.9726,10507.948328358842
389.1603,10289.562697144094
391.3474,10030.047801884466
393.5339,9856.452932279899
395.7199,9651.277277729896
397.9052,9440.919929069445
400.09,9234.929880620752
402.2743,9033.256032296886
404.4579,8828.79719166163
406.641,8626.202075946247
408.8235,8428.86931409406
411.0054,8236.297448786427
413.1868,8035.134938416086
415.3675,7842.98015901279
417.5477,7654.381406254994
419.7273,7469.436897391395
421.9064,7276.294773126901
424.0848,7096.303099472076
426.2627,6921.109869674539
428.4399,6743.563006018885
430.6166,6561.760361578628
432.7928,6387.599721991668
434.9683,6224.678807278338
437.1432,6054.445273583035
439.3176,5895.896714803348
441.4914,5729.9306642925
443.6645,5568.044596444779
445.8371,5405.685928355197
448.0091,5254.152021438327
450.1806,5098.090183051987
452.3514,4954.297668012507
454.5216,4793.321680155343
456.6913,4650.409373772985
458.8603,4510.457855224755
461.0288,4374.41418436588
463.1967,4236.475375947033
465.3639,4095.538400974765
467.5306,3953.2501880908967
469.6967,3823.1076249819016
471.8622,3694.65755980173
474.0271,3565.1968024733214
476.1914,3432.072125973049
478.3551,3310.930267625372
480.5182,3194.717930434068
482.6807,3078.5817842936012
484.8426,2968.768467151356
487.0039,2848.274586168882
489.1647,2732.196718820109
491.3248,2622.8814140961695
493.4843,2514.0251936663044
495.6432,2409.0745529709893
497.8015,2299.225962310462
499.9592,2190.175867894257
502.1163,2095.5706929396547
504.2728,2005.4568387622348
506.4287,1921.1806857218253
508.5839,1828.2385941237371
510.7386,1731.3269050614617
512.8927,1630.241941346132
515.0461,1554.0800084755829
517.199,1463.587395645336
519.3512,1386.7103765101565
521.5029,1305.4452100889757
523.6539,1234.0381415336742
525.8043,1156.5354029416922
527.9541,1081.1332140701124
530.1033,1014.4277831107174
532.2519,944.4653074439848
534.3999,880.7919743061648
536.5472,819.1539614888607
538.694,762.5974379758118
540.8401,698.6185645592486
542.9856,634.5134944054662
545.1305,572.1283736946207
547.2748,515.3593422617123
549.4185,464.3968243792333
551.5615,420.62609587980114
553.704,379.0777932717101
555.8458,337.4783510085326
557.987,296.6004165566628
560.1276,253.01326597376465
562.2675,219.183212279313
564.4069,182.1740408902333
566.5456,150.94734758315462
568.6837,118.71290821599541
570.8212,89.57899068268307
572.958,61.65267693519854
575.0942,40.74015403138037
577.2299,16.496993118780665
579.3648,0.7283583508324227
581.4992,-7.160750923998421
583.6329,-29.66534263358335
585.766,-56.68035316994792
587.8985,-76.50042256835877
590.0304,-122.96962462738884
592.1616,-121.2812689063503
594.2922,-130.67743649805925
596.4222,-149.14899689539743
598.5515,-159.4855141237349
600.6802,-167.72506220990908
602.8083,-170.90412192049553
604.9358,-179.30749844873935
607.0626,-189.71828965572058
609.1888,-196.01780212058657
611.3144,-197.73544713683805
613.4393,-203.99867778013868
615.5636,-201.83297174907057
617.6873,-199.91176879547857
619.8103,-197.15649235983437
621.9327,-197.33656876403256
624.0544,-186.66945473670785
626.1756,-184.17063561420218
628.2961,-186.00373190509708
630.4159,-178.43052425337373
632.5351,-175.71093512576044
634.6537,-169.5531044680538
636.7716,-164.71341687382665
638.8889,-156.89656310117425
641.0056,-147.65558842119208
643.1216,-133.39197070836963
645.237,-119.00718636055535
647.3518,-99.35271044171532
649.4659,-86.98001682568429
651.5793,-67.44057839275774
653.6922,-53.685867153384606
655.8043,-43.5673544436504
657.9159,-22.18651106273319
660.0268,-7.594807374138327
662.137,10.756286480529525
664.2466,22.2653004356398
666.3556,44.830764318037836
668.4639,69.5012077319625
670.5716,96.8751598333547
672.6786,115.75114908316755
674.785,137.52770297360985
676.8907,162.3533478394529
678.9958,193.07660864014179
681.1002,216.79600871166622
683.204,233.4100694592198
685.3072,265.76731012004893
687.4097,296.11624759734696
689.5115,324.7053961366473
691.6127,359.28326702234335
693.7132,394.3983682917824
695.8131,400.5992043895312
697.9123,446.8842758161845
700.0109,477.6020790663606
702.1089,521.3511061658646
704.2061,552.8798443644919
706.3028,591.0367756985361
708.3987,629.0703766755032
710.4941,668.1791178926069
712.5887,708.1114636563871
714.6827,744.1658715916346
716.7761,794.090792242001
718.8688,835.4346687095021
720.9608,868.8959361552916
723.0522,902.3730213862218
725.1429,951.6643425202055
727.233,1000.418308651475
729.3224,1047.133319357701
731.4112,1094.1077642124146
733.4993,1137.5400223178658
735.5867,1187.7284618352496
737.6735,1235.221439550376
739.7596,1282.7673003718082
741.845,1335.2143768559545
743.9298,1381.4109887315717
746.014,1436.5054423752372
748.0974,1484.0960303494867
750.1802,1541.23103085177
752.2624,1591.7087072386057
754.3439,1649.2773074542201
756.4247,1694.8850635257622
758.5048,1762.9801909876114
760.5843,1823.1108884253626
762.6631,1875.1253367948084
764.7413,1937.421698820719
766.8188,1995.5981184766206
768.8956,2053.5527203618913
770.9718,2120.5336091199642
773.0473,2180.038868858792
775.1221,2243.1665624809975
777.1962,2311.0147310888788
779.2697,2364.731393353075
781.3426,2417.114544834134
783.4147,2501.2121574452976
785.4862,2569.52217892879
787.557,2629.2925320146533
789.6271,2704.2211137377817
791.6966,2766.05579484014
793.7654,2815.6444190215407
795.8335,2891.1348023212486
797.901,2967.224732622133
799.9678,3012.961968895768
802.0339,3063.644240441514
804.0993,3141.219246429093
806.1641,3197.5846553918673
808.2282,3269.238104450982
810.2916,3302.1771987518077
812.3544,3437.449510747312
814.4164,3428.402579868707
816.4778,3486.7839111727444
818.5385,3577.240975432185
820.5986,3653.0212085520106
822.658,3740.672010664821
824.7166,3845.7407453730193
826.7747,3784.2247388723335
828.832,3903.121278901119
830.8886,4077.327615355498
832.9446,4176.5909591004165
834.9999,4022.7584802275887
837.0545,4242.077307062835
839.1085,4411.844527704408
841.1618,4442.907187829856
843.2143,4357.312288998284
845.2662,4434.206788339732
847.3175,4612.787599411153
849.368,4282.95159142746
851.4179,4727.095587475698
853.467,4562.916367813414
855.5155,4773.7106654272575
857.5633,4551.325167674673
859.6105,4498.00651417605
861.6569,4800.651299038589
863.7027,4436.106071389397
865.7478,4697.167332349112
867.7922,4674.881538677328
869.8359,5004.295100162024
871.8789,4599.204379842384
873.9212,4997.105690714685
875.9629,5251.095299783206
878.0039,5243.169424081192
880.0441,5180.87422813091
882.0837,5255.405824023008
884.1226,5302.410272039415
886.1609,5267.433579908022
888.1984,5028.971702332623
890.2352,5509.8705413427815
892.2714,5015.875948678353
894.3069,5397.883720980506
896.3416,5125.439604731728
898.3757,5172.789292435686
900.4091,4524.128425341711
902.4418,5648.8025929712385
904.4739,5178.8573396044885
906.5052,5332.438153033683
908.5358,5092.190469262532
910.5658,4926.409670970344
912.595,5005.741089914583
914.6236,4319.630008588683
916.6515,5611.82165942865
918.6786,4501.911231674196
920.7051,4940.593858446904
922.7309,4850.8646278492015
924.756,5223.21857857758
926.7804,4880.600700819916
928.8041,4197.755932531938
930.8272,4919.179162863351
932.8495,4982.565238986368
934.8711,4411.458958881412
936.892,4112.705070703261
938.9123,4416.698278492171
940.9318,4014.3832451613052
942.9506,3955.7545894569193
944.9688,4102.756889981429
946.9862,3311.734685779753
949.003,3764.9824748692627
951.019,3097.6447221500057
953.0344,3356.2658548722247
955.0491,3295.090269309745
957.063,3689.36232817376
959.0763,3862.876361224582
961.0888,3526.8766613288535
963.1007,3975.457482724487
965.1119,4033.113044380618
967.1223,3785.387525511869
969.1321,4367.675065001735
971.1412,3867.7197638798825
973.1495,3718.0656794991955
975.1572,4030.8568305353983
977.1641,3922.3871984835714
979.1704,3865.400724530249
981.1759,4031.9913106381355
983.1808,3809.6028201158915
985.1849,3916.479075952324
987.1884,4178.4638630402405
989.1911,4720.400927107687
991.1932,4018.183972098079
993.1945,4322.256654750832
995.1951,4559.962591623596
997.1951,4136.345356051468
999.1943,4000.0984757699625
1001.1928,3803.0154371511744
1003.1906,3980.0396865662187
1005.1877,3560.3646323560824
1007.1841,3383.3336430613926
1009.1798,3382.2900516191294
1011.1748,3279.8771571329416
1013.1691,3061.388224883638
1015.1627,2278.266487353263
1017.1556,2197.2551464100325
1019.1477,2358.7973811395277
1021.1392,1915.3363486548187
1023.1299,1586.8151824810193
1025.12,1800.4769969898916
1027.1093,1650.464890685107
1029.0979,1695.6219440655623
1031.0859,1768.0412211255607
1033.0731,1469.6157689032043
1035.0596,1494.3886167562232
1037.0454,1323.8527793462054
1039.0304,1017.8012563908633
1041.0148,794.5270343694065
1042.9985,708.8230895830711
1044.9814,860.232390387886
1046.9636,669.6978980516651
1048.9452,577.3625652399351
1050.926,600.019337921236
1052.9061,559.0111562905367
1054.8855,604.9809545426106
1056.8642,488.571661282127
1058.8421,586.6761990639352
1060.8194,533.6374855572358
1062.7959,541.5984325644749
1064.7717,571.2519465517398
1066.7469,602.4409285691727
1068.7213,599.2082739543839
1070.695,566.29687202067
1072.6679,312.9996060892372
1074.6402,347.6593538183806
1076.6117,382.518989736418
1078.5826,423.32138489506906
1080.5527,459.95940652092395
1082.5221,564.8259176073625
1084.4908,783.6137765482126
1086.4587,1039.515836089071
1088.426,1247.8749411394238
1090.3925,1156.9339262136054
1092.3584,1180.3356133472698
1094.3235,883.9228130067058
1096.2879,767.2383238548719
1098.2515,718.2249357155379
1100.2145,753.1754307400915
1102.1767,734.5325838977151
1104.1382,900.0391626258643
1106.099,1071.137927016658
1108.0591,1319.4216281618646
1110.0185,1403.9330064418828
1111.9771,1516.114789042942
1113.9351,1207.309689111913
1115.8923,828.7604046345659
1117.8488,486.4596215235724
1119.8045,110.60001740400912
1121.7596,9.974265036384168
1123.7139,-47.624963924783515
1125.6675,-54.30499792469345
1127.6204,125.72683506771136
1129.5726,126.0137495904055
1131.524,212.64895892413188
1133.4748,299.4256750894856
1135.4248,278.28710798061365
1137.3741,373.0264644974013
1139.3226,392.8369487568925
1141.2705,444.5617611458729
1143.2176,202.2440981227919
1145.164,268.97715170049196
1147.1097,296.60411186942656
1149.0546,364.86816593025287
1150.9989,361.2124982176538
1152.9424,264.13028941758967
1154.8852,61.214716603950365
1156.8272,-20.491045790688077
1158.7686,24.006176054099342
1160.7092,-119.20044383633649
1162.6491,-182.61773167672072
1164.5883,-16.0013228693133
1166.5267,-30.20502846526506
1168.4644,190.167340644286
1170.4014,387.26227531646146
1172.3377,750.2762645066978
1174.2732,924.1057932978656
1176.2081,1240.7973392700515
1178.1421,1409.8973707623154
1180.0755,1629.6523437057258
1182.0082,1516.7586999324049
1183.9401,1492.2628649779654
1185.8713,1280.4612492104789
1187.8017,1041.6002480753523
1189.7315,887.8762442134539
1191.6605,502.28560984964133
1193.5888,305.22470833002444
1195.5163,270.83989797784307
1197.4432,167.12753406413685
1199.3693,111.08396915156482
1201.2947,0.9055541315101436
1203.2193,-65.46136121547897
1205.1432,-7.470427117885265
1207.0664,52.525360154759255
1208.9889,128.17307896250713
1210.9106,195.56980714014207
1212.8316,221.4126212407864
1214.7519,373.94859586180974
1216.6715,291.6748033865515
1218.5903,330.8883124589047
1220.5084,289.43618880608847
1222.4257,333.1154948464755
1224.3424,180.7732901041236
1226.2583,220.2066307719433
1228.1735,373.0625712351102
1230.0879,426.68816367678664
1232.0016,628.780456549488
1233.9146,605.5864940388565
1235.8269,519.803314042787
1237.7384,462.3779484033075
1239.6492,231.2074237644265
1241.5592,171.08876214640622
1243.4686,31.918983257455693
1245.3772,-48.10489490511827
1247.285,-91.38585466315271
1249.1922,-166.07639777062286
1251.0986,-100.57811303685594
1253.0042,-119.09093016799306
1254.9092,23.936225905163155
1256.8134,76.70561997019831
1258.7169,285.5695165752986
1260.6196,404.93017950165085
1262.5216,701.8398696747317
1264.4229,848.3508439707584
1266.3234,1007.2153522475273
1268.2232,1066.3856358793928
1270.1223,1049.8139261685283
1272.0207,1034.2024437532964
1273.9183,1016.1033987739065
1275.8151,935.7189910285815
1277.7113,903.7514101545166
1279.6067,714.0528364317361
1281.5014,550.8254411027665
1283.3953,519.1213882696029
1285.2885,451.0428365260268
1287.181,396.94193927460583
1289.0727,475.97084540750075
1290.9637,471.48169984743436
1292.854,646.2266427574759
1294.7435,791.3078095858655
1296.6323,1078.1773293185943
1298.5204,1337.7873230285768
1300.4077,1683.089901006966
1302.2943,1899.5371601670959
1304.1802,2051.7311805913887
1306.0653,2004.824023366924
1307.9497,1859.0177290634674
1309.8333,1832.0143182025386
1311.7162,1888.1157927155
1313.5984,2032.2241362135828
1315.4798,2126.6413134268587
1317.3605,2356.169268763195
1319.2405,2587.609925364046
1321.1197,2643.0651828091977
1322.9982,2611.2869148023383
1324.876,2710.8269686165404
1326.753,2654.5871654120056
1328.6293,2793.819299240713
1330.5048,2889.6251376087566
1332.3796,2835.7564200840643
1334.2537,2847.3648573383325
1336.127,2862.5021316856873
1337.9996,2811.11989696664
1339.8714,2751.769778396676
1341.7426,2679.103373080099
1343.6129,2678.222250603543
1345.4826,2594.2779537626193
1347.3515,2658.3219985707365
1349.2196,2624.705875098538
1351.087,2683.631046833467
1352.9537,2732.2989510159096
1354.8197,2872.960998049959
1356.6849,3108.768571016735
1358.5493,3229.123024267774
1360.4131,3234.875681066911
1362.276,3175.277832386797
1364.1383,2999.780736851324
1365.9998,2760.285621331619
1367.8606,2472.8436827010228
1369.7206,2302.2560902300283
1371.5799,2092.073988460721
1373.4384,1979.7484989126278
1375.2962,1951.280722184536
1377.1533,1647.6717390777485
1379.0096,1295.722610880799
1380.8652,1070.9343824054922
1382.7201,873.358085506432
1384.5742,657.8447413288595
1386.4275,484.84536228446086
1388.2802,398.96095420649
1390.132,256.0425180797756
1391.9832,275.04105089953373
1393.8336,116.75754710056935
1395.6832,154.04299836729479
1397.5322,57.04839521654867
1399.3803,48.07472662475266
1401.2278,-16.67701900213433
1403.0745,-5.455853738912992
1404.9204,-31.010623056983604
1406.7656,43.90988207623377
1408.6101,25.057180489427992
1410.4538,14.132790572220983
1412.2968,31.988230463663058
1414.139,36.17501816150616
1415.9805,134.64467134361985
1417.8213,211.0487073261247
1419.6613,347.0386420787181
1421.5006,580.465989460612
1423.3391,885.3322598606574
1425.1769,1152.0889578630522
1427.0139,1748.0875791986582
1428.8502,2413.7296080774795
1430.6858,3023.0165112286304
1432.5206,3418.099731243965
1434.3547,3712.5806804851672
1436.188,3793.6107371329417
1438.0206,3786.0912422421934
1439.8524,3633.773498931747
1441.6835,3560.8087724595025
1443.5139,3510.0482917456466
1445.3435,3399.493250102292
1447.1724,3456.594805741086
1449.0005,3399.004082878768
1450.8279,3301.972171166137
1452.6545,3285.0001262639635
1454.4804,3437.9889708133232
1456.3056,3414.689694605291
1458.13,3297.4532530510805
1459.9536,3181.430567415009
1461.7766,2865.8725259868806
1463.5987,2409.8299852422133
1465.4202,2070.8537729977943
1467.2409,1694.3946929721278
1469.0608,1472.3535281751756
1470.88,1269.0310446729673
1472.6984,1071.7779938079948
1474.5161,816.1951142324542
1476.3331,683.8831338807613
1478.1493,620.5927725253969
1479.9648,543.2747431000171
1481.7795,509.67975233237667
1483.5935,511.00850151750274
1485.4067,455.0616868536272
1487.2192,451.38999942890587
1489.031,422.3441257809063
1490.842,408.37474793329966
1492.6522,403.1325436863408
1494.4618,428.41818675655304
1496.2705,422.4323468291477
1498.0785,451.4756893051708
1499.8858,421.39887536133756
1501.6924,423.7025616596293
1503.4981,417.13740064805825
1505.3032,450.85404053762613
1507.1075,465.70312536797064
1508.911,446.28529467019325
1510.7138,395.20118331836056
1512.5159,401.3514217237098
1514.3172,403.78663634545956
1516.1178,342.4574496293244
1517.9176,354.4144799831556
1519.7166,339.3583423902528
1521.515,334.0396482897704
1523.3126,345.2590057272937
1525.1094,323.41701940803614
1526.9055,291.71429058463764
1528.7008,277.15141727557784
1530.4954,187.02899458220418
1532.2893,226.24761483437032
1534.0824,184.50786849162978
1535.8747,233.6103437510901
1537.6663,212.45562696479465
1539.4572,205.6943021486768
1541.2473,227.0769511941253
1543.0367,217.00415393560615
1544.8253,189.07648793682893
1546.6132,212.24452859146186
1548.4003,174.85884940242977
1550.1867,265.77002175021335
1551.9723,289.82861526671695
1553.7572,348.985196926129
1555.5414,333.690330804362
1557.3247,375.84457748748537
1559.1074,413.3984942246898
1560.8893,475.3026345067228
1562.6705,520.8575476903679
1564.4509,585.7637783793798
1566.2305,655.321865968941
1568.0094,837.0823439966189
1569.7876,953.7457394467783
1571.565,1015.7625709329441
1573.3417,1107.2333475312225
1575.1176,1125.5585681600896
1576.8928,1176.7387206657186
1578.6672,1091.474281638686
1580.4409,956.7157159022245
1582.2138,831.3634773648082
1583.986,710.6680103678045
1585.7575,683.0297509389202
1587.5282,607.4991279992137
1589.2981,572.3765636394492
1591.0673,481.1124738754006
1592.8358,472.0072689990957
1594.6035,504.46135449144276
1596.3704,494.9251311132757
1598.1366,526.1989945808346
1599.9021,553.78333566109
1601.6668,568.2285398590357
1603.4308,639.8849871418497
1605.194,705.0030517944178
1606.9564,806.0331017028147
1608.7182,927.0254977030781
1610.4791,1060.8305925709283
1612.2394,1184.498729811825
1613.9988,1348.3802423229463
1615.7576,1624.8754511564766
1617.5156,1860.2846638808223
1619.2728,2138.1581718156413
1621.0293,2365.196247677737
1622.785,2469.2991428023524
1624.54,2397.767084872761
1626.2942,2298.4002768792743
1628.0477,2033.1988978345325
1629.8005,1778.1131037671912
1631.5525,1583.7930303739267
1633.3037,1377.1387955702776
1635.0542,1209.4505014338793
1636.804,1091.4782362709739
1638.553,1005.0720762933088
1640.3013,941.3820867978575
1642.0488,934.3083230308948
1643.7955,937.150830824874
1645.5416,953.2596466691721
1647.2868,1005.0347976816665
1649.0313,1036.7763014476586
1650.7751,1205.2841655021184
1652.5181,1405.8083870122537
1654.2604,1636.4989510924497
1656.0019,1943.8558287990272
1657.7427,2368.878974823325
1659.4828,2738.6683244181368
1661.222,2981.7237891474797
1662.9606,3080.1952531887036
1664.6984,2958.4325709019395
1666.4354,2697.685565845357
1668.1717,2277.354031992809
1669.9072,1821.3377363413056
1671.642,1454.4364231143336
1673.3761,1163.7998183219897
1675.1094,977.8276334300353
1676.8419,814.9195682662266
1678.5737,649.5753128800552
1680.3048,561.1445491718296
1682.0351,477.7269525461179
1683.7646,406.9721927960527
1685.4934,368.07993493749746
1687.2215,356.8998399165939
1688.9488,269.2315649986904
1690.6754,230.67476388014802
1692.4012,250.07908756501274
1694.1263,213.39418475059574
1695.8506,212.4697016334194
1697.5742,208.15528227608047
1699.297,197.30056861649427
1701.0191,147.50520051103558
1702.7404,141.81881584308394
1704.461,113.64105102098256
1706.1808,103.87154103489229
1707.8999,70.65991973856944
1709.6182,59.705819947059354
1711.3358,57.708873768813646
1713.0527,59.56871271524142
1714.7688,71.03496772065773
1716.4841,50.3072691237121
1718.1987,53.13524655270885
1719.9126,30.218529132886033
1721.6257,39.30674545814327
1723.338,52.19952382020347
1725.0496,-18.203507882280974
1726.7605,4.2472777273669635
1728.4706,11.35168987886027
1730.18,-13.69046224054182
1731.8886,-25.229369557097016
1733.5964,-40.165086229359076
1735.3036,-13.147414374474465
1737.0099,10.824245139609047
1738.7156,32.850622787598695
1740.4204,-18.367551064024155
1742.1246,33.37045362271783
1743.8279,29.76555037763137
1745.5306,44.61865239682447
1747.2325,62.080672578757
1748.9336,18.352523375717283
1750.634,14.035116619195833
1752.3336,26.779363957168243
1754.0325,31.186176897266705
1755.7307,52.156466679321966
1757.4281,89.84114423131905
1759.1247,99.19111995967978
1760.8206,111.85730337241876
1762.5158,127.99060298564291
1764.2102,118.49192619688802
1765.9039,83.6121791237947
1767.5968,89.80226669910371
1769.289,103.76309301943729
1770.9804,113.89556128340337
1772.6711,107.15057365198845
1774.361,137.07903114723376
1776.0502,175.13183371967898
1777.7386,152.30987994908537
1779.4263,126.56406666389194
1781.1132,190.79528916945128
1782.7994,170.5044415054781
1784.4849,169.09241580372327
1786.1696,167.5601024908865
1787.8535,155.9583903027742
1789.5367,160.3381662995962
1791.2192,201.30031598198912
1792.9009,169.09572324720102
1794.5818,230.67526997949062
1796.2621,204.1898363721648
1797.9415,200.34030031178736
1799.6202,212.17753764303052
1801.2982,207.25242220717337
1802.9755,242.0658257237228
1804.6519,242.56861783966087
1806.3277,211.56166578131888
1808.0027,208.29583434934284
1809.6769,243.62198622877622
1811.3504,236.8909820217068
1813.0231,245.80367989401384
1814.6951,264.06093564266666
1816.3664,297.4136026066117
1818.0369,299.7125314841833
1819.7067,259.70856999958596
1821.3757,311.3525628799216
1823.044,295.0953522551936
1824.7115,315.9877771418869
1826.3783,270.7306736055325
1828.0443,291.0248745517856
1829.7096,326.2212101789992
1831.3741,314.3705077752729
1833.0379,332.2235913665045
1834.701,322.03128183488843
1836.3633,315.54439674039895
1838.0248,308.4137504226983
1839.6856,327.49015406600665
1841.3457,384.47441577041354
1843.005,367.81734036111084
1844.6636,395.76972881855727
1846.3214,410.5823784450422
1847.9785,444.8560825851564
1849.6349,414.99163047767615
1851.2904,430.98980691281395
1852.9453,429.00139253086854
1854.5994,422.47716366225177
1856.2528,450.8678923473617
1857.9054,466.0743464018324
1859.5572,482.79728913262625
1861.2083,508.13747918596346
1862.8587,491.89567038007954
1864.5084,494.9726114518526
1866.1572,486.76904621919493
1867.8054,487.13571355030945
1869.4528,506.9233474457196
1871.0994,471.88267703459496
1872.7453,490.7144263768714
1874.3905,521.5193148136605
1876.0349,511.99805677893346
1877.6786,537.4513614914777
1879.3215,536.6299330501024
1880.9637,538.8844701791058
1882.6051,582.5656662365018
1884.2458,552.2742091914624
1885.8858,545.6107811875008
1887.525,544.1760588453999
1889.1634,540.420713329835
1890.8011,545.995410363721
1892.4381,550.7008102657765
1894.0743,560.8375678947705
1895.7098,540.0063326024756
1897.3446,577.4077481322929
1898.9786,570.0924528275718
1900.6118,560.3610792575782
1902.2443,537.064254290668
1903.8761,549.6025991915976
1905.5071,526.4267298544728
1907.1374,529.2872566773931
1908.7669,540.8847847941906
1910.3957,534.5199140458317
1912.0237,523.0932388644324
1913.651,511.30534833692036
1915.2776,528.1068263192865
1916.9034,512.6982515544842
1918.5285,485.53019750440035
1920.1528,470.55323250394576
1921.7764,528.8179200327359
1923.3992,492.9748188648664
1925.0213,461.1744824862453
1926.6427,443.8674594530421
1928.2633,436.6042937096772
1929.8832,455.3355247619111
1931.5023,401.11168774946054
1933.1207,439.3833132586951
1934.7383,431.00092786487403
1936.3552,441.91505374943335
1937.9714,427.9762087837971
1939.5868,410.7849064202492
1941.2015,368.29165583131
1942.8154,393.14696208166424
1944.4286,368.15132655306843
1946.041,359.305246695827
1947.6528,334.6092162787245
1949.2637,353.113725477504
1950.8739,350.2192611218179
1952.4834,344.82630651019645
1954.0921,380.08534143898396
1955.7001,367.14684225625933
1957.3074,316.0612815092609
1958.9139,344.17912807375615
1960.5197,323.3008476649047
1962.1247,326.8269025560785
1963.729,279.30775178764816
1965.3325,280.94385113172393
1966.9353,271.8856535673349
1968.5374,265.0836092640766
1970.1387,298.5881656726997
1971.7393,267.04976759311285
1973.3392,262.06885683935616
1974.9383,248.1458725549728
1976.5366,235.1312512628283
1978.1342,257.7754270043388
1979.7311,253.77883146960994
1981.3273,272.291893771011
1982.9227,239.6150404831169
1984.5173,244.5986954575892
1986.1112,237.0432801499428
1987.7044,246.54921356971136
1989.2968,241.06691235599465
1990.8885,230.29679068240694
1992.4795,243.98926031189148
1994.0697,221.59473070442618
1995.6592,193.61360888010313
1997.2479,232.14629964306368
1998.8359,227.59320586131798
2000.4232,212.2547280814142
2002.0097,198.73126457397666
2003.5955,183.4732114870767
2005.1805,218.7309629814863
2006.7648,207.40491138325706
2008.3484,194.24544683112617
2009.9312,220.85295738978857
2011.5133,216.3278291814895
2013.0946,216.4204461199406
2014.6752,224.73118995558252
2016.2551,230.86044027465323
2017.8342,206.65857441608932
2019.4126,210.17596741022317
2020.9902,205.6129922208047
2022.5672,201.67001970983256
2024.1433,216.24741868317687
2025.7188,201.64555593001205
2027.2935,192.21479607703986
2028.8674,180.95550173451284
2030.4406,195.06803359054084
2032.0131,147.30275052368597
2033.5849,178.8600094618305
2035.1559,184.64016585983336
2036.7261,196.6935733839564
2038.2957,194.87058385406726
2039.8645,180.5715471231042
2041.4325,229.09681109530356
2042.9998,206.6467218691878
2044.5664,219.7216232523133
2046.1323,208.02185698577523
2047.6974,190.09776261345178
2049.2617,193.54967759901137
2050.8254,210.72793750514575
2052.3883,213.7828759590493
2053.9504,225.2648244806369
2055.5118,216.07411245200456
2057.0725,224.21106700260134
2058.6325,211.57601310113932
2060.1917,198.31927347421788
2061.7502,221.69116873268013
2063.3079,208.8920175041785
2064.8649,200.72213619945978
2066.4212,197.78183914035708
2067.9767,201.5714386414802
2069.5315,203.64124503963103
2071.0856,177.84156665589126
2072.6389,175.12270977494063
2074.1915,137.98497890304952
2075.7433,142.7286767952628
2077.2945,131.30410482677962
2078.8448,131.8115629455133
2080.3945,136.90134978634342
2081.9434,148.17376266603605
2083.4916,143.62909753234544
2085.039,148.71764885129778
2086.5857,158.18970965262815
2088.1317,144.19557147890464
2089.677,136.98552429079973
2091.2215,153.70985660703536
2092.7652,166.5188555764862
2094.3083,167.81280681093176
2095.8506,173.39199425696734
2097.3921,173.6567001830599
2098.933,168.70720512375829
2100.4731,188.7437878770479
2102.0124,171.81672555384193
2103.5511,181.77629337761573
2105.089,201.67276485368257
2106.6261,216.9064116695945
2108.1626,191.77750349618145
2109.6983,157.93630783521166
2111.2332,177.3830902706777
2112.7675,190.06811480721444
2114.301,182.54164367563408
2115.8337,196.75393720606462
2117.3657,189.10525390322346
2118.897,186.8958503042877
2120.4276,179.97598105538964
2121.9575,178.6458989337043
2123.4866,198.80585491664897
2125.0149,201.4560981951863
2126.5426,170.04687597222528
2128.0695,194.2784334361122
2129.5956,195.70101407472612
2131.1211,182.06485943316238
2132.6458,187.52020909951352
2134.1698,178.86730084122792
2135.693,182.75637055055904
2137.2155,197.73765233109043
2138.7373,212.91137845884623
2140.2584,186.47777923247395
2141.7787,189.38708282151947
2143.2983,181.63951553074912
2144.8171,159.88530177106622
2146.3353,169.07466413697512
2147.8527,166.65782362413393
2149.3693,170.5849995374556
2150.8853,188.50640951527657
2152.4005,164.97226949008746
2153.9149,174.7327935093217
2155.4287,159.93819397069092
2156.9417,190.83868152458763
2158.454,183.18446522202612
2159.9655,169.42575220563685
2161.4764,206.212747786215
2162.9865,176.54565558029662
2164.4958,171.92467714229224
2166.0045,184.95001226116437
2167.5124,188.97185900663226
2169.0195,195.34041359891762
2170.526,195.05587036852648
2172.0317,185.4684216925598
2173.5367,209.32825799755847
2175.0409,179.63556785539186
2176.5445,199.39053774464537
2178.0473,182.59335234755508
2179.5494,181.29419435245381
2181.0507,166.34324462174482
2182.5513,182.64068220488844
2184.0512,183.33668448792196
2185.5504,188.88142703047197
2187.0488,167.37508355880254
2188.5465,162.56782591036244
2190.0435,169.75982424885206
2191.5397,163.40124711229691
2193.0353,159.74226134112723
2194.5301,129.83303214176613
2196.0241,146.57372312321786
2197.5175,149.6144965961612
2199.0101,147.20551340554448
2200.502,119.6969329001704
2201.9931,145.03891295679568
2203.4835,135.78161025521058
2204.9733,133.37518002481465
2206.4622,134.11977613719682
2207.9505,127.8155511301984
2209.438,111.16265620046033
2210.9248,114.76124126647392
2212.4109,109.41145513510219
2213.8962,121.06344546560194
2215.3809,104.01735882311277
2216.8648,99.77334056215113
2218.3479,99.4815349970595
2219.8304,118.14208544444773
2221.3121,101.15513422611639
2222.7931,88.62082248245042
2224.2733,89.03929034228622
2225.7529,92.61067704825564
2227.2317,94.53512095260157
2228.7098,107.56275948146867
2230.1872,80.74372911564842
2231.6638,106.07816526030729
2233.1397,101.11620251317709
2234.6149,110.45797441121158
2236.0894,103.75361348020397
2237.5632,90.3032511413694
2239.0362,93.40701777839149
2240.5085,94.81504287192183
2241.9801,68.32745496854477
2243.4509,84.79438166669843
2244.921,96.56594988154393
2246.3904,64.59228568030085
2247.8591,83.02351416453621
2249.3271,67.60975978989245
2250.7943,62.05114618177777
2252.2608,59.09779628950582
2253.7266,65.44983244188461
2255.1917,72.25737637674047
2256.656,46.420549177414614
2258.1197,69.6894712046751
2259.5826,63.0142623550928
2261.0447,73.44504182834135
2262.5062,64.03192819395736
2263.9669,83.87503928702608
2265.4269,69.47449230231905
2266.8862,81.3304035958563
2268.3448,67.24288882891415
2269.8026,101.51206284946693
2271.2598,62.68803983306134
2272.7162,75.9209329401292
2274.1719,84.26085470421549
2275.6268,68.85791689966209
2277.0811,86.71223045820079
2278.5346,97.62390562299333
2279.9874,92.49305177007773
2281.4395,87.46977729925766
2282.8908,89.85418968540762
2284.3414,90.39639552871267
2285.7914,95.14650053081368
2287.2406,92.90460948938926
2288.689,87.07082625065323
2290.1368,96.59525373177803
2291.5838,93.87799397923209
2293.0302,92.1191480735315
2294.4758,72.31881615641487
2295.9206,82.67709744843523
2297.3648,105.84409044696349
2298.8082,98.51989282260183
2300.251,104.60460118751053
2301.693,74.79831116865171
2303.1343,105.45111734694547
2304.5748,108.41311355532616
2306.0147,93.08439257222108
2307.4538,87.26504609192762
2308.8922,80.25516487789537
2310.3299,100.35483882092831
2311.7669,114.464157009279
2313.2031,82.58320752765303
2314.6387,74.16207731611667
2316.0735,75.700852488907
2317.5076,88.99961841864479
2318.941,93.65845972093848
2320.3737,99.57746012140524
2321.8056,81.25670240908221
2323.2369,81.89626837723245
2324.6674,84.6462390065526
2326.0972,74.80669445878357
2327.5263,77.9277140492004
2328.9547,86.50937634501861
2330.3823,73.90175913417625
2331.8092,100.60493933951966
2333.2355,70.01899314487764
2334.661,100.89399572803268
2336.0858,104.98002156657822
2337.5098,78.12714412916375
2338.9332,91.6854358346418
2340.3558,81.15496832059262
2341.7778,86.53581230773989
2343.199,78.17803770526098
2344.6195,88.83171355697596
2346.0393,95.09690812492772
2347.4583,110.47368878284442
2348.8767,93.06212195349144
2350.2943,76.61227295489698
2351.7113,104.97420617447324
2353.1275,95.44798523351528
2354.543,107.78367270358149
2355.9578,119.681330201749
2357.3718,96.44101826726137
2358.7852,81.16279624254776
2360.1978,84.39672250563126
2361.6098,102.59285462291018
2363.021,73.8512493168173
2364.4315,84.9719622838602
2365.8413,96.85504848203573
2367.2504,102.25056201962707
2368.6587,87.15855603636919
2370.0664,62.97908264948819
2371.4733,74.36219310462775
2372.8795,66.6079380176393
2374.285,60.46636726075258
2375.6899,66.98753004011905
2377.0939,61.72147495722993
2378.4973,52.168249943701085
2379.9,51.527902313936465
2381.3019,63.40047886066486
2382.7032,55.03602586134275
2384.1037,60.38458895942449
2385.5035,66.29621324800655
2386.9027,63.02094321634377
2388.3011,70.458822690734
2389.6987,64.80989486726912
2391.0957,55.77420223746367
2392.492,54.25178664472469
2393.8876,40.34268937472552
2395.2824,39.59695117061938
2396.6765,46.46461237213725
2398.07,40.44571292303908
2399.4627,35.2902923024476
2400.8547,40.99838958503051
2402.246,36.97004349255485
2403.6366,16.105292336797447
2405.0265,21.05417405983235
2406.4156,34.516726442679555
2407.8041,15.542987055819594
2409.1918,33.682993124567474
2410.5789,19.98678171881147
2411.9652,20.65438957160768
2413.3508,19.735853216147007
2414.7358,14.231208979075745
2416.12,20.790492989684935
2417.5035,23.413741234955978
2418.8863,31.4509894939647
2420.2684,21.602273311651516
2421.6497,14.767627918447943
2423.0304,-0.7529116712330506
2424.4104,22.340689409346396
2425.7896,15.798473548510628
2427.1682,17.97048291117926
2428.546,13.806759504288948
2429.9232,27.45734515507138
2431.2996,21.622281552694403
2432.6753,23.901610111754053
2434.0503,11.595372030624276
2435.4246,9.103608268663265
2436.7982,12.176359669275826
2438.1711,24.913666984829888
2439.5433,29.965570845934053
2440.9148,10.182111634060675
2442.2856,17.763329431030797
2443.6557,29.709264216844986
2445.025,19.06995579387103
2446.3937,25.295443667384916
2447.7617,8.435767151965138
2449.1289,21.240965309236344
2450.4955,16.561077116466095
2451.8613,23.29614133851419
2453.2265,26.696196574632268
2454.5909,31.711281191110174
2455.9546,35.0414332872806
2457.3177,31.73669064536216
2458.68,38.647090697163094
2460.0416,53.07267055712782
2461.4025,54.66346695323
2462.7627,39.319516082716746
2464.1222,36.09085359620394
2465.4811,28.177514751111175
2466.8392,46.579534443951616
2468.1966,51.89694728946597
2469.5533,56.129787436600054
2470.9093,46.37808851533191
2472.2645,58.09188359434347
2473.6191,54.72120527853576
2474.973,55.316085591894534
2476.3262,47.0265560111925
2477.6787,54.55264746004241
2479.0305,50.194390391794514
2480.3816,43.65181471427286
2481.7319,50.074949833356186
2483.0816,37.763824718406795
2484.4306,35.318467838041215
2485.7789,40.238907283235676
2487.1264,29.825170791785695
2488.4733,42.1272856990995
2489.8195,38.145279042334096
2491.165,31.3791774373758
2492.5097,41.07900711866341
2493.8538,29.844794006841312
2495.1972,13.726563611766323
2496.5398,28.87434114484904
2497.8818,40.93815168023548
2499.2231,27.318020003328456
2500.5637,36.71397049015195
2501.9035,36.4260272435522
2503.2427,24.804213999234435
2504.5812,28.248554128645083
2505.919,33.80907075518917
2507.256,33.13578671978803
2508.5924,40.32872452527408
2509.9281,39.13790634312227
2511.2631,35.363353941522746
2512.5974,41.655088697285464
2513.9309,30.06313163358891
2515.2638,23.437503357062724
2516.596,55.47822417370571
2517.9275,33.83531415514244
2519.2583,31.55879281821626
2520.5884,25.44867934141803
2521.9178,28.554992587653942
2523.2465,31.077751165342306
2524.5745,35.666973397353104
2525.9018,21.572677295780977
2527.2284,30.09488051605331
2528.5543,31.733600497868792
2529.8796,30.288854379979057
2531.2041,38.210658983800386
2532.5279,41.64903082786259
2533.851,36.75398604859129
2535.1735,43.87554036592155
2536.4952,39.063709132250096
2537.8163,44.71850726122193
2539.1366,44.6899492758439
2540.4562,51.42804925194105
2541.7752,51.93282081844018
2543.0935,59.70427708999023
2544.411,61.04243066191111
2545.7279,57.097293532483036
2547.0441,68.41887708956301
2548.3596,78.35719215003473
2549.6744,78.71224884659796
2550.9885,82.03405652838
2552.3019,68.87262375738555
2553.6146,73.62795827527952
2554.9266,64.05006713500097
2556.2379,62.28895665321079
2557.5485,79.49463250606914
2558.8585,76.91709974685
2560.1677,73.05636263388351
2561.4762,87.31242465632704
2562.7841,82.3352885727777
2564.0913,81.72495626870614
2565.3977,76.53142880623227
2566.7035,101.05470643022682
2568.0086,98.29478862024553
2569.313,95.60167384529905
2570.6167,92.27535959145052
2571.9197,111.21584238874902
2573.222,115.37311784449184
2574.5236,117.34718045381578
2575.8246,103.43802355812932
2577.1248,115.64563932537249
2578.4244,99.42001888910181
2579.7232,127.16115222642156
2581.0214,118.86902832023452
2582.3189,125.89363488183471
2583.6157,126.5849584338248
2584.9118,140.09298423987366
2586.2072,137.5176962978021
2587.5019,135.5590772045016
2588.7959,146.6171081816883
2590.0893,144.5917690954875
2591.3819,154.93303834585322
2592.6739,146.59089288682526
2593.9652,163.31530812311303
2595.2557,157.70625799351774
2596.5456,153.71371480369044
2597.8348,149.7876492822195
2599.1234,146.9280306205585
2600.4112,167.9848265122837
2601.6983,156.05800318169304
2602.9848,159.0475251732355
2604.2705,154.40335547078143
2605.5556,166.12545546772708
2606.84,165.86378501343484
2608.1237,158.21830229601437
2609.4067,154.03896384493873
2610.689,145.12572460749698
2611.9707,165.1285379905894
2613.2516,148.34735594986182
2614.5319,150.5821287896731
2615.8115,151.23280533090883
2617.0903,134.8993328886379
2618.3685,155.331657265599
2619.6461,146.17972291553906
2620.9229,150.3934727388887
2622.199,141.2728481742829
2623.4745,138.26778915642194
2624.7493,132.42823420727814
2626.0234,153.0541204661488
2627.2968,157.19538374804802
2628.5695,148.90195833745156
2629.8415,150.82377694688057
2631.1128,142.16077079983847
2632.3835,142.96286961159035
2633.6535,131.13000167579526
2634.9228,140.91209385648403
2636.1914,152.90907170638843
2637.4593,148.92085936911917
2638.7265,132.94737945919564
2639.9931,149.7885531019308
2641.259,143.09430009316452
2642.5242,144.3145387308523
2643.7887,143.04918588200553
2645.0525,138.3981569704913
2646.3156,141.96136598968587
2647.5781,142.13872554898444
2648.8398,143.83014683817055
2650.1009,139.93553962564124
2651.3613,138.05481224149344
2652.6211,143.5378716164696
2653.8801,129.684623300765
2655.1385,135.04497140919648
2656.3961,137.71881875973645
2657.6531,143.40606681990766
2658.9094,136.20661568004516
2660.1651,142.57036399642402
2661.42,157.59720906325379
2662.6743,150.3870467490401
2663.9279,154.48977134631832
2665.1808,150.8052756437537
2666.433,152.73345088511292
2667.6846,155.17418680611172
2668.9354,165.7273716151317
2670.1856,167.14289196881305
2671.4351,165.0206328665231
2672.6839,173.81047763620154
2673.9321,169.96230795558154
2675.1795,170.67600376429255
2676.4263,172.00144330234207
2677.6724,177.33850310297817
2678.9179,181.23705797943603
2680.1626,180.5469809715671
2681.4067,173.1681433068527
2682.6501,179.0504144073043
2683.8928,176.3436619632521
2685.1348,176.8477518745235
2686.3761,161.41254827751004
2687.6168,164.58791354012737
2688.8568,165.7737084161672
2690.0961,165.66979201354388
2691.3348,164.27602178243546
2692.5727,157.24225351632276
2693.81,160.2183413659277
2695.0466,157.3041379095505
2696.2826,144.19949412330766
2697.5178,163.45425941027588
2698.7524,152.3682817315373
2699.9863,155.3414074136324
2701.2195,155.6734812594184
2702.452,168.5143465183396
2703.6839,165.11384488310568
2704.9151,172.4218163612834
2706.1456,167.18809930930252
2707.3755,183.3625303593749
2708.6046,193.9449444718323
2709.8331,189.6851747733831
2711.0609,188.28305245128558
2712.2881,182.53840679594828
2713.5145,189.3510652149489
2714.7403,216.57085329048255
2715.9654,223.6475947112342
2717.1899,233.3311110001814
2718.4136,248.5712214438263
2719.6367,251.31774299536187
2720.8591,260.7704901222694
2722.0809,275.17927477885337
2723.3019,283.6439063117148
2724.5223,294.0641913156642
2725.7421,300.63993354907416
2726.9611,287.27093382967405
2728.1795,287.50698996879805
2729.3972,282.0978969050723
2730.6142,256.99344670205323
2731.8306,253.14342860231955
2733.0462,233.84762927851625
2734.2612,216.70583287185445
2735.4756,215.36782118507108
2736.6892,191.2333738538464
2737.9022,171.40226836018223
2739.1145,150.02428027374776
2740.3262,142.74918345019114
2741.5372,135.326750244918
2742.7475,127.30675158584427
2743.9571,115.78895704761749
2745.1661,101.12313493181932
2746.3744,83.70905238214095
2747.582,78.09647553104378
2748.7889,65.43516967389974
2749.9952,66.57489932511476
2751.2008,39.71542834474462
2752.4057,44.9065199270965
2753.61,34.247936869323894
2754.8136,37.789441519516004
2756.0165,42.530795883282735
2757.2188,37.82176158834045
2758.4204,47.86209983709796
2759.6213,25.751571453746692
2760.8215,41.23993678385773
2762.0211,33.07695591548645
2763.22,29.662388524289327
2764.4182,23.745993955153835
2765.6158,24.177531256343855
2766.8127,22.0567592386642
2768.009,13.233436471144387
2769.2045,11.007321302247192
2770.3994,-1.4718280518964093
2771.5936,3.94574651477069
2772.7872,-12.490182188132394
2773.9801,-4.929841390443926
2775.1723,-13.473333545083733
2776.3639,-14.420711855856098
2777.5548,-21.92189492796524
2778.745,-12.976657303703632
2779.9346,-20.134554525634712
2781.1235,-17.345012499516315
2782.3117,-11.057255986907194
2783.4992,-14.370336472692543
2784.6861,7.1168050202286395
2785.8723,-8.944628971382144
2787.0579,-10.90343598193067
2788.2428,0.34167581102042277
2789.427,6.992107155233953
2790.6106,1.5492587950575398
2791.7935,20.61453140491767
2792.9757,26.289325643750317
2794.1573,34.775041964345746
2795.3382,43.02308055660092
2796.5184,56.23484126266294
2797.698,82.31172349444819
2798.8769,82.15512610152564
2800.0551,97.51644711034692
2801.2327,112.44708372581454
2802.4096,125.84843217766593
2803.5859,147.47188757116965
2804.7615,169.76884375311033
2805.9364,199.09069309555366
2807.1106,217.38882627287762
2808.2842,256.464631968553
2809.4572,270.1694966921623
2810.6294,294.00480438864224
2811.801,351.4719363012373
2812.972,387.9722707331425
2814.1423,440.5571824728347
2815.3119,482.0280424290693
2816.4808,523.4862171050304
2817.6491,566.2330681836215
2818.8167,602.8199521128852
2819.9837,665.0482196785326
2821.15,698.8692156380789
2822.3157,753.5842780985547
2823.4807,778.3947381783021
2824.645,828.0519194598182
2825.8086,871.9571377416544
2826.9716,914.7617005418401
2828.134,946.5669066588362
2829.2957,991.5740457434861
2830.4567,1021.984397980965
2831.617,1028.9492336407066
2832.7767,1045.3198127723022
2833.9358,1031.597385135851
2835.0941,1020.733190038256
2836.2519,1022.6784564704458
2837.4089,996.4844032160183
2838.5653,999.0022388317882
2839.7211,1004.3831619097252
2840.8761,999.5783610517792
2842.0306,1023.5890148160674
2843.1843,1053.466291764927
2844.3374,1116.5113502248053
2845.4899,1167.2253379874878
2846.6417,1259.159391679647
2847.7928,1337.6646362557021
2848.9433,1402.442184078481
2850.0931,1482.0931341341645
2851.2422,1546.7185713845136
2852.3907,1624.4695659703568
2853.5385,1684.2971725653406
2854.6857,1737.6024295984137
2855.8323,1797.7363586555543
2856.9781,1848.2999639467173
2858.1233,1890.7442317044947
2859.2679,1941.4201296784777
2860.4118,1981.6786067108176
2861.555,2032.6205922294628
2862.6976,2068.6969958455766
2863.8395,2088.1087068441184
2864.9808,2112.856593823077
2866.1214,2129.9415044993557
2867.2614,2129.8642654612922
2868.4007,2142.5256819978094
2869.5393,2158.3265380991884
2870.6773,2166.1675963304524
2871.8146,2179.299597673361
2872.9513,2183.3232614479984
2874.0874,2172.039285181454
2875.2227,2167.3983445675876
2876.3574,2148.001093579863
2877.4915,2110.6481645177655
2878.6249,2083.640168200767
2879.7577,2073.377694341861
2880.8898,2030.5613118176386
2882.0212,2024.5415687709162
2883.152,2021.6189930388964
2884.2821,2004.5940922133657
2885.4116,2004.1173536699232
2886.5405,2003.4392447382254
2887.6686,1998.8102127067582
2888.7962,2004.2806848296143
2889.923,2022.0510683727848
2891.0493,2028.3217505594553
2892.1748,2028.3430983923008
2893.2997,2047.5654585907805
2894.424,2059.1391575909215
2895.5476,2076.764501353099
2896.6706,2098.8417752462947
2897.7929,2131.071243871848
2898.9145,2157.003150842678
2900.0355,2200.437718460994
2901.1559,2221.7751474589704
2902.2756,2266.2656165644084
2903.3946,2294.159282287357
2904.513,2316.156278475212
2905.6308,2336.2567160337735
2906.7479,2369.160682707282
2907.8643,2391.0182428774096
2908.9801,2406.2794372342214
2910.0953,2414.5442825576024
2911.2098,2402.362771564644
2912.3236,2385.434872826995
2913.4368,2406.2105308926775
2914.5494,2388.7896664553646
2915.6613,2349.372176146624
2916.7725,2320.407932710129
2917.8831,2291.2467853958287
2918.9931,2283.488560249596
2920.1024,2244.383060404836
2921.211,2236.280066160069
2922.319,2198.5293353699835
2923.4264,2202.8806035264706
2924.5331,2169.183584136127
2925.6391,2167.387968676746
2926.7445,2162.643426934285
2927.8493,2150.3996070208227
2928.9534,2129.0561354220026
2930.0569,2114.862617119474
2931.1597,2146.868635804325
2932.2619,2112.623754019016
2933.3634,2115.177512837323
2934.4643,2110.5294322067843
2935.5645,2087.2290109231653
2936.6641,2059.4757266769357
2937.763,2016.9690362862784
2938.8613,1958.808375974617
2939.959,1905.6431617956882
2941.056,1838.1227902151427
2942.1523,1754.4466386422023
2943.248,1673.0640661048608
2944.3431,1579.1244140866465
2945.4375,1467.1770073404477
2946.5313,1365.8211548279096
2947.6244,1282.606150838908
2948.7169,1155.281276005108
2949.8087,1070.595798132114
2950.8999,984.4489734727172
2951.9904,898.8900475737514
2953.0803,838.0682561375618
2954.1696,775.7828258775933
2955.2582,731.8329751266083
2956.3462,688.567914459542
2957.4335,653.0368471329996
2958.5202,612.9389695179079
2959.6062,591.973471454826
2960.6916,562.4895366549235
2961.7764,553.5363429096358
2962.8605,546.2130623855041
2963.9439,524.0188617137064
2965.0267,510.60290206329023
2966.1089,512.5143393631149
2967.1905,516.0023244360109
2968.2714,502.9160029796658
2969.3516,518.9045155317446
2970.4312,523.1169976007518
2971.5102,523.3525795061478
2972.5885,519.8103863362228
2973.6662,531.0895379457419
2974.7432,532.8391489913672
2975.8196,535.0583288188657
2976.8954,511.09618144561284
2977.9705,526.2018055384024
2979.045,507.07429465306575
2980.1188,498.7627370834174
2981.192,483.1662160525291
2982.2645,459.78380979584585
2983.3364,435.4645917171515
2984.4077,410.95763062239234
2985.4783,379.21199096286887
2986.5483,359.2267330803056
2987.6177,322.3509135243082
2988.6864,309.5335852522146
2989.7545,268.07379799785554
2990.8219,241.32059839972533
2991.8887,217.1730304155817
2992.9548,190.73013558997684
2994.0204,157.34095329573245
2995.0852,135.90452099836932
2996.1495,115.16987458999938
2997.2131,91.58604860368962
2998.276,76.90207642080895
2999.3383,55.716990506866296
3000.4,37.87982255834925
3001.4611,36.989603714577015
3002.5215,24.345364736070565
3003.5812,10.496136013455725
3004.6404,7.190947693904491
3005.6989,-5.771170180371655
3006.7567,-3.9411876390707903
3007.8139,-8.420017057900736
3008.8705,-12.75853144010614
3009.9264,-18.157519672960916
3010.9818,-4.467643186010946
3012.0364,-13.689382015180513
3013.0905,-9.52317156463846
3014.1439,-5.569310481628349
3015.1966,-1.578002276909615
3016.2487,-0.7993948238300845
3017.3002,-1.3336202314952743
3018.3511,2.0691973769431797
3019.4013,14.70894720119918
3020.4509,25.835518420295216
3021.4998,22.848800066164927
3022.5481,29.498680912387158
3023.5958,27.98504950405311
3024.6428,27.107794091267465
3025.6892,42.01680264428478
3026.735,51.911962862281825
3027.7802,42.74316202426837
3028.8247,54.01028689013458
3029.8685,64.76322379233989
3030.9118,76.60185852324094
3031.9544,83.27607622756307
3032.9963,94.03576128401357
3034.0376,101.58079723853791
3035.0783,106.11106669672483
3036.1184,120.9764512483539
3037.1578,125.3768314220938
3038.1966,128.46208653684937
3039.2348,127.1320946577572
3040.2723,135.63673256533332
3041.3092,133.22587576877265
3042.3455,146.6493984209036
3043.3811,135.00717334229626
3044.4161,141.44907188702666
3045.4505,137.77496405909972
3046.4842,133.08471844802932
3047.5173,135.02820226558038
3048.5498,134.5552813926705
3049.5816,123.01582035993579
3050.6128,127.65968235245896
3051.6434,120.08672932516549
3052.6734,110.6468219563842
3053.7027,116.93981972357642
3054.7314,117.16558099773601
3055.7594,107.82396298045819
3056.7868,114.96482170168292
3057.8136,104.53801211311122
3058.8398,116.89338801679617
3059.8653,109.73080216941128
3060.8902,106.80010615869628
3061.9145,105.10115047508305
3062.9381,103.68378454100252
3063.9612,97.04785672787443
3064.9835,98.5432143702808
3066.0053,92.81970383232499
3067.0264,88.27717049267858
3068.0469,82.96545880181611
3069.0668,69.98441232744085
3070.086,84.83387380760155
3071.1046,75.11368528050343
3072.1226,77.42368793601287
3073.1399,61.51372221285965
3074.1567,55.983627775536775
3075.1727,51.53324367340008
3076.1882,50.26240839596949
3077.203,35.320959917433015
3078.2173,34.35873570935462
3079.2308,30.675572890089143
3080.2438,31.12130823440441
3081.2561,22.19577821031254
3082.2678,17.24881897461279
3083.2789,8.83026646214688
3084.2893,10.889956435268573
3085.2991,7.077724568029112
3086.3083,3.8434064255802127
3087.3169,4.936837502296498
3088.3248,8.657853254118663
3089.3321,4.30628908761912
3090.3388,-1.8680196772079967
3091.3449,-1.3152377634312415
3092.3503,8.464488767397086
3093.3551,6.621026992949794
3094.3593,4.904243906255033
3095.3629,-4.035993565868978
3096.3658,-1.299818545646474
3097.3681,-4.887323835726136
3098.3698,-7.798589253569162
3099.3708,-1.283645792271841
3100.3713,4.107553462976114
3101.3711,-3.524931749393602
3102.3702,-8.231041732024778
3103.3688,5.589318426506793
3104.3667,4.88632586573226
3105.364,5.110157669289549
3106.3607,5.610990871953675
3107.3568,-1.8609975426018082
3108.3522,6.294369353186937
3109.347,5.227287078249049
3110.3412,9.287951088569855
3111.3348,6.876556787862228
3112.3277,2.6932994869592903
3113.32,14.188374427929034
3114.3117,11.011976825906686
3115.3028,15.314301754143855
3116.2932,18.19554417577268
3117.2831,14.505898900782427
3118.2723,11.395560557207148
3119.2608,17.814723628021852
3120.2488,13.56358248224609
3121.2361,13.94233131075248
3122.2229,22.001164168778132
3123.209,21.990274972137172
3124.1944,23.259857416632144
3125.1793,27.41010497816302
3126.1635,27.291210900031444
3127.1471,26.453368151438212
3128.1301,24.64676942867203
3129.1125,29.771607163488227
3130.0942,32.57807354117455
3131.0753,28.966360449302954
3132.0558,32.086659449664694
3133.0357,33.689161814387774
3134.015,33.07405849473349
3134.9936,36.54154010507193
3135.9716,35.64179692903252
3136.949,44.125018884829615
3137.9258,31.341395534259533
3138.902,47.94111599786822
3139.8775,44.124369082788064
3140.8524,47.09134311674026
3141.8267,54.14222598620276
3142.8004,48.227205106739916
3143.7735,49.1964673524939
3144.7459,50.35019911533499
3145.7178,55.438586295169046
3146.689,49.61181428839984
3147.6596,58.020067937045695
3148.6295,59.16353158700676
3149.5989,57.29238900398266
3150.5676,58.00682336203792
3151.5357,57.40701726231305
3152.5032,58.94315272588048
3153.4701,61.465411199742675
3154.4364,58.473973541470684
3155.402,66.61901999398142
3156.367,63.20073021545218
3157.3315,71.01928319787021
3158.2952,71.6248573012154
3159.2584,67.26763017527503
3160.221,68.24777875358771
3161.1829,74.71547929701586
3162.1442,71.92090738394421
3163.105,74.0642378456026
3164.065,71.49564479401195
3165.0245,72.01530160055097
3165.9834,76.17338092164198
3166.9416,75.5700546935544
3167.8993,77.90549409082374
3168.8563,85.77986953228518
3169.8127,86.74335065771905
3170.7684,83.39610624910702
3171.7236,78.73830422099746
3172.6782,88.82011165397779
3173.6321,83.34169484125252
3174.5854,85.6532191878251
3175.5381,90.75484926528202
3176.4902,93.19674878867772
3177.4417,86.52908056551823
3178.3926,95.00200647134213
3179.3428,94.3656875163972
3180.2924,96.62028376091135
3181.2415,98.61595432145555
3182.1899,102.05285734839809
3183.1377,98.73115000594777
3184.0848,97.00098843778473
3185.0314,99.0125278002777
3185.9773,98.11592227978558
3186.9227,101.41132507254204
3187.8674,104.74888839362163
3188.8115,105.17876344398553
3189.755,113.20110037710624
3190.6979,106.7660482946686
3191.6402,112.42375516634652
3192.5818,112.42436789415358
3193.5229,114.91803225586573
3194.4633,118.55489290501538
3195.4031,114.4350933459546
3196.3423,114.2587758974866
3197.2809,117.77608173406371
3198.2189,123.03715088755057
3199.1563,123.29212221205107
3200.0931,123.99113333129756
3201.0292,123.88432063610131
3201.9648,122.02181927736217
3202.8997,122.20376316713688
3203.834,125.73028499726396
3204.7677,128.5015162375443
3205.7008,126.61758710047609
3206.6333,130.5286265135422
3207.5652,130.03476213804984
3208.4964,134.4861203300199
3209.4271,134.73282614512578
3210.3571,136.42500329417962
3211.2865,143.31277414066543
3212.2154,141.69625968381712
3213.1436,139.22557948974105
3214.0712,140.45085170758077
3214.9982,141.32219309422433
3215.9246,145.18971900205113
3216.8503,148.35354337021872
3217.7755,145.5137786859874
3218.7001,149.52053595308212
3219.624,150.22392472009003
3220.5473,150.07405304039295
3221.4701,150.8710274651335
3222.3922,155.51495304471374
3223.3137,155.60593332082553
3224.2346,155.89407028001122
3225.1549,156.0294643527538
3226.0746,159.9122144105956
3226.9937,159.69241776478432
3227.9121,161.92017012744552
3228.83,166.79556561378058
3229.7473,162.11869671978917
3230.6639,168.7396542735153
3231.5799,169.40852748181607
3232.4954,166.72540386415196
3233.4102,172.64036924589823
3234.3244,177.9035077851761
3235.238,173.814901913703
3236.151,176.2746322841615
3237.0634,178.58277781108492
3237.9752,182.3894156462604
3238.8864,184.04462115564718
3239.797,176.94846788131042
3240.7069,182.85102752486898
3241.6163,185.05237001845717
3242.5251,185.95256346569892
3243.4332,186.5516741196944
3244.3408,183.39976637401833
3245.2477,190.09690275672844
3246.154,189.24314396188493
3247.0598,191.7385487825789
3247.9649,195.88317411947003
3248.8694,195.22707495583245
3249.7733,191.62030431610864
3250.6766,195.5129132724702
3251.5793,200.45495098088574
3252.4814,196.24646464219478
3253.3829,195.78749945268714
3254.2838,199.77809864618808
3255.1841,200.6683034986478
3256.0838,202.50815328823546
3256.9829,203.74768528643727
3257.8814,207.58693473965786
3258.7792,205.87593485682487
3259.6765,203.06471677099665
3260.5731,201.7533095564721
3261.4692,208.34174025690294
3262.3647,207.08003389840786
3263.2595,213.11821342368802
3264.1538,208.80629970464415
3265.0474,210.0443114819949
3265.9404,211.58226540839573
3266.8329,210.37017603605904
3267.7247,206.95805580137443
3268.616,212.24591503702976
3269.5066,205.88376200613232
3270.3966,203.77160284933
3271.286,204.4094416484333
