RamanShift,CorrectedData
30.1047,7028.3296476066225
32.3739,6570.789671012194
34.6426,6114.1496241344685
36.9109,5654.609370982252
39.1787,5207.318714422854
41.4461,4752.92740077749
43.7131,4304.385124294185
45.9796,3852.4415316916857
48.2456,3402.996226644889
50.5112,2958.4487743042687
52.7764,2508.5487057903388
55.0411,2065.1955226391224
57.3054,1621.5387013011548
59.5692,1176.8276975750155
61.8326,743.9619510438964
64.0955,306.0408895227125
66.3579,-126.13606661324093
68.6199,-540.3195000490773
70.8815,-924.1587333706053
73.1426,-1209.0976913718278
75.4032,-1196.121066501003
77.6634,-478.65147232045456
79.9231,2066.4004268569474
82.1824,8511.428748446542
84.4412,23015.52758919966
86.6995,49162.79096075336
88.9574,59282.0126445894
91.2148,59004.33593056166
93.4717,58517.153515703874
95.7282,58036.20750700643
97.9842,57566.23942628817
100.2398,57096.09021500588
102.4949,56625.50023895393
104.7495,56155.50929296583
107.0036,55693.55660562007
109.2573,55230.130843940045
111.5105,54763.9201180136
113.7632,54298.5619856273
116.0154,53823.043456928455
118.2672,53370.60099907883
120.5185,52905.320541009714
122.7693,52443.68747794641
125.0197,51983.08667606101
127.2696,51520.40247708872
129.519,51061.71870293391
131.7679,50595.91866029691
134.0163,50142.735145260885
136.2642,49682.70044794981
138.5117,49224.49635706031
140.7587,48770.75416446202
143.0052,48318.70466977965
145.2512,47875.1281849303
147.4967,47424.45453864409
149.7417,46972.86308089981
151.9863,46526.83268743177
154.2304,46072.441764245625
156.4739,45623.36825207869
158.717,45182.63963094389
160.9596,44740.03292462048
163.2017,44298.774705061274
165.4433,43860.891096818814
167.6844,43420.65778145789
169.925,42984.150001934366
172.1651,42553.54256699757
174.4047,42110.40985555527
176.6439,41679.77582097989
178.8825,41252.063995539706
181.1206,40815.647494705256
183.3582,40382.09902142643
185.5954,39962.19087049665
187.832,39536.294932888384
190.0681,39111.18269995216
192.3037,38688.32526767563
194.5388,38262.64334093461
196.7734,37850.85723772169
199.0075,37433.936893403006
201.2411,37020.55186483619
203.4742,36611.87133453948
205.7068,36196.814114825625
207.9389,35788.898651888696
210.1704,35385.09302995459
212.4015,34977.71497536029
214.632,34580.231860591826
216.862,34188.460708358114
219.0915,33799.318195565735
221.3205,33403.720657236714
223.549,33021.984090399885
225.777,32624.724158046854
228.0044,32238.156192949416
230.2314,31848.595201632168
232.4578,31468.00586823812
234.6837,31073.90255842437
236.909,30690.14932316797
239.1339,30285.359902706987
241.3582,29924.04773037799
243.582,29515.675936663996
245.8053,29159.507352807537
248.0281,28792.75451489439
250.2503,28419.07966741523
252.472,28051.594766933238
254.6932,27682.0614858208
256.9139,27322.141215934374
259.134,26963.145072309853
261.3536,26597.233896761674
263.5727,26242.618261472875
265.7912,25894.358472654152
268.0092,25542.71457409008
270.2267,25194.646350621617
272.4436,24839.963331662606
274.6601,24492.97479468045
276.8759,24155.439768742894
279.0913,23809.767037987993
281.3061,23471.715144999398
283.5204,23135.79239426313
285.7341,22800.206855548066
287.9473,22455.01636726516
290.16,22137.728539823343
292.3721,21815.350759081382
294.5837,21490.290189520798
296.7947,21168.453777469622
299.0052,20849.848254353048
301.2152,20527.480139911728
303.4246,20226.355745387882
305.6334,19908.481176748952
307.8418,19594.712337698846
310.0495,19283.954932856723
312.2568,18979.814470894693
314.4635,18679.196267645268
316.6696,18374.75544914286
318.8752,18074.24695462996
321.0802,17779.075539601494
323.2847,17487.145778809943
325.4887,17193.512069217082
327.692,16903.778632913258
329.8949,16615.699520053706
332.0972,16333.528611755886
334.2989,16052.169622980276
336.5001,15769.526105352088
338.7007,15497.601449974849
340.9008,15224.048890256847
343.1003,14943.571504630352
345.2992,14673.972219287236
347.4976,14408.553810983663
349.6955,14140.268909736078
351.8927,13877.42000147546
354.0895,13611.959430730094
356.2856,13361.639403254107
358.4812,13107.41198868207
360.6763,12855.029123032182
362.8707,12606.542611248566
365.0646,12356.454129725062
367.258,12111.115228790113
369.4508,11860.277335207647
371.643,11623.791754630482
373.8346,11384.809674108634
376.0257,11150.382164454262
378.2162,10912.560182631401
380.4062,10690.24457410034
382.5956,10455.436075195757
384.7844,10235.385315349937
386.9726,10010.642819440844
389.1603,9791.709009992584
391.3474,9534.034209422935
393.5339,9360.418642232587
395.7199,9150.51243758195
397.9052,8947.965631027233
400.09,8739.978166619534
402.2743,8533.749898930342
404.4579,8331.780595131393
406.641,8129.369937056952
408.8235,7931.567523223515
411.0054,7736.722870853941
413.1868,7538.185417855471
415.3675,7346.8545247681395
417.5477,7161.079476750128
419.7273,6975.459485491156
421.9064,6785.843691070164
424.0848,6608.431163811525
426.2627,6422.820906181158
428.4399,6248.061854560714
430.6166,6074.452881103607
432.7928,5896.942795482704
434.9683,5738.130346626349
437.1432,5572.71422449348
439.3176,5409.593061661792
441.4914,5251.465434981881
443.6645,5090.2298672084435
445.8371,4930.334828581545
448.0091,4773.978738438986
450.1806,4625.659966815307
452.3514,4477.1268360053
454.5216,4321.977622047183
456.6913,4183.5605562079145
458.8603,4045.1738265347158
461.0288,3913.115579239231
463.1967,3776.0839200813643
465.3639,3634.6269156898925
467.5306,3501.592594932794
469.6967,3376.2789503317617
471.8622,3253.4339393926057
474.0271,3127.6554858583695
476.1914,2995.441480937785
478.3551,2881.0897845630825
480.5182,2765.0482267120897
482.6807,2654.664608551793
484.8426,2549.036703598729
487.0039,2433.2122588228012
489.1647,2318.838995703598
491.3248,2209.664611388551
493.4843,2112.186779836775
495.6432,2012.103152910764
497.8015,1902.7613613512003
499.9592,1803.2090157777275
502.1163,1709.443707782426
504.2728,1627.7630109253078
506.4287,1546.2144816719374
508.5839,1462.495660210283
510.7386,1373.8540712661415
512.8927,1279.3872249403867
515.0461,1204.292617595347
517.199,1127.0177327995552
519.3512,1050.7100420786956
521.5029,975.8170056882882
523.6539,908.6860733768044
525.8043,845.1646851345722
527.9541,774.1502718650736
530.1033,712.9402560201997
532.2519,653.8320523103685
534.3999,596.5230683166519
536.5472,544.8107050818071
538.694,490.69235768337967
540.8401,433.6099785399856
542.9856,380.0006180535347
545.1305,325.1469948621889
547.2748,286.7780313979747
549.4185,240.76940187435684
551.5615,198.99391559226206
553.704,168.47197656624485
555.8458,133.92200086158846
557.987,102.41072150853142
560.1276,68.50353365646879
562.2675,42.56480937165907
564.4069,15.058236370001396
566.5456,-3.9029228550280095
568.6837,-32.80555624176486
570.8212,-46.586512738365855
572.958,-70.38231356548204
575.0942,-84.37901454453095
577.2299,-94.26196837769385
579.3648,-98.8656848207902
581.4992,-101.673731952651
583.6329,-113.61869018391735
585.766,-125.53212420469208
587.8985,-135.84446365438635
590.0304,-161.88488410655555
592.1616,-158.6312040485427
594.2922,-162.80962473776162
596.4222,-166.29476270591113
598.5515,-163.55960801663605
600.6802,-162.02548944888986
602.8083,-160.96210182117647
604.9358,-154.43752131739893
607.0626,-150.7682161101402
609.1888,-146.81911154116096
611.3144,-131.10362677775993
613.4393,-120.38371426437516
615.5636,-111.67001672021433
617.6873,-93.72197423114994
619.8103,-85.79791129963269
621.9327,-60.10521614560275
624.0544,-40.55041986787546
626.1756,-17.99005296424002
628.2961,-2.3306455268902937
630.4159,16.771272531892464
632.5351,31.709171323156625
634.6537,64.42652079026448
636.7716,76.66679055948771
638.8889,108.77344961282506
641.0056,138.3399661656731
643.1216,171.10980734572513
645.237,207.1264388972777
647.3518,233.78332485357532
649.4659,277.97392717662296
651.5793,315.44170549056435
653.6922,348.78011663987854
655.8043,336.6826143146609
657.9159,425.6926487172823
660.0268,311.4536666833228
662.137,490.80911079141515
664.2466,527.7524205057343
666.3556,534.3270303823738
668.4639,625.5763696999493
670.5716,606.8938623938084
672.6786,713.7729261435743
674.785,704.8569725599737
676.8907,772.9894061160667
678.9958,863.0636242364053
681.1002,904.8230166156645
683.204,884.860964317937
685.3072,865.2208393591136
687.4097,988.5460049064786
689.5115,956.6798154751887
691.6127,1145.7156156950005
693.7132,1088.4467406288677
695.8131,1110.9165138826356
697.9123,1218.668248177688
700.0109,1295.245245126287
702.1089,1164.440794154034
704.2061,1269.0481717341536
706.3028,1354.4106426955186
708.3987,1497.6714591765922
710.4941,1468.6238597717092
712.5887,1688.9610680985425
714.6827,1671.9762930885408
716.7761,1903.9627267835822
718.8688,2009.7635445057604
720.9608,1981.5219025375773
723.0522,2041.580937063969
725.1429,1956.383764454673
727.233,2295.423480663667
729.3224,1639.7931620811141
731.4112,2009.1358621429608
733.4993,2072.5446178872517
735.5867,2147.4124462606633
737.6735,1997.2323434844293
739.7596,1926.8972843056908
741.845,1968.9502234992688
743.9298,2404.9840965710464
746.014,2124.891819337485
748.0974,1977.5162835652445
750.1802,2574.7003597720613
752.2624,2015.3368987005451
754.3439,2192.418725346375
756.4247,2435.6386445518874
758.5048,2284.7894392353264
760.5843,2514.2138679584896
762.6631,2768.3546664353707
764.7413,2793.5545452378283
766.8188,3016.806187254224
768.8956,3381.7022474374244
770.9718,3457.585350572226
773.0473,3389.9980876264453
775.1221,3038.0330149920774
777.1962,3106.1326551612146
779.2697,2609.1395002456993
781.3426,3143.346011296053
783.4147,3465.844623271485
785.4862,3572.127739697695
787.557,3164.1877294420046
789.6271,3671.0169256504814
791.6966,3125.857629827311
793.7654,2369.352106766557
795.8335,2439.7925900036425
797.901,2741.421289380545
799.9678,2473.5803903413253
802.0339,2470.212050915936
804.0993,2631.8584043984883
806.1641,2474.4115593810056
808.2282,2409.1635981369764
810.2916,2269.2065781957863
812.3544,2788.43253299519
814.4164,1976.7834732808915
816.4778,2146.4513819143467
818.5385,2263.478221989164
820.5986,2277.9059351344476
822.658,2499.126440344553
824.7166,2637.981633834803
826.7747,2020.6633868292847
828.832,2465.013544172303
830.8886,2975.3739305015115
832.9446,3190.3363458044623
834.9999,2116.8925603149473
837.0545,2886.2343123635146
839.1085,3391.7533191117473
841.1618,3275.391268858897
843.2143,2512.189815986756
845.2662,2636.3905821231456
847.3175,2983.1851637740474
849.368,2077.0151310815636
851.4179,2866.0720243559044
853.467,2274.2473631371613
855.5155,2553.1326383046908
857.5633,2055.669317995431
859.6105,1807.9488448150078
861.6569,2247.0626408123717
863.7027,1671.5521099569887
865.7478,2001.1086337477245
867.7922,1891.173576967958
869.8359,2422.88828438997
871.8789,1854.2440818743707
873.9212,2484.1822710529013
875.9629,2694.94413501487
878.0039,2787.8209320078095
880.0441,2711.3038933298085
882.0837,2713.534222400762
884.1226,2774.603095527549
886.1609,2706.151661881733
888.1984,2443.171042888891
890.2352,2862.852332913062
892.2714,2250.836601886622
894.3069,2602.5648911134194
896.3416,2446.578219389012
898.3757,2448.017579483312
900.4091,1917.3239397004581
902.4418,2723.2882438644447
904.4739,2350.801416626018
906.5052,2604.4543554030606
908.5358,2307.9379341055246
910.5658,2056.893000598815
912.595,2058.810379668983
914.6236,1617.7308755331687
916.6515,2481.4452718204266
918.6786,1599.0943359825324
920.7051,2025.4188106568254
922.7309,2114.1594224897635
924.756,2302.4568778735993
926.7804,2188.7518620590345
928.8041,1756.8850372722445
930.8272,2149.347043851849
932.8495,2080.728504567669
934.8711,1846.7700206960653
936.892,1595.6121727061618
938.9123,1513.0455225994228
940.9318,1319.5606164211567
942.9506,1185.3979850862743
944.9688,1239.5481463140823
946.9862,828.9516059699017
949.003,976.7488575236057
951.019,676.4303861555527
953.0344,888.8366672786069
955.0491,976.1081695413814
957.063,1256.6353527041429
959.0763,1393.2086667660842
961.0888,1276.1185491600481
963.1007,1514.6054233868272
965.1119,1593.559700186066
967.1223,1595.6217751513468
969.1321,1793.5320279407388
971.1412,1689.1308222560692
973.1495,1576.2585038639081
975.1572,1718.0554016395618
977.1641,1849.7118286957411
979.1704,1835.6680809646714
981.1759,1792.1644358814592
983.1808,1924.5411525245217
985.1849,1999.7884720506918
987.1884,2193.7966163713936
989.1911,2535.905787400239
991.1932,2477.206165112868
993.1945,2519.8379041259104
995.1951,2483.541134283965
997.1951,2437.355960233268
999.1943,2299.5724617846936
1001.1928,2199.280694375593
1003.1906,2162.0206904475854
1005.1877,2149.4324604494905
1007.1841,2003.6559932099626
1009.1798,1885.9312560633261
1011.1748,1645.848196307379
1013.1691,1488.7467423805792
1015.1627,1143.816806262941
1017.1556,851.8982850470202
1019.1477,839.7310643872261
1021.1392,639.1050214190109
1023.1299,622.8100248805422
1025.12,607.6359371189901
1027.1093,586.4226142534462
1029.0979,672.2099063266432
1031.0859,700.68765751717
1033.0731,600.6957052815269
1035.0596,524.4238800693638
1037.0454,298.2620063233553
1039.0304,223.54990324199753
1041.0148,7.777387041183829
1042.9985,-18.565728298686736
1044.9814,31.760371125004895
1046.9636,-103.9545005994296
1048.9452,-141.7205297012988
1050.926,-103.19686390446441
1052.9061,-139.59123514472594
1054.8855,-198.1603444212451
1056.8642,-94.9594982167473
1058.8421,50.80797660783719
1060.8194,11.189701836970926
1062.7959,79.78329874706105
1064.7717,121.53638850263815
1066.7469,116.49659147037892
1068.7213,92.11152680161467
1070.695,85.22881248274643
1072.6679,-58.303934420939186
1074.6402,-80.23909769642341
1076.6117,-36.828478674382495
1078.5826,58.92692290304694
1080.5527,136.6264752102652
1082.5221,291.8195458323753
1084.4908,553.355500988233
1086.4587,790.8837039785067
1088.426,982.1535125703158
1090.3925,906.1642766219375
1092.3584,925.8653361701436
1094.3235,590.8060221900887
1096.2879,456.4856563982976
1098.2515,499.5035546032377
1100.2145,614.0590280485485
1102.1767,614.1013829828662
1104.1382,776.8799195142637
1106.099,992.8439316098011
1108.0591,1234.3927054677988
1110.0185,1322.7755173581609
1111.9771,1394.8916312068468
1113.9351,1112.6402977121397
1115.8923,731.4207536233444
1117.8488,396.1822245634612
1119.8045,56.52392884128494
1121.7596,-1.1549191962840268
1123.7139,-74.10510576751403
1125.6675,-78.77740555316996
1127.6204,79.52814707604557
1129.5726,87.91230473556789
1131.524,174.92581924559636
1133.4748,301.06944154721714
1135.4248,318.4439208322656
1137.3741,382.35000328189926
1139.3226,407.43843189283507
1141.2705,430.7599458382974
1143.2176,221.4652802171695
1145.164,320.80516582073324
1147.1097,383.2303312256554
1149.0546,438.84150180056895
1150.9989,427.03939908182656
1152.9424,346.574740217402
1154.8852,127.14823808483925
1156.8272,12.560602095967624
1158.7686,54.662540391116636
1160.7092,-30.445364369814342
1162.6491,-81.76253007355263
1164.5883,56.11192954234866
1166.5267,95.62971754797036
1168.4644,309.04253645230347
1170.4014,531.6520878080773
1172.3377,876.8600700776005
1174.2732,1017.4681764066918
1176.2081,1302.3780911725553
1178.1421,1443.691488577766
1180.0755,1609.510029801124
1182.0082,1616.485361584535
1183.9401,1594.769114574774
1185.8713,1359.5629032538345
1187.8017,1120.418326155981
1189.7315,940.1369682199074
1191.6605,594.7204031801084
1193.5888,416.92019536973385
1195.5163,323.18790317474486
1197.4432,230.77508081193082
1199.3693,128.23327926619095
1201.2947,38.21404721471481
1203.2193,67.66893205234373
1205.1432,116.3494807918214
1207.0664,189.6072397691969
1208.9889,214.14375415706309
1210.9106,246.16056723196743
1212.8316,346.05922012904557
1214.7519,448.6912515218537
1216.6715,468.9081966233498
1218.5903,415.1615861596183
1220.5084,351.90294616766914
1222.4257,419.2837985329206
1224.3424,271.2556616217371
1226.2583,345.12004960767445
1228.1735,435.22847395173085
1230.0879,543.5324426637235
1232.0016,702.3334594012013
1233.9146,761.1830223863908
1235.8269,634.4326228182108
1237.7384,548.9837442837706
1239.6492,349.23786402586484
1241.5592,310.49645379746653
1243.4686,134.0109818591627
1245.3772,79.13291336661132
1247.285,20.66371213534876
1249.1922,-37.99515881039406
1251.0986,3.6577633469751163
1253.0042,-19.625679003343976
1254.9092,75.65631998681056
1256.8134,173.75576222610107
1258.7169,378.9246488666395
1260.6196,544.0649793229968
1262.5216,785.1287492204974
1264.4229,894.1679487438123
1266.3234,1097.184560226313
1268.2232,1187.1305570597215
1270.1223,1156.0579016639276
1272.0207,1163.6185445875235
1273.9183,1105.5144248185497
1275.8151,1018.9974697088401
1277.7113,1018.3195955551273
1279.6067,818.4327084641554
1281.5014,636.6387043594914
1283.3953,528.9894709804066
1285.2885,516.1368896998101
1287.181,472.7828366007234
1289.0727,536.2791826048051
1290.9637,571.2777939059088
1292.854,745.6305313351004
1294.7435,886.5892500106929
1296.6323,1144.6557975947107
1298.5204,1471.4320128832915
1300.4077,1725.5197232260143
1302.2943,1946.1707412581382
1304.1802,2068.9868623597504
1306.0653,2026.469862449234
1307.9497,1896.6214967551132
1309.8333,1847.9935002412167
1311.7162,1907.2375889051946
1313.5984,2034.8554602647528
1315.4798,2180.4987927652473
1317.3605,2383.919244503504
1319.2405,2621.8684517713664
1321.1197,2659.2980270215267
1322.9982,2629.2095564880146
1324.876,2729.204599811892
1326.753,2643.3846903421254
1328.6293,2741.501334135679
1330.5048,2855.4560108156948
1332.3796,2807.450172590303
1334.2537,2855.7352431130894
1336.127,2775.8126179631254
1337.9996,2712.33366416215
1339.8714,2690.999720973792
1341.7426,2639.3621005383575
1343.6129,2688.6220880861692
1345.4826,2585.030942453952
1347.3515,2652.089895592213
1349.2196,2597.1001536011645
1351.087,2659.612896060142
1352.9537,2717.379276577478
1354.8197,2869.1004221653748
1356.6849,3069.527432662253
1358.5493,3149.9113792155476
1360.4131,3224.0033022774187
1362.276,3098.054210800932
1364.1383,2911.6150814991306
1365.9998,2664.5368601045193
1367.8606,2431.7704632334826
1369.7206,2213.816780857029
1371.5799,2083.9266786285007
1373.4384,1990.0510000630748
1375.2962,1866.090567836669
1377.1533,1590.1961847247076
1379.0096,1297.1186348417177
1380.8652,1036.5086864002697
1382.7201,842.3670946417733
1384.5742,587.144604442572
1386.4275,436.49195225532094
1388.2802,356.8598686612604
1390.132,236.99907987670667
1391.9832,218.81030854939672
1393.8336,148.2442749570837
1395.6832,104.65169718944162
1397.5322,40.88329185369366
1399.3803,63.4897745105809
1401.2278,-0.628139687993098
1403.0745,11.080263774987543
1404.9204,-52.83429430836986
1406.7656,-5.3710932567337295
1408.6101,40.421115425815515
1410.4538,15.493633892423532
1412.2968,29.447763892017974
1414.139,89.53480701860826
1415.9805,176.60606457172617
1417.8213,240.41283695557286
1419.6613,359.6064228082905
1421.5006,575.0881183639067
1423.3391,858.5592162603716
1425.1769,1187.3710033847747
1427.0139,1748.9747580386284
1428.8502,2415.1717466497576
1430.6858,3037.6632181562345
1432.5206,3458.100397344442
1434.3547,3762.2844786241294
1436.188,3805.316621824062
1438.0206,3797.397949150156
1439.8524,3608.8795447551784
1441.6835,3563.9624548179163
1443.5139,3509.8476894283704
1445.3435,3435.036223036932
1447.1724,3375.1789949955455
1449.0005,3368.0769103057937
1450.8279,3254.5308402174924
1452.6545,3293.241622299687
1454.4804,3388.410061576131
1456.3056,3377.6369301381565
1458.13,3298.82296619302
1459.9536,3180.768874171601
1461.7766,2809.3253255165764
1463.5987,2399.092959862908
1465.4202,1980.4723887523323
1467.2409,1631.6141997356644
1469.0608,1446.0689605590123
1470.88,1203.0872226523352
1472.6984,1018.8695229849291
1474.5161,780.0163864952156
1476.3331,633.1283279329145
1478.1493,532.3058542476138
1479.9648,509.44946605760924
1481.7795,436.5596586581669
1483.5935,431.63692225004706
1485.4067,353.43174266843926
1487.2192,359.7946014321569
1489.031,362.77597652572877
1490.842,378.82634233572753
1492.6522,358.9461696209837
1494.4618,341.38592535205316
1496.2705,392.54607291002685
1498.0785,354.1770722621586
1499.8858,346.1793794502373
1501.6924,356.80344697429246
1503.4981,359.7497238725882
1505.3032,376.3686556153589
1507.1075,380.1606840753375
1508.911,362.77624736159487
1510.7138,355.66577978158966
1512.5159,327.52971201504624
1514.3172,304.9684711850132
1516.1178,253.33248113927039
1517.9176,310.47216267590557
1519.7166,260.73793405968536
1521.515,249.8302104506838
1523.3126,262.1994044015846
1525.1094,264.2959259667841
1526.9055,227.2701825787044
1528.7008,180.52257902681959
1530.4954,124.00351782788857
1532.2893,170.3133996934739
1534.0824,118.10262409509596
1535.8747,201.32158880115094
1537.6663,162.5706903990431
1539.4572,149.40032346295993
1541.2473,178.56088094138977
1543.0367,180.80275428884852
1544.8253,131.32633317423097
1546.6132,193.63200545841755
1548.4003,165.67015768903002
1550.1867,204.19117447738245
1551.9723,225.09543877807664
1553.7572,303.6833315038202
1555.5414,301.5552313163789
1557.3247,299.76151384068726
1559.1074,376.85255168614094
1560.8893,428.12871446452846
1562.6705,511.84036801913317
1564.4509,575.6878739119493
1566.2305,632.1715885865669
1568.0094,815.6918627296982
1569.7876,878.4990407063597
1571.565,1007.8934587246476
1573.3417,1104.0254442076985
1575.1176,1093.145314499714
1576.8928,1071.4533759046608
1578.6672,1020.2999237950426
1580.4409,929.3352428288308
1582.2138,817.159607461017
1583.986,689.023282853228
1585.7575,617.1765259955027
1587.5282,542.9695869876632
1589.2981,509.4527097577702
1591.0673,442.72613280418955
1592.8358,455.44008953080265
1594.6035,444.29480891420826
1596.3704,467.5905153766507
1598.1366,447.52742889742876
1599.9021,517.1057647799298
1601.6668,508.92573385227297
1603.4308,603.2375417715339
1605.194,671.2413891055439
1606.9564,731.4874703897549
1608.7182,893.6259734472187
1610.4791,1034.8570787861172
1612.2394,1137.7809579783807
1613.9988,1350.5977722473708
1615.7576,1558.2576714386632
1617.5156,1853.0607918918522
1619.2728,2163.357254363973
1621.0293,2362.0971610814504
1622.785,2439.4305926371653
1624.54,2344.6076060030246
1626.2942,2245.478233756634
1628.0477,1937.7424850295356
1629.8005,1740.9003464984999
1631.5525,1517.5017854628677
1633.3037,1294.7967518129935
1635.0542,1185.7351802642224
1636.804,1041.966992583939
1638.553,949.0920986821857
1640.3013,903.7603980493477
1642.0488,854.1217806848836
1643.7955,846.5761275506629
1645.5416,878.5233110673344
1647.2868,924.5131951898038
1649.0313,1039.245635087751
1650.7751,1182.0704766857307
1652.5181,1399.537555515859
1654.2604,1621.1466952895498
1656.0019,1967.0477057228472
1657.7427,2360.6903803203477
1659.4828,2675.3744929161694
1661.222,2965.1497937375516
1662.9606,3027.566006257979
1664.6984,2901.1228242994475
1666.4354,2611.469911408307
1668.1717,2194.4569021196767
1669.9072,1743.533404853979
1671.642,1411.5990060870845
1673.3761,1132.2532748595258
1675.1094,904.945766095856
1676.8419,752.6760233981058
1678.5737,590.9935813188386
1680.3048,502.4979668838714
1682.0351,443.38870120909087
1683.7646,370.3653003854106
1685.4934,343.22727606987064
1687.2215,272.2241362158584
1688.9488,250.5553853445017
1690.6754,223.12052525469335
1692.4012,243.4690552397824
1694.1263,216.60047236191895
1695.8506,199.16427124856818
1697.5742,188.7599443612071
1699.297,171.4869821696684
1701.0191,117.89487325618575
1702.7404,105.63310448812445
1704.461,66.65116155391297
1706.1808,32.54852908565226
1707.8999,76.27469104892589
1709.6182,60.529131083854736
1711.3358,66.01133206782106
1713.0527,42.97077627292674
1714.7688,28.756945311159143
1716.4841,5.519320364821397
1718.1987,56.307382328639505
1719.9126,53.820612042158245
1721.6257,23.758489781854223
1723.338,48.720495286002915
1725.0496,-28.44389194469477
1726.7605,-6.485192896740045
1728.4706,-21.10364440215926
1730.18,-23.049418505901485
1731.8886,-17.572476427531
1733.5964,-16.272549122917553
1735.3036,-4.599191998902825
1737.0099,15.44820210043872
1738.7156,-2.7797137230500084
1740.4204,-15.18228652200014
1742.1246,4.491164420294808
1743.8279,27.84147149157252
1745.5306,29.519467034655463
1747.2325,17.725983113961775
1748.9336,2.2618514987134404
1750.634,2.5779037808952125
1752.3336,25.724971529869435
1754.0325,49.70388628922228
1755.7307,55.915479345290805
1757.4281,88.51058148738412
1759.1247,94.64002294565762
1760.8206,84.4046330651745
1762.5158,63.905240244595916
1764.2102,88.8426720385396
1765.9039,84.9177553625832
1767.5968,107.63131624388006
1769.289,100.7341798604084
1770.9804,116.87717031384818
1772.6711,117.9111106985365
1774.361,132.23682294004902
1776.0502,118.35512778486736
1777.7386,151.46684465709222
1779.4263,134.17279179729485
1781.1132,128.3237859313831
1782.7994,153.62064244355497
1784.4849,134.46417543477583
1786.1696,142.15519746980317
1787.8535,141.1445197687426
1789.5367,164.38295213017773
1791.2192,203.5213029412298
1792.9009,144.9603789452085
1794.5818,170.65098485021372
1796.2621,204.5939239147392
1797.9415,205.23999769076727
1799.6202,188.44000568434603
1801.2982,192.39474534913097
1802.9755,193.0050122543762
1804.6519,225.82160004538673
1806.3277,190.49530043743653
1808.0027,189.0269028875773
1809.6769,214.5171949479227
1811.3504,212.21696228031578
1813.0231,229.17698840143385
1814.6951,232.44805470579377
1816.3664,240.48094029613276
1818.0369,272.82642195072185
1819.7067,264.9352740430295
1821.3757,241.3582682182605
1823.044,275.6461734722725
1824.7115,288.8997563873454
1826.3783,282.1697807892997
1828.0443,259.8070076149688
1829.7096,261.46219497948914
1831.3741,303.28609839992714
1833.0379,332.6294707787365
1834.701,291.74306198550585
1836.3633,293.42761856354446
1838.0248,321.583884138734
1839.6856,330.5625994026923
1841.3457,339.26450183120505
1843.005,354.2903255944384
1844.6636,350.190801469922
1846.3214,369.01665669227805
1847.9785,366.0686149942303
1849.6349,376.6473964183442
1851.2904,399.4037173464967
1852.9453,363.83829039410375
1854.5994,395.9518241825499
1856.2528,420.09502369483744
1857.9054,407.41858995446273
1859.5572,449.97321978397486
1861.2083,430.3096059317468
1862.8587,464.1284366464206
1864.5084,474.33039587355415
1866.1572,453.8661629174294
1867.8054,439.5364123390282
1869.4528,452.39181416068095
1871.0994,451.3330340093544
1872.7453,453.2107329881019
1874.3905,448.925567686656
1876.0349,457.0281901626331
1877.6786,475.26924798439904
1879.3215,476.5993841500367
1880.9637,480.9192369049415
1882.6051,512.9794397285186
1884.2458,517.4306212909923
1885.8858,500.7234051327832
1887.525,499.65840962002585
1889.1634,486.8362481116201
1890.8011,503.30752896989543
1892.4381,486.82285568882435
1894.0743,512.4328267293022
1895.7098,528.5380356840087
1897.3446,522.5390710212923
1898.9786,523.2365159241272
1900.6118,525.3809483500991
1902.2443,504.57294102442756
1903.8761,515.0630614185357
1905.5071,466.7018719581192
1907.1374,467.589929918242
1908.7669,489.27778790695993
1910.3957,498.2659938564284
1912.0237,470.55509080604315
1913.651,475.0456168125347
1915.2776,494.78810522709136
1916.9034,471.13308465044975
1918.5285,475.53107873547197
1920.1528,433.03260642369787
1921.7764,465.338181901363
1923.3992,442.64831502437846
1925.0213,412.3635109952793
1926.6427,384.6842705901272
1928.2633,377.16109046134443
1929.8832,428.84446341451803
1931.5023,398.5848784836362
1933.1207,416.882820414241
1934.7383,414.6887699660292
1936.3552,406.20320372987044
1937.9714,385.7765941497528
1939.5868,370.2094096076253
1941.2015,355.90211462767365
1942.8154,359.60517003199675
1944.4286,330.2690330836722
1946.041,301.49415744972794
1947.6528,320.48099349450786
1949.2637,333.2799885674158
1950.8739,309.79158681305125
1952.4834,328.2162290432134
1954.0921,335.75435297179683
1955.7001,300.0563930305352
1957.3074,310.62278029362005
1958.9139,290.7039428346752
1960.5197,295.90030562110405
1962.1247,279.5122907132718
1963.729,278.4903172125387
1965.3325,255.88480142515436
1966.9353,264.3461568724588
1968.5374,251.82479451695508
1970.1387,255.3211226776857
1971.7393,253.18554715544724
1973.3392,267.3684711978258
1974.9383,230.620295520559
1976.5366,187.04141816569972
1978.1342,247.43223486910574
1979.7311,253.59313949622265
1981.3273,243.37452343817404
1982.9227,239.2267755501507
1984.5173,237.0002822536053
1986.1112,228.69542757771978
1987.7044,224.91259318167886
1989.2968,207.10215843771493
1990.8885,229.1645004689408
1992.4795,222.19999432744407
1994.0697,214.6590127736681
1995.6592,218.24192634606152
1997.2479,214.89910343648262
1998.8359,204.03091025437698
2000.4232,210.7877108602015
2002.0097,212.16986727410494
2003.5955,181.47773940836578
2005.1805,209.31168505356345
2006.7648,222.97206018550787
2008.3484,193.65921868689657
2009.9312,226.17351221071203
2011.5133,198.2152904733539
2013.0946,208.13490092948905
2014.6752,204.43268905163586
2016.2551,225.50899823096097
2017.8342,192.46416981430684
2019.4126,180.79854289343257
2020.9902,196.21245463545893
2022.5672,171.65624039952218
2024.1433,184.78023358263636
2025.7188,196.23476586525794
2027.2935,183.87016708004467
2028.8674,162.43676509731358
2030.4406,162.7848859486803
2032.0131,156.8148540414013
2033.5849,180.1769921548912
2035.1559,164.72162150041186
2036.7261,188.44906148746122
2038.2957,176.55962987832754
2039.8645,186.65364255081386
2041.4325,217.43141361712696
2042.9998,198.09325532294315
2044.5664,171.88947773962445
2046.1323,179.97038895760215
2047.6974,170.13629534841675
2049.2617,187.18750148391064
2050.8254,188.62431023456247
2052.3883,204.39702259898604
2053.9504,200.15593768955296
2055.5118,213.1513525746641
2057.0725,194.6835623211673
2058.6325,173.00285986440213
2060.1917,187.4095361928721
2061.7502,189.15388056505526
2063.3079,174.436180365341
2064.8649,180.50672108657545
2066.4212,157.16578647724964
2067.9767,189.61365848078913
2069.5315,185.80061746896718
2071.0856,159.52694191742012
2072.6389,142.8929084437823
2074.1915,129.1987920704196
2075.7433,120.49486639077259
2077.2945,136.43140370629408
2078.8448,124.6586751134937
2080.3945,129.52695034457065
2081.9434,135.08649788513867
2083.4916,152.18758492553934
2085.039,129.58047730525504
2086.5857,147.01543934188976
2088.1317,134.89273405723998
2089.677,121.36262300295584
2091.2215,126.37536638175789
2092.7652,123.83122318274673
2094.3083,133.4804511312741
2095.8506,140.72330671438067
2097.3921,163.61004508430779
2098.933,150.39091998606182
2100.4731,141.0661835285582
2102.0124,152.18608631679672
2103.5511,159.00087754511787
2105.089,168.41080488600437
2106.6261,187.26611442193462
2108.1626,161.61705055128368
2109.6983,152.71385579976777
2111.2332,167.10677107693118
2112.7675,154.74603576518166
2114.301,164.53188757586668
2115.8337,171.61456267287667
2117.3657,205.29429557478852
2118.897,181.4713190840357
2120.4276,175.7958639501121
2121.9575,169.86815910779933
2123.4866,180.08843173392233
2125.0149,179.25690730662973
2126.5426,156.82380950319111
2128.0695,147.88936020830533
2129.5956,164.35377973843788
2131.1211,176.3672869311631
2132.6458,166.23009898051987
2134.1698,166.39243131687635
2135.693,181.7044977083051
2137.2155,171.71651025895335
2138.7373,184.82867925593018
2140.2584,181.19121326917866
2141.7787,163.15431902035652
2143.2983,169.6182014192127
2144.8171,167.9830637439536
2146.3353,189.1991075766
2147.8527,158.16653281935032
2149.3693,162.08553748240956
2150.8853,149.0563179943274
2152.4005,154.17906916279844
2153.9149,180.9039843049577
2155.4287,140.5312551961515
2156.9417,192.961071802687
2158.454,194.89362268556215
2159.9655,155.97909447616348
2161.4764,179.91767185694061
2162.9865,161.35953795056048
2164.4958,148.2548740805123
2166.0045,160.7538599566924
2167.5124,180.30667380645173
2169.0195,171.06349224960195
2170.526,181.0244901028891
2172.0317,187.73984047243266
2173.5367,170.45971465410366
2175.0409,177.68428206638328
2176.5445,183.71371042315513
2178.0473,174.64816566146328
2179.5494,150.2378118812203
2181.0507,149.8328114358601
2182.5513,166.2333251764412
2184.0512,170.63951245569842
2185.5504,161.90153096403446
2187.0488,148.31953668546066
2188.5465,146.8936839849748
2190.0435,151.62412574437803
2191.5397,151.11101337654327
2193.0353,146.70449677810302
2194.5301,152.50472433458162
2196.0241,151.01184296446445
2197.5175,134.37599806119215
2199.0101,122.69733350809202
2200.502,142.12599184472856
2201.9931,121.26211438370046
2203.4835,101.90584101634522
2204.9733,93.15731042138395
2206.4622,154.7166602584839
2207.9505,117.73402725573942
2209.438,93.5595465940778
2210.9248,100.24335227708707
2212.4109,111.63557737275823
2213.8962,107.88635394665016
2215.3809,113.84581294797135
2216.8648,97.56408424706842
2218.3479,109.39129657583089
2219.8304,106.42757769051332
2221.3121,96.57305425345385
2222.7931,100.27785186272195
2224.2733,78.29209515066123
2225.7529,93.51590774683336
2227.2317,78.09941249788062
2228.7098,92.49273131528935
2230.1872,77.59598532955079
2231.6638,108.6092947462339
2233.1397,79.18277899495206
2234.6149,92.46655641922462
2236.0894,93.3107445707401
2237.5632,87.21546007652796
2239.0362,75.23081863051084
2240.5085,83.80693505445834
2241.9801,74.1939234178326
2243.4509,81.54189695203058
2244.921,55.500968146512605
2246.3904,65.42124867531857
2247.8591,59.75284965748142
2249.3271,75.3958815578253
2250.7943,62.65045424364871
2252.2608,58.41667682829484
2253.7266,40.694657798607295
2255.1917,70.2345050572585
2256.656,80.38632609997967
2258.1197,62.050227720160365
2259.5826,55.87631590732599
2261.0447,44.51469603050555
2262.5062,35.91547289996197
2263.9669,70.2787508808151
2265.4269,77.55463397903077
2266.8862,71.1432254977899
2268.3448,77.3946279647289
2269.8026,77.5589431960525
2271.2598,79.68627223401927
2272.7162,78.97671534530309
2274.1719,82.23037199972168
2275.6268,58.49734087732304
2277.0811,68.77771983585535
2278.5346,82.62160614809545
2279.9874,111.37909639904228
2281.4395,111.90028634747978
2282.8908,82.58527063840029
2284.3414,93.23414279779718
2285.7914,89.94699552581551
2287.2406,76.07392059026006
2288.689,94.6650088594688
2290.1368,77.77035044104468
2291.5838,81.84003449594047
2293.0302,79.22414940740737
2294.4758,75.47278274030077
2295.9206,94.88602126723572
2297.3648,80.01395100609943
2298.8082,74.1066570259236
2300.251,84.96422359560438
2301.693,88.48673424297203
2303.1343,94.0742716462214
2304.5748,75.62691759868221
2306.0147,74.59475295294396
2307.4538,76.47785780533013
2308.8922,92.37631150621974
2310.3299,93.29019264121325
2311.7669,90.91957887214903
2313.2031,96.51454692796688
2314.6387,77.62517262840947
2316.0735,79.30153082807647
2317.5076,69.19369560531732
2318.941,61.05174024546568
2320.3737,82.22573734191928
2321.8056,66.51575887755916
2323.2369,72.52187601301102
2324.6674,76.59415924374025
2326.0972,62.03267833999735
2327.5263,83.33750230609667
2328.9547,63.70869952602516
2330.3823,80.89633755039767
2331.8092,80.4504832927455
2333.2355,71.47120285763503
2334.661,78.45856154513012
2336.0858,80.56262394058331
2337.5098,83.13345384476452
2338.9332,96.92111425281655
2340.3558,87.57566732854912
2341.7778,105.9471742665637
2343.199,90.73569538570428
2344.6195,80.64128994534713
2346.0393,90.41401629751272
2347.4583,81.55393198780894
2348.8767,92.2110936577019
2350.2943,90.73555713312226
2351.7113,114.47737731789084
2353.1275,96.48660820847772
2354.543,89.86330265658353
2355.9578,110.40751254904853
2357.3718,82.21928887408058
2358.7852,85.09868151581577
2360.1978,90.24573953620211
2361.6098,95.76051114619804
2363.021,75.19304365430344
2364.4315,101.09338341141301
2365.8413,87.21157601649065
2367.2504,94.34766605756931
2368.6587,75.5516972505684
2370.0664,73.67371236792815
2371.4733,81.91375342657602
2372.8795,67.32186170670275
2374.285,55.0480776693621
2375.6899,62.492441102390785
2377.0939,52.45499124314847
2378.4973,61.98576670406965
2379.9,67.38480557304183
2381.3019,51.352145318092425
2382.7032,70.83782273340466
2384.1037,62.14187409964006
2385.5035,54.314334989087
2386.9027,50.50524035260469
2388.3011,46.864624597916645
2389.6987,52.8425216276969
2391.0957,43.28896487597649
2392.492,45.5539872483555
2393.8876,36.787621217554715
2395.2824,41.83989880075569
2396.6765,29.46085164727174
2398.07,34.15051098801496
2399.4627,46.25890775930111
2400.8547,36.08607255594143
2402.246,40.23203551015877
2403.6366,33.39682639331613
2405.0265,32.580474574455366
2406.4156,29.933009088658764
2407.8041,39.204458645202976
2409.1918,27.444851654036484
2410.5789,22.554216133069076
2411.9652,14.232579825763423
2413.3508,20.52997025004015
2414.7358,20.096414781494786
2416.12,32.93194059042344
2417.5035,10.336574646159534
2418.8863,20.11034358871757
2420.2684,22.703273954748056
2421.6497,-0.23460792020159715
2423.0304,8.546724072383768
2424.4104,13.747298384752867
2425.7896,7.117143383688472
2427.1682,5.156287298499592
2428.546,9.614758287328641
2429.9232,11.142584456753866
2431.2996,14.589793817209284
2432.6753,16.606414267703713
2434.0503,23.292473561348743
2435.4246,18.347999285193964
2436.7982,11.023018793365281
2438.1711,17.417559256511595
2439.5433,14.931647735050774
2440.9148,22.96531111522927
2442.2856,27.218576133975148
2443.6557,9.341469298566153
2445.025,15.234016844093276
2446.3937,16.146244912236853
2447.7617,23.77817949233804
2449.1289,26.679846412276675
2450.4955,31.251271262152386
2451.8613,37.94247936526881
2453.2265,39.753495732415104
2454.5909,19.434344994958337
2455.9546,19.885051386730538
2457.3177,20.755638947221087
2458.68,33.74613151707035
2460.0416,46.80655272936474
2461.4025,51.886925879730825
2462.7627,38.287273795732744
2464.1222,50.30761878606654
2465.4811,48.09798277655864
2466.8392,48.95838718996083
2468.1966,45.138852968046194
2469.5533,45.28940056300553
2470.9093,49.26004997564132
2472.2645,50.50082075386217
2473.6191,60.561731952979244
2474.973,51.642802123296406
2476.3262,60.04404920949992
2477.6787,62.265490639848394
2479.0305,44.757143242159145
2480.3816,48.01902322159776
2481.7319,45.60114633575904
2483.0816,39.55352786204821
2484.4306,31.32618262185997
2485.7789,52.46912504105421
2487.1264,50.932369232230485
2488.4733,45.11592878329975
2489.8195,39.869816772848935
2491.165,40.944045828308845
2492.5097,49.338628178411
2493.8538,36.853575642447595
2495.1972,18.588899546326047
2496.5398,26.594610847418153
2497.8818,18.070720317210544
2499.2231,32.01723846124469
2500.5637,32.13417560435528
2501.9035,30.22154175120795
2503.2427,32.17934658512422
2504.5812,68.05759948721516
2505.919,42.35630951679741
2507.256,48.8254850526132
2508.5924,29.365134049840435
2509.9281,33.37526397540341
2511.2631,50.705882002579074
2512.5974,42.256994970890446
2513.9309,44.02860921280262
2515.2638,24.6207306382139
2516.596,36.38336471673438
2517.9275,40.966516671769114
2519.2583,40.820191362887726
2520.5884,35.44439323999586
2521.9178,34.93912634479739
2523.2465,36.054394364553445
2524.5745,33.890200637131784
2525.9018,28.396548139859533
2527.2284,38.87343951116236
2528.5543,53.77087710550177
2529.8796,37.63886288860431
2531.2041,50.477398288490804
2532.5279,48.13648435679124
2533.851,44.61612164036433
2535.1735,50.16631020470322
2536.4952,51.08704966914229
2537.8163,50.32833915135507
2539.1366,48.49017725814565
2540.4562,43.77256209303596
2541.7752,54.275491274646356
2543.0935,58.04896198387132
2544.411,61.642970858853914
2545.7279,63.557513957248375
2547.0441,57.49258672027963
2548.3596,59.54818395359962
2549.6744,70.62429988793247
2550.9885,64.92092815852357
2552.3019,69.53806169437439
2553.6146,73.37569277527746
2554.9266,78.23381298564618
2556.2379,57.762413176138125
2557.5485,79.06148341507424
2558.8585,77.58101319315347
2560.1677,77.07099121046144
2561.4762,79.18140539127398
2562.7841,76.61224288915855
2564.0913,87.41349006586915
2565.3977,80.73513251703821
2566.7035,74.27715496416386
2568.0086,77.88954132139588
2569.313,80.27227476011262
2570.6167,96.67533767279838
2571.9197,88.34871164921424
2573.222,93.94237731237104
2574.5236,94.70631440179204
2575.8246,113.0905017175794
2577.1248,102.69491711277283
2578.4244,114.2695373095089
2579.7232,110.01433800297445
2581.0214,112.52929374566247
2582.3189,123.1643779899232
2583.6157,127.2195630628164
2584.9118,132.5948200597602
2586.2072,111.09011880397793
2587.5019,130.10542779274647
2588.7959,133.19071441244319
2590.0893,143.59594474839287
2591.3819,132.87108355401438
2592.6739,143.16609414676668
2593.9652,134.48093851539875
2595.2557,148.56557721699778
2596.5456,145.5699694638438
2597.8348,149.14407298256037
2599.1234,154.73784404407502
2600.4112,134.15123742787478
2601.6983,136.68420636606947
2602.9848,151.93670274925648
2604.2705,152.35867710119192
2605.5556,154.7500784262652
2606.84,148.21085420528016
2608.1237,153.89095037153925
2609.4067,156.1403113762383
2610.689,150.0088801316656
2611.9707,145.34659798870666
2613.2516,147.10340479816
2614.5319,147.87923895735844
2615.8115,128.02403739260103
2617.0903,129.53773555139537
2618.3685,140.07026760100916
2619.6461,146.87156641333422
2620.9229,142.4415634595614
2622.199,136.08018874216532
2623.4745,150.33737083920573
2624.7493,151.26303696794162
2626.0234,155.10711284225863
2627.2968,136.56952266341318
2628.5695,143.3501890815901
2629.8415,146.09903338128083
2631.1128,140.66597541347392
2632.3835,137.40093356816965
2633.6535,139.9038248287086
2634.9228,143.5245648044238
2636.1914,132.2630677056111
2637.4593,145.069246307321
2638.7265,149.14301206197388
2639.9931,140.03427497129837
2641.259,134.24294354559515
2642.5242,132.3189248948222
2643.7887,140.66212478651028
2645.0525,144.57244766500207
2646.3156,130.3497965680208
2647.5781,124.14407308756495
2648.8398,144.25517751213556
2650.1009,126.38300888879348
2651.3613,129.52746482204816
2652.6211,133.33844165258006
2653.8801,135.36583442579786
2655.1385,130.30953685372606
2656.3961,131.669441294732
2657.6531,138.54543880408892
2658.9094,134.88741912037676
2660.1651,139.34527059672132
2661.42,142.71888023737506
2662.6743,142.40813365313807
2663.9279,152.6629150276226
2665.1808,148.53310712036068
2666.433,149.0685911642547
2667.6846,149.81924690687833
2668.9354,162.28495260511863
2670.1856,159.21558501767163
2671.4351,165.56101928038242
2672.6839,154.52112893694243
2673.9321,166.4957858754335
2675.1795,173.88486043872535
2676.4263,177.03822130473145
2677.6724,165.55573541251715
2678.9179,173.13726793076626
2680.1626,169.18268237260736
2681.4067,179.6918405197971
2682.6501,179.06460246226652
2683.8928,177.95082649302867
2685.1348,163.7003691144505
2686.3761,174.16308504939138
2687.6168,173.3888273837083
2688.8568,160.67744746162793
2690.0961,156.1787948934898
2691.3348,157.19271768286058
2692.5727,147.01906227152085
2693.81,151.4576735293249
2695.0466,152.05839485593765
2696.2826,149.32106813644782
2697.5178,150.99553373536105
2698.7524,150.23163052397172
2699.9863,155.7791958636201
2701.2195,167.38806561333013
2702.452,164.45807407433517
2703.6839,162.5390538739889
2704.9151,163.53083599506385
2706.1456,163.33324979494364
2707.3755,162.1961229957053
2708.6046,182.46928168609315
2709.8331,193.35255033289172
2711.0609,194.3957515781924
2712.2881,196.29870613056073
2713.5145,214.91123275460563
2714.7403,220.83314825194952
2715.9654,227.26426727510284
2717.1899,232.05440226824544
2718.4136,246.80336340291478
2719.6367,250.71095853010502
2720.8591,267.97699303277636
2722.0809,271.3012697867821
2723.3019,291.6835889882052
2724.5223,287.2237481201164
2725.7421,297.57154174875086
2726.9611,298.1767615681076
2728.1795,286.6891962964696
2729.3972,288.7086316703535
2730.6142,266.584850559384
2731.8306,252.51763294610032
2733.0462,242.8567561471923
2734.2612,229.30199495417514
2735.4756,207.70312172999616
2736.6892,172.55990654458242
2737.9022,166.37211739083205
2739.1145,153.5895205360432
2740.3262,146.51188058379353
2741.5372,141.88896060176694
2742.7475,120.7205221925276
2743.9571,104.6563255397516
2745.1661,93.69612961991061
2746.3744,94.58969236291387
2747.582,71.63677076170939
2748.7889,68.18712086334835
2749.9952,53.04049799851464
2751.2008,51.94665681602237
2752.4057,59.05535143428051
2753.61,43.316335452233716
2754.8136,36.42936187827286
2756.0165,42.34418328762763
2757.2188,39.910551891233126
2758.4204,52.278219476584354
2759.6213,44.546937432072355
2760.8215,33.86645662330784
2762.0211,28.33652747043243
2763.22,24.006900054924472
2764.4182,29.527324174898013
2765.6158,23.897549388398147
2766.8127,17.617324958197514
2768.009,17.68639990809379
2769.2045,13.004523085710844
2770.3994,7.921443161809293
2771.5936,-0.3630913228935242
2772.7872,4.3006680931061965
2773.9801,-12.887526501407137
2775.1723,-16.327923060655166
2776.3639,-21.120640792474205
2777.5548,-16.565635788748295
2778.745,-16.862653146159346
2779.9346,-16.46127247068989
2781.1235,-11.310904910416866
2782.3117,-15.460797165306076
2783.4992,-11.960082939383938
2784.6861,-11.407741483313885
2785.8723,-7.6026325665320655
2787.0579,-7.043501995138058
2788.2428,11.620980375066893
2789.427,11.64221505286514
2790.6106,21.87160243083008
2791.7935,14.610542785112557
2792.9757,29.360436173148173
2794.1573,48.072682506268166
2795.3382,50.398681402198235
2796.5184,70.18983199793934
2797.698,81.74753292650598
2798.8769,87.97318211901415
2800.0551,111.76817668910417
2801.2327,120.83391287068503
2802.4096,135.42178577998334
2803.5859,158.6331893248871
2804.7615,183.66951605906752
2805.9364,197.88215694986297
2807.1106,222.8225011279187
2808.2842,254.69193574505766
2809.4572,285.09184572487925
2810.6294,315.2236134440643
2811.801,349.03861842837455
2812.972,398.038237051338
2814.1423,432.5238421960962
2815.3119,474.9968027654097
2816.4808,536.7584833368003
2817.6491,570.2602437378227
2818.8167,617.6034384284483
2819.9837,664.4894161660459
2821.15,714.9695195319512
2822.3157,752.8450844626072
2823.4807,800.217439744762
2824.645,844.4879066367125
2825.8086,889.3077983945807
2826.9716,907.878419829611
2828.134,963.0010668599712
2829.2957,987.2270263250446
2830.4567,1022.257575434204
2831.617,1024.243981524555
2832.7767,1038.1375017106259
2833.9358,1026.9893828645068
2835.0941,1028.8008614769146
2836.2519,1016.6231637686731
2837.4089,1003.1075056725972
2838.5653,990.8050929552733
2839.7211,998.3671213522116
2840.8761,986.794776690873
2842.0306,1013.7392348150468
2843.1843,1056.5516617005753
2844.3374,1107.5332131859086
2845.4899,1165.5850345439815
2846.6417,1250.358259972398
2847.7928,1334.5540120129108
2848.9433,1403.9234007036926
2850.0931,1488.117522737375
2851.2422,1562.5874607673586
2852.3907,1628.934282565866
2853.5385,1703.659040279247
2854.6857,1752.4627697645087
2855.8323,1804.0964898420693
2856.9781,1834.7612018077182
2858.1233,1888.6578889162822
2859.2679,1949.8375160749777
2860.4118,1987.5010293044418
2861.555,2025.749355126938
2862.6976,2045.0334001897202
2863.8395,2065.60405088255
2864.9808,2100.462173144855
2866.1214,2121.6086122600254
2867.2614,2130.044192506826
2868.4007,2123.419716947939
2869.5393,2156.7359673456044
2870.6773,2159.693704227868
2871.8146,2187.7936665554143
2872.9513,2171.236571691994
2874.0874,2142.6231151234197
2875.2227,2146.8039706231384
2876.3574,2129.9797905383675
2877.4915,2122.4012057482837
2878.6249,2071.318825832268
2879.7577,2073.883239145688
2880.8898,2040.4950133307277
2882.0212,2023.5046952907346
2883.152,2016.8128115241107
2884.2821,1996.9198682942094
2885.4116,2000.3763516962583
2886.5405,2003.382727856285
2887.6686,1994.539442896556
2888.7962,2015.2969229055104
2889.923,2000.2555740261942
2891.0493,2016.0157822486842
2892.1748,2041.277913560503
2893.2997,2041.2923137890157
2894.424,2056.009308348808
2895.5476,2065.6292022415455
2896.6706,2120.6022799087987
2897.7929,2134.7288051358496
2898.9145,2163.8590205019573
2900.0355,2175.643147239095
2901.1559,2219.831384940644
2902.2756,2261.1239114435566
2903.3946,2296.07088238647
2904.513,2317.622430796785
2905.6308,2325.4786667411927
2906.7479,2349.889677110161
2907.8643,2382.7055255393707
2908.9801,2399.1762521656083
2910.0953,2402.5518732986047
2911.2098,2409.2823812563274
2912.3236,2416.6677443312274
2913.4368,2400.2579067229317
2914.5494,2360.902788464393
2915.6613,2351.002285585982
2916.7725,2317.7062705090457
2917.8831,2279.114592144907
2918.9931,2251.9770762278285
2920.1024,2231.6435257009243
2921.211,2219.1137209875396
2922.319,2190.9374201945857
2923.4264,2189.914359237835
2924.5331,2180.2942521236896
2925.6391,2163.126790959406
2926.7445,2154.3116460493
2927.8493,2134.598466066418
2928.9534,2139.536878140692
2930.0569,2129.4264880560695
2931.1597,2110.46688020113
2932.2619,2117.9076176701883
2933.3634,2117.998242452891
2934.4643,2101.688275359809
2935.5645,2080.02721602153
2936.6641,2045.0645430517616
2937.763,2003.8997142639384
2938.8613,1962.9321670208506
2939.959,1895.3113186462908
2941.056,1832.2365668347306
2942.1523,1745.7572903275293
2943.248,1651.5228495436804
2944.3431,1554.1825874446063
2945.4375,1448.935830476501
2946.5313,1360.7318895437334
2947.6244,1253.370061061314
2948.7169,1149.8496278369355
2949.8087,1062.3698601445906
2950.8999,965.7300167597766
2951.9904,902.729345834292
2953.0803,838.7170858626362
2954.1696,765.8424663120155
2955.2582,720.7547082624668
2956.3462,674.0030251356017
2957.4335,639.1866231454856
2958.5202,613.0047017661547
2959.6062,586.4564540797793
2960.6916,564.9910670384838
2961.7764,541.6077217298279
2962.8605,533.9555935914606
2963.9439,521.5338526449549
2965.0267,515.7916635723279
2966.1089,515.0781858402597
2967.1905,516.0425737575139
2968.2714,518.6839764820721
2969.3516,524.9015380114924
2970.4312,521.4443971564928
2971.5102,519.6116874787767
2972.5885,530.0525373256038
2973.6662,534.4660698481175
2974.7432,542.5014028969375
2975.8196,529.4576489780226
2976.8954,513.983915172318
2977.9705,517.2793032661941
2979.045,509.99290990618204
2980.1188,492.0738265660211
2981.192,477.77113961952125
2982.2645,457.98393051975506
2983.3364,436.56127594208385
2984.4077,397.60224798203
2985.4783,387.4559143695044
2986.5483,355.12133885839523
2987.6177,326.29758132803204
2988.6864,292.13369810653285
2989.7545,262.9287422590386
2990.8219,240.83176392935434
2991.8887,198.4418106319979
2992.9548,172.35792747317043
2994.0204,150.72915757465535
2995.0852,125.40454233465778
2996.1495,108.08312164409165
2997.2131,88.56393413982585
2998.276,70.34601737789774
2999.3383,60.828408028706235
3000.4,44.9601420591905
3001.4611,26.740254828006528
3002.5215,22.317781244208845
3003.5812,13.641755949449816
3004.6404,-0.23878663779532872
3005.6989,-4.6748122354686075
3006.7567,-2.417284176033945
3007.8139,-13.867119090581127
3008.8705,-12.07520946153204
3009.9264,-6.84230923878863
3010.9818,-12.069051740911164
3012.0364,-15.906001931791252
3013.0905,-10.05360420549357
3014.1439,-4.5121440551238265
3015.1966,5.4681934617184424
3016.2487,-0.7627316362478496
3017.3002,5.344940615014821
3018.3511,9.391077799232221
3019.4013,8.575547446681298
3020.4509,17.548216993727806
3021.4998,16.2089537909834
3022.5481,23.50762501357758
3023.5958,32.84409767455077
3024.6428,33.86823855186776
3025.6892,47.42991409505237
3026.735,46.37899041494711
3027.7802,55.76533314809569
3028.8247,56.28880746725213
3029.8685,59.99927798751742
3030.9118,70.29660876110461
3031.9544,76.88066324023532
3032.9963,91.20130417416499
3034.0376,102.40839354334389
3035.0783,105.10179241620835
3036.1184,117.2813608371124
3037.1578,121.09695779939113
3038.1966,134.84844112356654
3039.2348,142.38566741919033
3040.2723,137.35849194733078
3041.3092,141.316768545199
3042.3455,141.11034967642195
3043.3811,138.18908639146036
3044.4161,143.30282832967043
3045.4505,139.4514237485182
3046.4842,130.98471947244138
3047.5173,136.35256093136354
3048.5498,127.90479224536182
3049.5816,136.69125617098803
3050.6128,136.5117941857461
3051.6434,128.51624640022783
3052.6734,113.2544515599077
3053.7027,130.7262471250982
3054.7314,114.43146942356691
3055.7594,117.16995347581985
3056.7868,107.19153315804851
3057.8136,105.74604117474519
3058.8398,104.53330915848676
3059.8653,102.25316768439029
3060.8902,107.75544628223952
3061.9145,101.38997345928681
3062.9381,94.50657664523015
3063.9612,102.10508225586784
3064.9835,98.53531576193268
3066.0053,89.69710161310707
3067.0264,87.14026327371994
3068.0469,85.81462331112988
3069.0668,81.67000342129302
3070.086,79.25622444201935
3071.1046,70.87310639441887
3072.1226,72.32046850703966
3073.1399,66.54812929969893
3074.1567,54.55590656900938
3075.1727,50.44361744610245
3076.1882,43.51107851655081
3077.203,45.808105861491185
3078.2173,28.53451512695017
3079.2308,30.390121500873363
3080.2438,18.52473988586121
3081.2561,25.58818488061314
3082.2678,13.430270898581398
3083.2789,8.500812097336166
3084.2893,8.799622500145688
3085.2991,10.02651604526983
3086.3083,8.6313065829724
3087.3169,6.513807863252055
3088.3248,4.823833549794756
3089.3321,2.111197241148659
3090.3388,-1.5242875123759632
3091.3449,-2.7828071815809494
3092.3503,-5.014533009636011
3093.3551,-2.7696084394669924
3094.3593,1.6018731811845441
3095.3629,-3.750153827035092
3096.3658,-3.1257551594983966
3097.3681,-7.424959047541108
3098.3698,-0.39776249620553017
3099.3708,-3.2440883351932257
3100.3713,-0.41385542055854785
3101.3711,1.5430498000864077
3102.3702,-1.7232549864548332
3103.3688,5.187347891190711
3104.3667,-2.8750066802868446
3105.364,5.989816133929708
3106.3607,-2.8180201100260547
3107.3568,-0.14835191591856756
3108.3522,3.599012364508326
3109.347,4.92426586154636
3110.3412,8.97760166949729
3111.3348,4.859212833420429
3112.3277,6.269292308598949
3113.32,6.408033001723936
3114.3117,12.025627756793938
3115.3028,13.672269353727415
3116.2932,7.598150452186644
3117.2831,19.253463575111255
3118.2723,15.43840116945944
3119.2608,14.003155489655
3120.2488,17.697918635737892
3121.2361,23.52288256771675
3122.2229,25.62823906862087
3123.209,18.66417968625109
3124.1944,27.48089571212597
3125.1793,29.178578251122417
3126.1635,26.90741813330868
3127.1471,24.917605896967586
3128.1301,31.759331811308357
3129.1125,29.132785896364055
3130.0942,30.588157854574206
3131.0753,34.87563709705046
3132.0558,32.59541272902291
3133.0357,40.79767350696534
3134.015,37.18260786139763
3134.9936,40.75040381486258
3135.9716,43.45124901807728
3136.949,41.88533071425468
3137.9258,44.00283571209559
3138.902,46.00395040144767
3139.8775,43.93886073213025
3140.8524,48.75775219392324
3141.8267,45.26080983721823
3142.8004,49.7482182248292
3143.7735,52.070161466962105
3144.7459,47.476823176341014
3145.7178,48.718386444988454
3146.689,56.29503389015872
3147.6596,48.2069476419224
3148.6295,57.60430926739966
3149.5989,57.03729985164139
3150.5676,58.75609990365561
3151.5357,60.610889362077415
3152.5032,61.25184757798115
3153.4701,59.429153296332146
3154.4364,61.54298464957745
3155.402,61.093519175872416
3156.367,66.23093379794273
3157.3315,66.7554048275791
3158.2952,63.76710791426291
3159.2584,70.51621803992177
3160.221,62.652909548812204
3161.1829,73.52735608002854
3162.1442,70.98973064613625
3163.105,71.94020552442723
3164.065,68.52895228229625
3165.0245,74.0061417677361
3165.9834,72.62194414345004
3166.9416,79.42652883208004
3167.8993,81.77006453004873
3168.8563,80.45271913951353
3169.8127,78.67465974493123
3170.7684,81.3360526262314
3171.7236,81.63706327659725
3172.6782,82.12785637585137
3173.6321,86.6585957874459
3174.5854,91.82944455355447
3175.5381,90.39056484976483
3176.4902,95.49211793337025
3177.4417,89.68426415775835
3178.3926,89.56716292139562
3179.3428,96.49097272590593
3180.2924,87.25585117724151
3181.2415,97.96195491644482
3182.1899,96.159439712
3183.1377,94.84846035277157
3184.0848,96.42917066602983
3185.0314,98.7017235305605
3185.9773,100.31627086085768
3186.9227,99.12296358439829
3187.8674,103.37195162549662
3188.8115,105.06338391723732
3189.755,110.99740835898564
3190.6979,108.92417179947303
3191.6402,110.84381997745689
3192.5818,113.80649754245286
3193.5229,113.56234803553853
3194.4633,116.36151385972643
3195.4031,114.40413628240573
3196.3423,115.5903554073505
3197.2809,118.57031019429343
3198.2189,115.74413844706375
3199.1563,120.66197678378754
3200.0931,122.67396066514952
3201.0292,122.83022434521473
3201.9648,120.9309008513087
3202.8997,124.42612198245465
3203.834,124.76601832836687
3204.7677,127.45071923449848
3205.7008,127.98035279864246
3206.6333,128.70504584408462
3207.5652,135.27492391430727
3208.4964,132.29011126574233
3209.4271,134.5507308020724
3210.3571,137.55690410407917
3211.2865,136.1587514070369
3212.2154,136.85639157065094
3213.1436,139.14994209303907
3214.0712,141.48951910375524
3214.9982,146.97523734085388
3215.9246,143.90721012749438
3216.8503,148.13554931708364
3217.7755,145.76036532395656
3218.7001,146.18176708109252
3219.624,148.59986206386716
3220.5473,150.0647562858386
3221.4701,150.2765542745662
3222.3922,155.3353590569619
3223.3137,151.34127215717191
3224.2346,155.54439354598912
3225.1549,151.19482168079347
3226.0746,154.2426534635211
3226.9937,159.98798428415984
3227.9121,158.78090799027112
3228.83,166.52151682953638
3229.7473,161.3599014618281
3230.6639,165.74615088180352
3231.5799,162.53035247052085
3232.4954,166.96259195157688
3233.4102,166.64295342326471
3234.3244,169.42151931425167
3235.238,167.29837038677547
3236.151,176.6735857088586
3237.0634,172.54724267553993
3237.9752,178.66941691512238
3238.8864,177.69018233043647
3239.797,176.15961103761862
3240.7069,176.67777337590329
3241.6163,176.74473792292895
3242.5251,177.8105714895563
3243.4332,184.5253391191987
3244.3408,180.68910407716365
3245.2477,184.00192778350538
3246.154,187.86386985138705
3247.0598,189.52498805395254
3247.9649,185.985338285707
3248.8694,189.6949745459057
3249.7733,192.80394897395047
3250.6766,191.31231181229344
3251.5793,190.67011137534718
3252.4814,192.77739406440116
3253.3829,192.9842043740437
3254.2838,198.39058487108923
3255.1841,196.54657619250997
3256.0838,194.2522169913725
3256.9829,200.45754395527737
3257.8814,201.2125918293031
3258.7792,201.91739335395266
3259.6765,203.47197925760327
3260.5731,203.07637824945806
3261.4692,204.83061700400037
3262.3647,203.68472016494962
3263.2595,204.88871032771914
3264.1538,203.04260805087495
3265.0474,205.2964318440959
3265.9404,207.75019818663486
3266.8329,207.25392150478024
3267.7247,207.5076141473184
3268.616,207.86128639049656
3269.5066,205.3149464354857
3270.3966,206.31860040484372
3271.286,200.62225236797929
