RamanShift,CorrectedData
30.1047,6925.7705667635655
32.3739,6476.052258659168
34.6426,6030.983881297062
36.9109,5586.465300659023
39.1787,5143.796322416982
41.4461,4701.226696378213
43.7131,4261.356120912032
45.9796,3813.8342473754806
48.2456,3376.210684512037
50.5112,2930.385002926834
52.7764,2491.906739462897
55.0411,2064.725401659399
57.3054,1628.0904721364457
59.5692,1187.6514128668873
61.8326,755.5076695426686
64.0955,326.9086759792208
66.3579,-91.64614156310199
68.6199,-499.8573600930323
70.8815,-881.7246410743487
73.1426,-1166.8926523958028
75.4032,-1202.7472535169832
77.6634,-581.9626466398831
79.9231,1617.0989814785662
82.1824,7263.081257888274
84.4412,19230.277793468158
86.6995,41008.082126466325
88.9574,53092.83760282811
91.2148,56777.037158418025
93.4717,56913.5231981722
95.7282,56664.53755925641
97.9842,56277.27150970119
100.2398,55780.4157508917
102.4949,55273.06042144039
104.7495,54815.04510215556
107.0036,54255.50882111492
109.2573,53864.34005824572
111.5105,53287.926750920116
113.7632,52834.85629786691
116.0154,52383.165564935596
118.2672,51980.84088962715
120.5185,51517.61808561087
122.7693,51056.83244674767
125.0197,50490.86875172225
127.2696,50226.611268651024
129.519,49739.89376074169
131.7679,49352.29948893588
134.0163,48677.06121677624
136.2642,48323.66121428249
138.5117,47980.88126470368
140.7587,47468.40266805233
143.0052,47007.456244532084
145.2512,46438.97233966259
147.4967,46151.23082888895
149.7417,45662.511123266515
151.9863,45194.79217233836
154.2304,44681.05246902245
156.4739,44288.02005428882
158.717,43941.422522297
160.9596,43424.53702432632
163.2017,42867.340272241876
165.4433,42545.2585436634
167.6844,41999.767687537256
169.925,41660.9931273572
172.1651,41135.00986661931
174.4047,40719.94249220977
176.6439,40263.41517966463
178.8825,39762.50169732055
181.1206,39507.57541088002
183.3582,39041.00928842052
185.5954,38537.37590294378
187.832,38134.74743704144
190.0681,37606.74568793144
192.3037,37378.29207148422
194.5388,37095.60762750278
196.7734,36281.86302200725
199.0075,36282.42855006167
201.2411,35759.324143911464
203.4742,35524.8693729778
205.7068,35094.7834490886
207.9389,34695.58522882314
210.1704,34294.34321781284
212.4015,34011.87557473331
214.632,33484.35011531673
216.862,33251.034315176534
219.0915,32803.445315082674
221.3205,32419.79992329479
223.549,32144.714620038045
225.777,31770.555561339603
228.0044,31446.838581779513
230.2314,31054.27919823228
232.4578,30689.892613104057
234.6837,30337.393718258172
236.909,30153.697098659097
239.1339,29492.21703589736
241.3582,29238.717510026574
243.582,28845.362206178157
245.8053,28504.464517096392
248.0281,28145.337547071933
250.2503,27794.744115350768
252.472,27346.19675972552
254.6932,27047.85774004143
256.9139,26664.389042681774
259.134,26503.102383551246
261.3536,25940.759211910678
263.5727,25713.72071198989
265.7912,25329.097808611128
268.0092,25011.251169459458
270.2267,24711.94120892897
272.4436,24295.27809130127
274.6601,24024.671733738527
276.8759,23730.981810450197
279.0913,23331.467755398975
281.3061,23013.688765237806
283.5204,22691.403803304944
285.7341,22360.771602801797
287.9473,22124.900670015726
290.16,21751.099287626428
292.3721,21493.22551706458
294.5837,21122.9372022499
296.7947,20784.891972169884
299.0052,20606.847244582706
301.2152,20236.060229397634
303.4246,19969.987930455492
305.6334,19659.03714923653
307.8418,19222.164487521142
310.0495,18932.67635049943
312.2568,18592.378951139886
314.4635,18284.428313084216
316.6696,18025.38027405039
318.8752,17784.290488912113
321.0802,17314.914432289268
323.2847,17116.457400958905
325.4887,16830.974518548923
327.692,16497.27073752271
329.8949,16274.000842033915
332.0972,15949.819451263458
334.2989,15679.931021652323
336.5001,15443.839850143253
338.7007,15032.700076879744
340.9008,14848.715687566873
343.1003,14588.940517582763
345.2992,14371.12825381841
347.4976,14043.182437275449
349.6955,13787.056465244234
351.8927,13511.953594583341
354.0895,13292.326944280809
356.2856,13039.97949820516
358.4812,12866.41410730168
360.6763,12531.233492115905
362.8707,12377.840244529245
365.0646,12087.936831110812
367.258,11845.075594651309
369.4508,11534.408757062127
371.643,11438.738421803915
373.8346,11157.016576993236
376.0257,10924.945096359304
378.2162,10675.87574206118
380.4062,10393.660167008471
382.5956,10231.349917352098
384.7844,10007.446435306389
386.9726,9808.101060772206
389.1603,9579.765033575975
391.3474,9262.039495463163
393.5339,9161.17549238164
395.7199,8859.3739776589
397.9052,8685.235813010688
400.09,8518.31177155902
402.2743,8382.902539573603
404.4579,8114.858718141033
406.641,7944.680824518931
408.8235,7817.769294816353
411.0054,7656.324485695615
413.1868,7486.446675641404
415.3675,7293.236066575155
417.5477,7130.192785553867
419.7273,6958.116886702235
421.9064,6766.708352843067
424.0848,6596.167097218007
426.2627,6456.742965401616
428.4399,6201.735737006806
430.6166,5911.4951270790625
432.7928,5840.470788646533
434.9683,5583.162315622452
437.1432,5407.069243515383
439.3176,5305.191052002301
441.4914,4997.827166689531
443.6645,4903.476960131535
445.8371,4768.489754904498
448.0091,4533.314824549903
450.1806,4324.251394924366
452.3514,4221.148646551454
454.5216,3975.3557167122053
456.6913,3956.021700476209
458.8603,3879.745653159509
461.0288,3598.9765905179665
463.1967,3629.613489509982
465.3639,3471.2552911042294
467.5306,3066.850899973273
469.6967,3148.9991860771115
471.8622,3123.4489887072996
474.0271,2914.5491156653807
476.1914,2808.198343518481
478.3551,2744.445419688229
480.5182,2787.489063514353
482.6807,2478.477966892111
484.8426,2446.7607938419533
487.0039,2539.236183599547
489.1647,2468.3527509329797
491.3248,2205.359085217977
493.4843,2337.6537511467905
495.6432,2258.235291358098
497.8015,1920.7522251140908
499.9592,1988.1030490946505
502.1163,1875.1862407721346
504.2728,1756.6002577378895
506.4287,1648.9935388314043
508.5839,1430.6645053262037
510.7386,1462.611562005848
512.8927,1384.3330993472773
515.0461,1263.1774932013213
517.199,1316.6931055755413
519.3512,1112.9782858458057
521.5029,1068.031370221055
523.6539,1038.7506837805195
525.8043,795.2845409231013
527.9541,923.1312456602536
530.1033,903.6811571108265
532.2519,747.1246251623452
534.3999,859.0519906655609
536.5472,879.8961306961864
538.694,634.8899137394401
540.8401,786.4161994815877
542.9856,816.8015050585818
545.1305,850.3223397422917
547.2748,660.0552046365265
549.4185,590.1265923419633
551.5615,692.6629888587486
553.704,613.1349848223763
555.8458,490.56316394173336
557.987,519.868103794397
560.1276,567.465481231935
562.2675,505.67096790724463
564.4069,551.650229798608
566.5456,655.2689278275939
568.6837,461.592717399355
570.8212,469.3372473663694
572.958,201.01816196523578
575.0942,348.7011007392066
577.2299,172.54969506004272
579.3648,140.0275728125198
581.4992,90.79663810989587
583.6329,107.2673961899709
585.766,141.39944523204758
587.8985,205.35131181406905
590.0304,-68.61989006647491
592.1616,201.69090212821175
594.2922,58.68943644860701
596.4222,-117.71854107168474
598.5515,-61.32787070660561
600.6802,85.96778327812353
602.8083,-184.17463071786187
604.9358,-197.79902311306068
607.0626,14.852535578524112
609.1888,-348.5600491448422
611.3144,-31.527020161767723
613.4393,-136.68513823598187
615.5636,-357.32084917631437
617.6873,-56.369233307057584
619.8103,-389.2118013172585
621.9327,-6.029500767304853
624.0544,26.550609008278116
626.1756,-145.94853126470116
628.2961,-137.70398112591647
630.4159,-270.541342089251
632.5351,-344.7848400058283
634.6537,219.79400198117946
636.7716,-323.1228948708449
638.8889,-130.00361150247772
641.0056,-145.86300085660332
643.1216,6.5853828599865665
645.237,187.52944261187804
647.3518,-138.89291870215675
649.4659,20.35619994136505
651.5793,71.06608710619912
653.6922,228.9760311525897
655.8043,-193.0246802698748
657.9159,411.0032381986384
660.0268,-530.4989997654848
662.137,82.95981540412322
664.2466,219.82619295881887
666.3556,45.39664132035978
668.4639,241.0676667122607
670.5716,68.33577490408061
672.6786,319.197469254781
674.785,53.09925243998441
676.8907,150.13762394333753
678.9958,354.7090827175198
681.1002,454.31012621387345
683.204,186.98724833667075
685.3072,93.73693844708032
687.4097,238.45568403643847
689.5115,162.18997165869223
691.6127,535.3362854832958
693.7132,290.34110805779346
695.8131,425.05091657645244
697.9123,541.2621853301171
700.0109,611.4713843591526
702.1089,290.87497829132917
704.2061,485.9194256397095
706.3028,577.6511820086525
708.3987,726.1166981433198
710.4941,621.7624190124043
712.5887,909.2847823234551
714.6827,864.9802195664015
716.7761,1158.7451531383267
718.8688,1319.4259967865582
720.9608,1123.0191526710114
723.0522,1232.9210097573523
725.1429,1060.2779457810757
727.233,1798.7363261485516
729.3224,750.3925056633379
731.4112,1180.0928211416758
733.4993,1199.7336018958886
735.5867,1240.0111654374123
737.6735,1042.0718172803245
739.7596,799.1118505386257
741.845,855.3775479055985
743.9298,1293.6151840834282
746.014,983.8710252205638
748.0974,728.841324529305
750.1802,1401.2223253832854
752.2624,696.4602638677752
754.3439,872.0513620558413
756.4247,1142.3418350559732
758.5048,968.577889256223
760.5843,1256.7057196211827
762.6631,1538.471511429656
764.7413,1622.421437393481
766.8188,1895.401654839843
768.8956,2265.3083048717453
770.9718,2346.5375096382195
773.0473,2268.835368635264
775.1221,1905.3479578935076
777.1962,1933.6213307552825
779.2697,1544.5015215094609
781.3426,1894.6345451087254
783.4147,2102.016401060777
785.4862,2109.6430699269913
787.557,1843.660511248585
789.6271,2207.114663470413
791.6966,1733.4514466007313
793.7654,1265.7167585766801
795.8335,1274.4564800009175
797.901,1332.1664788189373
799.9678,1156.6426102316836
802.0339,1169.4307161184624
804.0993,1309.1766267921776
806.1641,1219.9261608714805
808.2282,1178.475123883276
810.2916,1160.4693091551744
812.3544,1454.9544982300868
814.4164,984.4264610462124
816.4778,1226.830952992299
818.5385,1282.313719612801
820.5986,1391.1204941838514
822.658,1607.7969971585117
824.7166,1824.2889350786281
826.7747,1634.5919984081193
828.832,2052.7518593680215
830.8886,2427.3641738334627
832.9446,2519.074577152074
834.9999,1887.0786803978554
837.0545,2248.122069454068
839.1085,2394.3003113332234
841.1618,2246.2589505666547
843.2143,1843.8435077426839
845.2662,1801.6994809870957
847.3175,2068.072349987262
849.368,1558.8575764135603
851.4179,2019.1506012556492
853.467,1682.6468499146285
855.5155,1925.1917276001186
857.5633,1641.830622695321
859.6105,1512.7089043315573
861.6569,1793.8219252218623
863.7027,1412.4650229522013
865.7478,1708.7835171703337
867.7922,1658.7227133993947
869.8359,1940.8779000747018
871.8789,1535.994349044362
873.9212,1942.8173127477203
875.9629,2130.992028264256
878.0039,2189.0637132452684
880.0441,2182.5775640321517
882.0837,2258.978755075732
884.1226,2349.7624390010897
886.1609,2361.473745843541
888.1984,2247.7077821407947
890.2352,2749.209630815858
892.2714,2360.424352314709
894.3069,2606.596979591239
896.3416,2414.422521995155
898.3757,2409.595962810199
900.4091,1994.8122611759172
902.4418,2606.016352135892
904.4739,2363.3031507855703
906.5052,2610.267546160314
908.5358,2385.9044036624546
910.5658,2251.408562591685
912.595,2235.27483838865
914.6236,1724.8480239799173
916.6515,2537.3728899393172
918.6786,1707.7941895922922
920.7051,2014.3566508905133
922.7309,2114.504984707797
924.756,2281.033881774383
926.7804,2162.938011675593
928.8041,1657.0120211863687
930.8272,2146.7005354523353
932.8495,2138.598163049028
934.8711,1812.9994910849782
936.892,1658.8490852827672
938.9123,1842.1914932349537
940.9318,1669.5212459456234
942.9506,1647.5828559969086
944.9688,1723.170819275816
946.9862,1247.2796151935036
949.003,1391.5037059294555
951.019,1055.287541190366
953.0344,1172.9755567679022
955.0491,1202.0121779008768
957.063,1422.0918180983354
959.0763,1669.8588788491834
961.0888,1429.207747421453
963.1007,1791.8827943846118
965.1119,1789.7283760160426
967.1223,1676.738830674345
969.1321,1935.258478820877
971.1412,1704.4816241496083
973.1495,1626.3025510019797
975.1572,1845.1655266746602
977.1641,1831.1148022013003
979.1704,1737.9946101638852
981.1759,1784.0991648333147
983.1808,1733.1726631005222
985.1849,1798.6092840155034
987.1884,1945.1531892965213
989.1911,2239.8485226758057
991.1932,1979.6894084340383
993.1945,2052.6699484534547
995.1951,2078.1342248194196
997.1951,1974.576299090637
999.1943,1828.0902120444662
1001.1928,1802.1199847125317
1003.1906,1896.0096198455867
1005.1877,1783.3031021732022
1007.1841,1720.3443974648399
1009.1798,1729.2774536569705
1011.1748,1651.3462014826437
1013.1691,1484.694554382142
1015.1627,1061.3164092823135
1017.1556,884.6556482630913
1019.1477,993.5561427912689
1021.1392,635.8617554870943
1023.1299,477.716339035258
1025.12,580.5637397618848
1027.1093,515.1477992159198
1029.0979,613.762353140708
1031.0859,608.201232128129
1033.0731,495.2582606324504
1035.0596,493.477257025952
1037.0454,306.402034728344
1039.0304,211.57640222458576
1041.0148,-32.0558350643696
1042.9985,-57.350873833318474
1044.9814,12.385089543553477
1046.9636,-148.15356837275613
1048.9452,-147.97247114509082
1050.926,-67.8757622821795
1052.9061,-40.866107047761034
1054.8855,-29.795492626733903
1056.8642,-30.165497951617
1058.8421,26.072595702025865
1060.8194,34.86780841196742
1062.7959,75.46915999522753
1064.7717,202.62566992019129
1066.7469,184.98635690056835
1068.7213,215.200237623867
1070.695,280.8663269277313
1072.6679,179.68363749783748
1074.6402,174.85117921118945
1076.6117,256.96796014802385
1078.5826,232.7829866400425
1080.5527,138.89526244933222
1082.5221,159.85378901012882
1084.4908,299.7575663677562
1086.4587,344.35559296899737
1088.426,497.99686426307017
1090.3925,371.2803722556491
1092.3584,455.7551039724349
1094.3235,267.17004272633494
1096.2879,281.17416727277305
1098.2515,360.9664536955097
1100.2145,545.3958752665567
1102.1767,521.6614016483145
1104.1382,772.0619970491898
1106.099,935.5466204610057
1108.0591,1088.614223154982
1110.0185,1190.9137470468631
1111.9771,1322.6941231663077
1113.9351,1063.9042706338296
1115.8923,888.7430953430157
1117.8488,717.6594925484169
1119.8045,442.8523486171616
1121.7596,421.1705427398265
1123.7139,356.6629496785099
1125.6675,350.07843998360477
1127.6204,487.71588063889067
1129.5726,374.52413512737985
1131.524,409.05206205496506
1133.4748,388.148516282301
1135.4248,234.96234857958189
1137.3741,228.49240583556093
1139.3226,164.48753258938086
1141.2705,210.8465710952878
1143.2176,26.7183619626594
1145.164,107.60174369243032
1147.1097,57.74555451833294
1149.0546,51.34863159814995
1150.9989,25.05981151216838
1152.9424,38.67793032722693
1154.8852,-107.54817614043714
1156.8272,-40.06967246136628
1158.7686,-4.636648799794784
1160.7092,-55.24879502398835
1162.6491,-73.00575468209718
1164.5883,46.393380613175395
1166.5267,85.15024857661774
1168.4644,261.1164864590901
1170.4014,415.8437306599808
1172.3377,737.9836149675393
1174.2732,951.9377690116016
1176.2081,1221.0078150421832
1178.1421,1511.9453657899576
1180.0755,1919.4520217755344
1182.0082,1990.7293684000833
1183.9401,2137.878971870283
1185.8713,2034.252378485522
1187.8017,1826.4511131664258
1189.7315,1639.2266804910614
1191.6605,1252.0305667730354
1193.5888,1039.1642419337004
1195.5163,957.3791633740984
1197.4432,878.2767781036746
1199.3693,838.2585235581064
1201.2947,776.4758283902847
1203.2193,700.4301128705265
1205.1432,774.1227895044212
1207.0664,742.955263793272
1208.9889,769.8789334971443
1210.9106,698.1451889465752
1212.8316,682.3554127733441
1214.7519,762.6609806278138
1216.6715,733.163261336791
1218.5903,785.963616100511
1220.5084,807.5133987876106
1222.4257,940.3139554070658
1224.3424,824.6666238927792
1226.2583,926.5727327755085
1228.1735,1041.0836023393567
1230.0879,1048.1505436027437
1232.0016,1222.7248571732343
1233.9146,1258.1578331769124
1235.8269,1179.5007495126265
1237.7384,1142.7048714976918
1239.6492,972.9714526543903
1241.5592,1004.0017350779963
1243.4686,956.3969511340765
1245.3772,1017.4083231482145
1247.285,1000.9870638820139
1249.1922,1131.3343759230083
1251.0986,1162.951451848865
1253.0042,1123.0394729239633
1254.9092,1203.449608783205
1256.8134,1300.8830178310782
1258.7169,1450.040846437616
1260.6196,1557.4242279640384
1262.5216,1833.5342812711824
1264.4229,1980.8221096456182
1266.3234,2181.288798038644
1268.2232,2309.8854115933136
1270.1223,2300.162993639802
1272.0207,2309.222564409436
1273.9183,2309.3651211319448
1275.8151,2224.6916379448485
1277.7113,2266.5030658920223
1279.6067,2226.850333770446
1281.5014,2273.4843477120667
1283.3953,2443.705991580384
1285.2885,2687.516126504037
1287.181,2892.5155891746253
1289.0727,3228.3551894085977
1290.9637,3321.7357080972724
1292.854,3562.4078938484417
1294.7435,3563.922462052542
1296.6323,3592.3300924759606
1298.5204,3670.7314292458686
1300.4077,3720.7770805661057
1302.2943,3718.7676179332702
1304.1802,3693.5535756361714
1306.0653,3472.9854507759374
1307.9497,3220.9137035181993
1309.8333,3028.0387592987463
1311.7162,2922.4110113442257
1313.5984,2889.030822600944
1315.4798,2776.59852679108
1317.3605,2825.06442874654
1319.2405,2925.9288055332836
1321.1197,2860.8919059666223
1322.9982,2684.303949602614
1324.876,2619.0151273883894
1326.753,2451.625603428096
1328.6293,2450.3355156357393
1330.5048,2478.394977409069
1332.3796,2368.1540776425063
1334.2537,2373.712880446521
1336.127,2321.971426250053
1337.9996,2341.0297317449185
1339.8714,2375.4877904032182
1341.7426,2327.845572286751
1343.6129,2403.8530237024643
1345.4826,2402.2100676788577
1347.3515,2485.6166032059336
1349.2196,2462.0725052516063
1351.087,2526.4776239276034
1352.9537,2555.181784724955
1354.8197,2699.0847878699096
1356.6849,2906.8864080369094
1358.5493,2978.6363929095787
1360.4131,3145.884461102698
1362.276,3182.8303014446865
1364.1383,3132.023571305159
1365.9998,2965.213896225421
1367.8606,2679.5508704265703
1369.7206,2422.5840584775724
1371.5799,2209.2629981519312
1373.4384,2028.7372029973449
1375.2962,1917.9561644688583
1377.1533,1594.219353734141
1379.0096,1290.826222781292
1380.8652,1096.6762076562118
1382.7201,876.3687314965391
1384.5742,604.1532064731655
1386.4275,482.5790359932762
1388.2802,375.745617422559
1390.132,263.4023433009206
1391.9832,250.9486024108228
1393.8336,157.1837809007593
1395.6832,92.60726240972508
1397.5322,28.868429004909558
1399.3803,8.816661827437201
1401.2278,-49.79865827022877
1403.0745,27.421849476213538
1404.9204,-79.82193668036052
1406.7656,4.119861238708836
1408.6101,12.947918633206427
1410.4538,-24.28708913826631
1412.2968,45.91551315342804
1414.139,41.256643365431955
1415.9805,122.23721889576336
1417.8213,176.85815672987883
1419.6613,246.37037263088496
1421.5006,396.2747805933177
1423.3391,602.3722921480112
1425.1769,834.0138148630722
1427.0139,1278.700250282891
1428.8502,1753.1824916117293
1430.6858,2165.5614192668654
1432.5206,2470.9378961337716
1434.3547,2741.8627634423065
1436.188,2823.1368377129584
1438.0206,2795.010908047607
1439.8524,2596.5357353167747
1441.6835,2569.7620524408994
1443.5139,2523.290566375057
1445.3435,2421.021958376732
1447.1724,2461.3068844704976
1449.0005,2408.2959764707375
1450.8279,2352.539841578764
1452.6545,2394.339062912968
1454.4804,2494.8942000663446
1456.3056,2462.605788688499
1458.13,2412.0743394801066
1459.9536,2365.500338515776
1461.7766,2145.4842477493985
1463.5987,1822.2765054798656
1465.4202,1552.6275285512456
1467.2409,1285.3877155848531
1469.0608,1098.207449675756
1470.88,854.7871010651397
1472.6984,751.2770290121189
1474.5161,554.0775842279472
1476.3331,454.9391099110944
1478.1493,380.26194371927704
1479.9648,390.1464187608326
1481.7795,336.3428643414918
1483.5935,351.80160586554484
1485.4067,310.6229653738628
1487.2192,278.9072613893113
1489.031,284.4048093285455
1490.842,288.46592181914457
1492.6522,269.74090864466416
1494.4618,244.63007670400475
1496.2705,275.2337301986736
1498.0785,317.75217088389036
1499.8858,273.78569776255245
1501.6924,280.9346066600301
1503.4981,333.54919066387447
1505.3032,299.6797400522919
1507.1075,289.8265417679977
1508.911,335.7398797569367
1510.7138,293.7200350667845
1512.5159,241.86728538784155
1514.3172,211.38190547320482
1516.1178,203.46416765730464
1517.9176,242.56434216077105
1519.7166,214.73269716959476
1521.515,187.46949844414485
1523.3126,172.72500959747413
1525.1094,165.299492367958
1526.9055,151.0932067667418
1528.7008,164.8564111519845
1530.4954,70.78936237093512
1532.2893,95.39231562228815
1534.0824,45.46552539687764
1535.8747,81.40924523160356
1537.6663,61.52372820871824
1539.4572,52.40922659640273
1541.2473,81.71599204760423
1543.0367,97.44427569119216
1544.8253,71.99432783888915
1546.6132,137.36639782797647
1548.4003,118.1607342758034
1550.1867,152.32758442606064
1551.9723,204.4671943408539
1553.7572,320.52980855900023
1555.5414,356.2656695746773
1557.3247,446.0250166767655
1559.1074,555.4580855915192
1560.8893,638.965107584936
1562.6705,751.7463083684561
1564.4509,836.0019072638679
1566.2305,877.5821160755077
1568.0094,996.6871382477075
1569.7876,1080.4171684489775
1571.565,1062.0223913809787
1573.3417,1087.852980941214
1575.1176,1114.7091004069734
1576.8928,1144.9909021770254
1578.6672,1100.3485275030434
1580.4409,1007.2321061868133
1582.2138,1013.8917570266494
1583.986,1025.1275887485426
1585.7575,1058.7396999395678
1587.5282,1033.1281789355562
1589.2981,1132.6931034849295
1591.0673,1126.234541004862
1592.8358,1164.4525475855771
1594.6035,1253.7471680549752
1596.3704,1250.1684355964317
1598.1366,1366.866370855878
1599.9021,1421.5909819775443
1601.6668,1437.2422634370123
1603.4308,1536.9201954939672
1605.194,1707.0747440356863
1606.9564,1797.3058595802504
1608.7182,2004.763475574986
1610.4791,2202.8975074941845
1612.2394,2400.8578507644925
1613.9988,2593.8943787835997
1615.7576,2835.5569409406307
1617.5156,3017.195360685768
1619.2728,3205.9094331136475
1621.0293,3254.9489231469415
1622.785,3202.2135636492494
1624.54,3006.1530549346826
1626.2942,2839.6170652952387
1628.0477,2565.4052329613696
1629.8005,2329.3171677673854
1631.5525,2192.4524538935475
1633.3037,2009.4106522269394
1635.0542,1890.6413017301347
1636.804,1823.4939212715872
1638.553,1736.668010813366
1640.3013,1704.063052082609
1642.0488,1698.3285094397797
1643.7955,1756.0138302047308
1645.5416,1822.4684447140353
1647.2868,1910.7917657441394
1649.0313,1970.8831878468081
1650.7751,2136.5920864659056
1652.5181,2306.7178173364628
1654.2604,2443.9597148275934
1656.0019,2675.1670902412516
1657.7427,2844.339230439793
1659.4828,3136.2753955339213
1661.222,3327.0248171909407
1662.9606,3340.6866957154343
1664.6984,3158.510198141743
1666.4354,2861.494458097335
1668.1717,2439.1885776245945
1669.9072,1970.8416301509606
1671.642,1638.3026647120205
1673.3761,1327.4707106349379
1675.1094,1111.8947808638513
1676.8419,915.6238750682132
1678.5737,765.7069817985321
1680.3048,680.243080449065
1682.0351,560.5811427570115
1683.7646,481.57013365716193
1685.4934,422.4090124785034
1687.2215,394.99673373433143
1688.9488,340.1822477138703
1690.6754,263.06450075637804
1692.4012,273.1924357992939
1694.1263,255.46499314941502
1695.8506,261.7811103816275
1697.5742,239.5897225161607
1699.297,215.4397619554311
1701.0191,177.13015870596246
1702.7404,145.05984061987692
1704.461,94.52773377799713
1706.1808,92.83276281055805
1707.8999,73.12385140251536
1709.6182,66.69992231050855
1711.3358,86.95989755993833
1713.0527,41.40269850921504
1714.7688,27.22724564716009
1716.4841,-0.4675409514147759
1718.1987,56.417258516032234
1719.9126,55.880568522768954
1721.6257,10.721312977897469
1723.338,24.43841523170886
1725.0496,6.1807985272844235
1726.7605,2.4973858633347845
1728.4706,-14.962899823227417
1730.18,-30.95113562046572
1731.8886,-19.918249137070234
1733.5964,-22.464858779889255
1735.3036,-11.341383972468975
1737.0099,-3.0480197144115664
1738.7156,8.065152295102962
1740.4204,-14.701919193386857
1742.1246,8.350714490010432
1743.8279,-6.076851112646182
1745.5306,-4.83452054279951
1747.2325,20.727862365840338
1748.9336,-22.139497923582894
1750.634,-8.436397155197483
1752.3336,-39.812409899566774
1754.0325,18.632973552339536
1755.7307,16.10066063551676
1757.4281,52.24155859863458
1759.1247,60.15657452937012
1760.8206,26.546614992994364
1762.5158,96.91258595321779
1764.2102,47.75539310829299
1765.9039,65.72594118735105
1767.5968,78.92513444196993
1769.289,78.05387646647978
1770.9804,79.11307006597053
1772.6711,99.80361726499541
1774.361,88.02641929698439
1776.0502,107.98237639733998
1777.7386,148.52238792120443
1779.4263,121.39735214389475
1781.1132,138.90816585551875
1782.7994,161.45572463221106
1784.4849,182.34092266104562
1786.1696,165.11465251454138
1787.8535,191.2278049418128
1789.5367,180.68126904083692
1791.2192,200.4759319973091
1792.9009,130.91267919012353
1794.5818,160.34239399341095
1796.2621,192.0659584721816
1797.9415,172.0342530880207
1799.6202,162.74815638186556
1801.2982,202.65854517431762
1802.9755,237.31629465850347
1804.6519,228.8722780009739
1806.3277,189.67736599511954
1808.0027,185.23242714562184
1809.6769,223.63832806038045
1811.3504,208.94593349497882
1813.0231,222.25610596861588
1814.6951,246.21970591103673
1816.3664,272.0875915294255
1818.0369,279.16061856878696
1819.7067,264.9896400532598
1821.3757,308.425506215377
1823.044,349.01906463778687
1824.7115,336.27115981889074
1826.3783,292.7826327669045
1828.0443,288.45432112734125
1829.7096,288.7370596178971
1831.3741,336.3316800717221
1833.0379,315.73901143460716
1834.701,352.80987928901595
1836.3633,338.4451060600386
1838.0248,321.59551064466905
1839.6856,363.4119085554594
1841.3457,383.5951120890113
1843.005,387.29592990780657
1844.6636,417.2151668383958
1846.3214,424.3536238343586
1847.9785,438.66209767713553
1849.6349,446.04138090463675
1851.2904,419.29226166815533
1852.9453,456.8655236585746
1854.5994,415.3119463738549
1856.2528,488.63230474330885
1857.9054,474.82736954312713
1859.5572,519.9979066631913
1861.2083,506.2946772450996
1862.8587,539.1684372304971
1864.5084,531.7699374980839
1866.1572,537.9499235348758
1867.8054,506.0091355101922
1869.4528,545.2483082138606
1871.0994,523.2181713756254
1872.7453,541.1194492727609
1874.3905,519.9528609503504
1876.0349,506.71912004229125
1877.6786,555.7189349829532
1879.3215,575.7030091395245
1880.9637,599.2220403220072
1882.6051,586.4767205833778
1884.2458,559.6177359843932
1885.8858,579.0957667210478
1887.525,604.7114873931641
1889.1634,570.3155668096206
1890.8011,566.5086677321688
1892.4381,574.441447219413
1894.0743,595.0645566648764
1895.7098,591.1786417176663
1897.3446,629.334342076263
1898.9786,611.5322915273628
1900.6118,627.1231175643352
1902.2443,610.757441565227
1903.8761,627.2358786368623
1905.5071,580.5590377784902
1907.1374,578.2275217170118
1908.7669,571.0419273737407
1910.3957,617.2528458877259
1912.0237,553.3608626876121
1913.651,550.6165570295088
1915.2776,564.8705026359203
1916.9034,556.7732677232034
1918.5285,550.3254148590131
1920.1528,524.1275010432873
1921.7764,562.0800777727072
1923.3992,534.5336913027058
1925.0213,469.13888226791096
1926.6427,475.0961859576164
1928.2633,471.5561329697248
1929.8832,500.81924915118
1931.5023,447.93605563336314
1933.1207,457.9070685394727
1934.7383,473.43279951334443
1936.3552,457.313755619758
1937.9714,471.7004391891642
1939.5868,457.9933479788833
1941.2015,411.2929750292369
1942.8154,398.89980880061194
1944.4286,395.7643336404708
1946.041,404.9370299072816
1947.6528,347.6683740018834
1949.2637,346.05883827574326
1950.8739,351.95889160365004
1952.4834,337.3689993998105
1954.0921,386.4896235588458
1955.7001,389.4712226016891
1957.3074,373.01425118437874
1958.9139,349.86916006823594
1960.5197,375.5363962844549
1962.1247,347.51640336553464
1963.729,333.80962108861604
1965.3325,284.26648575568834
1966.9353,301.88743033064566
1968.5374,307.8228849347179
1970.1387,289.32327667026584
1971.7393,291.589029561419
1973.3392,274.4205647390809
1974.9383,279.9683004182825
1976.5366,267.6326520698494
1978.1342,304.4140323649317
1979.7311,292.9128512983534
1981.3273,283.2795158207973
1982.9227,275.5644299538144
1984.5173,252.1679948861638
1986.1112,241.74060905096485
1987.7044,266.3326683596606
1989.2968,250.34456630628665
1990.8885,250.72669372156088
1992.4795,237.22943893275624
1994.0697,251.20318775988926
1995.6592,258.44832365068214
1997.2479,268.61522754084035
1998.8359,258.8042777815881
2000.4232,223.96585003800283
2002.0097,242.8003173871166
2003.5955,208.15805066630674
2005.1805,261.58941828495335
2006.7648,240.64478657085783
2008.3484,215.87451923592744
2009.9312,261.07897758563195
2011.5133,262.40852076669944
2013.0946,245.9135053150676
2014.6752,239.4942851425967
2016.2551,226.65121170201564
2017.8342,219.98463405112489
2019.4126,214.9948989812092
2020.9902,186.18235108371482
2022.5672,224.8973328001539
2024.1433,235.04018471020208
2025.7188,244.91124514457442
2027.2935,222.86085008358532
2028.8674,219.33933305843857
2030.4406,205.1970253717318
2032.0131,178.93425613267573
2033.5849,162.1013523985057
2035.1559,220.04863943712735
2036.7261,205.12644089543574
2038.2957,222.2850782198384
2039.8645,209.87487080548453
2041.4325,242.49613582468191
2042.9998,219.1491883509898
2044.5664,211.83434103301443
2046.1323,210.6519043278713
2047.6974,200.70218657433907
2049.2617,184.53549400468182
2050.8254,215.952130844149
2052.3883,236.20239947263508
2053.9504,238.08660011052234
2055.5118,217.1550306161771
2057.0725,186.6579864671021
2058.6325,198.74576096925193
2060.1917,210.76864556200417
2061.7502,215.77692969727832
2063.3079,202.42090071931852
2064.8649,181.20084381459856
2066.4212,210.61704214538986
2067.9767,206.9197770619603
2069.5315,213.7593278084105
2071.0856,186.18597155964653
2072.6389,163.89998335298878
2074.1915,128.05163636389443
2075.7433,144.69120212882262
2077.2945,138.46895090371981
2078.8448,160.13515149762497
2080.3945,150.74007133488885
2081.9434,148.3339762385176
2083.4916,170.26713052411742
2085.039,132.48979702396082
2086.5857,145.50223686765457
2088.1317,168.85470985991196
2089.677,157.247474350429
2091.2215,148.58078700036276
2092.7652,148.0549028983978
2094.3083,167.3200756474116
2095.8506,173.37655736974648
2097.3921,180.87459851454332
2098.933,190.56444779718186
2100.4731,186.14635212429857
2102.0124,184.7705564968919
2103.5511,196.73730405449714
2105.089,214.34683608894284
2106.6261,184.54939192469192
2108.1626,205.79520874274021
2109.6983,176.83452187859348
2111.2332,214.16756460981014
2112.7675,209.34456844559918
2114.301,202.41576275350235
2115.8337,192.23137480761488
2117.3657,222.34162985787952
2118.897,220.146751231925
2120.4276,215.49696003397094
2121.9575,178.1424751667655
2123.4866,225.63351337809672
2125.0149,198.67028963433313
2126.5426,173.35301664551207
2128.0695,179.18190513497575
2129.5956,219.85716409253655
2131.1211,186.87900071619424
2132.6458,193.69762000537958
2134.1698,194.41322509073234
2135.693,179.37601716591962
2137.2155,199.83619548048318
2138.7373,218.94395749020714
2140.2584,216.04949865251547
2141.7787,190.1530122353961
2143.2983,212.654689346341
2144.8171,171.25471919131996
2146.3353,182.2032888497588
2147.8527,166.80058368853952
2149.3693,195.39678725250997
2150.8853,207.7420814185125
2152.4005,170.53664610942542
2153.9149,177.48065917071108
2155.4287,143.07429674246396
2156.9417,218.96773318998203
2158.454,199.06114144781714
2159.9655,195.0546922608446
2161.4764,187.2485543833318
2162.9865,172.24289461900116
2164.4958,182.93787789909493
2166.0045,172.78366743242714
2167.5124,174.78042459843437
2169.0195,179.47830904872444
2170.526,198.57747868710612
2172.0317,185.1780896226046
2173.5367,208.8802959784798
2175.0409,176.08425002621152
2176.5445,210.74010194847688
2178.0473,170.59800016711597
2179.5494,187.0580909965629
2181.0507,188.5705190452718
2182.5513,183.78542705112068
2184.0512,201.55295586628745
2185.5504,184.32324450509623
2187.0488,179.49642996634248
2188.5465,174.7226474055915
2190.0435,168.95203018344728
2191.5397,174.5347099132896
2193.0353,175.57081651898534
2194.5301,151.61047817905364
2196.0241,118.50382131630886
2197.5175,148.60097083746405
2199.0101,141.95205046419323
2200.502,130.10718243216616
2201.9931,111.56648755753668
2203.4835,115.93008535538684
2204.9733,130.648094225141
2206.4622,141.97063140692353
2207.9505,106.6978128343817
2209.438,107.87975302145605
2210.9248,101.96656541511948
2212.4109,112.40836238354495
2213.8962,77.60525527524442
2215.3809,117.00735431464818
2216.8648,145.1647689501351
2218.3479,119.02760746000786
2219.8304,115.04597667092276
2221.3121,101.71998221926333
2222.7931,105.74972859095124
2224.2733,107.48531925471161
2225.7529,104.72685662177355
2227.2317,103.12444202851566
2228.7098,106.32817576404614
2230.1872,71.68815708623606
2231.6638,85.7044841896759
2233.1397,85.52725455207474
2234.6149,74.00656479410372
2236.0894,72.19251068115591
2237.5632,64.88518723857123
2239.0362,70.63468876976276
2240.5085,99.69110892929803
2241.9801,87.90454066539496
2243.4509,63.32507592937054
2244.921,60.80280579349619
2246.3904,61.33782069679546
2247.8591,65.78021047026687
2249.3271,69.58006433153605
2250.7943,58.63747084042461
2252.2608,45.10251786095523
2253.7266,49.02529267077625
2255.1917,67.0058820965105
2256.656,65.84437247453297
2258.1197,60.09084947116207
2259.5826,52.195398094271695
2261.0447,59.058102750833314
2262.5062,67.87904732586867
2263.9669,72.80831511381984
2265.4269,92.09598873034247
2266.8862,73.4421500630151
2268.3448,71.54688007845925
2269.8026,83.41025900887871
2271.2598,76.33236637100799
2272.7162,78.41328084748238
2274.1719,102.35308035761318
2275.6268,67.10184203658173
2277.0811,93.60964199604041
2278.5346,68.5265556766235
2279.9874,81.55265758287715
2281.4395,103.18802153408069
2282.8908,80.58272053398923
2284.3414,97.23682655448192
2285.7914,80.00041076161233
2287.2406,99.12354334906922
2288.689,94.90629371053456
2290.1368,95.24873024846147
2291.5838,93.45092041623775
2293.0302,102.86293071476757
2294.4758,64.33482671045203
2295.9206,92.71667294106282
2297.3648,81.40853330103255
2298.8082,101.11047075762599
2300.251,83.92254746402705
2301.693,67.6448245623169
2303.1343,89.27736235534849
2304.5748,90.97022046953407
2306.0147,85.02345763851463
2307.4538,89.73713168623544
2308.8922,83.66129958640522
2310.3299,75.94601741536553
2311.7669,72.79134041284851
2313.2031,65.44732305913112
2314.6387,63.66401910657896
2316.0735,73.69148165308798
2317.5076,60.829763159914364
2318.941,67.87891535140261
2320.3737,74.48898934360295
2321.8056,82.21003557377935
2323.2369,96.29210373430396
2324.6674,74.58524269545524
2326.0972,74.83950036458828
2327.5263,69.05492390321069
2328.9547,75.58155972443637
2330.3823,80.41945355083226
2331.8092,82.76865034914681
2333.2355,89.92919428193545
2334.661,75.35112868407123
2336.0858,100.98449599113246
2337.5098,88.12933788519149
2338.9332,106.13569503847975
2340.3558,90.20360724193597
2341.7778,98.233113225142
2343.199,88.02425081564616
2344.6195,89.32705685866404
2346.0393,118.89156731916955
2347.4583,104.61781726886875
2348.8767,97.005840590552
2350.2943,110.25567012083684
2351.7113,109.76733772627813
2353.1275,100.6908741708803
2354.543,102.47630912097156
2355.9578,106.62367123597687
2357.3718,92.5829881505606
2358.7852,84.35428643314935
2360.1978,76.03759172634727
2361.6098,94.8829288292145
2363.021,84.44032178043744
2364.4315,93.20979366987194
2365.8413,81.14136674297606
2367.2504,79.88506231310748
2368.6587,101.49090088221146
2370.0664,64.80890215338604
2371.4733,65.93908481482322
2372.8795,69.4814669066227
2374.285,86.73606580949763
2375.6899,75.7528982093445
2377.0939,65.58197992470286
2378.4973,47.02332601658509
2379.9,43.07695089018398
2381.3019,67.0428684804674
2382.7032,55.52109229163034
2384.1037,59.36163515744374
2385.5035,69.41450935647208
2386.9027,80.92972657366317
2388.3011,90.60729779982375
2389.6987,72.79723321646816
2391.0957,72.04954209903917
2392.492,65.4642329950102
2393.8876,42.0913137313637
2395.2824,43.13079148043926
2396.6765,36.93267299366653
2398.07,38.79696459116849
2399.4627,44.12367222374451
2400.8547,54.2628014542297
2402.246,52.5643574042233
2403.6366,30.57834465270207
2405.0265,24.104767253000773
2406.4156,44.79362895267286
2407.8041,26.594933258228593
2409.1918,30.908683228241898
2410.5789,19.58488165534027
2411.9652,19.723531023063515
2413.3508,33.17463361910359
2414.7358,25.7381915339206
2416.12,26.71420652623192
2417.5035,27.202680097373104
2418.8863,36.403613481541925
2420.2684,34.417007640910015
2421.6497,17.592863173619662
2423.0304,-5.318819666359559
2424.4104,0.4319591990179106
2425.7896,9.19525298280496
2427.1682,10.621114893733647
2428.546,11.159598048588578
2429.9232,23.56075545793965
2431.2996,25.32464002076631
2432.6753,21.151304400440495
2434.0503,28.24080100708761
2435.4246,4.793182039321891
2436.7982,7.058499413349637
2438.1711,8.086804997448326
2439.5433,23.57815058931328
2440.9148,7.082587905772016
2442.2856,0.35016842787717906
2443.6557,5.5309435658546136
2445.025,0.22496472643069865
2446.3937,16.432283261024168
2447.7617,19.75295051880721
2449.1289,10.037017684630428
2450.4955,17.284535745818175
2451.8613,12.945555589327341
2453.2265,13.520127929268256
2454.5909,11.408303350296592
2455.9546,11.310132301869999
2457.3177,11.12566511936302
2458.68,16.00495202504726
2460.0416,29.24804312993865
2461.4025,35.554988385005345
2462.7627,35.725837448737366
2464.1222,35.260639624074884
2465.4811,33.25944385669936
2466.8392,52.722298739679445
2468.1966,54.89925253348929
2469.5533,50.140352971373886
2470.9093,40.99564723759431
2472.2645,45.31518201500876
2473.6191,54.949003576523864
2474.973,23.797157741894807
2476.3262,39.45968978138626
2477.6787,38.28664472729406
2479.0305,28.028067217317584
2480.3816,21.584001506292225
2481.7319,38.05449156877103
2483.0816,19.98958116347103
2484.4306,43.38931366856241
2485.7789,29.40373226232441
2487.1264,31.032879689141737
2488.4733,42.826798399364634
2489.8195,22.085530533014662
2491.165,18.559117801846696
2492.5097,17.847601696760194
2493.8538,31.70102352306776
2495.1972,11.16942440760522
2496.5398,11.652845160200286
2497.8818,10.901326478986903
2499.2231,15.81490894557146
2500.5637,9.393633032548223
2501.9035,18.13753905436306
2503.2427,3.2466672315263168
2504.5812,3.5710576031742676
2505.919,13.210750175979683
2507.256,29.56578492090648
2508.5924,27.436201676813198
2509.9281,12.422039986903656
2511.2631,12.223339120022047
2512.5974,12.490138220790868
2513.9309,7.172476311603077
2515.2638,-0.17960771004800336
2516.596,5.883924981611472
2517.9275,9.513115006632233
2519.2583,8.808002926230984
2520.5884,19.66862920649055
2521.9178,7.245034225415566
2523.2465,7.537258164323703
2524.5745,19.495341132087106
2525.9018,3.319323162206274
2527.2284,9.659244093227699
2528.5543,18.56514373050777
2529.8796,23.23706178281236
2531.2041,19.875037773257645
2532.5279,27.029110992591086
2533.851,11.849320532812271
2535.1735,22.93570521562833
2536.4952,29.738303744255518
2537.8163,31.007154592553434
2539.1366,40.84229593700229
2540.4562,26.09376564401282
2541.7752,39.211601171572056
2543.0935,55.04583971673128
2544.411,38.69651808442586
2545.7279,48.46367252913615
2547.0441,56.497338918376045
2548.3596,51.29755263502693
2549.6744,37.36434849699708
2550.9885,57.89776080922002
2552.3019,57.09782350298701
2553.6146,70.76456993061174
2554.9266,66.79803287343157
2556.2379,61.298244405139485
2557.5485,52.81523593144766
2558.8585,56.79903824508847
2560.1677,71.29968161064335
2561.4762,60.217195724706016
2562.7841,77.95160957087546
2564.0913,87.60295153058041
2565.3977,73.67124920573497
2566.7035,78.20652932222629
2568.0086,87.85881786923119
2569.313,83.22814005386317
2570.6167,98.81452020464712
2571.9197,105.51798181782806
2573.222,94.788547401507
2574.5236,97.3762384086067
2575.8246,97.93107534416595
2577.1248,106.95307773946251
2578.4244,110.29226414646291
2579.7232,102.74865204760499
2581.0214,125.52225782240384
2582.3189,129.11309682289038
2583.6157,127.57118314587387
2584.9118,110.3965295970338
2586.2072,120.88914770633937
2587.5019,120.64904789979619
2588.7959,124.02623939451996
2590.0893,125.07073020113467
2591.3819,136.232527090006
2592.6739,137.26163558079043
2593.9652,135.3080598308229
2595.2557,134.9218026248218
2596.5456,127.95286539442623
2597.8348,131.8012482220597
2599.1234,132.06694991061522
2600.4112,133.19996794497774
2601.6983,131.80029848936283
2602.9848,134.06793637598685
2604.2705,147.25287511906572
2605.5556,139.25510689213388
2606.84,142.82462239620008
2608.1237,139.1114109397222
2609.4067,127.61546040291296
2610.689,121.63675727487362
2611.9707,121.5752867685519
2613.2516,133.5810328805287
2614.5319,119.25397839163406
2615.8115,115.29410474688984
2617.0903,113.20139219877728
2618.3685,119.87581984683948
2619.6461,107.26736565860301
2620.9229,124.47600640283872
2622.199,120.50171777564401
2623.4745,130.29447422835528
2624.7493,116.55424900729577
2626.0234,120.23101405584384
2627.2968,116.97474015183798
2628.5695,105.4353968708051
2629.8415,112.46295261852947
2631.1128,125.10737474643929
2632.3835,117.01862948133612
2633.6535,108.89668179894761
2634.9228,120.34149550481561
2636.1914,103.30303331551704
2637.4593,110.58125674421262
2638.7265,106.02612627103372
2639.9931,116.58760127030064
2641.259,109.96564005607388
2642.5242,105.16019977653923
2643.7887,111.12123648022771
2645.0525,100.49870516406918
2646.3156,104.24255971378079
2647.5781,116.05275301009624
2648.8398,112.07923689132258
2650.1009,102.1719620352419
2651.3613,103.18087799884279
2652.6211,104.25593331739537
2653.8801,108.24707549436016
2655.1385,98.15425099064123
2656.3961,102.3774051846699
2657.6531,102.01648247333924
2658.9094,108.37142622976717
2660.1651,119.6421788069074
2661.42,115.67868147400122
2662.6743,115.68087430386868
2663.9279,123.54869621254647
2665.1808,132.7820849592622
2666.433,120.43097706775825
2667.6846,130.6453077339579
2668.9354,136.62501094947584
2670.1856,137.22001939947313
2671.4351,144.2802644028634
2672.6839,145.9556759063571
2673.9321,141.44618241386502
2675.1795,141.65171096974154
2676.4263,139.472187203879
2677.6724,149.7075353296559
2678.9179,144.05767816572939
2680.1626,145.42253703368033
2681.4067,141.90203181451466
2682.6501,150.94608093501324
2683.8928,135.90460140293726
2685.1348,133.5275087165894
2686.3761,137.46471701522592
2687.6168,138.11613910282972
2688.8568,144.38168640873732
2690.0961,128.41126898112634
2691.3348,124.55479542435819
2692.5727,141.1621730586828
2693.81,118.63330795880279
2695.0466,127.7181047877989
2696.2826,130.16646702242178
2697.5178,126.0282968622405
2698.7524,111.20349520516152
2699.9863,119.29196168880844
2701.2195,125.29359483877101
2702.452,135.7082919877198
2703.6839,138.93594921539125
2704.9151,143.32646124444022
2706.1456,146.12972140816282
2707.3755,145.7956216065918
2708.6046,159.27405227846452
2709.8331,148.71490240456205
2711.0609,157.3180593729271
2712.2881,157.53340908445398
2713.5145,168.4108358668559
2714.7403,183.1002224725146
2715.9654,185.75144996970357
2717.1899,181.36439759569384
2718.4136,186.63894273024312
2719.6367,198.27496093946593
2720.8591,206.12232592308737
2722.0809,200.78090939808408
2723.3019,217.00058102021148
2724.5223,234.0812084374163
2725.7421,243.17265712764197
2726.9611,232.72479022802008
2728.1795,232.087468443955
2729.3972,234.56055015360585
2730.6142,215.59389141425663
2731.8306,191.33734593758777
2733.0462,192.0907652793419
2734.2612,185.55399908188951
2735.4756,169.12689506669426
2736.6892,158.30929909968063
2737.9022,150.10105535550406
2739.1145,138.4020064257263
2740.3262,119.01199340089897
2741.5372,117.03085598755615
2742.7475,87.90843270211053
2743.9571,87.3445608906693
2745.1661,71.38907702025381
2746.3744,68.54181668444221
2747.582,79.30261476292003
2748.7889,65.17130544995507
2749.9952,51.1477221467876
2751.2008,53.53169760294418
2752.4057,44.67306405647605
2753.61,40.72165321011835
2754.8136,41.87729631987713
2756.0165,30.889824234543084
2757.2188,32.209067384134414
2758.4204,26.734855889772916
2759.6213,30.267019550489067
2760.8215,33.80538789796583
2762.0211,41.449790161216924
2763.22,29.35005523120367
2764.4182,24.406011584389717
2765.6158,18.167487403739187
2766.8127,20.73431062815689
2768.009,18.356309014873432
2769.2045,9.43331011377677
2770.3994,21.06514129119273
2771.5936,4.051629819114851
2772.7872,13.742602758885823
2773.9801,1.6878871313329
2775.1723,-5.412690180140771
2776.3639,-15.859302309010673
2777.5548,-15.402068315978113
2778.745,-10.240948827314241
2779.9346,-15.875750602628841
2781.1235,-5.90617809445348
2782.3117,-7.18177715657157
2783.4992,-20.352034640048032
2784.6861,-8.716365649994259
2785.8723,6.876018025302301
2787.0579,-13.274008325952764
2788.2428,-2.815569484313528
2789.427,9.952342377008108
2790.6106,-3.8192367876606568
2791.7935,9.020728876484327
2792.9757,22.523313378422927
2794.1573,16.73959063692837
2795.3382,31.22063434554161
2796.5184,30.117518030409883
2797.698,46.431314905473755
2798.8769,41.61309788350013
2800.0551,49.26393941294282
2801.2327,61.58491152612578
2802.4096,74.67708576273321
2803.5859,76.99153304660058
2804.7615,98.12932355479279
2805.9364,112.24152669445971
2807.1106,130.22921089145984
2808.2842,143.04344344923675
2809.4572,167.53529036894383
2810.6294,199.0558162212999
2811.801,226.90608390167245
2812.972,258.7871543148708
2814.1423,282.9000860966444
2815.3119,316.795935294871
2816.4808,341.47575512842786
2817.6491,393.0405956482334
2818.8167,423.1415034904503
2819.9837,484.8795213608339
2821.15,513.0556877337265
2822.3157,544.8210362346749
2823.4807,599.0765953586692
2824.645,650.7233881524905
2825.8086,672.5124316721535
2826.9716,714.494736466441
2828.134,759.8713063590108
2829.2957,797.6431380285728
2830.4567,817.2612205551252
2831.617,836.1765350422347
2832.7767,846.94005442086
2833.9358,844.8027432601918
2835.0941,833.0655576600229
2836.2519,820.4794452721189
2837.4089,815.0953454175906
2838.5653,800.8141892127537
2839.7211,797.5368996229722
2840.8761,792.0643916054682
2842.0306,805.3975721420943
2843.1843,821.4373402940612
2844.3374,867.1345870686023
2845.4899,892.0901952585798
2846.6417,942.9550389855112
2847.7928,1006.1299834500103
2848.9433,1052.665884423145
2850.0931,1096.0635876146828
2851.2422,1164.923928207732
2852.3907,1211.9477304247666
2853.5385,1261.4858068390201
2854.6857,1306.2889579042512
2855.8323,1341.0079714593603
2856.9781,1387.5436222803578
2858.1233,1415.4966717331774
2859.2679,1451.317867308315
2860.4118,1488.0579423413014
2861.555,1524.3176156544898
2862.6976,1557.7475911896536
2863.8395,1575.9985576453907
2864.9808,1606.0711881428251
2866.1214,1630.6161400430942
2867.2614,1633.7840546466248
2868.4007,1637.975556947682
2869.5393,1665.6412556026917
2870.6773,1656.131742888323
2871.8146,1685.397594424835
2872.9513,1686.3893692711695
2874.0874,1672.707609632292
2875.2227,1650.5028408492751
2876.3574,1644.2255715361161
2877.4915,1627.4762938017855
2878.6249,1606.9554833129969
2879.7577,1582.4135994617054
2880.8898,1564.9510855703093
2882.0212,1559.318369137075
2883.152,1537.565862010755
2884.2821,1533.493960446921
2885.4116,1521.6530453254848
2886.5405,1511.6934821914206
2887.6686,1523.5656213731716
2888.7962,1528.819798082247
2889.923,1522.806332294501
2891.0493,1544.0255286975914
2892.1748,1550.6276767511126
2893.2997,1563.663050474405
2894.424,1563.4319083805333
2895.5476,1586.4844933459312
2896.6706,1601.3710326127143
2897.7929,1605.7417375581524
2898.9145,1639.5968035458063
2900.0355,1662.6364098818203
2901.1559,1691.6607194763712
2902.2756,1716.6698786132715
2903.3946,1737.114016659729
2904.513,1748.193245816253
2905.6308,1770.4076609122135
2906.7479,1793.5573392950482
2907.8643,1817.2923406081204
2908.9801,1829.1627065592195
2910.0953,1842.918460683213
2911.2098,1828.359608223341
2912.3236,1829.5861359936607
2913.4368,1829.998012524634
2914.5494,1800.695188050862
2915.6613,1769.9275945069664
2916.7725,1752.5951458206168
2917.8831,1736.3977382202077
2918.9931,1728.0352504081816
2920.1024,1685.7575437230046
2921.211,1681.9144622227886
2922.319,1660.1058331080726
2923.4264,1647.0314667602497
2924.5331,1640.091156959656
2925.6391,1641.3346810163139
2926.7445,1627.1117998393327
2927.8493,1637.372257924477
2928.9534,1644.7657834963916
2930.0569,1643.7420884060016
2931.1597,1641.500868056574
2932.2619,1631.1918014139542
2933.3634,1653.71455102898
2934.4643,1651.068763140572
2935.5645,1632.854067450505
2936.6641,1610.0700771498668
2937.763,1580.3663891012043
2938.8613,1549.1925840663632
2939.959,1529.1982270035276
2941.056,1465.082867378955
2942.1523,1386.1960393669208
2943.248,1343.9372624908747
2944.3431,1271.6060424123048
2945.4375,1188.651871353327
2946.5313,1122.4242288199973
2947.6244,1033.5225824318522
2948.7169,944.9963885841862
2949.8087,884.8950933370688
2950.8999,804.7681333006062
2951.9904,739.764936235955
2953.0803,687.8349218565891
2954.1696,651.4775024783346
2955.2582,597.0920835386682
2956.3462,563.1780639602919
2957.4335,528.2848366949875
2958.5202,495.4617890627578
2959.6062,494.75830310075617
2960.6916,477.42375589151993
2961.7764,460.70751957000357
2962.8605,443.90896149692526
2963.9439,430.1274444259277
2965.0267,423.262326671565
2966.1089,417.31296224711696
2967.1905,428.5787009332412
2968.2714,424.70888833746574
2969.3516,435.6528657815313
2970.4312,419.7599703400905
2971.5102,444.3795347312689
2972.5885,443.7608874755923
2973.6662,436.6033526497914
2974.7432,443.9562498929889
2975.8196,452.4188944782743
2976.8954,436.0405972391743
2977.9705,432.82066448502815
2979.045,425.108398164769
2980.1188,422.9030958991242
2981.192,411.754051057737
2982.2645,391.61055278122046
2983.3364,382.1218860926474
2984.4077,343.08733209898537
2985.4783,342.3561680859841
2986.5483,316.1276679085199
2987.6177,289.8511019979071
2988.6864,270.62573762418447
2989.7545,240.9008391588793
2990.8219,219.07566826726338
2991.8887,207.1494842055996
2992.9548,180.2215440393942
2994.0204,154.39110276265933
2995.0852,142.0074135671921
2996.1495,117.86972810087877
2997.2131,96.32729659153199
2998.276,81.5793680882681
2999.3383,69.42519067693115
3000.4,61.164011627571995
3001.4611,48.995077515989465
3002.5215,40.66763430634319
3003.5812,23.98092747284295
3004.6404,18.934202083022
3005.6989,18.926702964604942
3006.7567,13.007674755975131
3007.8139,2.726361906249508
3008.8705,-1.9179912655313274
3009.9264,-7.67614046759013
3010.9818,1.5511777525825892
3012.0364,-6.886696467860247
3013.0905,-7.540423007276786
3014.1439,-9.060592945927965
3015.1966,-14.54772203524908
3016.2487,-10.152235511352842
3017.3002,-11.574413278608972
3018.3511,-2.8144338205544273
3019.4013,-4.6223599923383745
3020.4509,-1.848226532916783
3021.4998,3.7079779961304666
3022.5481,0.19628349700565195
3023.5958,6.816719834831815
3024.6428,12.26931687276965
3025.6892,4.604104405812677
3026.735,18.971112106262012
3027.7802,23.570369600378285
3028.8247,18.90190632471092
3029.8685,24.41575148010702
3030.9118,32.911934078394665
3031.9544,37.64048288724496
3032.9963,44.95142634521005
3034.0376,42.09479251443747
3035.0783,53.870609007561484
3036.1184,48.92890301626812
3037.1578,64.3697011935385
3038.1966,69.4930297030653
3039.2348,62.84891406484371
3040.2723,70.68737910393963
3041.3092,73.60844901693144
3042.3455,75.81214729352371
3043.3811,72.59849668733716
3044.4161,77.76751919387095
3045.4505,80.4192360826396
3046.4842,79.25366784548237
3047.5173,84.02083417004656
3048.5498,73.22075395144248
3049.5816,75.70344524457266
3050.6128,69.9189253721321
3051.6434,72.4672108997828
3052.6734,80.44831769399707
3053.7027,75.21226089657569
3054.7314,73.05905484483685
3055.7594,75.23871312397625
3056.7868,75.55124858859904
3057.8136,84.79667334092414
3058.8398,77.92499872765791
3059.8653,65.03623524753982
3060.8902,64.48039262006023
3061.9145,73.05747991434669
3062.9381,66.36750555472338
3063.9612,74.51047723493934
3064.9835,62.036401985069574
3066.0053,71.59528609008385
3067.0264,67.38713521458851
3068.0469,61.16195430723701
3069.0668,57.769747642812035
3070.086,53.31051888447632
3071.1046,62.33427111769572
3072.1226,55.89100689483132
3073.1399,45.63072814490147
3074.1567,44.90343623801425
3075.1727,49.559132087971534
3076.1882,33.3978161595403
3077.203,38.86948842189645
3078.2173,32.32414851023816
3079.2308,30.611795671068535
3080.2438,18.282428827649937
3081.2561,27.78604659712653
3082.2678,24.67264741381814
3083.2789,12.192229434184753
3084.2893,13.24479056795974
3085.2991,14.630328602953966
3086.3083,10.498841194530883
3087.3169,3.7503258517509153
3088.3248,5.13477997868614
3089.3321,6.402200941906415
3090.3388,4.152586056633311
3091.3449,5.385932574066885
3092.3503,-1.7477622961184238
3093.3551,4.751498601892649
3094.3593,6.433729884060256
3095.3629,-0.3010538811696506
3096.3658,2.347161810311661
3097.3681,10.628394470141188
3098.3698,2.5426615864843143
3099.3708,0.08998054122287158
3100.3713,-0.5796313091877323
3101.3711,-3.8661575071981815
3102.3702,-4.319575804742556
3103.3688,9.010174669158744
3104.3667,-2.4268020619528556
3105.364,0.7695979353625262
3106.3607,4.049502838297144
3107.3568,1.7630331357597697
3108.3522,4.060309276163878
3109.347,4.391451690293081
3110.3412,-1.5934192316719304
3111.3348,5.605816856534943
3112.3277,3.0892962194379834
3113.32,9.90715506550356
3114.3117,10.60952957230495
3115.3028,4.946555818344052
3116.2932,3.3683697760275777
3117.2831,7.575107368296983
3118.2723,4.366904484410043
3119.2608,5.393896937874047
3120.2488,9.406220498527205
3121.2361,4.154010882269176
3122.2229,9.437403710937815
3123.209,10.706534564830577
3124.1944,9.861538929871301
3125.1793,12.102552184918522
3126.1635,9.879709610215855
3127.1471,12.843146364981465
3128.1301,10.492997509636552
3129.1125,16.029397976171424
3130.0942,12.952482591646401
3131.0753,12.06238602282815
3132.0558,14.959242806958684
3133.0357,21.09318736065603
3134.015,18.46435395094636
3134.9936,24.372876633923568
3135.9716,20.468889281038344
3136.949,21.702525520012728
3137.9258,20.273918773879927
3138.902,26.233202248648468
3139.8775,26.230508947586998
3140.8524,26.565971611632165
3141.8267,29.789722719415067
3142.8004,32.1018944839073
3143.7735,23.802618820183397
3144.7459,29.692027322299225
3145.7178,36.87025134628459
3146.689,32.287421951248916
3147.6596,27.2936698275995
3148.6295,30.93912534286909
3149.5989,35.4239185916544
3150.5676,34.04817935916083
3151.5357,34.412037076354636
3152.5032,37.0656208337204
3153.4701,37.1090593776226
3154.4364,31.792481083769758
3155.402,33.81601395677984
3156.367,35.07978568334613
3157.3315,44.68392361200165
3158.2952,39.52855474048209
3159.2584,41.06380561968376
3160.221,40.689802405217506
3161.1829,45.256670842056394
3162.1442,40.71453626827531
3163.105,44.563523569382994
3164.065,43.65375722374242
3165.0245,46.18536126408182
3165.9834,47.608459286591994
3166.9416,45.67317442561014
3167.8993,44.67962933938915
3168.8563,46.027946229450265
3169.8127,54.118246850518574
3170.7684,53.65065249703977
3171.7236,51.82528392227715
3172.6782,50.54226134298773
3173.6321,54.75170445767543
3174.5854,49.203732459422014
3175.5381,59.49846399379197
3176.4902,49.48601721431268
3177.4417,57.91650967952694
3178.3926,66.94005845311747
3179.3428,58.806780019601916
3180.2924,59.916790194097416
3181.2415,64.62020420365363
3182.1899,64.76713667615212
3183.1377,57.157701593272805
3184.0848,61.99201228902413
3185.0314,65.82018152583757
3185.9773,71.14232144622449
3186.9227,66.95854353449462
3187.8674,71.31895856353444
3188.8115,69.37367663664514
3189.755,71.42280714393834
3190.6979,68.11645878178896
3191.6402,75.20473953234375
3192.5818,76.53775669658503
3193.5229,78.56561682344778
3194.4633,77.88842569648946
3195.4031,78.50628831361146
3196.3423,77.51930889383098
3197.2809,81.12759087110246
3198.2189,76.33123690418736
3199.1563,80.88034884057132
3200.0931,83.6750277644276
3201.0292,84.26537395112598
3201.9648,82.40148683928612
3202.8997,85.5834650248741
3203.834,89.81140627984112
3204.7677,91.08540752030396
3205.7008,87.40556476426536
3206.6333,90.0719731188743
3207.5652,96.18472681722403
3208.4964,93.59391919168829
3209.4271,91.74964261279362
3210.3571,96.45198851512743
3211.2865,102.65104741578077
3212.2154,92.8469088673249
3213.1436,100.48966139582079
3214.0712,102.22939259886023
3214.9982,105.56618906913856
3215.9246,103.35013637705731
3216.8503,102.53131903735608
3217.7755,109.80982053127329
3218.7001,109.53572331473407
3219.624,105.45910874556552
3220.5473,109.68005708623754
3221.4701,103.84864754462893
3222.3922,111.86495823181795
3223.3137,113.37906622039648
3224.2346,115.74104746430675
3225.1549,115.10097678370056
3226.0746,120.30892784131909
3226.9937,116.06497314889387
3227.9121,118.46918401506719
3228.83,122.07163058783165
3229.7473,129.72238183048808
3230.6639,125.62150548562097
3231.5799,128.46906799859119
3232.4954,125.06513455854434
3233.4102,126.05976906993565
3234.3244,124.55303418656891
3235.238,123.1449913016503
3236.151,125.83570056285565
3237.0634,128.82522088641096
3237.9752,134.91360993018532
3238.8864,129.70092406379547
3239.797,129.38721830772215
3240.7069,138.82254638543697
3241.6163,133.5069607265392
3242.5251,139.14051237240284
3243.4332,138.17325102933216
3244.3408,135.90522501222642
3245.2477,138.63648125425226
3246.154,146.11706532952422
3247.0598,138.94702142579197
3247.9649,143.57639226963448
3248.8694,144.60521919816063
3249.7733,142.48354211271524
3250.6766,149.26139946859115
3251.5793,146.93882829624565
3252.4814,148.66586413352212
3253.3829,150.99254104887555
3254.2838,149.86889162410242
3255.1841,154.4449469310738
3256.0838,151.0207365429718
3256.9829,156.84628848852907
3257.8814,156.87162928627092
3258.7792,159.5467838862598
3259.6765,157.1717756698418
3260.5731,156.49662642289525
3261.4692,156.5213563595807
3262.3647,159.7459841290924
3263.2595,154.62052681541113
3264.1538,158.19499990505776
3265.0474,153.0694173383479
3265.9404,153.44379147364722
3266.8329,153.61813313862712
3267.7247,157.34245162652113
3268.616,156.7667546943814
3269.5066,153.24104852583577
3270.3966,154.6653377368442
3271.286,153.6896254109564
