RamanShift,CorrectedData
30.1047,5339.859863354683
32.3739,4992.70283346229
34.6426,4645.795750171297
36.9109,4297.488510156079
39.1787,3955.38096363305
41.4461,3615.972917843738
43.7131,3270.0641404758594
45.9796,2929.754363057402
48.2456,2588.193284415707
50.5112,2246.3805740805706
52.7764,1899.815875699857
55.0411,1562.4488104576217
57.3054,1223.7289805397602
59.5692,883.555972507681
61.8326,550.0793606855016
64.0955,217.94871056177925
66.3579,-112.23641787572154
68.6199,-432.12646681872377
70.8815,-730.7707572171363
73.1426,-946.5642930774645
75.4032,-954.1447780063498
77.6634,-459.6404594331482
79.9231,1289.5299471191174
82.1824,5701.8523179356125
84.4412,14497.812516406204
86.6995,28893.196348902235
88.9574,39901.839476816924
91.2148,45988.52727261153
93.4717,47617.79470972893
95.7282,48087.3263017267
97.9842,47999.106085984495
100.2398,47497.8676190087
102.4949,46920.99397731463
104.7495,46453.26776243896
107.0036,45657.67110670841
109.2573,45519.68567791701
111.5105,44659.592687282115
113.7632,44336.122890824205
116.0154,43960.00659796783
118.2672,43795.62367477637
120.5185,43329.10354771307
122.7693,42921.675205284984
125.0197,42214.067202708124
127.2696,42469.30766598174
129.519,41975.67429896442
131.7679,41859.69438082169
134.0163,40668.39477096232
136.2642,40566.60191019815
138.5117,40621.791832657094
140.7587,40029.84016680102
143.0052,39617.82213487391
145.2512,38797.81255882132
147.4967,38853.63586441062
149.7417,38290.46608943103
151.9863,37938.92688313543
154.2304,37247.84151187202
156.4739,37070.83286259978
158.717,36966.72344979924
160.9596,36347.18541724262
163.2017,35611.290539034904
165.4433,35605.46022580922
167.6844,34971.2155320858
169.925,34746.27715633028
172.1651,34128.81544729616
174.4047,33764.100406274156
176.6439,33403.90169326682
178.8825,32974.93863063569
181.1206,32844.580206703366
183.3582,32434.59508004296
185.5954,31866.051580781867
187.832,31630.267714701487
190.0681,31091.16116892275
192.3037,31158.649314263916
194.5388,31280.749210631628
196.7734,30012.027606346088
199.0075,30541.350936919964
201.2411,29980.885337745694
203.4742,30163.04663880221
205.7068,29810.700370259612
207.9389,29430.461760657523
210.1704,29146.74574042859
212.4015,29233.216945700857
214.632,28490.739721134905
216.862,28671.828119059184
219.0915,28224.69590689473
221.3205,27853.306565344323
223.549,27980.523292863785
225.777,27633.109009375865
228.0044,27551.2263549981
230.2314,27165.787693516948
232.4578,26860.555113206607
234.6837,26662.59043068342
236.909,27095.255193958186
239.1339,25801.76068441584
241.3582,25950.717912488755
243.582,25650.787630591734
245.8053,25350.5303316324
248.0281,25097.106252010475
250.2503,24962.3753746204
252.472,24358.947431385557
254.6932,24352.831904605595
256.9139,23995.98803299071
259.134,24386.324811722774
261.3536,23430.450996023792
263.5727,23672.575097252542
265.7912,23261.855392463294
268.0092,23170.5499219846
270.2267,22933.916493526456
272.4436,22413.812683093354
274.6601,22437.095837350662
276.8759,22277.323078825608
279.0913,21845.50130567447
281.3061,21589.63719328033
283.5204,21378.687198571257
285.7341,21129.25756257896
287.9473,21170.954312548303
290.16,20695.783264431575
292.3721,20682.40002247154
294.5837,20124.759983953143
296.7947,19757.468339337374
299.0052,20016.680077837627
301.2152,19543.799991092652
303.4246,19538.5326705744
305.6334,19191.482512316863
307.8418,18513.60371696871
310.0495,18188.25029326386
312.2568,17832.32606480021
314.4635,17429.684673293144
316.6696,17258.779582134805
318.8752,17164.614080420542
321.0802,16297.341284657865
323.2847,16340.664139708191
325.4887,16109.635427459558
327.692,15704.157766393371
329.8949,15701.433613894696
332.0972,15272.965270307024
334.2989,15101.954878959528
336.5001,15056.804430451739
338.7007,14328.965764363653
340.9008,14380.640569707211
343.1003,14148.43039220474
345.2992,14012.0366337722
347.4976,13564.460554841258
349.6955,13492.203275723208
351.8927,13115.4657810848
354.0895,13058.698920670751
356.2856,12859.703413071155
358.4812,12837.279846289115
360.6763,12329.328679730774
362.8707,12351.200244429449
365.0646,12055.144748125203
367.258,11851.362275046129
369.4508,11489.052788868874
371.643,11632.21613475649
373.8346,11317.352042981503
376.0257,11155.960127494298
378.2162,10899.389889071746
380.4062,10460.290716931144
382.5956,10422.161891295902
384.7844,10250.402587786564
386.9726,10127.461877802052
389.1603,9920.888730237319
391.3474,9448.832012712708
393.5339,9605.740493639722
395.7199,9048.712846941562
397.9052,8962.897650484032
400.09,8854.393391645819
402.2743,8891.598468176642
404.4579,8589.411189282335
406.641,8512.129775252768
408.8235,8538.3023604837
411.0054,8443.576994249663
413.1868,8439.151640442193
415.3675,8222.724178517085
417.5477,8054.992403538607
419.7273,7926.754028343865
421.9064,7705.0066852200325
424.0848,7556.897927186757
426.2627,7492.625230213642
428.4399,7077.6859947013145
430.6166,6669.427546124141
432.7928,6700.697139179654
434.9683,6212.041961871146
437.1432,6039.909135194946
439.3176,5965.995718027007
441.4914,5449.848708844234
443.6645,5455.965046463563
445.8371,5257.191615203497
448.0091,4950.525244822893
450.1806,4734.262712508767
452.3514,4647.350745942902
454.5216,4434.636025464475
456.6913,4358.76518493917
458.8603,4304.084813886337
461.0288,4052.2414582376805
463.1967,4091.481620884071
465.3639,4073.8517641939907
467.5306,3561.998309621107
469.6967,3677.717637880589
471.8622,3652.4560940676383
474.0271,3448.7099865002965
476.1914,3392.325586972067
478.3551,3331.7491327894095
480.5182,3479.476827335515
482.6807,3182.1548406761285
484.8426,3219.629308082236
487.0039,3452.2963330033235
489.1647,3474.6019866925853
491.3248,3253.142305880254
493.4843,3484.8632925505735
495.6432,3397.16091615639
497.8015,3002.881111301962
499.9592,3056.7197786199467
502.1163,2934.4727887141926
504.2728,2699.3859816213953
506.4287,2604.6551680335106
508.5839,2275.67613164863
510.7386,2243.644630118324
512.8927,2226.8563983373897
515.0461,2094.5571487641864
517.199,2207.1425715885707
519.3512,2080.1083360548655
521.5029,2074.500089335983
523.6539,2102.613457803811
525.8043,1860.3440470852438
527.9541,1978.5874417810264
530.1033,1840.2892078885416
532.2519,1656.0948916193156
534.3999,1752.000020781983
536.5472,1843.3501066242825
538.694,1630.6406428739429
540.8401,1915.667104825261
542.9856,1890.5249514661264
545.1305,1921.409622627798
547.2748,1787.966539236273
549.4185,1669.1911030034535
551.5615,1676.8786977616182
553.704,1662.8246906510904
555.8458,1478.274432043465
557.987,1582.8732556821124
560.1276,1673.5164805276509
562.2675,1736.6494097120158
564.4069,1835.8673296319685
566.5456,2026.765509317789
568.6837,1831.289199441133
570.8212,1763.0336304060183
572.958,1242.0940143035914
575.0942,1214.4155455947039
577.2299,907.143406319301
579.3648,829.6227663731916
581.4992,676.0987865807838
583.6329,666.1666194702921
585.766,756.1146633430035
587.8985,808.5746614956661
590.0304,456.42834966389637
592.1616,645.4574554975625
594.2922,515.3391469273338
596.4222,279.0005854293195
598.5515,253.71892732630658
600.6802,266.2685417251705
602.8083,-4.278736919295625
604.9358,-21.20373417508381
607.0626,136.6127671343711
609.1888,-128.1098039890494
611.3144,145.69661669492052
613.4393,70.15137324348325
615.5636,-1.72764579532668
617.6873,137.92674731427542
619.8103,-1.5182424327504123
621.9327,143.50321207034722
624.0544,93.45695309757139
626.1756,-60.94261067418847
628.2961,-75.7320042029969
630.4159,-253.34714363029343
632.5351,-239.27318853476754
634.6537,111.75723244281107
636.7716,-243.7861189991454
638.8889,-99.93348227982642
641.0056,-69.71266139503132
643.1216,15.349537994792627
645.237,162.12700665870216
647.3518,-125.0065179761732
649.4659,-21.52730010396772
651.5793,-40.210355103670736
653.6922,28.76951670335984
655.8043,-223.86208330275258
657.9159,222.47044597040076
660.0268,-445.95505800254614
662.137,-70.06075997162407
664.2466,23.78563040411973
666.3556,-69.53289662736643
668.4639,-35.73335105597653
670.5716,-93.0820482379495
672.6786,39.15505344662233
674.785,-224.98707449274661
676.8907,-162.02346093805681
678.9958,-4.216887150483672
681.1002,16.471484223133302
683.204,-171.0695094218463
685.3072,-240.75103085475712
687.4097,-183.73253386053693
689.5115,-165.1710671213732
691.6127,62.17815616853477
693.7132,-102.43842712604237
695.8131,6.175619237910723
697.9123,92.11775486326223
700.0109,212.63543929116713
702.1089,-18.923868858386413
704.2061,136.78728690823482
706.3028,236.66636327394372
708.3987,245.66081555382698
710.4941,197.26809669630165
712.5887,423.7856571931843
714.6827,395.96094556363823
716.7761,583.5414060889889
718.8688,765.1244790909695
720.9608,661.0575990559082
723.0522,870.5881928188901
725.1429,731.8636806044669
727.233,1183.8314739313428
729.3224,648.9889769995934
731.4112,852.0335821709596
733.4993,794.0126753173245
735.5867,737.0236337902461
737.6735,537.7638270011521
739.7596,350.88061699124955
741.845,285.0713604241173
743.9298,457.68341045454144
746.014,274.8641173866199
748.0974,198.6608269476128
750.1802,496.87088211616356
752.2624,90.84162388429831
754.3439,162.0703882753951
756.4247,344.404510404398
758.5048,294.3413237655768
760.5843,476.77815840917174
762.6631,736.3123414420188
764.7413,963.7411952031689
766.8188,1410.962034668577
768.8956,1767.1721651768166
770.9718,1949.7188779569042
773.0473,1823.2494465661293
775.1221,1591.3111250646689
777.1962,1473.101149280199
779.2697,1273.3167391273018
781.3426,1448.5550997895407
783.4147,1563.6634237173785
785.4862,1587.8388888756817
787.557,1349.5286575927457
789.6271,1349.2298763184808
791.6966,968.3396780075273
793.7654,469.9551821222194
795.8335,382.6734984415598
797.901,268.14173204499093
799.9678,185.25698418529646
802.0339,146.96635343385424
804.0993,157.66693650948582
806.1641,32.25582866137847
808.2282,1.3801235620194348
810.2916,10.786592648124497
812.3544,80.27199356899655
814.4164,-91.11702378420159
816.4778,89.21538856247935
818.5385,53.2659888420676
820.5986,247.3806440258195
822.658,410.55468895778904
824.7166,572.7334560082163
826.7747,792.2122734418372
828.832,1206.9364637960389
830.8886,1424.8013416861286
832.9446,1525.4022096580447
834.9999,1180.2343560097506
837.0545,1213.793053785157
839.1085,1204.2235642259038
841.1618,1052.3211364356976
843.2143,743.4810074760535
845.2662,662.7484038852854
847.3175,741.9185447669443
849.368,503.48664259709767
851.4179,672.3479024326443
853.467,436.2475242956498
855.5155,533.4807014846883
857.5633,428.74262293590436
859.6105,356.6784722506636
861.6569,403.88342874291993
863.7027,249.3026681598858
865.7478,393.88136220991146
867.7922,354.614680108396
869.8359,485.04778713192354
871.8789,392.92584501094825
873.9212,497.0940106254857
875.9629,560.3974369262942
878.0039,702.5812718932648
880.0441,722.2406579023009
882.0837,831.7207303035466
884.1226,873.3666172247686
886.1609,935.2234384765179
888.1984,982.2363051356951
890.2352,1265.6503189269788
892.2714,1128.8605717527244
894.3069,1213.0121428587518
896.3416,1099.1501002023215
898.3757,1047.3694996105842
900.4091,936.0153859192069
902.4418,1089.3327934901608
904.4739,1027.4667473252994
906.5052,1142.462261533161
908.5358,1023.1643399476598
910.5658,1028.8679749780858
912.595,964.9681488021088
914.6236,789.4598333087488
916.6515,910.5879907373674
918.6786,714.6975754327723
920.7051,796.7335326339089
922.7309,863.5908004327648
924.756,856.5143089539997
926.7804,935.5489796863476
928.8041,734.0897255534292
930.8272,848.2314501233632
932.8495,835.6190496234049
934.8711,803.847411798517
936.892,755.4614160374622
938.9123,766.4059336905193
940.9318,735.6758285534015
942.9506,739.8159567577313
944.9688,735.5711670784294
946.9862,613.3363008922606
949.003,508.70619222027017
951.019,431.12566895017517
953.0344,442.38955388266913
955.0491,440.8426655071671
957.063,559.7798178892263
959.0763,750.7458206860028
961.0888,655.5854779568617
963.1007,815.243586253695
965.1119,843.5649355725691
967.1223,832.0943077571574
969.1321,881.176476215478
971.1412,866.6562060346041
973.1495,822.4782534898914
975.1572,900.2873661901103
977.1641,963.3282835193022
979.1704,904.4957358586144
981.1759,880.2344439559383
983.1808,942.5391195142329
985.1849,927.6544654341124
987.1884,982.7751751908145
989.1911,1049.5459329830483
991.1932,1085.4114131817805
993.1945,1106.26627966253
995.1951,980.1551854466852
997.1951,1056.322772493022
999.1943,971.413672958759
1001.1928,979.672508437925
1003.1906,880.1438908104101
1005.1877,1001.9224221594377
1007.1841,947.4526957667986
1009.1798,973.879294895054
1011.1748,902.6967933322703
1013.1691,812.4497551277345
1015.1627,666.2327353037726
1017.1556,450.8402807582388
1019.1477,439.46693172664527
1021.1392,250.40722393614124
1023.1299,202.90568871922005
1025.12,219.80685490433825
1027.1093,223.30524929090097
1029.0979,345.3953964802713
1031.0859,318.3718188407838
1033.0731,303.37903528683455
1035.0596,265.8615615491326
1037.0454,93.86391032457323
1039.0304,75.03059165147715
1041.0148,1.0561146295403887
1042.9985,-82.56501239183126
1044.9814,-63.48829161381582
1046.9636,-174.76840041315882
1048.9452,-148.75938191857495
1050.926,-58.06353332245635
1052.9061,-96.63166571098554
1054.8855,-88.01401011566486
1056.8642,-31.05983221767383
1058.8421,-4.667518438276602
1060.8194,48.16485508899132
1062.7959,32.189258859067195
1064.7717,129.75766288527666
1066.7469,139.27203685905624
1068.7213,224.48434917428676
1070.695,316.2465668321347
1072.6679,232.36065458891608
1074.6402,268.57857403852177
1076.6117,323.30228445124885
1078.5826,300.833742411618
1080.5527,204.4249012711589
1082.5221,121.12771137306117
1084.4908,125.64412101628113
1086.4587,146.07607728850053
1088.426,171.17552602096475
1090.3925,202.2444115841863
1092.3584,236.884676636917
1094.3235,195.29826181550743
1096.2879,194.537105387466
1098.2515,311.15314366734674
1100.2145,474.3983110242989
1102.1767,564.7245387159564
1104.1382,665.933753255973
1106.099,844.2278755107654
1108.0591,911.40881968744
1110.0185,990.7284915508244
1111.9771,1083.3887877516681
1113.9351,982.7915950334536
1115.8923,903.1387893057836
1117.8488,822.2322366503431
1119.8045,635.1737941174542
1121.7596,600.5153105350946
1123.7139,522.7086283795325
1125.6675,473.10558412189494
1127.6204,640.9080090062234
1129.5726,535.9677295455076
1131.524,571.0365658436604
1133.4748,523.5163326449147
1135.4248,386.05883898316097
1137.3741,291.8158886571073
1139.3226,192.83928160489813
1141.2705,255.53081484652284
1143.2176,100.8422834735793
1145.164,145.97548002237454
1147.1097,142.8321960207977
1149.0546,116.46422153699677
1150.9989,55.423345210823754
1152.9424,63.411354517513246
1154.8852,-9.819963621928764
1156.8272,-7.218822920589446
1158.7686,62.566563006661454
1160.7092,52.48798061713387
1162.6491,-19.352784257509484
1164.5883,135.79605368950797
1166.5267,199.78647309925145
1168.4644,316.17045125486766
1170.4014,442.04996344160463
1172.3377,618.4269817830464
1174.2732,856.8034739822942
1176.2081,1156.6814015581876
1178.1421,1396.9127174615387
1180.0755,1753.3993630763543
1182.0082,1920.2432658175312
1183.9401,2049.1963355659645
1185.8713,1914.5604630001326
1187.8017,1752.3375183065618
1189.7315,1605.5793525261834
1191.6605,1266.2877991765563
1193.5888,1057.0146757194561
1195.5163,998.4617869538051
1197.4432,919.7309271083723
1199.3693,884.9738804272965
1201.2947,821.8424219574445
1203.2193,767.2883178959528
1205.1432,737.91332622154
1207.0664,732.6191972400229
1208.9889,701.1576738781332
1210.9106,706.2804917363792
1212.8316,700.5893794037256
1214.7519,704.1860584063143
1216.6715,695.6222432644245
1218.5903,751.6996414564783
1220.5084,864.3199535046806
1222.4257,979.0848724142706
1224.3424,912.4960825472772
1226.2583,973.4552584749072
1228.1735,1075.3640656434218
1230.0879,1111.9241597645378
1232.0016,1225.8871857963204
1233.9146,1344.3047775776067
1235.8269,1331.3785566883744
1237.7384,1338.5601312655745
1239.6492,1222.6010961323773
1241.5592,1262.503032726363
1243.4686,1282.3175102591267
1245.3772,1371.196085317246
1247.285,1470.0903016641314
1249.1922,1572.8016893512577
1251.0986,1692.181763729197
1253.0042,1664.882024420509
1254.9092,1788.1039541259815
1256.8134,1854.2490188975644
1258.7169,1967.9186669061855
1260.6196,2069.664327780294
1262.5216,2219.537411469166
1264.4229,2338.3893072254396
1266.3234,2519.5713821063764
1268.2232,2582.234979785375
1270.1223,2654.33141874013
1272.0207,2636.061991625993
1273.9183,2631.4279645550123
1275.8151,2576.58057727863
1277.7113,2610.5210432340136
1279.6067,2649.100550092542
1281.5014,2803.3702594203896
1283.3953,3073.981306292735
1285.2885,3406.434797751059
1287.181,3710.031810097058
1289.0727,4086.823385568081
1290.9637,4270.56052930119
1292.854,4484.194205565233
1294.7435,4453.975335923449
1296.6323,4421.854797097149
1298.5204,4328.933421267899
1300.4077,4257.261996398727
1302.2943,4121.441267163322
1304.1802,3954.6719356627545
1306.0653,3687.304662783703
1307.9497,3402.0900698661244
1309.8333,3120.77874137694
1311.7162,2961.2212277621693
1313.5984,2900.118048260061
1315.4798,2744.719692496663
1317.3605,2735.626621096868
1319.2405,2724.7892672383823
1321.1197,2630.1580367426614
1322.9982,2391.933308183259
1324.876,2335.6154338321685
1326.753,2127.6047420420655
1328.6293,2073.9515378094984
1330.5048,2011.6561048549665
1332.3796,1866.1687061594712
1334.2537,1822.739584587467
1336.127,1771.3689643417456
1337.9996,1809.1570513977058
1339.8714,1800.75403401706
1341.7426,1836.310082369986
1343.6129,1822.7253486191148
1345.4826,1815.7499665640025
1347.3515,1883.7840517769691
1349.2196,1889.0777016728207
1351.087,1964.0309948285576
1352.9537,1950.4939909304012
1354.8197,2067.96673002428
1356.6849,2199.6492326511907
1358.5493,2320.5414986724827
1360.4131,2427.593505953024
1362.276,2522.4552091522746
1364.1383,2552.1265386537452
1365.9998,2434.357399616427
1367.8606,2266.0476716780468
1369.7206,2034.8972101327527
1371.5799,1845.7058476142229
1373.4384,1655.1733964071718
1375.2962,1576.8496503392453
1377.1533,1329.5843866863725
1379.0096,1088.1273669559814
1380.8652,901.6283393596823
1382.7201,740.5370412278062
1384.5742,537.2032008744281
1386.4275,437.42653920823795
1388.2802,296.8567717659171
1390.132,220.4936097099053
1391.9832,226.13676123407276
1393.8336,172.33593232735439
1395.6832,137.74082671731958
1397.5322,126.20114640820248
1399.3803,81.86659202681403
1401.2278,8.336862937980186
1403.0745,5.811657687863772
1404.9204,-19.309325260717742
1406.7656,13.773612496912392
1408.6101,-47.68963773440555
1410.4538,-21.199184787561535
1412.2968,19.395338924019597
1414.139,37.44451276674954
1415.9805,125.7989159130957
1417.8213,145.00912716109087
1419.6613,190.02572405078172
1421.5006,293.09928267214127
1423.3391,418.68037721489236
1425.1769,581.0195789377722
1427.0139,888.767454912715
1428.8502,1217.074566401472
1430.6858,1522.5414657781148
1432.5206,1739.9686932459808
1434.3547,1905.0067737829995
1436.188,1997.8562149674326
1438.0206,1932.1175053274637
1439.8524,1805.241113412725
1441.6835,1791.177488451689
1443.5139,1736.8270616204281
1445.3435,1690.3402461832666
1447.1724,1710.36743803625
1449.0005,1701.75901617204
1450.8279,1656.9653424796343
1452.6545,1670.4867618304488
1454.4804,1771.8736025262479
1456.3056,1790.326176163955
1458.13,1738.44477662176
1459.9536,1697.1796798746
1461.7766,1548.2311445129817
1463.5987,1386.249412155601
1465.4202,1174.734708938886
1467.2409,956.1372471367504
1469.0608,834.407227275784
1470.88,724.0448403211922
1472.6984,587.4502688941138
1474.5161,444.17368837523827
1476.3331,376.3652682707325
1478.1493,346.77517364506275
1479.9648,335.3035657990349
1481.7795,289.90060256573634
1483.5935,279.3664384252188
1485.4067,256.95122495852956
1487.2192,250.15511095306647
1489.031,276.5782426267124
1490.842,221.32076369580864
1492.6522,246.9828151109341
1494.4618,228.86453560946393
1496.2705,256.11606145896803
1498.0785,242.68752663836312
1499.8858,209.32906256543174
1501.6924,208.44079823108223
1503.4981,244.87286053293974
1505.3032,199.82537428422256
1507.1075,195.34846184944035
1508.911,184.0422435948567
1510.7138,168.30683793325443
1512.5159,151.2923614370102
1514.3172,162.74892899544466
1516.1178,112.02665398495446
1517.9176,131.27564815447295
1519.7166,96.69602213265352
1521.515,105.1878852354057
1523.3126,108.20134581168713
1525.1094,78.58651115858811
1526.9055,69.0934874911818
1528.7008,65.82238023869286
1530.4954,19.573294139407153
1532.2893,56.44633327340125
1534.0824,11.641601525030637
1535.8747,66.35920221418382
1537.6663,35.59923854434237
1539.4572,6.661813055412495
1541.2473,65.24702793130382
1543.0367,39.904985289316755
1544.8253,97.13578659427912
1546.6132,122.53953291197467
1548.4003,111.9163243368348
1550.1867,160.9662597379065
1551.9723,198.43943686506827
1553.7572,250.28595185855193
1555.5414,327.9058988741908
1557.3247,400.6993695649726
1559.1074,543.7664523048297
1560.8893,630.757231460726
1562.6705,745.2217859619541
1564.4509,832.9601884302574
1566.2305,861.2225040351677
1568.0094,939.3087896166198
1569.7876,995.269093402323
1571.565,975.0534542269124
1573.3417,1007.0119009723385
1575.1176,997.5944527700285
1576.8928,1026.001118681288
1578.6672,975.0318977914922
1580.4409,1013.5867789259937
1582.2138,1032.415741159848
1583.986,1061.5187534322413
1585.7575,1163.7957743582174
1587.5282,1181.0967519376336
1589.2981,1284.2716225324075
1591.0673,1327.5203106935005
1592.8358,1397.6427281291599
1594.6035,1476.088773272435
1596.3704,1533.958330579957
1598.1366,1590.8512697474853
1599.9021,1634.3174451312025
1601.6668,1706.0566951787823
1603.4308,1778.3688419947284
1605.194,1898.7036906229878
1606.9564,2028.4110283238315
1608.7182,2178.2406233704896
1610.4791,2397.342223752097
1612.2394,2565.06555567539
1613.9988,2756.310321373694
1615.7576,2968.5261974296845
1617.5156,3140.212832862944
1619.2728,3231.4698470077983
1621.0293,3183.6468277964395
1622.785,3039.8933308463675
1624.54,2852.4588799386256
1626.2942,2664.342968455332
1628.0477,2377.995061254014
1629.8005,2176.81459654878
1631.5525,1992.0509887737935
1633.3037,1835.7036305950696
1635.0542,1711.3218947581263
1636.804,1602.3551356514527
1638.553,1527.552690550332
1640.3013,1502.9138807065065
1642.0488,1447.3880120961876
1643.7955,1518.5243756664531
1645.5416,1543.0722478905118
1647.2868,1611.180890056332
1649.0313,1671.7495480211528
1650.7751,1769.7274515304161
1652.5181,1876.0638136120688
1654.2604,1987.1578295967793
1656.0019,2129.1086760545913
1657.7427,2286.915509683975
1659.4828,2464.977465892316
1661.222,2561.8936572178627
1662.9606,2556.86317154909
1664.6984,2430.0350711555493
1666.4354,2217.1083927381515
1668.1717,1898.9321486974604
1669.9072,1546.0553292629684
1671.642,1302.526905674853
1673.3761,1052.5458337127511
1675.1094,875.1610561310281
1676.8419,745.7215051586027
1678.5737,636.8261042727809
1680.3048,542.7737694936677
1682.0351,462.0134104731096
1683.7646,396.29393143521156
1685.4934,358.06423198395896
1687.2215,328.6732077603938
1688.9488,272.2697508249257
1690.6754,237.4527499512351
1692.4012,239.32109119030247
1694.1263,214.82365821859094
1695.8506,221.65933231935014
1697.5742,192.12699262759816
1699.297,171.0255160617653
1701.0191,121.95377761901909
1702.7404,107.06065058627792
1704.461,73.74500703092781
1706.1808,62.55571794975367
1707.8999,72.54165360209117
1709.6182,60.951683621720804
1711.3358,48.93467691701153
1713.0527,37.83950178682426
1714.7688,-4.384973959338822
1716.4841,3.0101171096484904
1718.1987,25.873686230785097
1719.9126,1.754644610979085
1721.6257,-15.698096801595966
1723.338,-3.0856270763051725
1725.0496,-10.158878458531035
1726.7605,12.831247631758743
1728.4706,-4.216048738217069
1730.18,-27.151567629542114
1731.8886,-22.02606698497948
1733.5964,-26.740033503136146
1735.3036,-34.343733842209986
1737.0099,4.162832472522496
1738.7156,16.830009009683636
1740.4204,4.608139296275112
1742.1246,16.19756669099843
1743.8279,7.248634506482631
1745.5306,13.711685893384129
1747.2325,-6.562936070118667
1748.9336,-10.824888442964948
1750.634,-20.123762720369996
1752.3336,19.04095774308371
1754.0325,26.019990629203676
1755.7307,44.464053429388514
1757.4281,49.123863374843495
1759.1247,72.35013725213867
1760.8206,43.64359135660743
1762.5158,58.104941260078704
1764.2102,24.73490209794727
1765.9039,62.3341884245674
1767.5968,61.45351454696356
1769.289,66.84359414879691
1770.9804,99.65514029920814
1772.6711,109.58886539891137
1774.361,105.89548085206661
1776.0502,112.72569696696337
1777.7386,129.28022299293298
1779.4263,101.45976705205976
1781.1132,132.41503597362316
1782.7994,98.74673557231654
1784.4849,124.00557033868063
1786.1696,136.99224377579412
1787.8535,116.15745814668844
1789.5367,119.55191434447624
1791.2192,140.92631210070795
1792.9009,127.13134995141263
1794.5818,171.21772502336898
1796.2621,140.286133172036
1797.9415,146.6872685407052
1799.6202,155.92182386981403
1801.2982,162.49049043293053
1802.9755,168.64395794439588
1804.6519,180.3329144936597
1806.3277,198.60804648373596
1808.0027,174.17003851430854
1809.6769,191.06957319898174
1811.3504,171.40733140966222
1813.0231,211.78399210756652
1814.6951,226.650232539836
1816.3664,231.00672783578557
1818.0369,249.5041508582326
1819.7067,235.7931721599307
1821.3757,211.57445979860495
1823.044,253.698679474046
1824.7115,232.81649477030805
1826.3783,241.2785667344633
1828.0443,234.38555408542197
1829.7096,271.68811312930666
1831.3741,278.9368978283892
1833.0379,250.23255942806463
1834.701,247.72574638436345
1836.3633,242.9171046509946
1838.0248,278.7072777044159
1839.6856,280.6469065919173
1841.3457,305.73662957372653
1843.005,300.1770821036025
1844.6636,309.46889657794236
1846.3214,327.5627023913821
1847.9785,351.4091258438675
1849.6349,341.45878995971543
1851.2904,345.31231424915677
1852.9453,349.17031480783953
1854.5994,328.23340427829135
1856.2528,357.65219181134125
1857.9054,356.9772832754861
1859.5572,364.4092809627182
1861.2083,378.69878359525137
1862.8587,391.0463862512179
1864.5084,416.6526802217568
1866.1572,419.3682528875561
1867.8054,374.1936874627754
1869.4528,395.6795629679027
1871.0994,386.1764546814902
1872.7453,416.5349339252898
1874.3905,400.6055681593025
1876.0349,396.43892067816887
1877.6786,429.13555077048204
1879.3215,435.9960137604485
1880.9637,455.4708606809172
1882.6051,435.8106382047863
1884.2458,456.8158884502436
1885.8858,445.9371491773745
1887.525,444.4249535781182
1889.1634,418.729830385043
1890.8011,426.9523038864709
1892.4381,425.8928941834283
1894.0743,446.1521171074219
1895.7098,450.4804842310359
1897.3446,460.32850266533296
1898.9786,443.7966750165815
1900.6118,461.6854992877643
1902.2443,424.5454690439037
1903.8761,468.42707323317154
1905.5071,438.33079655828624
1907.1374,415.7071190377028
1908.7669,438.9565163065654
1910.3957,443.5294598429555
1912.0237,428.3764167353911
1913.651,434.79784963709517
1915.2776,439.5942169175278
1916.9034,413.0159725981712
1918.5285,418.91356630456175
1920.1528,386.08744353208385
1921.7764,412.8380455869892
1923.3992,388.76580991465835
1925.0213,365.871169832094
1926.6427,358.3545547686417
1928.2633,359.6663904949419
1929.8832,391.3070991980858
1931.5023,360.0770994685072
1933.1207,362.8768059835729
1934.7383,368.5566298198846
1936.3552,359.91697842527265
1937.9714,363.7582555620065
1939.5868,334.880861393186
1941.2015,329.3851924443361
1942.8154,334.4716418921753
1944.4286,324.6905996195692
1946.041,319.142452164675
1947.6528,295.8775828187445
1949.2637,298.5463716816048
1950.8739,280.4491958943163
1952.4834,292.13642961248024
1954.0921,299.3584441872026
1955.7001,312.91560804822984
1957.3074,298.6582866317249
1958.9139,285.9868422446907
1960.5197,288.85163420755725
1962.1247,253.75301898088674
1963.729,259.99135013673094
1965.3325,250.36697870961962
1966.9353,236.08025313416692
1968.5374,229.68151934132584
1970.1387,249.32112090125065
1971.7393,250.24939908728084
1973.3392,247.4166926795442
1974.9383,238.37333795568065
1976.5366,210.51966871916375
1978.1342,207.95601638974222
1979.7311,231.48271028196905
1981.3273,234.5000776308434
1982.9227,208.5084433565371
1984.5173,210.75813003422627
1986.1112,224.8994581540037
1987.7044,204.28274609838536
1989.2968,234.0083100008942
1990.8885,221.67646395222891
1992.4795,204.48751970300873
1994.0697,191.19178678709068
1995.6592,206.03957269345665
1997.2479,214.18118299917387
1998.8359,195.71692122091554
2000.4232,204.64708873354175
2002.0097,195.3719849547506
2003.5955,186.8919072557619
2005.1805,194.30715105407944
2006.7648,210.26800989829098
2008.3484,181.62477539391875
2009.9312,224.12773704379924
2011.5133,202.9271825345304
2013.0946,188.77339731143093
2014.6752,197.41666479054766
2016.2551,197.75726650019715
2017.8342,204.19548199453766
2019.4126,188.181588850156
2020.9902,161.46586260168533
2022.5672,198.64857690194367
2024.1433,187.63000378909874
2025.7188,186.26041331483157
2027.2935,174.5400736545289
2028.8674,179.81925112097633
2030.4406,180.19821028156093
2032.0131,144.12721390547904
2033.5849,160.30652295995333
2035.1559,179.28639697093422
2036.7261,163.11709386131224
2038.2957,162.29886976112084
2039.8645,166.73197916922345
2041.4325,205.06667496149475
2042.9998,175.40320834649083
2044.5664,178.24182848210148
2046.1323,186.28278277218942
2047.6974,186.8263168382
2049.2617,175.07267443875662
2050.8254,183.57209746421995
2052.3883,186.87482605423247
2053.9504,189.63109851271747
2055.5118,168.69115127485384
2057.0725,148.95521887951145
2058.6325,161.12353417865233
2060.1917,160.2963285346941
2061.7502,171.22383169881596
2063.3079,174.40627181923628
2064.8649,166.79387533193494
2066.4212,184.2868669288382
2067.9767,160.6854696339351
2069.5315,162.63990462835045
2071.0856,165.90039148635333
2072.6389,149.66714815581327
2074.1915,152.89039092560142
2075.7433,118.97033458791611
2077.2945,133.45719240605922
2078.8448,135.50117645363207
2080.3945,111.9524974696651
2081.9434,150.16136483818082
2083.4916,139.8779868236843
2085.039,136.6025701890676
2086.5857,137.33532029845355
2088.1317,140.22644114993454
2089.677,130.22613536825702
2091.2215,125.28460417590395
2092.7652,147.30204749309814
2094.3083,142.4286639872198
2095.8506,145.76465085262953
2097.3921,159.21020385940756
2098.933,132.86551731998406
2100.4731,147.63078395469074
2102.0124,144.50619515520702
2103.5511,160.79194083691073
2105.089,166.13820947012118
2106.6261,165.89518791724186
2108.1626,166.56306137929823
2109.6983,171.14201339836382
2111.2332,148.0322258508868
2112.7675,169.8338789018935
2114.301,169.24715123608985
2115.8337,174.87221983984819
2117.3657,158.95926000707186
2118.897,165.80844528294256
2120.4276,166.31994762305294
2121.9575,165.24393732491626
2123.4866,183.53058302284717
2125.0149,157.48005169872158
2126.5426,146.0425084991184
2128.0695,155.96811699581576
2129.5956,156.55703930016807
2131.1211,160.75943596385332
2132.6458,164.07546597298006
2134.1698,161.70528670606382
2135.693,155.5490539008697
2137.2155,174.3569216781152
2138.7373,182.47904260302857
2140.2584,169.56556749727133
2141.7787,158.76664535771306
2143.2983,132.2824234855725
2144.8171,165.663047594403
2146.3353,156.20866207493418
2147.8527,134.66940966127004
2149.3693,139.1454315254323
2150.8853,160.88686749275257
2152.4005,140.1938559971113
2153.9149,144.416533863523
2155.4287,146.3550365150677
2156.9417,151.4094979306601
2158.454,150.18005062567136
2159.9655,167.4668256013756
2161.4764,164.569952357253
2162.9865,161.13955871811686
2164.4958,149.6257708630892
2166.0045,160.07871335988875
2167.5124,161.09850927998286
2169.0195,169.9352800940478
2170.526,181.489145661777
2172.0317,156.46022414351228
2173.5367,167.24863188470408
2175.0409,154.6044836662004
2176.5445,163.22789259636465
2178.0473,174.01897023751917
2179.5494,140.07782651970865
2181.0507,149.40456963279303
2182.5513,147.79930636585595
2184.0512,152.21214201393377
2185.5504,140.74318039407353
2187.0488,135.7425238012056
2188.5465,131.36027312283113
2190.0435,152.74652788902586
2191.5397,128.05138631626687
2193.0353,134.37494509356657
2194.5301,121.41729962942554
2196.0241,139.12854398859872
2197.5175,127.60877102166342
2199.0101,109.75807218791579
2200.502,103.27653767056472
2201.9931,99.61425655523999
2203.4835,108.27131689480211
2204.9733,117.34780574597607
2206.4622,105.94380908277526
2207.9505,86.30941170573715
2209.438,89.84469735596394
2210.9248,71.64974891146176
2212.4109,77.3746483517898
2213.8962,89.11947694001174
2215.3809,98.23431516544588
2216.8648,102.96924262621724
2218.3479,91.92433793811142
2219.8304,72.34967868722197
2221.3121,91.54534154040357
2222.7931,80.41140244101553
2224.2733,75.89793641696633
2225.7529,72.55501769205057
2227.2317,64.08271973108822
2228.7098,70.73111527334731
2230.1872,72.25027641727638
2231.6638,84.24027455400665
2233.1397,81.95118035217229
2234.6149,79.5830636380083
2236.0894,73.9859934182432
2237.5632,70.96003790377245
2239.0362,63.05526456563939
2240.5085,66.77174016528716
2241.9801,51.059530833613735
2243.4509,86.76870203379985
2244.921,56.44931871842891
2246.3904,57.80144497240053
2247.8591,62.62514431612135
2249.3271,55.120479691987384
2250.7943,36.78751341614452
2252.2608,50.42630725353274
2253.7266,41.08692260121825
2255.1917,43.319420352007455
2256.656,48.12386098784009
2258.1197,53.400304557464096
2259.5826,36.49881062838813
2261.0447,43.319438234123936
2262.5062,56.41224604319541
2263.9669,55.227292290935566
2265.4269,54.41463464855724
2266.8862,53.72433023500162
2268.3448,65.65643562506602
2269.8026,65.66100685630909
2271.2598,50.438099309721565
2272.7162,54.037767709686705
2274.1719,58.410066276208454
2275.6268,66.40504868891503
2277.0811,63.422768043331416
2278.5346,62.91327677093568
2279.9874,74.62662666897859
2281.4395,76.96286890558213
2282.8908,53.77205390260542
2284.3414,75.15423131227863
2285.7914,71.20945024911543
2287.2406,60.78775907608906
2288.689,59.23920544407474
2290.1368,69.21383639607438
2291.5838,69.91169838270343
2293.0302,71.63283716243814
2294.4758,70.67729779464025
2295.9206,58.04512462234334
2297.3648,75.63636128180724
2298.8082,68.6510508288402
2300.251,67.98923556288855
2301.693,60.35095709689131
2303.1343,72.08625636389206
2304.5748,72.1451736934282
2306.0147,55.527748694169986
2307.4538,60.88402025334062
2308.8922,69.26402670288644
2310.3299,58.56780576591427
2311.7669,68.74539447289317
2313.2031,71.49682926861988
2314.6387,75.22214591043576
2316.0735,67.92137944071965
2317.5076,76.2945641496267
2318.941,77.09173364810204
2320.3737,70.66292078414062
2321.8056,59.25815763482251
2323.2369,55.62747557059947
2324.6674,68.9209053693412
2326.0972,58.83847725264877
2327.5263,77.23022075291783
2328.9547,67.24616481416251
2330.3823,55.986337608097074
2331.8092,63.60076663397649
2333.2355,47.739478831190354
2334.661,74.75250050312297
2336.0858,65.13985747576453
2337.5098,78.2515748275805
2338.9332,77.53767698563979
2340.3558,68.7481875945009
2341.7778,65.98312952334754
2343.199,68.14252495388428
2344.6195,77.52639540798191
2346.0393,62.334761726086526
2347.4583,78.51764397338229
2348.8767,75.32506159170907
2350.2943,89.10703323772532
2351.7113,83.61357681484606
2353.1275,66.09470933541343
2354.543,60.15044697563553
2355.9578,77.03080525077075
2357.3718,74.5357990745797
2358.7852,68.21544259050916
2360.1978,70.51974919665054
2361.6098,83.24873160894822
2363.021,65.90240183814694
2364.4315,70.88077106250512
2365.8413,55.533849801265205
2367.2504,76.71164786485406
2368.6587,64.46417450837725
2370.0664,53.24143821982034
2371.4733,52.69344684253201
2372.8795,53.72020768744778
2374.285,50.3717275385784
2375.6899,48.14801264273501
2377.0939,50.999068743012685
2378.4973,47.424901101026535
2379.9,41.67551446840389
2381.3019,50.20091312252407
2382.7032,36.65110092401301
2384.1037,50.37608123149084
2385.5035,45.87585703706827
2386.9027,52.15043082909597
2388.3011,58.749804637168836
2389.6987,38.92397996938098
2391.0957,47.12295774632639
2392.492,36.99673849936198
2393.8876,49.145322288616626
2395.2824,39.36870880425249
2396.6765,37.16689724498019
2398.07,31.189886415823366
2399.4627,57.23767475013938
2400.8547,51.56026036938556
2402.246,33.15764082264468
2403.6366,25.27981314339695
2405.0265,29.776774033550282
2406.4156,18.398519942213625
2407.8041,30.745047020730908
2409.1918,33.166351236461196
2410.5789,33.06242824931587
2411.9652,7.783273387542977
2413.3508,15.928881648766492
2414.7358,12.849247952779024
2416.12,12.49436706008646
2417.5035,30.814233602702643
2418.8863,14.45884208769985
2420.2684,15.628186714008734
2421.6497,22.572261535975485
2423.0304,9.841060451662997
2424.4104,-3.9154228665870505
2425.7896,5.902805155158148
2427.1682,10.645777205905233
2428.546,11.21352591563209
2429.9232,12.456083807860523
2431.2996,18.873483293978552
2432.6753,13.065756660814259
2434.0503,10.982936006460477
2435.4246,1.0750532983524863
2436.7982,14.09214039409926
2438.1711,18.834229140557
2439.5433,20.95135124366425
2440.9148,23.943538221017207
2442.2856,3.8108213807008724
2443.6557,26.553231791366215
2445.025,2.720800483556559
2446.3937,13.46355822228361
2447.7617,8.93153574535063
2449.1289,8.874763655930565
2450.4955,15.343272467879615
2451.8613,12.387092606307306
2453.2265,12.406254342894044
2454.5909,13.10078782544906
2455.9546,11.470723077719867
2457.3177,12.816089992449179
2458.68,21.48691834767169
2460.0416,20.08323779326429
2461.4025,29.055077764235193
2462.7627,34.15246749476319
2464.1222,31.37543592847578
2465.4811,20.5240116674795
2466.8392,8.448223000125381
2468.1966,18.99809800952835
2469.5533,36.52366469431945
2470.9093,39.32495086314975
2472.2645,35.35198395943826
2473.6191,39.10479103335365
2474.973,27.433398781545293
2476.3262,34.83783350961494
2477.6787,37.16812124883245
2479.0305,19.474287682090562
2480.3816,24.00635812060318
2481.7319,19.164357680841476
2483.0816,33.748311239216946
2484.4306,10.35824348049755
2485.7789,32.39417875196841
2487.1264,22.256141297336853
2488.4733,21.494155036367374
2489.8195,13.808243666263479
2491.165,17.99843066928952
2492.5097,20.46473938962663
2493.8538,26.45719299147322
2495.1972,21.1758144343803
2496.5398,-0.32937358667186345
2497.8818,11.691651411540533
2499.2231,-0.3110847973171076
2500.5637,17.162443443503435
2501.9035,14.212264898484136
2503.2427,11.288408160487052
2504.5812,10.340901680250681
2505.919,9.369773795630863
2507.256,13.725052741077434
2508.5924,14.206766657342996
2509.9281,21.96494354793049
2511.2631,8.099611274275048
2512.5974,25.16079747816366
2513.9309,18.298529720387705
2515.2638,5.212835310130686
2516.596,22.60374137359213
2517.9275,15.121274984844149
2519.2583,17.86546299192105
2520.5884,1.0863320916469092
2521.9178,16.68390880219249
2523.2465,3.9582196308635957
2524.5745,18.509290918131
2525.9018,9.637148964883863
2527.2284,8.241819886918165
2528.5543,16.27332970366001
2529.8796,17.88170435211623
2531.2041,14.666969606561906
2532.5279,15.779151062455867
2533.851,15.118274168588641
2535.1735,31.184364215960386
2536.4952,20.07744634438859
2537.8163,25.797545381848977
2539.1366,22.04468595554522
2540.4562,28.168892434706095
2541.7752,36.37018896811537
2543.0935,36.89859942286898
2544.411,41.40414730235966
2545.7279,36.33685574099832
2547.0441,42.19674745915381
2548.3596,56.68384481382827
2549.6744,45.79816974005735
2550.9885,38.089743606039974
2552.3019,50.608587321994264
2553.6146,54.75472141724185
2554.9266,48.5281659150196
2556.2379,33.728940291017125
2557.5485,57.05706353564483
2558.8585,48.21255430202564
2560.1677,55.6954306727182
2561.4762,49.70571024815786
2562.7841,56.29341007182961
2564.0913,64.25854669016076
2565.3977,59.251136086645374
2566.7035,58.42119360219294
2568.0086,61.718733985203016
2569.313,67.89377139986436
2570.6167,69.89631939317951
2571.9197,69.42639083321433
2573.222,72.4339978890714
2574.5236,65.31915203559106
2575.8246,68.1318640232746
2577.1248,78.57214394943298
2578.4244,82.84000123005808
2579.7232,77.63544449542042
2581.0214,74.85848154739301
2582.3189,92.20911941149438
2583.6157,80.13736436465865
2584.9118,83.59322176173123
2586.2072,87.02669615618493
2587.5019,92.0377912655606
2588.7959,90.42650993713278
2590.0893,99.74285409780009
2591.3819,105.28682477019652
2592.6739,87.35842197952888
2593.9652,105.90764469813666
2595.2557,87.43449102477553
2596.5456,90.5389579991247
2597.8348,103.17104178652039
2599.1234,97.18073764690871
2600.4112,93.66803980852728
2601.6983,105.48294152780613
2602.9848,96.02543512449597
2604.2705,96.29551186351819
2605.5556,99.44316204954112
2606.84,96.71837502427888
2608.1237,91.6711391350143
2609.4067,86.10144176184849
2610.689,93.90926936817209
2611.9707,99.64460755636128
2613.2516,89.70744098970067
2614.5319,88.49775333503021
2615.8115,97.81552736211574
2617.0903,89.06074495574603
2618.3685,75.68338702255505
2619.6461,86.33343357856984
2620.9229,89.96086388298454
2622.199,84.5156563316591
2623.4745,80.94778842084543
2624.7493,87.20723680164133
2626.0234,84.74397731566546
2627.2968,84.8079849324663
2628.5695,81.14923377415198
2629.8415,82.2176971147519
2631.1128,79.31334741680348
2632.3835,76.53615632066862
2633.6535,65.63609467357537
2634.9228,71.96313255739233
2636.1914,70.66723939762778
2637.4593,76.94838390015843
2638.7265,83.00653406419019
2639.9931,64.89165711944474
2641.259,76.15371946558093
2642.5242,87.44268685334032
2643.7887,71.90852427192976
2645.0525,78.90119583612886
2646.3156,61.07066494163314
2647.5781,74.71689419512563
2648.8398,74.03984559258379
2650.1009,59.93948038281587
2651.3613,71.51575907423307
2652.6211,71.26864157585419
2653.8801,83.84808708153923
2655.1385,71.90405407246385
2656.3961,64.13650019132228
2657.6531,73.4453823617705
2658.9094,79.0306568660983
2660.1651,77.69227925214341
2661.42,88.58020427743736
2662.6743,83.69438592258871
2663.9279,89.08477728240518
2665.1808,81.40133061475058
2666.433,91.29399728664202
2667.6846,101.9127278510839
2668.9354,95.95747194813907
2670.1856,86.22817819874581
2671.4351,98.57479426426585
2672.6839,96.04726694378019
2673.9321,88.99554205062213
2675.1795,100.9695644376527
2676.4263,99.06927806777685
2677.6724,95.74462589420591
2678.9179,106.54554987945926
2680.1626,99.67199102860991
2681.4067,106.0238892812772
2682.6501,116.20118358036052
2683.8928,115.05381180852123
2685.1348,97.58171068640968
2686.3761,103.33481578413853
2687.6168,97.86306169600311
2688.8568,97.36638198295213
2690.0961,95.19470922730375
2691.3348,91.29797503771283
2692.5727,93.72611007088744
2693.81,93.0290440705578
2695.0466,93.05670584319228
2696.2826,101.75902326497066
2697.5178,86.73592328150448
2698.7524,82.98733182081651
2699.9863,89.71317394357015
2701.2195,94.91337388055649
2702.452,96.83785496543601
2703.6839,100.93653958273649
2704.9151,102.75934914860727
2706.1456,98.55620406983257
2707.3755,95.67702372560393
2708.6046,107.52172650955094
2709.8331,113.64022985853308
2711.0609,110.18245013419323
2712.2881,112.24830256177347
2713.5145,122.08770126469062
2714.7403,123.10055924388121
2715.9654,127.33678827940435
2717.1899,131.5962989203149
2718.4136,152.27900044229932
2719.6367,154.2848008050828
2720.8591,146.76360644559986
2722.0809,153.11532225793826
2723.3019,167.63985166855036
2724.5223,155.6870965727369
2725.7421,157.85695718939928
2726.9611,174.34933218056972
2728.1795,174.9141186297104
2729.3972,161.90121187679233
2730.6142,148.71050551264398
2731.8306,141.29189150908314
2733.0462,131.34526035082308
2734.2612,128.92050110965897
2735.4756,123.66750154393344
2736.6892,114.63614812278479
2737.9022,106.67632607867654
2739.1145,86.88791949771144
2740.3262,90.62081139922884
2741.5372,73.97488393368963
2742.7475,69.55001834534664
2743.9571,67.59609513870396
2745.1661,53.962994122766986
2746.3744,54.450594430580395
2747.582,56.75877465555959
2748.7889,54.0874128466146
2749.9952,53.9863864850679
2751.2008,39.155572511368746
2752.4057,32.44484732610317
2753.61,36.85408693830095
2754.8136,26.733167032545907
2756.0165,23.781962924880418
2757.2188,27.700349664017267
2758.4204,19.43820206084888
2759.6213,18.745394649266018
2760.8215,32.22180176877691
2762.0211,27.417297571436848
2763.22,26.73175588708341
2764.4182,24.615050271380596
2765.6158,21.967054012675362
2766.8127,19.68764015316492
2768.009,15.976681515377095
2769.2045,8.134050724963345
2770.3994,12.759620247809153
2771.5936,5.353262468460798
2772.7872,-2.335150356131635
2773.9801,-8.205746022549874
2775.1723,-7.65862899922422
2776.3639,-6.493821779181644
2777.5548,-3.6112703457465614
2778.745,-11.46085580896397
2779.9346,-15.742423202288819
2781.1235,-10.005703065225589
2782.3117,-0.10026867047258747
2783.4992,-2.7255933337539773
2784.6861,-2.431149369110699
2785.8723,-6.066381861906848
2787.0579,-4.880711610324624
2788.2428,-0.6734988093921856
2789.427,6.155945104170314
2790.6106,8.008315421896441
2791.7935,-3.565692626239297
2792.9757,-0.9653838903450378
2794.1573,8.759972400740253
2795.3382,9.56111666236302
2796.5184,12.588789222270407
2797.698,21.543730312598882
2798.8769,21.676680039597613
2800.0551,19.238378294078757
2801.2327,34.42956475008691
2802.4096,45.85097888928499
2803.5859,49.753359849038816
2804.7615,53.93744630820481
2805.9364,60.50397644810482
2807.1106,71.80368791068679
2808.2842,78.93731773285617
2809.4572,99.85560223348341
2810.6294,123.95927694206591
2811.801,135.89907638954628
2812.972,148.97573386727368
2814.1423,173.78998130760795
2815.3119,209.2925491531513
2816.4808,227.6341661086069
2817.6491,248.06555878575307
2818.8167,286.9874515200256
2819.9837,322.20056616620616
2821.15,339.7556217092015
2822.3157,384.4533339119139
2823.4807,405.1944151396899
2824.645,459.52957391334235
2825.8086,474.75951470174107
2826.9716,508.6349373784599
2828.134,532.8565370694774
2829.2957,571.4750038144238
2830.4567,594.9910223243636
2831.617,583.2052715956113
2832.7767,610.2684246745722
2833.9358,606.6311487755993
2835.0941,610.0941050103623
2836.2519,607.3579484242196
2837.4089,580.4233279615896
2838.5653,569.1408864933115
2839.7211,558.611261085992
2840.8761,559.6350831148286
2842.0306,569.7629783689076
2843.1843,578.2955670409646
2844.3374,591.6334636261051
2845.4899,627.9772768364802
2846.6417,653.9776094679061
2847.7928,682.2350580364274
2848.9433,721.8502125183137
2850.0931,755.073656067484
2851.2422,776.1559646193563
2852.3907,820.2477065586124
2853.5385,850.1994425083752
2854.6857,874.5617248892904
2855.8323,908.3850976200105
2856.9781,928.4700958735699
2858.1233,971.6172457391531
2859.2679,990.0770640212423
2860.4118,1033.7000578081497
2861.555,1046.7367242874154
2862.6976,1070.9875503095805
2863.8395,1091.7530122578185
2864.9808,1110.9335758054285
2866.1214,1130.77969570818
2867.2614,1140.9918156125063
2868.4007,1145.0703678570426
2869.5393,1151.5157733705087
2870.6773,1158.578441630919
2871.8146,1168.9587706011332
2872.9513,1169.6571466582245
2874.0874,1155.8239444896803
2875.2227,1138.709527086417
2876.3574,1138.8142458811108
2877.4915,1118.5884409193443
2878.6249,1103.1324408585572
2879.7577,1084.796563170305
2880.8898,1082.6311142948189
2882.0212,1056.1363898243653
2883.152,1060.3126745249
2884.2821,1057.510242601015
2885.4116,1044.879357654176
2886.5405,1050.1202727107466
2887.6686,1061.4332303482981
2888.7962,1056.0684626431998
2889.923,1064.2261910574887
2891.0493,1069.9566264925184
2892.1748,1061.6099692073801
2893.2997,1072.4864087615995
2894.424,1094.2361240986024
2895.5476,1092.0092834369518
2896.6706,1111.2560440528482
2897.7929,1116.8265523024015
2898.9145,1129.7209434291603
2900.0355,1153.7393415084093
2901.1559,1175.2318593182235
2902.2756,1188.1485980992852
2903.3946,1196.5396473399574
2904.513,1212.2550846471195
2905.6308,1225.244975662253
2906.7479,1243.2093739042896
2907.8643,1260.4983206397128
2908.9801,1242.811844702911
2910.0953,1264.249962323292
2911.2098,1261.8126773021445
2912.3236,1251.2499807982565
2913.4368,1262.4618513522923
2914.5494,1241.5982549924165
2915.6613,1237.2091451221736
2916.7725,1219.794462729128
2917.8831,1210.3541364287526
2918.9931,1189.7380826385738
2920.1024,1164.09620567258
2921.211,1149.0783979473772
2922.319,1138.6845402386098
2923.4264,1131.364501831138
2924.5331,1127.7181406229784
2925.6391,1123.2953031985016
2926.7445,1126.7458248648995
2927.8493,1118.9195296964087
2928.9534,1146.9162304998104
2930.0569,1138.3357288926893
2931.1597,1136.827815023469
2932.2619,1129.242267657216
2933.3634,1148.728854190719
2934.4643,1150.4873307283433
2935.5645,1139.1674418871667
2936.6641,1127.968920779394
2937.763,1116.4414891255556
2938.8613,1102.8348573664944
2939.959,1063.3987247786386
2941.056,1036.2827796100678
2942.1523,1002.336699474876
2943.248,952.8101516243293
2944.3431,909.3027932863274
2945.4375,846.2642721606687
2946.5313,798.6942268541243
2947.6244,747.992287510823
2948.7169,682.008076287952
2949.8087,634.6412078627745
2950.8999,583.0412900924747
2951.9904,526.2079244878237
2953.0803,495.6907067291811
2954.1696,458.5892272348267
2955.2582,438.25307146613284
2956.3462,420.73182029858117
2957.4335,382.2250502251221
2958.5202,362.6323335313891
2959.6062,359.70323868076525
2960.6916,344.7373305103099
2961.7764,331.5341702600507
2962.8605,321.09331572264307
2963.9439,315.21432137540035
2965.0267,312.2967384847034
2966.1089,307.6901151647903
2967.1905,314.7439964069315
2968.2714,300.1079241254962
2969.3516,312.68143708741513
2970.4312,308.46407105853996
2971.5102,313.7053586779082
2972.5885,324.2548294999174
2973.6662,329.51200994191197
2974.7432,331.0764231786884
2975.8196,326.9975890899234
2976.8954,322.27502424452973
2977.9705,317.2082419414445
2979.045,321.1967522568548
2980.1188,308.29006209486647
2981.192,311.7376751476178
2982.2645,294.1390920243474
2983.3364,281.24381021691727
2984.4077,261.2513242757989
2985.4783,252.86112593902556
2986.5483,239.42270433211775
2987.6177,224.53554605198497
2988.6864,215.89913530130968
2989.7545,197.26295403742006
2990.8219,173.02648205865307
2991.8887,150.83919719071662
2992.9548,141.75057552905412
2994.0204,122.66009166071672
2995.0852,114.86721875525052
2996.1495,98.17142875560126
2997.2131,81.27219245604272
2998.276,67.91897966913439
2999.3383,58.461259394714034
3000.4,53.49849995342993
3001.4611,44.83016908131822
3002.5215,31.30573397943067
3003.5812,26.224661400516993
3004.6404,19.836417784269997
3005.6989,10.140469308135494
3006.7567,15.586281951196042
3007.8139,4.6733215911293655
3008.8705,5.201053949751326
3009.9264,2.0689447021446767
3010.9818,5.626459471382191
3012.0364,1.073063859847366
3013.0905,-4.491776586339711
3014.1439,8.381403668210282
3015.1966,-6.957884968265489
3016.2487,-9.860132171343139
3017.3002,-8.575758107328056
3018.3511,-9.605084439806433
3019.4013,-3.3483471605406976
3020.4509,-7.255686306500593
3021.4998,-1.5772084646674784
3022.5481,-0.7629477377170133
3023.5958,-0.21292247201256487
3024.6428,1.0228566079302936
3025.6892,-6.355619095308953
3026.735,3.8516418106212313
3027.7802,5.594694210706848
3028.8247,1.5735929514178792
3029.8685,5.638392823277286
3030.9118,9.189148601072588
3031.9544,16.92591500320725
3032.9963,19.34874665619367
3034.0376,19.257698017285236
3035.0783,27.30282335024816
3036.1184,26.084176726271608
3037.1578,27.201811943517157
3038.1966,31.655782539304425
3039.2348,34.99614177893477
3040.2723,38.42294261115211
3041.3092,42.28623763473985
3042.3455,44.1360790642517
3043.3811,40.37251869137992
3044.4161,40.345607866456135
3045.4505,46.955397536087276
3046.4842,36.95193824342425
3047.5173,45.63528006206428
3048.5498,40.15547269608521
3049.5816,41.86256539321283
3050.6128,38.15660699961819
3051.6434,40.48764594284705
3052.6734,46.155730268879665
3053.7027,41.96090761881999
3054.7314,41.10322517221471
3055.7594,46.58272968900178
3056.7868,43.19946751808715
3057.8136,47.00348454254953
3058.8398,42.84482621347286
3059.8653,43.52353751190668
3060.8902,39.439662990452405
3061.9145,43.793246766476386
3062.9381,46.83433256294836
3063.9612,45.16296366490565
3064.9835,50.62918288904251
3066.0053,50.48303260042354
3067.0264,46.22455465782201
3068.0469,44.95379041518089
3069.0668,49.970780764197855
3070.086,36.52556614703292
3071.1046,41.61818650613833
3072.1226,37.49868141871093
3073.1399,38.817090045765895
3074.1567,40.02345117333164
3075.1727,36.01780319926604
3076.1882,32.050184121192615
3077.203,32.32063157655716
3078.2173,25.02918288230353
3079.2308,26.325875032169733
3080.2438,22.960744769601718
3081.2561,22.58382857478705
3082.2678,16.095162698306126
3083.2789,18.694783164901253
3084.2893,17.18272583836324
3085.2991,11.959026395535147
3086.3083,10.873720341432943
3087.3169,12.276843061482282
3088.3248,11.718429832371783
3089.3321,1.3985158080221254
3090.3388,10.317136025169532
3091.3449,3.474325506565606
3092.3503,10.97011917179077
3093.3551,9.504551905682206
3094.3593,5.727658483376388
3095.3629,6.089473584964367
3096.3658,4.040031833261025
3097.3681,-3.320632209813539
3098.3698,5.957515977260869
3099.3708,1.074544089119911
3100.3713,5.780519760824177
3101.3711,4.375510616689155
3102.3702,4.7095842232251925
3103.3688,7.432808103187597
3104.3667,-0.7047502677642683
3105.364,4.8469765117014845
3106.3607,6.288062883371595
3107.3568,4.318583240563328
3108.3522,3.9386119137136006
3109.347,1.4482231900739748
3110.3412,3.797491317509923
3111.3348,8.386490529404853
3112.3277,2.1152950211674124
3113.32,2.4339789043414157
3114.3117,5.992616269318148
3115.3028,3.4412811821489413
3116.2932,3.9300476489593166
3117.2831,9.25898964146188
3118.2723,-1.7718189079309923
3119.2608,4.837695840603203
3120.2488,1.7876254273579661
3121.2361,-0.17193865575023892
3122.2229,7.909095065319093
3123.209,7.030819782273454
3124.1944,0.4933286077293815
3125.1793,5.446714583995458
3126.1635,12.991065825027363
3127.1471,9.876470390313898
3128.1301,6.203016209433315
3129.1125,11.220791113199198
3130.0942,9.079882870394925
3131.0753,8.780379137595986
3132.0558,7.9723674805792655
3133.0357,11.055935377317752
3134.015,9.331170226061005
3134.9936,9.09815931449927
3135.9716,11.956989837011236
3136.949,12.207748896994161
3137.9258,16.900523478275517
3138.902,16.785400442605493
3139.8775,14.71246648272907
3140.8524,17.131808123537553
3141.8267,17.24351174279755
3142.8004,14.247663546957966
3143.7735,19.09434957003279
3144.7459,18.533655703559532
3145.7178,14.965667648132381
3146.689,19.54047091900904
3147.6596,18.508150881790726
3148.6295,24.66879270667411
3149.5989,25.07248137877454
3150.5676,24.21930163651942
3151.5357,22.80933796761144
3152.5032,25.64267461756046
3153.4701,24.919395603782874
3154.4364,20.139584687268382
3155.402,28.303325379812918
3156.367,27.660700991816753
3157.3315,24.661794550646988
3158.2952,30.856688807064074
3159.2584,21.94546626521037
3160.221,23.52820912066153
3161.1829,28.454999349538582
3162.1442,26.57591869268049
3163.105,26.84104860637632
3164.065,29.100470281156134
3165.0245,29.704264639139836
3165.9834,31.30251231144223
3166.9416,28.445293632135645
3167.8993,30.082688622267227
3168.8563,34.01477701843129
3169.8127,34.19163825639532
3170.7684,32.06335143177924
3171.7236,34.27999529828651
3172.6782,34.54164828898729
3173.6321,34.298388494151936
3174.5854,33.65029365863424
3175.5381,38.04744118430415
3176.4902,35.08990813652878
3177.4417,39.5277712002009
3178.3926,38.161106709314225
3179.3428,39.73999060258484
3180.2924,43.11449843711793
3181.2415,43.1347053726187
3182.1899,38.900686137647654
3183.1377,42.16251502941827
3184.0848,43.17026595613723
3185.0314,43.974012404386286
3185.9773,44.92382742904451
3186.9227,43.36978364525089
3187.8674,45.16195321890629
3188.8115,42.55040788221376
3189.755,50.18521891575702
3190.6979,47.41645717461574
3191.6402,48.69419301201751
3192.5818,47.518496307025515
3193.5229,47.98943645176095
3194.4633,53.107082363160146
3195.4031,53.87150247826534
3196.3423,45.68276470304795
3197.2809,50.49093640476441
3198.2189,51.096084493843534
3199.1563,51.49827537580495
3200.0931,51.99757494520743
3201.0292,52.194048581627044
3201.9648,55.78776114466409
3202.8997,53.67877697197844
3203.834,55.217159843352334
3204.7677,57.202973001780265
3205.7008,57.886279138085214
3206.6333,60.667140371060455
3207.5652,62.7456182406365
3208.4964,59.371773680072565
3209.4271,63.29566699517174
3210.3571,60.267357898019455
3211.2865,65.58690546774459
3212.2154,63.00436818080246
3213.1436,67.66980385777933
3214.0712,67.53326968921786
3214.9982,62.49482218896273
3215.9246,62.954517195525995
3216.8503,68.0124099224715
3217.7755,73.86855495381802
3218.7001,74.97300619346017
3219.624,71.77581680660714
3220.5473,73.577039208738
3221.4701,73.07672509757377
3222.3922,77.37492543506508
3223.3137,71.47169045239531
3224.2346,74.31706960699864
3225.1549,78.26111164159241
3226.0746,76.30386455572312
3226.9937,76.39537556632638
3227.9121,77.28569112729907
3228.83,76.62485692858445
3229.7473,76.31291788726888
3230.6639,80.09991815419025
3231.5799,84.28590111705724
3232.4954,82.57090936257941
3233.4102,82.05498463460734
3234.3244,83.33816785128249
3235.238,83.07049911019664
3236.151,85.3020176755598
3237.0634,82.88276198087704
3237.9752,83.4127696066333
3238.8864,87.14207730448595
3239.797,89.07072099196463
3240.7069,84.89873571517825
3241.6163,87.32615562952853
3242.5251,90.40301404142986
3243.4332,91.12934338403508
3244.3408,93.50517518646697
3245.2477,89.03054006655482
3246.154,94.80546770707625
3247.0598,90.62998690050351
3247.9649,92.8041254912541
3248.8694,99.32791041744568
3249.7733,94.95136768915471
3250.6766,97.32452232317854
3251.5793,95.0973983868009
3252.4814,96.07001897406028
3253.3829,99.54240622802118
3254.2838,101.76458133104798
3255.1841,99.33656447008097
3256.0838,98.15837481441463
3256.9829,94.93003053997782
3257.8814,102.45154884111562
3258.7792,104.72294596287284
3259.6765,102.09423712577886
3260.5731,97.51543650313351
3261.4692,100.13655724729435
3262.3647,101.75761153546455
3263.2595,102.22861054348171
3264.1538,103.84956442960733
3265.0474,105.0204823298168
3265.9404,101.04137234158988
3266.8329,104.81224151220152
3267.7247,101.53309587851295
3268.616,103.45394042926294
3269.5066,100.37477913785935
3270.3966,96.69561494317063
3271.286,96.81644978031738
