RamanShift,CorrectedData
30.1047,6682.875572784333
32.3739,6231.637715226199
34.6426,5786.4497908393105
36.9109,5344.111670478533
39.1787,4908.073167134234
41.4461,4468.984040355662
43.7131,4030.794000611337
45.9796,3589.1527136799314
48.2456,3149.359805032176
50.5112,2723.4648642472725
52.7764,2288.6174494108227
55.0411,1851.4670913737784
57.3054,1421.8632981009173
59.5692,993.1055590423446
61.8326,574.3933494295318
64.0955,157.5261345628959
66.3579,-257.3966260010807
68.6199,-653.9254742811758
70.8815,-1013.3083809038745
73.1426,-1239.686783780174
75.4032,-1126.091997870348
77.6634,-120.8429536637027
79.9231,3117.302668009514
82.1824,11161.988393540161
84.4412,33727.507718146066
86.6995,59180.45402542519
88.9574,59330.720361700405
91.2148,58849.94918149003
93.4717,58369.182346005226
95.7282,57896.61112795761
97.9842,57434.02621636702
100.2398,56971.51772128716
102.4949,56511.27517843149
104.7495,56051.93755379829
107.0036,55594.7432482731
109.2573,55137.130102222094
111.5105,54679.485400064
113.7632,54222.145874846254
116.0154,53759.397712821476
118.2672,53309.6765580208
120.5185,52856.4675168814
122.7693,52398.50516274368
125.0197,51949.87354038338
127.2696,51490.95617059118
129.519,51039.63605465903
131.7679,50592.54567896934
134.0163,50140.26701950815
136.2642,49689.88154633605
138.5117,49240.02022811098
140.7587,48791.06353659205
143.0052,48349.841451138214
145.2512,47909.68346319774
147.4967,47470.118580720526
149.7417,47023.42533255961
151.9863,46582.531772866874
154.2304,46143.06548555994
156.4739,45702.00358873113
158.717,45267.4227390421
160.9596,44826.79913613448
163.2017,44401.15852697569
165.4433,43968.52621026512
167.6844,43536.57704069062
169.925,43106.33543325479
172.1651,42679.57536759444
174.4047,42253.47039228305
176.6439,41825.99362909832
178.8825,41408.21777728328
181.1206,40977.21511782102
183.3582,40553.907517612424
185.5954,40138.366433786265
187.832,39719.36291793225
190.0681,39301.56762025642
192.3037,38892.00079377123
194.5388,38476.23229847345
196.7734,38066.63160543988
199.0075,37657.817800984994
201.2411,37247.40959075696
203.4742,36845.07530382581
205.7068,36442.932896787475
207.9389,36044.69995778716
210.1704,35644.14371054074
212.4015,35249.63101831714
214.632,34853.72838794382
216.862,34474.25197375196
219.0915,34090.01758153549
221.3205,33701.74067234581
223.549,33317.936366334165
225.777,32939.36944663437
228.0044,32553.45436320093
230.2314,32173.405236594626
232.4578,31798.835861841748
234.6837,31410.60971223453
236.909,31034.639943076865
239.1339,30639.489395566598
241.3582,30281.370600555187
243.582,29881.895782499203
245.8053,29529.67686304154
248.0281,29174.875465006102
250.2503,28804.602915920033
252.472,28443.97025156176
254.6932,28082.78821966367
256.9139,27723.467283518483
259.134,27370.71762559106
261.3536,27016.999151111588
263.5727,26665.8214916031
265.7912,26326.094008418644
268.0092,25979.42579625309
270.2267,25631.92568654038
272.4436,25295.152250920197
274.6601,24946.563804712983
276.8759,24614.118410287665
279.0913,24274.673880547576
281.3061,23943.637782254853
283.5204,23611.41743942492
285.7341,23281.069936636864
287.9473,22946.25212235558
290.16,22629.420612235313
292.3721,22313.38179246777
294.5837,21990.59182295051
296.7947,21675.056640447292
299.0052,21363.931961816015
301.2152,21048.973287164
303.4246,20742.235902959314
305.6334,20438.1748851803
307.8418,20129.945102382968
310.0495,19827.05121874166
312.2568,19525.647697131302
314.4635,19225.538802156305
316.6696,18929.778603164617
318.8752,18625.020977248838
321.0802,18342.819612203777
323.2847,18053.228009574086
325.4887,17766.099487476225
327.692,17484.087183494426
329.8949,17197.14405755193
332.0972,16916.27289473112
334.2989,16636.976308142963
336.5001,16360.656741735693
338.7007,16092.8664730878
340.9008,15817.30761617123
343.1003,15546.082124029293
345.2992,15281.141791532245
347.4976,15019.288258089575
349.6955,14751.973010299364
351.8927,14497.397384566844
354.0895,14228.412569777553
356.2856,13985.119609843066
358.4812,13731.469406390876
360.6763,13482.562721197319
362.8707,13234.650178724063
365.0646,12987.382268607165
367.258,12744.009348136198
369.4508,12503.331644726946
371.643,12264.999258355136
373.8346,12028.562163963172
376.0257,11791.320213843494
378.2162,11562.723140002934
380.4062,11332.870556535134
382.5956,11103.711961906563
384.7844,10885.396741255005
386.9726,10666.524168681142
389.1603,10445.943409431733
391.3474,10189.003522088351
393.5339,10013.65346077316
395.7199,9812.44207771834
397.9052,9602.118125019522
400.09,9396.530256647951
402.2743,9193.427030553714
404.4579,8988.856910721624
406.641,8790.468269202269
408.8235,8590.90938815767
411.0054,8397.878461845263
413.1868,8196.373598613442
415.3675,8009.6428228318255
417.5477,7819.8340769063
419.7273,7631.695223146402
421.9064,7443.87404566336
424.0848,7265.9182522514675
426.2627,7083.975476266249
428.4399,6903.3432784041
430.6166,6725.919148521658
432.7928,6555.050507442145
434.9683,6384.684708729626
437.1432,6220.269040397696
439.3176,6055.400726613152
441.4914,5896.126929340127
443.6645,5730.844749988806
445.8371,5570.151231008109
448.0091,5418.793357538547
450.1806,5261.1680590192045
452.3514,5110.122210701265
454.5216,4954.052635224274
456.6913,4809.556104126546
458.8603,4668.829339405929
461.0288,4529.369014964701
463.1967,4390.621758016896
465.3639,4252.634150482838
467.5306,4111.002730376698
469.6967,3984.4739931862932
471.8622,3851.4943932894457
474.0271,3724.0603452192518
476.1914,3590.56822499392
478.3551,3469.914371391067
480.5182,3347.8950872827045
482.6807,3230.6566408416766
484.8426,3120.595266761964
487.0039,2997.6571674309744
489.1647,2881.038514030217
491.3248,2770.635447764609
493.4843,2662.1940810287197
495.6432,2557.3604985108104
497.8015,2441.880758277279
499.9592,2339.9008928208714
502.1163,2240.6669102156156
504.2728,2147.1747951365032
506.4287,2059.6205098518913
508.5839,1964.3499951583944
510.7386,1868.3091712564274
512.8927,1767.3939387029022
515.0461,1685.9501793716627
517.199,1603.5237574626735
519.3512,1519.2105203164756
521.5029,1436.3562992383813
523.6539,1360.4069103416696
525.8043,1283.7081553760581
527.9541,1205.5058224872337
530.1033,1136.7456869838425
532.2519,1065.0735121194884
534.3999,994.8850497804015
536.5472,932.6260412020638
538.694,874.9422176711596
540.8401,806.4293011481495
542.9856,742.6330048441087
545.1305,681.8490339058553
547.2748,627.6230860538999
549.4185,569.8008521902157
551.5615,523.3280169406062
553.704,471.3945726203092
555.8458,433.6352834976715
557.987,388.33020460925036
560.1276,342.9550589751452
562.2675,302.981690196626
564.4069,266.5785157539285
566.5456,233.6609263401915
568.6837,204.09164952910942
570.8212,165.5810786216971
572.958,135.6375680433921
575.0942,109.71781806467334
577.2299,82.52717393663625
579.3648,63.869884829371586
581.4992,43.89937546649162
583.6329,24.66843251139653
585.766,-2.0205959273152985
587.8985,-22.415608178736875
590.0304,-56.76448238627927
592.1616,-69.81487276146072
594.2922,-84.81386643860606
596.4222,-103.00785310150968
598.5515,-114.54237514337001
600.6802,-129.9619459090609
602.8083,-135.00993446513894
604.9358,-144.22841155830974
607.0626,-158.4580991860421
609.1888,-165.33827850398666
611.3144,-171.15664767143608
613.4393,-173.24925311830157
615.5636,-184.3504314196034
617.6873,-182.49278839041654
619.8103,-186.30708818498533
621.9327,-189.52227185469383
624.0544,-183.86541924314952
626.1756,-179.66171686651796
628.2961,-186.33451442543446
630.4159,-180.90536680005607
632.5351,-182.84396738875512
634.6537,-179.7182023453206
636.7716,-178.3441312123541
638.8889,-174.7860181475844
641.0056,-172.1563456509466
643.1216,-168.765850110045
645.237,-158.0235480706615
647.3518,-144.2867701077339
649.4659,-131.1112681409577
651.5793,-127.35135266526777
653.6922,-117.11002437402931
655.8043,-108.98901172060141
657.9159,-101.08887322922237
660.0268,-89.65907862391032
662.137,-77.69909661777638
664.2466,-71.05839502732852
666.3556,-55.08644089203153
668.4639,-46.132700540722
670.5716,-23.996639751312614
672.6786,-16.227723840420367
674.785,-4.5754178846254945
676.8907,17.960813201709243
678.9958,37.83150455008581
681.1002,51.93719111238897
683.204,62.878407462194446
685.3072,82.6556876537361
687.4097,105.4695651125221
689.5115,121.82057243751478
691.6127,146.90924117297254
693.7132,165.98610164495767
695.8131,169.1016827104686
697.9123,206.656511566689
700.0109,229.90111371978128
702.1089,256.9360126093816
704.2061,282.26172937615775
706.3028,301.2287825914318
708.3987,333.2876880039548
710.4941,357.68895835019066
712.5887,382.5331030338202
714.6827,407.7206278816302
716.7761,443.3520348950915
718.8688,468.1778219984699
720.9608,489.9984826825166
723.0522,518.464505756252
725.1429,551.9263751287363
727.233,585.3345695244134
729.3224,622.9395621485019
731.4112,651.5418203529189
733.4993,685.841805260221
735.5867,721.589971477566
737.6735,753.3867667537925
739.7596,785.3826316217819
741.845,825.47799908054
743.9298,862.023294275321
746.014,899.4689340966434
748.0974,932.6153268147755
750.1802,971.0128717053667
752.2624,1013.2619587179142
754.3439,1050.0629680918428
756.4247,1082.1162699339548
758.5048,1131.9722238504837
760.5843,1175.1811786264734
762.6631,1214.4934717273281
764.7413,1260.9094288665874
766.8188,1303.379363612934
768.8956,1347.4035769259208
770.9718,1396.632356731403
773.0473,1438.1159774812113
775.1221,1486.154699660874
777.1962,1532.1487693748131
779.2697,1576.1984178658822
781.3426,1616.5038610555202
783.4147,1673.3652991032286
785.4862,1725.282916003489
787.557,1774.2068790171834
789.6271,1824.5873381524289
791.6966,1879.2744256752994
793.7654,1929.168255606026
795.8335,1984.8689231720855
797.901,2034.1765043092964
799.9678,2086.1910551048277
802.0339,2145.112611304132
804.0993,2191.741187790787
806.1641,2258.7267779972826
808.2282,2312.219353438719
810.2916,2357.168863042927
812.3544,2432.4752326156013
814.4164,2475.2883643907626
816.4778,2530.75813627772
818.5385,2594.43440143294
820.5986,2654.066987705337
822.658,2711.7556969995057
824.7166,2779.150304679446
826.7747,2815.3505589916167
828.832,2888.8561803910125
830.8886,2964.466861179135
832.9446,3034.4822647690016
834.9999,3033.702024928949
837.0545,3141.67574508251
839.1085,3232.6029983162007
841.1618,3285.833326299806
843.2143,3298.0662383771196
845.2662,3369.451211033658
847.3175,3457.78768777426
849.368,3446.225078409334
851.4179,3583.862758171439
853.467,3613.000067830908
855.5155,3716.586312319516
857.5633,3733.470760439028
859.6105,3784.752643825399
861.6569,3872.731156779897
863.7027,3896.4554557562806
865.7478,3996.6746584809953
867.7922,4068.1378437159874
869.8359,4169.194050256425
871.8789,4188.492276216173
873.9212,4269.681478017155
875.9629,4387.610570196448
878.0039,4455.478424594337
880.0441,4526.583869175018
882.0837,4594.775687347923
884.1226,4671.952617256662
886.1609,4755.113351097098
888.1984,4806.656534345631
890.2352,4924.730764927503
892.2714,4955.28459270145
894.3069,5053.866518278919
896.3416,5107.274992718529
898.3757,5189.458416540299
900.4091,5194.565139191538
902.4418,5368.693458225003
904.4739,5422.291619247808
906.5052,5519.307814180196
908.5358,5574.7901807195085
910.5658,5633.436801369986
912.595,5720.795702887983
914.6236,5681.464855695485
916.6515,5913.542173006557
918.6786,5842.775511220636
920.7051,5987.6126676017375
922.7309,6050.95138098616
924.756,6183.339330334136
926.7804,6213.874134096412
928.8041,6045.603348890392
930.8272,6367.774469194788
932.8495,6467.934929032344
934.8711,6355.782098748103
936.892,6228.763284007771
938.9123,6460.325726919262
940.9318,6344.816607302855
942.9506,6324.2330403756205
944.9688,6491.322077906472
946.9862,5988.530708422004
949.003,6333.205855535634
951.019,5847.644382975479
953.0344,6111.94309113764
955.0491,6092.998721941796
957.063,6423.8579561882
959.0763,6591.217413747145
961.0888,6144.273650250347
963.1007,6642.123155417379
965.1119,6748.262357525127
967.1223,6386.987618429237
969.1321,7022.345232502776
971.1412,6447.431430248966
973.1495,6271.742371947606
975.1572,6696.874153404213
977.1641,6507.922807706898
979.1704,6508.384300975056
981.1759,6691.954534248878
983.1808,6328.979343484723
985.1849,6500.504497719427
987.1884,6837.275702700033
989.1911,7350.688599168592
991.1932,6367.388759494359
993.1945,6762.271682539758
995.1951,7133.282803493341
997.1951,6498.117489920973
999.1943,6485.871038055731
1001.1928,6319.938679149542
1003.1906,6591.115579595629
1005.1877,5767.896842587885
1007.1841,5585.577505409063
1009.1798,5713.452547662935
1011.1748,5665.01689309752
1013.1691,5509.3154083263
1015.1627,3938.54290331262
1017.1556,4537.09413292665
1019.1477,4903.613812653137
1021.1392,4160.696612605912
1023.1299,3386.8871538626845
1025.12,4071.5800158942
1027.1093,3656.6197443023775
1029.0979,3725.5008439733647
1031.0859,3719.867783227106
1033.0731,3118.0649931285516
1035.0596,3415.1868675439764
1037.0454,3282.9277691590105
1039.0304,2778.182026507435
1041.0148,2228.1939352937625
1042.9985,2383.1577634407076
1044.9814,2776.1677565891005
1046.9636,2240.8181365481505
1048.9452,2245.2530973654357
1050.926,2184.3168106803714
1052.9061,2179.55342567982
1054.8855,2243.107069707541
1056.8642,1964.4218483117656
1058.8421,1921.7418446097145
1060.8194,1998.1111220743915
1062.7959,1901.5237249614001
1064.7717,2133.0736775452824
1066.7469,1977.4049850853553
1068.7213,1985.4116315102729
1070.695,1803.087580974614
1072.6679,1514.4767777788657
1074.6402,1640.2231481926938
1076.6117,1617.5206033409995
1078.5826,1654.7130379464943
1080.5527,1731.944330556711
1082.5221,1703.3083431720806
1084.4908,2015.348920473618
1086.4587,2158.6598901092875
1088.426,2399.4850595735625
1090.3925,2245.0182147743762
1092.3584,2225.6531176248027
1094.3235,1811.3835075877068
1096.2879,1715.5031018694353
1098.2515,1754.9555995625342
1100.2145,1781.884682604592
1102.1767,1674.0340153836296
1104.1382,1870.6472444688989
1106.099,2065.817999689316
1108.0591,2183.1898921673856
1110.0185,2103.656512367408
1111.9771,2314.6614289218705
1113.9351,1897.6981894266864
1115.8923,1554.760318331144
1117.8488,1107.691321107588
1119.8045,793.0346876807671
1121.7596,709.6838968985467
1123.7139,602.5824196784379
1125.6675,594.7737198411414
1127.6204,795.2012551815496
1129.5726,668.2084775468466
1131.524,784.5888308322246
1133.4748,904.7857522507693
1135.4248,835.3426711697393
1137.3741,897.5530079085438
1139.3226,884.0601744332016
1141.2705,953.1575737342209
1143.2176,679.5385999615464
1145.164,789.446637733563
1147.1097,810.1750648732996
1149.0546,855.3172513093814
1150.9989,843.7165588686476
1152.9424,720.8663408248322
1154.8852,535.3099420145008
1156.8272,426.9407000655701
1158.7686,425.95194725289184
1160.7092,286.13701158193
1162.6491,161.2392167986618
1164.5883,345.2518837877142
1166.5267,371.1683318213327
1168.4644,595.6318767193079
1170.4014,776.3858305897593
1172.3377,1091.0734995844905
1174.2732,1334.2381820914306
1176.2081,1523.9231655878102
1178.1421,1712.221724208488
1180.0755,1883.8271168491337
1182.0082,1759.5825852831767
1183.9401,1753.781352445847
1185.8713,1484.7666236765363
1187.8017,1272.2815867768586
1189.7315,1130.9194147007656
1191.6605,753.1732676793981
1193.5888,530.2862946347668
1195.5163,467.60163695708616
1197.4432,384.862430733825
1199.3693,324.81180737637624
1201.2947,159.79289444754977
1203.2193,65.54881626202405
1205.1432,186.57269553657534
1207.0664,220.00765433245397
1208.9889,245.79681284526305
1210.9106,236.68328907053365
1212.8316,355.0101985458314
1214.7519,438.9206544419285
1216.6715,357.4577663795062
1218.5903,422.16463959006796
1220.5084,370.53437573054543
1222.4257,391.7100722362593
1224.3424,198.38482283723715
1226.2583,310.4017173463799
1228.1735,393.15384359278687
1230.0879,464.7342863015292
1232.0016,597.6361262661449
1233.9146,603.952439632827
1235.8269,569.9262965714297
1237.7384,460.55076121230377
1239.6492,221.468891986573
1241.5592,189.32374271984736
1243.4686,42.9083650230823
1245.3772,11.8658086140058
1247.285,-141.61087721870717
1249.1922,-196.47864330503216
1251.0986,-159.59302578224015
1253.0042,-210.95759796600032
1254.9092,-84.32433883766498
1256.8134,37.85688008780562
1258.7169,285.2370296955778
1260.6196,405.9170804922396
1262.5216,661.1980001320408
1264.4229,762.8307522100586
1266.3234,939.7162937093963
1268.2232,1039.6055739848744
1270.1223,985.3495329941798
1272.0207,999.1491002989569
1273.9183,973.2051956073847
1275.8151,890.1187286361674
1277.7113,889.6905993699911
1279.6067,703.7716988923567
1281.5014,548.9129093898955
1283.3953,346.26510601149494
1285.2885,309.4791584169434
1287.181,251.65593280341272
1289.0727,399.2462922732884
1290.9637,407.90109741242486
1292.854,609.5212048142494
1294.7435,727.0074669931928
1296.6323,940.6607303684941
1298.5204,1310.031834089321
1300.4077,1656.4216078981917
1302.2943,1854.1308684373435
1304.1802,1965.6104157848386
1306.0653,1904.5110314774429
1307.9497,1756.6834773958471
1309.8333,1831.6784963756872
1311.7162,1827.2968136857671
1313.5984,1988.9891362781273
1315.4798,2090.0061528318765
1317.3605,2283.2485321362547
1319.2405,2584.3669220804295
1321.1197,2602.911947721128
1322.9982,2530.7342082713876
1324.876,2671.2342769151583
1326.753,2630.1127015290767
1328.6293,2746.820003277411
1330.5048,2850.956677023343
1332.3796,2800.923190161837
1334.2537,2833.7199815783497
1336.127,2819.597462149097
1337.9996,2755.0060144131385
1339.8714,2756.04599271356
1341.7426,2644.917723843402
1343.6129,2655.271507035264
1345.4826,2615.7576150725763
1347.3515,2631.1262941860477
1349.2196,2586.1277644488437
1351.087,2652.512219622873
1352.9537,2719.729827608775
1354.8197,2873.6307297820786
1356.6849,3119.5150403210464
1358.5493,3209.882844667609
1360.4131,3248.2341970685848
1362.276,3144.61911967197
1364.1383,2950.8876021434153
1365.9998,2738.4896027024115
1367.8606,2454.1750500595917
1369.7206,2267.943845540696
1371.5799,2099.8958659297423
1373.4384,1994.3809653313256
1375.2962,1917.1489768510983
1377.1533,1625.6497136509133
1379.0096,1274.4329697211324
1380.8652,1016.6985227956466
1382.7201,817.7961378640211
1384.5742,632.8255697488494
1386.4275,453.3865650947664
1388.2802,324.2788642181804
1390.132,262.55220290163925
1391.9832,236.40631368489994
1393.8336,136.59092648222213
1395.6832,140.50576884382463
1397.5322,48.55056695401436
1399.3803,61.92504559208464
1401.2278,-33.57107094817911
1403.0745,-8.088058992219885
1404.9204,-61.725859490499715
1406.7656,-27.23433259378362
1408.6101,-26.11272181151071
1410.4538,-9.709998582136905
1412.2968,-21.074873478053632
1414.139,-11.055960068762943
1415.9805,134.54833861418228
1417.8213,105.73972998825775
1419.6613,302.76992012545816
1421.5006,551.0406140403975
1423.3391,821.7535137200175
1425.1769,1141.1603156408783
1427.0139,1754.1127080620208
1428.8502,2409.3623678309086
1430.6858,2945.1109542538834
1432.5206,3332.6101025436765
1434.3547,3665.3614184619328
1436.188,3764.2164744442234
1438.0206,3741.676806272517
1439.8524,3604.693912086648
1441.6835,3556.0692526096936
1443.5139,3460.854252517809
1445.3435,3368.250300926469
1447.1724,3379.758752342619
1449.0005,3324.5309275906875
1450.8279,3238.5681136975472
1452.6545,3282.371564444773
1454.4804,3340.292501228305
1456.3056,3375.9821126203533
1458.13,3290.191553790246
1459.9536,3115.0719461474837
1461.7766,2814.1243781996745
1463.5987,2375.999907303725
1465.4202,2036.7995626753254
1467.2409,1633.2243497701747
1469.0608,1478.2252536759843
1470.88,1239.3032431482425
1472.6984,1022.059272160197
1474.5161,811.9942822920821
1476.3331,641.9092049035244
1478.1493,575.5049632342634
1479.9648,531.2324741049524
1481.7795,501.29264858121314
1483.5935,485.386392416367
1485.4067,412.5646063508393
1487.2192,438.3781862712094
1489.031,436.2780239384301
1490.842,421.2650067296927
1492.6522,454.7400176594274
1494.4618,438.80393552943497
1496.2705,459.55763459411173
1498.0785,484.1019847198404
1499.8858,415.88785117745283
1501.6924,406.1660943967545
1503.4981,450.2375706486855
1505.3032,469.95313214255657
1507.1075,461.3136265852845
1508.911,499.8698969842808
1510.7138,460.9227817338178
1512.5159,466.4731142294986
1514.3172,403.9717232576986
1516.1178,381.8194329400685
1517.9176,387.96706335855924
1519.7166,330.51543077693714
1521.515,346.7653475793195
1523.3126,371.2676228446726
1525.1094,345.42306218430895
1526.9055,361.3824674968855
1528.7008,328.19663722684345
1530.4954,288.0163662048071
1532.2893,318.94244597945726
1534.0824,188.27566521932022
1535.8747,240.8168094035318
1537.6663,209.86666212847558
1539.4572,207.07600458238812
1541.2473,280.9456158548455
1543.0367,244.67627296465798
1544.8253,194.7187501212211
1546.6132,256.47381908715397
1548.4003,203.2422496779036
1550.1867,302.37480914419575
1551.9723,312.32226270431056
1553.7572,338.0853725528177
1555.5414,366.8648977610537
1557.3247,398.2615940195392
1559.1074,452.7762133501419
1560.8893,529.5095037921274
1562.6705,548.562208856998
1564.4509,661.5850667611776
1566.2305,721.2788102354752
1568.0094,888.3441653948612
1569.7876,999.2818511415389
1571.565,1061.6925774942647
1573.3417,1168.1270444789807
1575.1176,1182.5359415047242
1576.8928,1170.9699462992794
1578.6672,1085.3797247650655
1580.4409,975.5159310948075
1582.2138,856.1292086274698
1583.986,757.0201909468415
1585.7575,712.3395030754364
1587.5282,603.487762465571
1589.2981,551.8155794461891
1591.0673,497.77355831136447
1592.8358,537.9622978370171
1594.6035,544.632391821342
1596.3704,533.1344286829262
1598.1366,532.2689913940303
1599.9021,572.6866575956046
1601.6668,583.4879996059135
1603.4308,624.9735840163521
1605.194,749.2439715834626
1606.9564,813.8997168140522
1608.7182,933.7413667224973
1610.4791,1073.9194601841846
1612.2394,1235.9845267371056
1613.9988,1406.4870851800588
1615.7576,1693.877641952011
1617.5156,1931.2066894270647
1619.2728,2221.77470304057
1621.0293,2379.9321389157885
1622.785,2483.12943095827
1624.54,2392.9169892742393
1626.2942,2293.745199138648
1628.0477,1987.514421897271
1629.8005,1831.474995958437
1631.5525,1586.9772398553505
1633.3037,1327.6714538064625
1635.0542,1217.3079221604676
1636.804,1075.6869159893577
1638.553,1013.7586941920417
1640.3013,962.9735049105802
1642.0488,907.3315861494375
1643.7955,948.1831662833429
1645.5416,920.1784646137348
1647.2868,1019.4676909602313
1649.0313,1065.1510459406636
1650.7751,1257.278719978196
1652.5181,1450.2008928444811
1654.2604,1672.917731738402
1656.0019,1991.629389356829
1657.7427,2376.6860016674764
1659.4828,2788.4376847217536
1661.222,3029.6345308042255
1662.9606,3110.8266043150797
1664.6984,3009.563939358177
1666.4354,2670.296538929113
1668.1717,2245.024375927849
1669.9072,1806.247396551389
1671.642,1449.7655245464957
1673.3761,1202.9286655974647
1675.1094,975.6367108909508
1676.8419,794.3395395843036
1678.5737,653.9870210785302
1680.3048,570.5290168312458
1682.0351,481.66538176020913
1683.7646,388.445965077899
1685.4934,399.3706111801439
1687.2215,330.98916057832685
1688.9488,284.1514497901371
1690.6754,268.2573120233865
1692.4012,222.35657764437929
1694.1263,255.69907433685512
1695.8506,253.9346275609969
1697.5742,229.76306021999335
1699.297,205.43419267770514
1701.0191,168.79784300036408
1702.7404,132.45382719987356
1704.461,69.50195960017663
1706.1808,71.49205320067631
1707.8999,85.12392030576484
1709.6182,73.99737250490944
1711.3358,94.6122205363572
1713.0527,82.06827439838708
1714.7688,51.41534314317323
1716.4841,31.653235002215297
1718.1987,88.13175769286681
1719.9126,55.15071861596334
1721.6257,45.409924291023344
1723.338,44.659180686083346
1725.0496,23.998293315085903
1726.7605,44.12706724539021
1728.4706,3.2453073043852783
1730.18,-12.447182121810329
1731.8886,-17.55059667950627
1733.5964,-29.215007667666214
1735.3036,-2.5903110547824326
1737.0099,6.273889048556157
1738.7156,20.77801440897565
1740.4204,-30.8275132696308
1742.1246,-23.04227249113501
1743.8279,13.534466207443984
1745.5306,28.303662481393985
1747.2325,-1.2837241493361944
1748.9336,17.973265552171142
1750.634,3.525603647232856
1752.3336,24.724262017425644
1754.0325,51.770212509090925
1755.7307,58.11442672132216
1757.4281,90.95787573551934
1759.1247,81.50153005194443
1760.8206,107.84635926128249
1762.5158,125.59333213921855
1764.2102,104.49341638296028
1765.9039,89.1975784338083
1767.5968,115.35678368812842
1769.289,109.02199665031912
1770.9804,123.74418067121223
1772.6711,152.77429801142716
1774.361,157.51330969414994
1776.0502,171.2121752148396
1777.7386,179.72185249382528
1779.4263,131.19329773932623
1781.1132,171.77746536236373
1782.7994,160.2753084620217
1784.4849,160.23777841960873
1786.1696,162.3158250136894
1787.8535,195.81039642047654
1789.5367,157.22243919304492
1791.2192,216.2528979263825
1792.9009,184.1527156432603
1794.5818,180.22283320391762
1796.2621,211.61418962708922
1797.9415,218.02772212928176
1799.6202,211.81436581086564
1801.2982,201.32505359195602
1802.9755,235.7107162745251
1804.6519,248.97228264730074
1806.3277,229.26067914191844
1808.0027,235.22682970030473
1809.6769,268.77165597177736
1811.3504,270.5960772533854
1813.0231,257.60101015446526
1814.6951,283.18736857839394
1816.3664,305.5560638525567
1818.0369,325.408004472456
1819.7067,294.2940958780473
1821.3757,285.91524025520266
1823.044,311.5223368468578
1824.7115,342.16628203679466
1826.3783,306.79796909358265
1828.0443,303.91828786413316
1829.7096,324.77812512737364
1831.3741,350.37836462305313
1833.0379,329.51988684314347
1834.701,342.5035687758427
1836.3633,357.180284114158
1838.0248,367.80090312605716
1839.6856,383.666292507718
1841.3457,414.5773152773181
1843.005,412.6348306163818
1844.6636,425.6896935606637
1846.3214,402.24275501958437
1847.9785,466.5948616456699
1849.6349,437.8468560690253
1851.2904,468.19957625381176
1852.9453,428.8038557857217
1854.5994,432.56052356845066
1856.2528,490.9704042176654
1857.9054,509.13431802342893
1859.5572,520.5530803660986
1861.2083,472.9775015346968
1862.8587,570.2083866127177
1864.5084,565.1465359538815
1866.1572,526.4427442098386
1867.8054,519.297800380762
1869.4528,520.412488202408
1871.0994,538.3875862175555
1872.7453,551.3238677648606
1874.3905,555.2221007991157
1876.0349,540.0330477618809
1877.6786,562.957465542504
1879.3215,583.7461056299999
1880.9637,576.099713883812
1882.6051,615.8690303259154
1884.2458,591.7547892172934
1885.8858,580.1077186602524
1887.525,588.4785408395546
1889.1634,576.5679721388897
1890.8011,543.6267230571739
1892.4381,555.9054983276474
1894.0743,612.4049972472876
1895.7098,595.0759135540175
1897.3446,589.1189348617208
1898.9786,591.8347428335255
1900.6118,607.4740132413735
1902.2443,563.7374159388673
1903.8761,570.2756147048676
1905.5071,556.9892676808613
1907.1374,567.0290273055889
1908.7669,580.5455404479035
1910.3957,574.4894483063799
1912.0237,567.0613862741284
1913.651,573.4119839993782
1915.2776,574.2918654597488
1916.9034,549.4516488987465
1918.5285,539.6419468169588
1920.1528,522.5133662204607
1921.7764,542.9165087189122
1923.3992,508.8519706968382
1925.0213,457.12034310960917
1926.6427,467.0222118240672
1928.2633,452.05815813587105
1929.8832,478.37875867044204
1931.5023,443.33458553264063
1933.1207,452.07620604352815
1934.7383,450.3541830908289
1936.3552,456.0190750415077
1937.9714,451.2714357589921
1939.5868,441.3618145465225
1941.2015,406.5407561946304
1942.8154,416.3588010802305
1944.4286,413.66648551484104
1946.041,419.7143416463914
1947.6528,383.55289748614996
1949.2637,404.8826768482504
1950.8739,362.80419971130686
1952.4834,355.06798200510457
1954.0921,396.5745360313922
1955.7001,341.57437054124057
1957.3074,379.1179903199827
1958.9139,362.8558967372064
1960.5197,335.08858737133596
1962.1247,337.36655617222823
1963.729,327.04029373885714
1965.3325,311.66028729653954
1966.9353,287.9770208001901
1968.5374,304.2409750881325
1970.1387,303.1026281189206
1971.7393,273.762454808706
1973.3392,278.6209270426207
1974.9383,273.02851396818005
1976.5366,245.5856819467026
1978.1342,273.9428946092121
1979.7311,287.350613130895
1981.3273,254.9092959475056
1982.9227,263.11939862129657
1984.5173,241.08137416544196
1986.1112,248.69567296192508
1987.7044,261.71274298191565
1989.2968,261.1830297096367
1990.8885,234.6069760121918
1992.4795,250.83502214486361
1994.0697,246.26760601685783
1995.6592,226.4551630290407
1997.2479,227.0981261196066
1998.8359,229.84692596219793
2000.4232,230.85199095948337
2002.0097,224.5137472156639
2003.5955,182.63261852642427
2005.1805,228.8590264423201
2006.7648,219.6433906875809
2008.3484,217.48612869784847
2009.9312,247.9876557123389
2011.5133,222.49838479541359
2013.0946,240.81872653155915
2014.6752,236.0990892802838
2016.2551,255.63987899290805
2017.8342,220.39149925977108
2019.4126,203.40435111481384
2020.9902,187.17883338807405
2022.5672,198.7653428755475
2024.1433,213.51427450144547
2025.7188,204.62602120233714
2027.2935,194.25097377964448
2028.8674,178.98952098853806
2030.4406,198.54204964168457
2032.0131,168.9089447618644
2033.5849,163.04058938643902
2035.1559,198.58736486368434
2036.7261,204.24965091147715
2038.2957,185.12782526181581
2039.8645,200.27226360420173
2041.4325,222.9833397768598
2042.9998,191.1114256152996
2044.5664,199.80689072519635
2046.1323,208.720102801115
2047.6974,189.80142753954897
2049.2617,212.55122854980073
2050.8254,223.36986754315694
2052.3883,225.65770410540063
2053.9504,223.5150955886147
2055.5118,210.3923970883052
2057.0725,206.0899614648306
2058.6325,200.20813947463103
2060.1917,209.24727981325032
2061.7502,189.55772917415197
2063.3079,195.73983215832595
2064.8649,184.14393147119608
2066.4212,170.5703678607797
2067.9767,186.21948023366076
2069.5315,182.39160579071813
2071.0856,161.88707987063663
2072.6389,163.80623598818966
2074.1915,152.7994060392857
2075.7433,137.21692028177677
2077.2945,160.00910744551857
2078.8448,147.07629488820476
2080.3945,140.41880836744622
2081.9434,162.48697217009158
2083.4916,144.08110917880276
2085.039,144.80154065137413
2086.5857,147.99858640478942
2088.1317,154.2225648080157
2089.677,140.7737927500457
2091.2215,165.60258557764337
2092.7652,138.90925722984593
2094.3083,159.99411998966298
2095.8506,144.8074847510179
2097.3921,192.3496608078931
2098.933,192.57095600620596
2100.4731,183.0716762683769
2102.0124,180.2521255911215
2103.5511,190.21260614043786
2105.089,177.90341827980137
2106.6261,197.82486047056955
2108.1626,197.27722939506748
2109.6983,187.16081975738052
2111.2332,196.32592428882617
2112.7675,197.22283384911407
2114.301,174.10183733469785
2115.8337,212.51322166981208
2117.3657,196.30727203767128
2118.897,209.0842714963619
2120.4276,207.99450114090178
2121.9575,179.43823997546497
2123.4866,210.2657649242883
2125.0149,211.9273511172296
2126.5426,194.62327158149037
2128.0695,187.60379722500238
2129.5956,198.36919700947146
2131.1211,207.0697380205611
2132.6458,199.8056853602502
2134.1698,203.97730205981952
2135.693,207.23484915249355
2137.2155,203.72858563172667
2138.7373,194.90876841862791
2140.2584,205.12565239702508
2141.7787,204.87949050166753
2143.2983,200.92053361604667
2144.8171,174.5990305748628
2146.3353,187.36522820360915
2147.8527,161.16937158178916
2149.3693,196.41170391525975
2150.8853,214.3924667981837
2152.4005,163.01189986061672
2153.9149,182.17024058869083
2155.4287,146.51772483842342
2156.9417,201.50458664412145
2158.454,196.83105857492137
2159.9655,183.5473711849163
2161.4764,205.25375305989655
2162.9865,190.45043095017627
2164.4958,182.83762955353814
2166.0045,173.1655716632622
2167.5124,185.28447824425984
2169.0195,184.69456852978692
2170.526,206.2960599002554
2172.0317,199.88916788913684
2173.5367,182.5241059669479
2175.0409,179.4010856053119
2176.5445,196.0703164506176
2178.0473,196.68200635524317
2179.5494,195.83636121086874
2181.0507,173.183584942356
2182.5513,172.6238795162044
2184.0512,188.80744516707637
2185.5504,185.8844804033988
2187.0488,158.8551818455262
2188.5465,157.01974425497065
2190.0435,155.62836080469333
2191.5397,162.28122309746323
2193.0353,166.72852117976345
2194.5301,141.32044347527335
2196.0241,152.35717674038642
2197.5175,147.08890631829763
2199.0101,149.96581602862716
2200.502,130.8380882201136
2201.9931,114.10590374183994
2203.4835,128.46944213451025
2204.9733,146.4788817977751
2206.4622,145.18439984659562
2207.9505,117.93617193114551
2209.438,107.1843722497606
2210.9248,119.97917382142077
2212.4109,110.72074859326585
2213.8962,101.05926731264208
2215.3809,133.84489961969757
2216.8648,131.5278141439885
2218.3479,111.50817817662573
2219.8304,116.5861576934467
2221.3121,117.41191755520958
2222.7931,101.98562145681171
2224.2733,100.25743191903621
2225.7529,98.7775104428083
2227.2317,92.54601752648705
2228.7098,87.96311268066165
2230.1872,86.12895449046118
2231.6638,96.14370066139236
2233.1397,116.35750803767223
2234.6149,90.37053250208555
2236.0894,90.08292877384156
2237.5632,108.99485066844227
2239.0362,92.85645110056248
2240.5085,80.56788189492909
2241.9801,93.32929394770417
2243.4509,97.1908373493743
2244.921,107.95266125713988
2246.3904,79.01491385629197
2247.8591,65.52774225260146
2249.3271,56.04129276170079
2250.7943,64.10571104394512
2252.2608,60.821142199281894
2253.7266,62.48773068660557
2255.1917,84.9056203566006
2256.656,63.774954435077234
2258.1197,65.99587529878954
2259.5826,56.56852468674515
2261.0447,78.79304367799887
2262.5062,51.81957278591835
2263.9669,67.79825173593963
2265.4269,83.8792197353041
2266.8862,76.71261531327036
2268.3448,88.94857616030913
2269.8026,63.337239199763644
2271.2598,74.97874046549623
2272.7162,69.47321535800165
2274.1719,88.87079852799343
2275.6268,69.42162393145372
2277.0811,88.52582463566341
2278.5346,103.88353301368898
2279.9874,99.54488055333968
2281.4395,98.00999770359067
2282.8908,73.22901391797313
2284.3414,106.1520576699204
2285.7914,90.52925670058175
2287.2406,79.26073768958668
2288.689,90.89662641126961
2290.1368,74.13704784736456
2291.5838,82.83212607063706
2293.0302,85.58198441248896
2294.4758,75.38674537600218
2295.9206,82.19653060843666
2297.3648,86.86146100318638
2298.8082,85.98165663168584
2300.251,105.30723669675172
2301.693,88.13831954138823
2303.1343,100.3250224555295
2304.5748,102.01746184772583
2306.0147,106.06575312328368
2307.4538,114.37001066733592
2308.8922,99.18034780435664
2310.3299,91.44687671512565
2311.7669,81.66970858861896
2313.2031,76.49895369934984
2314.6387,81.68472150513662
2316.0735,85.077120698812
2317.5076,66.77625915636054
2318.941,86.5822439029971
2320.3737,89.59518129617754
2321.8056,91.4151768275342
2323.2369,94.29233509275127
2324.6674,81.92675977335966
2326.0972,81.1185536079729
2327.5263,84.0178185159375
2328.9547,88.12465560542023
2330.3823,87.98916514440498
2331.8092,100.46144651963004
2333.2355,85.94159823794416
2334.661,86.92971780158587
2336.0858,92.32590185337813
2337.5098,98.73024616684415
2338.9332,111.59284559224761
2340.3558,81.96379399255511
2341.7778,88.19318411480162
2343.199,100.98110788638678
2344.6195,87.57765635277701
2346.0393,95.53291954963424
2347.4583,120.74698663685012
2348.8767,120.36994581898944
2350.2943,105.25188409314978
2351.7113,109.84288725273473
2353.1275,100.99304003862653
2354.543,99.45242609328488
2355.9578,113.72112804924654
2357.3718,98.84922754452145
2358.7852,91.33680507990084
2360.1978,85.8339401676867
2361.6098,77.49071140681917
2363.021,97.60719653789238
2364.4315,86.78347252659478
2365.8413,77.3696153625433
2367.2504,81.71570016752003
2368.6587,66.82180128962227
2370.0664,72.88799225979346
2371.4733,81.01434594075045
2372.8795,78.20093446634019
2374.285,70.74782916026334
2375.6899,66.85510056421845
2377.0939,54.32281851242533
2378.4973,60.70105217055789
2379.9,53.1398701610583
2381.3019,47.13934049936279
2382.7032,68.39953066951011
2384.1037,76.52050768414392
2385.5035,72.6023378719151
2386.9027,53.3450867962747
2388.3011,61.798819294644545
2389.6987,66.61359967100225
2391.0957,55.939491611341964
2392.492,57.02655813551519
2393.8876,45.72486170398497
2395.2824,45.93446420694545
2396.6765,34.755427077341665
2398.07,30.437811288785724
2399.4627,37.68167746733616
2400.8547,22.98708593467245
2402.246,33.25409663565597
2403.6366,22.332769285279937
2405.0265,17.02316326600112
2406.4156,23.175337736946858
2407.8041,27.939351687021826
2409.1918,14.765263873390268
2410.5789,24.15313277381756
2411.9652,14.90301671842144
2413.3508,23.4149737957905
2414.7358,8.639061945484627
2416.12,22.475338872911834
2417.5035,15.723862197091876
2418.8863,27.884689312291357
2420.2684,14.407877455539165
2421.6497,16.14348358502002
2423.0304,1.8415645148379554
2424.4104,20.15217689766405
2425.7896,10.725358988936932
2427.1682,17.611148842575403
2428.546,10.10958440524655
2429.9232,27.770703447507913
2431.2996,18.34454363882196
2432.6753,32.481142370946145
2434.0503,27.880536852192563
2435.4246,18.492763966064558
2436.7982,6.667860317259965
2438.1711,9.755862325554972
2439.5433,11.456806344045162
2440.9148,6.320728628272718
2442.2856,4.847665319212865
2443.6557,0.937652494635131
2445.025,12.74072618383343
2446.3937,8.556913048953447
2447.7617,-1.1637603752651557
2449.1289,23.928732360347112
2450.4955,14.23442933092565
2451.8613,16.003368372320438
2453.2265,27.435587178039896
2454.5909,31.63112328156103
2455.9546,39.140013942007954
2457.3177,23.012296102195705
2458.68,32.19800631353837
2460.0416,39.19718089732851
2461.4025,40.90985585288354
2462.7627,26.336066787548134
2464.1222,31.575848899572065
2465.4811,41.479237123846815
2466.8392,35.09626607950622
2468.1966,43.726969970892696
2469.5533,58.671382651390104
2470.9093,54.92953753711208
2472.2645,63.201467457459785
2473.6191,49.63720469254213
2474.973,53.7367808904537
2476.3262,53.35022720291863
2477.6787,45.97757424429574
2479.0305,33.818852095445436
2480.3816,52.774090377453376
2481.7319,45.643318373219245
2483.0816,35.97656483790388
2484.4306,41.57385807023638
2485.7789,31.43522600918277
2487.1264,37.110696177972386
2488.4733,23.450295785484286
2489.8195,19.554051669491855
2491.165,31.07199043326773
2492.5097,30.604138484543455
2493.8538,16.600521920336632
2495.1972,13.411166531622257
2496.5398,10.636097943373898
2497.8818,34.925341646454854
2499.2231,8.678923025368931
2500.5637,19.54686711536624
2501.9035,1.629198864908176
2503.2427,27.225943026992354
2504.5812,17.2371243383227
2505.919,32.56276726334636
2507.256,37.952896094137486
2508.5924,26.157534797144763
2509.9281,28.426706959291096
2511.2631,35.010435905922805
2512.5974,31.958744678120638
2513.9309,41.22165596686045
2515.2638,18.69919214353422
2516.596,41.49137516731844
2517.9275,22.848226810399865
2519.2583,36.219768430053136
2520.5884,33.0560211550719
2521.9178,24.357005752052373
2523.2465,23.922742657035087
2524.5745,20.153252062489628
2525.9018,19.148553921661005
2527.2284,29.65866798626257
2528.5543,27.733613816524212
2529.8796,29.22341067609159
2531.2041,39.92807755127569
2532.5279,30.69763313615522
2533.851,42.8320957255296
2535.1735,40.781483307222516
2536.4952,50.54581344073813
2537.8163,57.625103277769995
2539.1366,56.41936946455462
2540.4562,45.92862807108122
2541.7752,49.35289460314607
2543.0935,56.34218410725953
2544.411,38.896511136405934
2545.7279,70.21588968014657
2547.0441,78.10033333907904
2548.3596,77.99985501164474
2549.6744,73.46446681528187
2550.9885,59.094180087431596
2552.3019,65.48900543089167
2553.6146,63.948952857518634
2554.9266,74.6740317242793
2556.2379,68.01425074865256
2557.5485,77.11961790137866
2558.8585,74.290140473056
2560.1677,82.27582498308675
2561.4762,83.42667720797499
2562.7841,79.54270210146615
2564.0913,80.02390378304062
2565.3977,67.82028557675176
2566.7035,100.18185000641051
2568.0086,75.65859891762739
2569.313,98.45053315419318
2570.6167,87.00765280331416
2571.9197,97.77995696769403
2573.222,92.91744387995823
2574.5236,97.17011079493568
2575.8246,99.28795403828099
2577.1248,93.02096896394778
2578.4244,115.26914993301261
2579.7232,130.23249037634332
2581.0214,101.2109825721177
2582.3189,124.15461749619044
2583.6157,137.8133851123057
2584.9118,145.7372741426625
2586.2072,129.17627193132648
2587.5019,132.43036436499415
2588.7959,134.74953603860013
2590.0893,150.93377022277764
2591.3819,153.93304884066538
2592.6739,148.79735230606502
2593.9652,151.97665949344946
2595.2557,156.9209477893196
2596.5456,147.43019306041106
2597.8348,144.75436960425122
2599.1234,150.49345024406557
2600.4112,155.19740635553762
2601.6983,158.3162078094183
2602.9848,163.04982292448494
2604.2705,142.2982184363541
2605.5556,149.81135945014466
2606.84,163.78920964799454
2608.1237,154.58173121392747
2609.4067,161.48888469407666
2610.689,160.41062908875938
2611.9707,142.09692178340492
2613.2516,152.99771855933795
2614.5319,145.51297377691526
2615.8115,140.642640266517
2617.0903,138.53666940339372
2618.3685,141.64501115636904
2619.6461,136.31761410890226
2620.9229,144.70442542800083
2622.199,161.3553909174991
2623.4745,154.67045493418823
2624.7493,148.19956022130623
2626.0234,147.69264797538835
2627.2968,151.19965791097707
2628.5695,144.17052826568897
2629.8415,152.90519576514453
2631.1128,140.5535956932631
2632.3835,133.8156618049111
2633.6535,137.04132644942115
2634.9228,136.63052063797045
2636.1914,147.28317401132404
2637.4593,138.79921484394163
2638.7265,149.77856993745309
2639.9931,142.77116470549618
2641.259,137.47692306392514
2642.5242,132.39576750088168
2643.7887,135.1276191297411
2645.0525,143.57239773992114
2646.3156,128.78002176956466
2647.5781,139.30040822109117
2648.8398,133.83347280912085
2650.1009,115.7291298552716
2651.3613,140.93729234282637
2652.6211,135.5578720977776
2653.8801,142.29077953674573
2655.1385,133.73592372077246
2656.3961,144.6432122879928
2657.6531,134.26255153918237
2658.9094,145.5938463286857
2660.1651,139.28700016822313
2661.42,140.84191511357653
2662.6743,145.35849182765992
2663.9279,163.83662956496755
2665.1808,152.5262261264104
2666.433,154.82717767453187
2667.6846,155.43937884661386
2668.9354,152.56272273166633
2670.1856,161.9471008643086
2671.4351,151.8424032535322
2672.6839,160.89851828886003
2673.9321,174.51533284139214
2675.1795,163.64273217324444
2676.4263,166.6305998013804
2677.6724,173.8788176063381
2678.9179,176.53726580235025
2680.1626,184.30582286486174
2681.4067,172.78436550394508
2682.6501,179.42276858661535
2683.8928,184.62090525204508
2685.1348,175.82864684517858
2686.3761,168.69586286475214
2687.6168,170.57242105121622
2688.8568,162.05818745806323
2690.0961,151.25302643306168
2691.3348,160.006800703399
2692.5727,154.819371483733
2693.81,165.29059838865464
2695.0466,149.02033948456028
2696.2826,151.65845118494326
2697.5178,152.40478841309186
2698.7524,156.1092045757116
2699.9863,152.72155155546147
2701.2195,155.44167967390922
2702.452,163.56943772540853
2703.6839,161.3546729498978
2704.9151,171.04723095162103
2706.1456,173.24695572127712
2707.3755,172.4036895390932
2708.6046,176.96727295282767
2709.8331,188.53754478620317
2711.0609,192.8143420932713
2712.2881,202.84750004270973
2713.5145,211.2868518750538
2714.7403,222.03222880236422
2715.9654,220.0334599238338
2717.1899,233.99037211833343
2718.4136,246.0027900644002
2719.6367,261.7205361006679
2720.8591,257.0934301057425
2722.0809,270.87128934102634
2723.3019,285.80392849698796
2724.5223,288.5411595553842
2725.7421,286.7327916399331
2726.9611,303.97863098894186
2728.1795,290.82848097339115
2729.3972,283.0321419244747
2730.6142,267.7394112651036
2731.8306,262.9500835878673
2733.0462,219.41395080796133
2734.2612,216.6308022110809
2735.4756,207.90042488878294
2736.6892,191.7226037663163
2737.9022,164.7971216899266
2739.1145,138.5737595886344
2740.3262,128.80229674348993
2741.5372,127.83251104980559
2742.7475,128.86417911487138
2743.9571,107.64707626765357
2745.1661,87.73097654847743
2746.3744,81.16565292119822
2747.582,74.05087747236234
2748.7889,69.63642147686119
2749.9952,63.12205546907785
2751.2008,56.90754928703109
2752.4057,53.89267213751987
2753.61,54.177192658268496
2754.8136,41.01087894807529
2756.0165,52.09349856396784
2757.2188,47.224818652865
2758.4204,26.304605840750583
2759.6213,27.782626281361445
2760.8215,30.40864586538828
2762.0211,32.38243020569621
2763.22,24.103744611065395
2764.4182,22.972354066452226
2765.6158,14.238023315776672
2766.8127,20.7005168732353
2768.009,3.409599110645104
2769.2045,6.1150341928191665
2770.3994,-4.4834137495261075
2771.5936,3.5640193531776276
2772.7872,-7.392857640199054
2773.9801,-21.95423590642463
2775.1723,-13.87023276762011
2776.3639,-11.990746223090582
2777.5548,-10.215535708516427
2778.745,-7.7442408720239655
2779.9346,-11.12639930853743
2781.1235,-7.061471248016915
2782.3117,-9.098805767692511
2783.4992,-24.287681400698602
2784.6861,-17.727285783099887
2785.8723,-7.416563917024632
2787.0579,-6.354283709017409
2788.2428,-2.8891389741493185
2789.427,3.630239951802423
2790.6106,7.405251595558411
2791.7935,23.087294447538397
2792.9757,29.127766924108982
2794.1573,29.778067210765585
2795.3382,52.48959320172594
2796.5184,48.56374249342866
2797.698,64.55191215741615
2798.8769,90.35549877959511
2800.0551,100.82589830035317
2801.2327,117.31450575652207
2802.4096,126.67271517667655
2803.5859,157.7019194162449
2804.7615,165.95351006393366
2805.9364,194.87887713143004
2807.1106,216.62940897088765
2808.2842,250.60649198567262
2809.4572,275.56151041285807
2810.6294,309.0458459834531
2811.801,368.4608776728519
2812.972,396.1079813659919
2814.1423,428.7885292632011
2815.3119,479.2538896037288
2816.4808,521.2054263389393
2817.6491,562.6944986276592
2818.8167,623.0724604166617
2819.9837,658.0906600257761
2821.15,711.4504395441081
2822.3157,743.9531344798568
2823.4807,786.2000732267179
2824.645,834.6925767388568
2825.8086,885.731958108438
2826.9716,909.7195220807021
2828.134,939.1065645435699
2829.2957,987.0943722877676
2830.4567,1014.3342227129574
2831.617,1024.8273833478577
2832.7767,1033.2251115778452
2833.9358,1032.1786545400241
2835.0941,1025.7392490392474
2836.2519,1008.9081215585825
2837.4089,993.6364883237036
2838.5653,990.0255554712053
2839.7211,1007.3265192013182
2840.8761,1009.8405658140173
2842.0306,1028.568871536014
2843.1843,1059.6126024956145
2844.3374,1119.9729145354377
2845.4899,1172.5509529019769
2846.6417,1232.0978516419973
2847.7928,1327.664733076756
2848.9433,1405.2527072065313
2850.0931,1484.862870754956
2851.2422,1565.5463063931368
2852.3907,1625.9040819435525
2853.5385,1690.2372495732207
2854.6857,1748.7968451901174
2855.8323,1801.1838877998475
2856.9781,1845.3493789200475
2858.1233,1901.4943020565156
2859.2679,1937.869622261556
2860.4118,1981.9762855725314
2861.555,2021.3652186481079
2862.6976,2058.337328327189
2863.8395,2075.643501235027
2864.9808,2105.9846034135016
2866.1214,2113.111480148059
2867.2614,2128.524955664298
2868.4007,2131.2258330567056
2869.5393,2140.814894134518
2870.6773,2140.742899394714
2871.8146,2161.8105879261266
2872.9513,2168.6686774101568
2874.0874,2162.967863910101
2875.2227,2153.458821802571
2876.3574,2143.542203834499
2877.4915,2115.71864121823
2878.6249,2080.538743730688
2879.7577,2047.103099991612
2880.8898,2035.612277815353
2882.0212,2008.4168245452327
2883.152,2006.0172671684488
2884.2821,1985.464112588032
2885.4116,2005.4078476468412
2886.5405,1981.6489393330937
2887.6686,1995.9878345809295
2888.7962,1992.5249605079985
2889.923,1977.210724272073
2891.0493,2015.4455131056768
2892.1748,2016.9296944692276
2893.2997,2022.9136156686877
2894.424,2051.997603840722
2895.5476,2078.18196589286
2896.6706,2087.266988212655
2897.7929,2113.7029364058435
2898.9145,2146.090055205489
2900.0355,2182.878568207628
2901.1559,2216.318677547398
2902.2756,2244.4605635311473
2903.3946,2255.504384302043
2904.513,2292.3502755586446
2905.6308,2313.0483504444696
2906.7479,2356.4486991795316
2907.8643,2387.4013888533636
2908.9801,2393.6564629910126
2910.0953,2401.76394124351
2911.2098,2394.2738193253267
2912.3236,2377.4860689332922
2913.4368,2386.6006378214997
2914.5494,2361.517449969182
2915.6613,2332.9864054895656
2916.7725,2311.6573808807025
2917.8831,2299.48022931078
2918.9931,2253.9547808314146
2920.1024,2231.530842499419
2921.211,2216.858198832059
2922.319,2190.7366120312936
2923.4264,2171.2658221305
2924.5331,2157.4955472556903
2925.6391,2146.0254838202186
2926.7445,2140.8553066624827
2927.8493,2135.9846691606276
2928.9534,2128.9632032842446
2930.0569,2117.9905196430786
2931.1597,2118.966207557244
2932.2619,2106.0898351669493
2933.3634,2109.4609494227425
2934.4643,2099.279076214273
2935.5645,2078.4437203365824
2936.6641,2034.004365591919
2937.763,2003.1604749980975
2938.8613,1964.6114912328883
2939.959,1898.1068369424568
2941.056,1816.4459151268547
2942.1523,1731.228109805066
2943.248,1660.752786831617
2944.3431,1534.1192947487525
2945.4375,1459.7769654911904
2946.5313,1362.175115652456
2947.6244,1263.1630472283055
2948.7169,1160.840048592744
2949.8087,1055.7553954881485
2950.8999,961.1583520484942
2951.9904,883.0981718502044
2953.0803,817.3240988581183
2954.1696,754.5353682060938
2955.2582,706.7312068547487
2956.3462,660.6108342193465
2957.4335,638.423462647841
2958.5202,599.768297882076
2959.6062,572.1445392796618
2960.6916,567.1513802005263
2961.7764,547.3380082831536
2962.8605,537.3536054945137
2963.9439,521.8473483281975
2965.0267,514.118407904261
2966.1089,515.1659501242855
2967.1905,517.7891357486697
2968.2714,502.03712038615276
2969.3516,509.25905446758316
2970.4312,508.3540834034377
2971.5102,525.5713475116038
2972.5885,525.8599820264292
2973.6662,522.419116926548
2974.7432,522.4478769319968
2975.8196,526.39538153862
2976.8954,512.4107450177835
2977.9705,510.94307637690065
2979.045,497.6914794992774
2980.1188,486.7050531587896
2981.192,476.1828911523987
2982.2645,465.07408241001576
2983.3364,429.0777110997244
2984.4077,402.3428567388669
2985.4783,365.26859455400927
2986.5483,353.85399574828944
2987.6177,320.64812787215953
2988.6864,292.50005493753224
2989.7545,264.2088377498393
2990.8219,226.92353418951245
2991.8887,200.39319949489482
2992.9548,179.11688663509517
2994.0204,154.74364657528963
2995.0852,130.82252848948679
2996.1495,105.65258000425922
2997.2131,85.88284743795396
2998.276,81.56237605239289
2999.3383,53.990210250569476
3000.4,40.11539361985342
3001.4611,32.58696920771206
3002.5215,24.503979660459322
3003.5812,9.56546729854017
3004.6404,-1.0295258026395686
3005.6989,-6.28195766332783
3006.7567,-7.692776018810491
3007.8139,-5.6128658476167175
3008.8705,-11.893035277443687
3009.9264,-10.334036363459518
3010.9818,-2.3865023494098523
3012.0364,-9.600963242017315
3013.0905,-12.377925206846726
3014.1439,-5.117798495839452
3015.1966,-5.670869705464611
3016.2487,-5.837374305384515
3017.3002,-1.167491113273627
3018.3511,8.438659368562753
3019.4013,12.730968301054418
3020.4509,15.059326760745876
3021.4998,14.273625696871932
3022.5481,24.273755908074577
3023.5958,30.20960805025959
3024.6428,36.28107253659607
3025.6892,38.83803947815636
3026.735,48.73039862320286
3027.7802,56.458039331617215
3028.8247,56.17085047597732
3029.8685,66.31872036428092
3030.9118,81.15153674281714
3031.9544,75.41918669468885
3032.9963,91.47155649148408
3034.0376,103.55853165059943
3035.0783,110.32999677471639
3036.1184,117.53583543093168
3037.1578,120.07593008304218
3038.1966,126.60016201948633
3039.2348,136.4084113279439
3040.2723,139.60055683009296
3041.3092,149.3264759835282
3042.3455,146.48604484983798
3043.3811,141.32913799734615
3044.4161,136.25562852951668
3045.4505,139.66538813652244
3046.4842,145.40828714598035
3047.5173,137.58419448885343
3048.5498,130.9929776420223
3049.5816,126.63450270652606
3050.6128,129.2586344734741
3051.6434,122.91523646763198
3052.6734,111.25417092117868
3053.7027,115.67529883714167
3054.7314,110.82848010600662
3055.7594,110.21357346150705
3056.7868,105.73043652909155
3057.8136,100.32892583207376
3058.8398,104.6588968364631
3059.8653,105.32020400498027
3060.8902,109.86270075375728
3061.9145,101.93623944572437
3062.9381,94.64067134518473
3063.9612,86.67584669707958
3064.9835,96.39161479994345
3066.0053,93.5378240855523
3067.0264,89.76432202176625
3068.0469,93.92095514106711
3069.0668,77.35756907829386
3070.086,82.67400852907588
3071.1046,68.62011741546667
3072.1226,67.74573883278083
3073.1399,61.10071519013138
3074.1567,53.834888219174786
3075.1727,51.04809904056037
3076.1882,46.94018823658962
3077.203,33.560995879082384
3078.2173,32.51036157045769
3079.2308,23.888124577524593
3080.2438,26.844123841988903
3081.2561,23.52819806667503
3082.2678,21.090185685966958
3083.2789,12.529924898966726
3084.2893,9.397253693874973
3085.2991,5.142009933592647
3086.3083,5.314031387048658
3087.3169,7.663155771751633
3088.3248,-4.160779247929952
3089.3321,3.44206391574113
3090.3388,-3.6784355833137283
3091.3449,-2.672398625593189
3092.3503,-0.18990934402501125
3093.3551,-1.1810251742743958
3094.3593,-1.1958016548125556
3095.3629,-2.23428252566913
3096.3658,-1.5964995808154754
3097.3681,-2.032462293741048
3098.3698,-4.392164188904587
3099.3708,-0.625578486466452
3100.3713,-2.1326345288674133
3101.3711,-4.113255409019075
3102.3702,-1.9673429148144237
3103.3688,3.155242257274722
3104.3667,0.504659064532234
3105.364,-3.268933567310171
3106.3607,4.784618245934894
3107.3568,3.31550104510103
3108.3522,7.923901323175755
3109.347,5.460005539991926
3110.3412,-0.72599992385625
3111.3348,6.866071257625379
3112.3277,12.38641266317046
3113.32,1.285217802851605
3114.3117,7.412680062877769
3115.3028,16.46899281660575
3116.2932,6.254349363265646
3117.2831,12.768942837397617
3118.2723,14.612966310998672
3119.2608,15.136612728376463
3120.2488,16.590074887709193
3121.2361,15.773545435809012
3122.2229,25.537216853587495
3123.209,16.781281464220967
3124.1944,22.855931335513446
3125.1793,24.861358367456376
3126.1635,27.14775423148143
3127.1471,27.915310350406855
3128.1301,25.3642178755735
3129.1125,24.79466767916921
3130.0942,31.95685037973999
3131.0753,31.450956347885437
3132.0558,37.32717563463689
3133.0357,32.38569797651621
3134.015,37.526712736773845
3134.9936,32.95040895480304
3135.9716,39.25697529473018
3136.949,38.59660009117766
3137.9258,41.66947128619836
3138.902,44.025776435879436
3139.8775,39.5157026796133
3140.8524,47.48943671653507
3141.8267,46.44716485062287
3142.8004,51.189072910960704
3143.7735,48.91534626216074
3144.7459,49.476169756944785
3145.7178,50.67172775888102
3146.689,50.30220413677617
3147.6596,48.067782252719866
3148.6295,54.16864496577972
3149.5989,55.604974654345455
3150.5676,54.12695315512062
3151.5357,54.934761748758945
3152.5032,59.0285811746449
3153.4701,63.058591622815186
3154.4364,60.07497269302107
3155.402,62.97790335442792
3156.367,59.36756197545171
3157.3315,63.64412629472932
3158.2952,64.60777345722212
3159.2584,70.45867997145027
3160.221,63.24702169985636
3161.1829,72.67297380029643
3162.1442,76.93671079815621
3163.105,67.0384064920919
3164.065,80.37823391139261
3165.0245,72.60636541496365
3165.9834,74.27297255792809
3166.9416,74.97822616934542
3167.8993,82.07229633554562
3168.8563,76.4553523930764
3169.8127,76.82756285776262
3170.7684,80.18909548087575
3171.7236,81.14011724541172
3172.6782,81.23079433247545
3173.6321,88.71129211177092
3174.5854,80.68177514069407
3175.5381,91.24240708952811
3176.4902,89.64335082173847
3177.4417,82.08476828836663
3178.3926,91.61682054402061
3179.3428,95.98966782246077
3180.2924,95.60346944127943
3181.2415,93.35838375817218
3182.1899,94.30456817479998
3183.1377,100.14217915923999
3184.0848,95.32137223652384
3185.0314,101.84230193026141
3185.9773,104.75512181084889
3186.9227,100.55998443025953
3187.8674,100.75704129291547
3188.8115,106.04644289763915
3189.755,109.27833873568267
3190.6979,108.80287723783371
3191.6402,113.42020574209666
3192.5818,107.28047049844706
3193.5229,110.6838166226585
3194.4633,118.38038815769987
3195.4031,117.62032803970202
3196.3423,114.10377802099202
3197.2809,118.4808786776938
3198.2189,124.5517694448935
3199.1563,117.36658857286847
3200.0931,118.32547306637846
3201.0292,124.5785587565174
3201.9648,125.97598029112444
3202.8997,126.01787107225329
3203.834,124.70436324219773
3204.7677,127.53558768307295
3205.7008,131.86167402995056
3206.6333,125.83275064254627
3207.5652,133.19894456195905
3208.4964,134.4603815709604
3209.4271,132.71718612033246
3210.3571,131.9194813162534
3211.2865,136.26738893772978
3212.2154,140.6610294445732
3213.1436,140.90052193392145
3214.0712,140.03598409630217
3214.9982,141.56753221323777
3215.9246,143.64528116589074
3216.8503,144.41934441974848
3217.7755,151.28983400384544
3218.7001,150.25686050302278
3219.624,150.17053298922326
3220.5473,152.43095903182115
3221.4701,155.88824469848535
3222.3922,149.99249453257522
3223.3137,158.54381151856762
3224.2346,153.19229714101456
3225.1549,159.7380512990299
3226.0746,160.33117235980467
3226.9937,164.3717570931493
3227.9121,164.7599006655627
3228.83,160.64569659982595
3229.7473,163.62923677112133
3230.6639,166.16061144817417
3231.5799,163.3399092634173
3232.4954,165.21721718767753
3233.4102,168.6426205583825
3234.3244,173.46620306078782
3235.238,172.28804669372275
3236.151,179.55823172135456
3237.0634,174.92683668497006
3237.9752,174.59393833027377
3238.8864,182.00961165370174
3239.797,182.42392990575075
3240.7069,179.0369645168214
3241.6163,179.09878509307495
3242.5251,181.70945945030314
3243.4332,184.41905361330976
3244.3408,187.0776317898041
3245.2477,184.58525634330474
3246.154,188.74198776655408
3247.0598,192.94788470644193
3247.9649,190.10300392243815
3248.8694,192.40740024453373
3249.7733,196.8611266016897
3250.6766,193.41423399879295
3251.5793,201.56677147211917
3252.4814,196.61878612380167
3253.3829,199.67032304030602
3254.2838,201.82142534190984
3255.1841,203.12213415218758
3256.0838,198.9224885764994
3256.9829,201.47252568898404
3257.8814,202.22228057455544
3258.7792,205.37178630340213
3259.6765,204.82107392348996
3260.5731,207.07017242906682
3261.4692,204.0191087661699
3262.3647,203.31790781013444
3263.2595,208.81659239610474
3264.1538,208.6651833260459
3265.0474,208.51369931375712
3265.9404,206.66215698638567
3266.8329,206.86057088594194
3267.7247,208.6589534878146
3268.616,204.30731519878668
3269.5066,207.75566433905152
3270.3966,210.55400718572935
3271.286,209.40234793838374
