RamanShift,CorrectedData
30.1047,5996.649424562474
32.3739,5602.095264919062
34.6426,5208.741045309154
36.9109,4827.936649745306
39.1787,4437.181910152658
41.4461,4050.176610176983
43.7131,3660.470489092235
45.9796,3279.063245670599
48.2456,2888.1045420795526
50.5112,2513.4440076959368
52.7764,2129.881243015549
55.0411,1749.4658233997434
57.3054,1363.7973029110608
59.5692,987.3252181173843
61.8326,604.1490919486226
64.0955,234.4684374614326
66.3579,-132.91723832902005
68.6199,-498.6584307522537
70.8815,-828.7043072945766
73.1426,-1078.099053844573
75.4032,-1074.8285775348
77.6634,-489.3680152882671
79.9231,1528.7182335095044
82.1824,6650.520658259467
84.4412,17308.779733075386
86.6995,33741.48586556583
88.9574,45679.07929025157
91.2148,52598.049904238505
93.4717,53759.887147841764
95.7282,54008.47993539596
97.9842,53857.316643636856
100.2398,53280.13510921539
102.4949,52747.42263020937
104.7495,52239.315971895216
107.0036,51464.85137207518
109.2573,51304.36454615831
111.5105,50500.19069490517
113.7632,50041.914506032685
116.0154,49726.27016225585
118.2672,49538.69134587057
120.5185,49081.66124190999
122.7693,48665.71254002041
125.0197,47718.627439031465
127.2696,48160.3376511157
129.519,47530.624411259356
131.7679,47453.91847284534
134.0163,46134.100113950306
136.2642,46031.39913811171
138.5117,46097.09488752603
140.7587,45430.016244075785
143.0052,44951.941628672495
145.2512,44058.199007927564
147.4967,44212.51589893296
149.7417,43609.81937819866
151.9863,43213.086080109526
154.2304,42451.342202952175
156.4739,42211.063512882414
158.717,42224.675351542595
160.9596,41501.50263846449
163.2017,40559.31987093306
165.4433,40685.801131218264
167.6844,39922.970095996905
169.925,39762.30003508773
172.1651,38957.713819079785
174.4047,38726.233920939194
176.6439,38231.48242405486
178.8825,37593.6810245534
181.1206,37743.00103624658
183.3582,37219.41339700937
185.5954,36598.43866728673
187.832,36287.09703532951
190.0681,35479.75832340417
192.3037,35832.54199090623
194.5388,36148.91714243363
196.7734,34065.35252425892
199.0075,35261.96652116547
201.2411,34358.02717728313
203.4742,34829.60218412215
205.7068,34306.55888961248
207.9389,33902.16429338805
210.1704,33527.88505201723
212.4015,33736.48748304678
214.632,32772.487568744604
216.862,33108.000954013725
219.0915,32478.19295603235
221.3205,32074.178560898643
223.549,32243.022429928864
225.777,31896.438903697475
228.0044,31777.742000348742
230.2314,31266.445419062547
232.4578,30948.712541241366
234.6837,30729.256435623232
236.909,31186.439861459075
239.1339,29641.77527070729
241.3582,29868.224803461886
243.582,29530.650303399125
245.8053,29189.313315513034
248.0281,28886.87508949115
250.2503,28750.94658312785
252.472,28103.288465348778
254.6932,28093.41111757015
256.9139,27630.724640175296
259.134,28042.188852613464
261.3536,26991.71329802664
263.5727,27209.507239134946
265.7912,26714.4296687414
268.0092,26524.48930755395
270.2267,26352.044609136276
272.4436,25738.103761807142
274.6601,25753.624690364923
276.8759,25598.265062226914
279.0913,25081.43228727422
281.3061,24832.183519405284
283.5204,24556.675661704277
285.7341,24273.465368933503
287.9473,24320.459050288562
290.16,23797.21287223039
292.3721,23747.482758015387
294.5837,23213.12439292779
296.7947,22762.99322477707
299.0052,23009.04446924151
301.2152,22493.033114369427
303.4246,22404.36391811876
305.6334,22065.14141351712
307.8418,21339.11990954852
310.0495,21066.703494545603
312.2568,20722.046043449845
314.4635,20368.201220535695
316.6696,20263.27248285716
318.8752,20187.163083786254
321.0802,19097.07607406228
323.2847,19284.814302552913
325.4887,18991.580427155124
327.692,18580.426912917756
329.8949,18527.906034973857
332.0972,18038.26988265221
334.2989,17914.62036000257
336.5001,17891.159190691993
338.7007,16972.587919241327
340.9008,17101.157911259863
343.1003,16878.620362631045
345.2992,16814.976298226728
347.4976,16225.176574132645
349.6955,16166.471878284741
351.8927,15656.962736367263
354.0895,15733.449512399711
356.2856,15464.182413832023
358.4812,15490.361490779673
360.6763,14730.236638716313
362.8707,15018.907598212005
365.0646,14504.173962534493
367.258,14343.685174762439
369.4508,13812.890532932783
371.643,14181.189191645666
373.8346,13749.230167372298
376.0257,13632.262334772036
378.2162,13303.984431011937
380.4062,12648.195056936449
382.5956,12822.04268035022
384.7844,12587.675642575981
386.9726,12518.392156716029
389.1603,12287.590309995961
391.3474,11644.318064457482
393.5339,11863.373259266438
395.7199,11111.5036171455
397.9052,11079.306742183639
400.09,11069.530127354788
402.2743,11300.121154839842
404.4579,10673.027096124431
406.641,10606.595109692978
408.8235,10689.272247299683
411.0054,10553.60545463283
413.1868,10542.94157048806
415.3675,10219.227328124944
417.5477,10112.85935537365
419.7273,9972.98417787216
421.9064,9707.74822012984
424.0848,9603.19780692627
426.2627,9691.479165963523
428.4399,8986.388428911727
430.6166,8288.071630526181
432.7928,8650.824715698385
434.9683,7971.293546439098
437.1432,7724.723898250886
439.3176,7958.361466923423
441.4914,7133.751870999142
443.6645,7103.790649436924
445.8371,6993.173269858133
448.0091,6580.295128846286
450.1806,6197.301553053199
452.3514,6237.88780332778
454.5216,5724.999078545952
456.6913,5996.5805152047615
458.8603,6025.877192551328
461.0288,5353.434129866917
463.1967,5772.196286174083
465.3639,5618.90856696105
467.5306,4556.365819994091
469.6967,4990.662836850417
471.8622,5245.644363543579
474.0271,4745.955096180529
476.1914,4789.489678411817
478.3551,4713.642706428465
480.5182,5216.358728526626
482.6807,4328.4822458660565
484.8426,4437.55770744296
487.0039,5127.07951896872
489.1647,5093.942041779192
491.3248,4375.739585939424
493.4843,5105.066410575069
495.6432,5021.6667310544435
497.8015,4069.584711695199
499.9592,4432.864466598367
502.1163,4285.550069169134
504.2728,3980.0355484840766
506.4287,3804.264890764258
508.5839,3196.6820424304096
510.7386,3366.380911860615
512.8927,3448.9553754661465
515.0461,3184.8492759944565
517.199,3526.706421703515
519.3512,3114.7205890028563
521.5029,3137.8355190349685
523.6539,3267.3449217951784
525.8043,2639.3424759004774
527.9541,3119.9218272944127
530.1033,2952.676595527162
532.2519,2540.350368949701
534.3999,2925.3867063863
536.5472,3177.829141257702
538.694,2397.821177730846
540.8401,2894.0062881943813
542.9856,2987.8779210588255
545.1305,3214.0794957946273
547.2748,2597.204401993469
549.4185,2513.3459971062184
551.5615,2827.6976126117443
553.704,2632.0525548554215
555.8458,2276.604101905723
557.987,2491.745505510582
560.1276,2785.8699946519337
562.2675,2629.7207733942632
564.4069,2901.7410179433937
566.5456,3270.2738782079323
568.6837,2710.812475079125
570.8212,2764.4998967455103
572.958,1788.8792042875139
575.0942,2186.343431140609
577.2299,1560.185592851536
579.3648,1406.148683103609
581.4992,1245.7256799783063
583.6329,1264.9595474956732
585.766,1285.9932372185285
587.8985,1513.8196880600735
590.0304,766.9318260736472
592.1616,1285.3725621743943
594.2922,908.2771456285191
596.4222,554.7308128485165
598.5515,603.5687911641289
600.6802,766.8207661442284
602.8083,187.91039370544604
604.9358,185.3613220962652
607.0626,562.7453223402845
609.1888,17.632313701447856
611.3144,504.1922098162904
613.4393,319.2447481744748
615.5636,105.40966122376994
617.6873,378.7034921569066
619.8103,28.391731124058424
621.9327,296.5898644883637
624.0544,352.9130949795872
626.1756,65.87662236160395
628.2961,-2.9543571308386163
630.4159,-234.56530537046638
632.5351,-257.44165471601445
634.6537,425.1835057811404
636.7716,-268.9203410882692
638.8889,-95.88371678531257
641.0056,-96.83445625686
643.1216,50.55056342849275
645.237,201.2954325783794
647.3518,-163.97575900508673
649.4659,-84.48892353271367
651.5793,-30.718335097524687
653.6922,40.11257625174767
655.8043,-345.81961922643677
657.9159,314.9616483252321
660.0268,-696.7135964979607
662.137,-140.31533225028397
664.2466,-16.70657731717074
666.3556,-199.95034868083167
668.4639,-105.9096631563807
670.5716,-218.79753555936622
672.6786,-10.476979646271502
674.785,-346.91100698558876
676.8907,-304.2126290410015
678.9958,-131.8413916352947
681.1002,-52.55683754911297
683.204,-338.8685082446391
685.3072,-446.8359446584436
687.4097,-305.5186843383999
689.5115,-265.7718009413147
691.6127,-88.75036506875767
693.7132,-267.8594446645511
695.8131,-143.35410678495828
697.9123,-52.93941580765386
700.0109,99.17956532324024
702.1089,-269.35222580696427
704.2061,-80.28985260473564
706.3028,-0.38837578301900066
708.3987,53.64714474815264
710.4941,-40.38835091735382
712.5887,273.05007677785034
714.6827,231.80736779505241
716.7761,526.3784593650707
718.8688,684.108286400653
720.9608,547.141778550751
723.0522,697.1738586232532
725.1429,526.049443954631
727.233,1140.7134449096484
729.3224,459.46076659260143
731.4112,632.7863027006752
733.4993,575.2849423364751
735.5867,539.401568274785
737.6735,380.2310575375741
739.7596,146.71828175283008
741.845,129.5581087462415
743.9298,289.1954048763655
746.014,152.57503520621685
748.0974,34.9918619068776
750.1802,265.04074562371534
752.2624,-113.83345334781188
754.3439,28.21412263737875
756.4247,109.57833236275474
758.5048,60.00403432964231
760.5843,294.98608594358666
762.6631,515.5693440101313
764.7413,745.5986623849822
766.8188,1230.8188897681757
768.8956,1542.9248674037517
770.9718,1718.5614242276133
773.0473,1611.2233737464048
775.1221,1421.9555122811798
777.1962,1285.8526200407505
779.2697,1102.859463014407
781.3426,1262.5207943329806
783.4147,1374.1813560987284
785.4862,1353.235877788713
787.557,1242.8790751381748
789.6271,1171.4056503500397
791.6966,729.910293198489
793.7654,241.0876817436365
795.8335,171.0324867465024
797.901,12.239376557299693
799.9678,-6.896982184087392
802.0339,-90.18192296013876
804.0993,-61.87077918436262
806.1641,-160.26888336841512
808.2282,-184.13156740520208
810.2916,-103.56416158491629
812.3544,-26.82199435638904
814.4164,-180.91039313280635
816.4778,-72.13468505910714
818.5385,-80.20019547111588
820.5986,56.187751016710536
822.658,301.12383059199055
824.7166,429.8027188804408
826.7747,689.9690884965603
828.832,1097.7176077568583
830.8886,1277.6429380781774
832.9446,1424.7897299002361
834.9999,1083.5026208863492
837.0545,1110.1762344519666
839.1085,998.2551831775054
841.1618,863.0840685416842
843.2143,600.8574820406648
845.2662,563.020006539824
847.3175,595.9662188959192
849.368,439.690690335563
851.4179,489.0379861256879
853.467,356.10266713634337
855.5155,447.97928934719675
857.5633,345.96240517693514
859.6105,260.49656256443996
861.6569,285.1263059890334
863.7027,168.84617732503102
865.7478,287.9007155955478
867.7922,256.2344581352372
869.8359,343.9919393997843
871.8789,274.31769128255837
873.9212,466.4562422370218
875.9629,433.5521179735224
878.0039,608.9498395379123
880.0441,665.1439236405058
882.0837,761.3288809021687
884.1226,809.3992152923311
886.1609,878.5994231671211
888.1984,971.7239927887204
890.2352,1245.3174036333294
892.2714,1101.0241254599096
894.3069,1166.6386155742584
896.3416,1040.0053202719937
898.3757,965.9186741823214
900.4091,891.3731015344529
902.4418,968.9630168984295
904.4739,922.982825930565
906.5052,1124.1269245975927
908.5358,1030.5396996364288
910.5658,994.5155265427893
912.595,847.898770506974
914.6236,718.3837867742113
916.6515,812.964922110732
918.6786,632.0865160989415
920.7051,754.2929001916636
922.7309,822.8783995208869
924.756,802.2873316756813
926.7804,866.264006016354
928.8041,660.9527238804149
930.8272,862.8977779427369
932.8495,781.5434542686853
934.8711,805.1840302946875
936.892,733.663775641784
938.9123,694.7769518791101
940.9318,686.8678132392088
942.9506,671.7306070068444
944.9688,714.1095735981289
946.9862,571.1989467118765
949.003,420.34295290583395
951.019,374.5358130257664
953.0344,410.77174371406
955.0491,403.8949578677275
957.063,521.9496642760714
959.0763,666.0800676894287
961.0888,579.9303676386844
963.1007,779.9947569939322
965.1119,783.667422825958
967.1223,797.0925444056411
969.1321,863.2142931672133
971.1412,912.8268325739627
973.1495,829.224317457054
975.1572,892.0508935193939
977.1641,957.4006981716811
979.1704,921.4178599041043
981.1759,883.5964976328614
983.1808,914.2807210599858
985.1849,950.9646310516109
987.1884,981.9423193311086
989.1911,1101.5078681122104
991.1932,1167.2553497892513
993.1945,1121.878825741529
995.1951,1037.7223456757856
997.1951,1054.4299480799891
999.1943,1003.6956610649213
1001.1928,1019.8635021970986
1003.1906,1004.4274790060881
1005.1877,1054.1315888228419
1007.1841,993.2698189340445
1009.1798,1006.7361460850952
1011.1748,954.9745370887322
1013.1691,864.7289486903755
1015.1627,719.8933280857163
1017.1556,466.51161382314604
1019.1477,441.9277372521683
1021.1392,283.78562505717855
1023.1299,236.82919950333599
1025.12,255.75238001797698
1027.1093,241.84908366015588
1029.0979,291.71322493143816
1031.0859,317.18871591492643
1033.0731,314.61946577659546
1035.0596,223.14938051054196
1037.0454,112.22236296463234
1039.0304,93.23231375528849
1041.0148,-3.126867623279395
1042.9985,-75.81128260918194
1044.9814,-114.07703260926064
1046.9636,-166.62946167566406
1048.9452,-190.27277423103806
1050.926,-159.20951006965333
1052.9061,-106.74030816082814
1054.8855,-86.26421697083424
1056.8642,-9.479218630323885
1058.8421,38.517566509588505
1060.8194,41.279018192559306
1062.7959,106.50801577712264
1064.7717,123.10743820904463
1066.7469,145.73016336906585
1068.7213,259.229067906861
1070.695,372.95702701478876
1072.6679,306.6669132929237
1074.6402,337.0615956117399
1076.6117,324.94393977506843
1078.5826,300.566808216121
1080.5527,219.98306011868408
1082.5221,167.19555166091595
1084.4908,168.4571368211109
1086.4587,246.3706679056486
1088.426,225.93899553632946
1090.3925,236.71496787125216
1092.3584,299.3014308091442
1094.3235,231.50122788162116
1096.2879,266.16719962727075
1098.2515,330.55218426969805
1100.2145,491.50901737083404
1102.1767,590.7905311871291
1104.1382,710.7995530599364
1106.099,914.4889044227348
1108.0591,1030.0113996009932
1110.0185,1072.169843775333
1111.9771,1194.3670318262666
1113.9351,1050.6557479126168
1115.8923,952.5887642495582
1117.8488,881.6188425457149
1119.8045,699.9987349838593
1121.7596,620.0311849305872
1123.7139,573.7189287525143
1125.6675,572.9146966159533
1127.6204,677.3712129500418
1129.5726,645.2411964547682
1131.524,620.7773590564284
1133.4748,563.282406228911
1135.4248,449.1590372383653
1137.3741,344.1599457181437
1139.3226,299.13782081004683
1141.2705,351.09534821427224
1143.2176,220.88521063965163
1145.164,263.5100872840994
1147.1097,199.72265513667662
1149.0546,196.02558855136886
1150.9989,167.62155988493396
1152.9424,130.61323953387546
1154.8852,72.45329621849305
1156.8272,104.19439735298874
1158.7686,165.48848654311587
1160.7092,148.8875063526939
1162.6491,121.29339769068247
1164.5883,221.6080999771766
1166.5267,289.83355141934953
1168.4644,426.57168800829095
1170.4014,542.0744428367652
1172.3377,788.8937447318422
1174.2732,951.6315170998605
1176.2081,1298.889675458231
1178.1421,1600.970125808075
1180.0755,1945.4747611616149
1182.0082,2113.5054585213657
1183.9401,2230.1140754351254
1185.8713,2130.8524483156507
1187.8017,1916.5723912745743
1189.7315,1728.0756971150076
1191.6605,1388.6141394743354
1193.5888,1224.4894747092076
1195.5163,1185.0034452901054
1197.4432,1080.4577814426411
1199.3693,1048.1042015424173
1201.2947,980.4944131604534
1203.2193,944.180113386763
1205.1432,939.9129895064143
1207.0664,951.4447193626875
1208.9889,905.6769713997564
1210.9106,872.261404547382
1212.8316,873.9496686785642
1214.7519,873.8434049436873
1216.6715,863.8942457536468
1218.5903,993.753814780921
1220.5084,1009.0737270590434
1222.4257,1126.9055876840612
1224.3424,1106.0009916612617
1226.2583,1175.3615227268856
1228.1735,1270.588753557182
1230.0879,1297.9842450748183
1232.0016,1438.9495454965654
1233.9146,1543.1861900593794
1235.8269,1471.395699610719
1237.7384,1555.7295795661885
1239.6492,1396.98932062745
1241.5592,1394.9763979388808
1243.4686,1477.9422726749617
1245.3772,1538.9883920604116
1247.285,1672.166188540552
1249.1922,1756.3770791708266
1251.0986,1908.322464285051
1253.0042,1884.353726653273
1254.9092,1955.1222299623478
1256.8134,2006.4793190555938
1258.7169,2238.526319225144
1260.6196,2325.014535698345
1262.5216,2450.8452513172706
1264.4229,2606.719725673891
1266.3234,2782.089193851727
1268.2232,2844.6548648671123
1270.1223,2882.31791991552
1272.0207,2884.6795117458714
1273.9183,2911.0907642839193
1275.8151,2846.5527726086184
1277.7113,2914.016602688025
1279.6067,2916.1332920246823
1281.5014,3021.703848980964
1283.3953,3371.079252757925
1285.2885,3727.110452339595
1287.181,4069.198362999221
1289.0727,4477.743862738938
1290.9637,4526.897788868937
1292.854,4811.010933921942
1294.7435,4771.384045161711
1296.6323,4775.017821741905
1298.5204,4731.862915102352
1300.4077,4595.019928932732
1302.2943,4402.589419604101
1304.1802,4258.371897537345
1306.0653,3941.2178291274868
1307.9497,3705.3776381858443
1309.8333,3437.2517091115624
1311.7162,3252.340389250039
1313.5984,3190.5439915741736
1315.4798,3047.562796533475
1317.3605,3001.147052672004
1319.2405,3033.696978058215
1321.1197,2856.2127607490947
1322.9982,2667.294558464677
1324.876,2541.2425003628887
1326.753,2342.1066889287067
1328.6293,2305.7372012347078
1330.5048,2194.2340909324193
1332.3796,2089.6473886159874
1334.2537,2011.7271029372423
1336.127,2017.4732216515404
1337.9996,1946.5357123969734
1339.8714,1993.3645226369154
1341.7426,1907.1095803693934
1343.6129,2019.1707936587882
1345.4826,2031.9980514983909
1347.3515,2087.8412226898145
1349.2196,2103.8001557146745
1351.087,2152.1746781761904
1352.9537,2206.5645966395823
1354.8197,2320.469696148346
1356.6849,2463.289739680353
1358.5493,2577.8244670087697
1360.4131,2683.1735932738884
1362.276,2840.236807837755
1364.1383,2810.763773230683
1365.9998,2639.954123580639
1367.8606,2471.607464907953
1369.7206,2259.823376833414
1371.5799,2020.5014142617438
1373.4384,1831.5911094994372
1375.2962,1738.091974648014
1377.1533,1429.603503493072
1379.0096,1196.6251724393114
1380.8652,993.3064435954075
1382.7201,776.3467671037833
1384.5742,599.5455831738145
1386.4275,443.8023242514355
1388.2802,343.01641678714805
1390.132,255.2872827934225
1391.9832,264.11434085261135
1393.8336,145.3470069941868
1395.6832,148.23469460650085
1397.5322,108.17681562443613
1399.3803,66.62278050054738
1401.2278,-3.2780013943483937
1403.0745,8.823878644336219
1404.9204,-25.772137931569887
1406.7656,30.3833021791761
1408.6101,-25.860190258536022
1410.4538,-27.75300478362624
1412.2968,-8.795272591731191
1414.139,-11.486847625990777
1415.9805,113.57250403521903
1417.8213,121.3831310671194
1419.6613,193.24538100918653
1421.5006,286.3096001870872
1423.3391,390.87613299406075
1425.1769,586.5953209602558
1427.0139,930.0675017070789
1428.8502,1290.9430069899936
1430.6858,1666.5721592638001
1432.5206,1869.2052680738634
1434.3547,2030.892626299872
1436.188,2113.9845081294443
1438.0206,2087.6311674412973
1439.8524,1934.1828369743198
1441.6835,1952.9897285910847
1443.5139,1858.7020348123442
1445.3435,1818.269928628968
1447.1724,1856.3435644447964
1449.0005,1821.7730784809755
1450.8279,1808.958588395246
1452.6545,1798.900193627629
1454.4804,1894.347975528588
1456.3056,1847.8519974595656
1458.13,1836.862303838545
1459.9536,1820.0789206049885
1461.7766,1685.4518553297712
1463.5987,1450.5810973829684
1465.4202,1225.3666192801502
1467.2409,1000.658379031076
1469.0608,906.6063223918536
1470.88,725.9103851120017
1472.6984,666.9204938750154
1474.5161,450.23656810528337
1476.3331,402.85852055800933
1478.1493,342.1862594860286
1479.9648,351.06968911361037
1481.7795,297.6587102431695
1483.5935,282.8032201664355
1485.4067,227.40311319855027
1487.2192,310.00828082664884
1489.031,316.51861226385154
1490.842,273.0839936232078
1492.6522,238.6543078525865
1494.4618,251.17943516903324
1496.2705,281.4092534030642
1498.0785,250.4436378734208
1499.8858,234.08246108477033
1501.6924,234.82559303735252
1503.4981,222.3729013905904
1505.3032,239.72425145566376
1507.1075,238.67950632001157
1508.911,242.33852667386964
1510.7138,205.60117082068246
1512.5159,173.71729464050804
1514.3172,153.83675195739488
1516.1178,101.1093948582311
1517.9176,166.58507389152874
1519.7166,119.4636385947233
1521.515,88.29493683941473
1523.3126,108.57881530256418
1525.1094,104.46511977819682
1526.9055,90.7036949745343
1528.7008,58.44438455517957
1530.4954,0.937031276687776
1532.2893,39.281477311178605
1534.0824,-32.622435178567684
1535.8747,72.22513557741331
1537.6663,56.624357247193984
1539.4572,52.62539677662062
1541.2473,96.52842054529174
1543.0367,54.23359440658169
1544.8253,17.14108324856352
1546.6132,106.7510514170026
1548.4003,123.5136630862471
1550.1867,146.679081363156
1551.9723,180.74746811945442
1553.7572,260.0189837600774
1555.5414,346.5437868824847
1557.3247,436.17203348397015
1559.1074,558.1038760964038
1560.8893,676.3894628899398
1562.6705,780.47893645371
1564.4509,937.7724326129646
1566.2305,932.0200793881813
1568.0094,1004.3219954221095
1569.7876,1102.128290037319
1571.565,1103.989062513152
1573.3417,1102.6044011076883
1575.1176,1093.2743830391191
1576.8928,1133.899074499579
1578.6672,1083.9285307484788
1580.4409,1120.162795706241
1582.2138,1112.4019024540048
1583.986,1132.9458728713034
1585.7575,1236.1447177136542
1587.5282,1306.7984364071326
1589.2981,1392.1070160163672
1591.0673,1376.2204305380037
1592.8358,1517.7886400476364
1594.6035,1603.6615908586446
1596.3704,1643.6892141065382
1598.1366,1722.221424890211
1599.9021,1760.5581218716707
1601.6668,1821.3991864907293
1603.4308,1920.69448258161
1605.194,2034.343855764564
1606.9564,2191.197132452893
1608.7182,2377.5041187164697
1610.4791,2565.4645987132026
1612.2394,2784.878332825958
1613.9988,3016.0450557829554
1615.7576,3222.264474463631
1617.5156,3389.536265586972
1619.2728,3494.5600736493216
1621.0293,3467.985509251661
1622.785,3325.212148049377
1624.54,3096.5395310180083
1626.2942,2872.367165880971
1628.0477,2554.944529396287
1629.8005,2342.521069598304
1631.5525,2164.4462089719273
1633.3037,1985.019346576857
1635.0542,1854.7898598283282
1636.804,1727.757106291394
1638.553,1672.1204249832153
1640.3013,1607.579137643379
1642.0488,1601.132549290287
1643.7955,1653.2299488665467
1645.5416,1663.4706093034438
1647.2868,1732.1037869999618
1649.0313,1809.9787217203902
1650.7751,1904.8446359079844
1652.5181,2027.300733906215
1654.2604,2137.3462010101157
1656.0019,2298.8302022417083
1657.7427,2493.9018812495815
1659.4828,2675.510358693995
1661.222,2806.8547302962015
1662.9606,2798.4340650223494
1664.6984,2659.89740377005
1666.4354,2432.843759452593
1668.1717,2081.472118384303
1669.9072,1688.131442551061
1671.642,1393.7206731240422
1673.3761,1194.8387343931136
1675.1094,978.1845367109363
1676.8419,849.4569784817886
1678.5737,684.4049483281015
1680.3048,603.777326377749
1682.0351,522.3229859145558
1683.7646,427.3907941845737
1685.4934,377.77961321064686
1687.2215,336.68830074171274
1688.9488,290.6657107489282
1690.6754,222.7606938365716
1692.4012,237.67209770227055
1694.1263,200.79876781604798
1695.8506,213.83954727121636
1697.5742,200.99327715310574
1699.297,170.7587964086615
1701.0191,115.23494197490436
1702.7404,128.9705490812721
1704.461,69.81445180485753
1706.1808,53.2654829330495
1707.8999,45.122474555108056
1709.6182,65.33425822763638
1711.3358,59.299665056023514
1713.0527,38.51752549232879
1714.7688,20.736669395613717
1716.4841,4.90592623977318
1718.1987,42.57412529134308
1719.9126,1.1900957678044506
1721.6257,-2.297333539088868
1723.338,37.61066615051641
1725.0496,-3.2370534331676026
1726.7605,-2.791640936036856
1728.4706,-18.054212665832893
1730.18,-30.925857041804193
1731.8886,-10.557482121623252
1733.5964,-27.999687013651055
1735.3036,0.8470346429967321
1737.0099,-5.467531073936698
1738.7156,3.6064019048280898
1740.4204,-34.13132573080111
1742.1246,-1.330873326971414
1743.8279,-5.942059257893561
1745.5306,-0.9146886023499974
1747.2325,-14.148507077967224
1748.9336,-1.9432512646344549
1750.634,-19.448516398661013
1752.3336,-21.86387830327112
1754.0325,1.9612814889806032
1755.7307,9.927799865674388
1757.4281,40.38651369477884
1759.1247,65.53825974498614
1760.8206,60.48387438112695
1762.5158,78.22419331265701
1764.2102,71.16005164418493
1765.9039,63.94228369809025
1767.5968,63.77172308515583
1769.289,80.49920277674028
1770.9804,48.77555510649472
1772.6711,91.60161160307871
1774.361,104.57820330740287
1776.0502,144.15616034436061
1777.7386,117.28631179307013
1779.4263,118.46948529109068
1781.1132,162.2065073031281
1782.7994,145.24820310918767
1784.4849,138.24539636722147
1786.1696,151.1489092826996
1787.8535,138.90956267864567
1789.5367,174.57817586658712
1791.2192,182.95556676896558
1792.9009,154.04255156245017
1794.5818,186.58994459415408
1796.2621,190.59855867077567
1797.9415,183.8692047331133
1799.6202,203.5526918159867
1801.2982,207.8498271155222
1802.9755,209.86141579233117
1804.6519,239.03826092851705
1806.3277,189.28116350759046
1808.0027,208.5909221226757
1809.6769,225.26833347410138
1811.3504,236.46419217628863
1813.0231,219.47929059098533
1814.6951,246.21441871529169
1816.3664,277.9203643515302
1818.0369,287.49791283986997
1819.7067,241.5478467412995
1821.3757,293.7209457418285
1823.044,277.917987111985
1824.7115,302.7397451851011
1826.3783,282.0369915153242
1828.0443,291.0604946294079
1829.7096,298.8110202337484
1831.3741,335.58933112413797
1833.0379,335.1461871082647
1834.701,319.1823446379203
1836.3633,328.4485568134496
1838.0248,332.7455735433705
1839.6856,333.2741414517259
1841.3457,372.03500383510436
1843.005,368.1789006573563
1844.6636,380.65656816199225
1846.3214,356.31873891073155
1847.9785,396.71614165874416
1849.6349,404.5995015980043
1851.2904,405.66953995333097
1852.9453,398.4769739035528
1854.5994,388.17251657080305
1856.2528,415.90687709245685
1857.9054,445.08076072417134
1859.5572,456.74486856254043
1861.2083,440.9498972533529
1862.8587,464.44653887495224
1864.5084,460.0854810962028
1866.1572,473.56740694149994
1867.8054,464.84299483439463
1869.4528,456.8629184627662
1871.0994,465.127846866073
1872.7453,486.88844451514524
1874.3905,465.19537122953443
1876.0349,472.6492819599116
1877.6786,499.40082700499806
1879.3215,501.20065193702976
1880.9637,504.49939733423344
1882.6051,521.397698762843
1884.2458,537.9461867440896
1885.8858,514.945486585244
1887.525,504.54621821411456
1889.1634,495.6989964090717
1890.8011,477.75443090302724
1892.4381,496.2131264719046
1894.0743,516.3756831140927
1895.7098,500.5426958658518
1897.3446,529.1647545996857
1898.9786,501.99244418267335
1900.6118,548.7263441902469
1902.2443,501.1170291779308
1903.8761,527.415068213988
1905.5071,507.3210253555062
1907.1374,502.7854593854372
1908.7669,479.3589240135261
1910.3957,496.59196792167313
1912.0237,497.035134998192
1913.651,503.83896416548123
1915.2776,503.75398937559294
1916.9034,488.18073954219653
1918.5285,444.869738541418
1920.1528,455.371505367586
1921.7764,475.03655456632987
1923.3992,475.21539612956803
1925.0213,430.9585352988597
1926.6427,420.21647256361393
1928.2633,417.9397041036573
1929.8832,435.0787218966525
1931.5023,429.5340137408748
1933.1207,432.3560630838201
1934.7383,441.1953490776432
1936.3552,413.0523465509468
1937.9714,425.72752592038523
1939.5868,406.92135347209296
1941.2015,412.5842912349344
1942.8154,403.81679716855797
1944.4286,356.51932510678125
1946.041,357.09232484525273
1947.6528,324.5862426144304
1949.2637,351.8515210738642
1950.8739,349.63859963723735
1952.4834,366.24791419973917
1954.0921,367.3798971601682
1955.7001,345.0349772548434
1957.3074,341.51357954629384
1958.9139,312.2161256467007
1960.5197,320.39303375311283
1962.1247,325.19471894041453
1963.729,297.42159307956535
1965.3325,303.62406478957746
1966.9353,310.4025397152491
1968.5374,283.7574204651446
1970.1387,305.88910654380743
1971.7393,281.69799461821003
1973.3392,281.23447829643555
1974.9383,276.7989483695965
1976.5366,249.6917928164603
1978.1342,267.5633968478123
1979.7311,278.6641431775197
1981.3273,233.49441184381885
1982.9227,256.0545800983082
1984.5173,244.74502285764447
1986.1112,249.566112477939
1987.7044,244.96821886785438
1989.2968,250.95170944039546
1990.8885,262.5169491588895
1992.4795,248.61430047715203
1994.0697,263.6441232238303
1995.6592,229.35677474143813
1997.2479,256.3526097360573
1998.8359,244.43198062020383
2000.4232,222.54523724286992
2002.0097,223.44272700872716
2003.5955,197.67479509699933
2005.1805,206.69178445248326
2006.7648,237.89403604323434
2008.3484,226.9318887703903
2009.9312,251.2556791561592
2011.5133,242.56574145343257
2013.0946,228.91240740254943
2014.6752,232.5960063181874
2016.2551,229.91686522590862
2017.8342,224.32530882531137
2019.4126,224.77165951683764
2020.9902,204.3562374576777
2022.5672,202.52936055731152
2024.1433,203.29134468166467
2025.7188,197.1425036713681
2027.2935,201.93314933414877
2028.8674,208.16359150630615
2030.4406,199.18413800481903
2032.0131,193.69509456503238
2033.5849,170.09676493046118
2035.1559,201.38945090767083
2036.7261,233.97345260226484
2038.2957,205.0490681059582
2039.8645,184.0665931707381
2041.4325,207.9763214981067
2042.9998,195.12854494890053
2044.5664,198.0735533042025
2046.1323,218.96163439381053
2047.6974,211.44307406679127
2049.2617,204.01815598259782
2050.8254,207.13716168625342
2052.3883,237.0503706826048
2053.9504,213.7080604051307
2055.5118,199.16050591681142
2057.0725,193.20798014355205
2058.6325,204.6007540196524
2060.1917,197.5890965473336
2061.7502,223.12327468281364
2063.3079,191.45355340642436
2064.8649,200.98019546726482
2066.4212,183.6034616998977
2067.9767,213.3236109290865
2069.5315,202.04090014355734
2071.0856,169.05558419880708
2072.6389,153.96791592992395
2074.1915,142.12814648144558
2075.7433,138.5365254582366
2077.2945,134.593301043883
2078.8448,125.64872003661003
2080.3945,152.25302788870977
2081.9434,165.90646879599353
2083.4916,144.3592854317485
2085.039,127.01171881019764
2086.5857,145.36400850197697
2088.1317,160.2663928076072
2089.677,174.36910857397106
2091.2215,143.22239104529217
2092.7652,157.67647372210922
2094.3083,155.13158867273796
2095.8506,171.2379663887341
2097.3921,202.4458358103384
2098.933,185.2054241654114
2100.4731,171.9169566573646
2102.0124,195.7306566375546
2103.5511,190.0967457381721
2105.089,184.5154436341072
2106.6261,202.68696809928497
2108.1626,195.61153506247865
2109.6983,192.23935842559877
2111.2332,189.6706501344388
2112.7675,198.60562021240366
2114.301,200.14447678619217
2115.8337,207.13742599644684
2117.3657,174.8846719823705
2118.897,193.28641681179124
2120.4276,192.49286080369438
2121.9575,152.15420234420526
2123.4866,205.62063789452168
2125.0149,208.54236239430247
2126.5426,185.01956872700248
2128.0695,173.60244769065685
2129.5956,191.24118823310346
2131.1211,195.4859775661671
2132.6458,190.48700098926383
2134.1698,204.6444418469482
2135.693,205.95848157891578
2137.2155,191.32929957841588
2138.7373,189.2570731791211
2140.2584,193.99197780141367
2141.7787,192.93418697311063
2143.2983,176.3338722821063
2144.8171,177.0912033869581
2146.3353,179.65634818288254
2147.8527,163.8294727941884
2149.3693,177.71074154862436
2150.8853,153.9003171356453
2152.4005,150.4483604676043
2153.9149,184.6550309178574
2155.4287,165.02048635528445
2156.9417,187.59488280221285
2158.454,171.82837463076976
2159.9655,164.62111433713017
2161.4764,184.52325269918765
2162.9865,177.6349388486251
2164.4958,179.40632007189652
2166.0045,170.43754187911054
2167.5124,167.67874798631237
2169.0195,194.53008040517489
2170.526,198.0416794705825
2172.0317,179.31368357211795
2173.5367,192.6462291189464
2175.0409,179.83945072709957
2176.5445,191.24348108614595
2178.0473,184.5084510872648
2179.5494,167.43448970920508
2181.0507,184.12172408564038
2182.5513,177.32027967589602
2184.0512,170.43028009808768
2185.5504,158.55184719712815
2187.0488,149.18510111362684
2188.5465,160.23016040268158
2190.0435,136.63714212755167
2191.5397,144.8061617491967
2193.0353,135.23733336219811
2194.5301,145.58076961308507
2196.0241,148.28658179601734
2197.5175,140.85487974934586
2199.0101,140.78577182856043
2200.502,133.4793649805988
2201.9931,119.98576474454694
2203.4835,123.45507532469674
2204.9733,126.63739972548865
2206.4622,135.0328397168205
2207.9505,128.2414958022182
2209.438,99.96346713487765
2210.9248,126.84885158558518
2212.4109,95.14774602549733
2213.8962,106.26024605728071
2215.3809,109.5364463321348
2216.8648,109.67644043865766
2218.3479,99.73032087009506
2219.8304,100.79817902293416
2221.3121,97.13010529635903
2222.7931,90.92618908156965
2224.2733,76.7365187984642
2225.7529,79.06118195767976
2227.2317,76.30026530248688
2228.7098,112.45385478554817
2230.1872,85.07203559652407
2231.6638,96.85489180054446
2233.1397,79.55250661201717
2234.6149,82.6649622768
2236.0894,83.74234024522502
2237.5632,81.4347211409713
2239.0362,80.99218475029738
2240.5085,81.76481004511788
2241.9801,66.00267518743203
2243.4509,69.70585752159514
2244.921,64.52443373193637
2246.3904,67.50847980573144
2247.8591,60.25807108501431
2249.3271,76.4732822367423
2250.7943,59.00418732529488
2252.2608,64.80085965032686
2253.7266,65.66337192145329
2255.1917,60.09179620028044
2256.656,51.18620389178977
2258.1197,46.99666580004214
2259.5826,47.27325221723095
2261.0447,71.66603296558878
2262.5062,47.3750773946158
2263.9669,79.85045413716034
2265.4269,46.19223135231459
2266.8862,52.5004764006826
2268.3448,52.875256180942415
2269.8026,72.96663706676463
2271.2598,73.37468490307492
2272.7162,73.89946480513117
2274.1719,96.54104115444261
2275.6268,60.04947759353399
2277.0811,88.27483679952184
2278.5346,89.91718084903277
2279.9874,86.82657093594662
2281.4395,80.00306735496997
2282.8908,72.4967295325423
2284.3414,82.75761609506844
2285.7914,100.58578494398444
2287.2406,90.13129315315473
2288.689,94.09419679058647
2290.1368,77.92455102297845
2291.5838,73.07241007609264
2293.0302,73.98782739644412
2294.4758,79.37085569982537
2295.9206,75.92154696215493
2297.3648,82.4899523656477
2298.8082,92.32612233330838
2300.251,99.93010646324637
2301.693,82.80195343030482
2303.1343,95.84171091003464
2304.5748,85.04942574997312
2306.0147,68.02514383923335
2307.4538,84.0189102164486
2308.8922,80.48076924000088
2310.3299,70.71076442808135
2311.7669,76.60893849407694
2313.2031,84.57533344426884
2314.6387,63.4099905188441
2316.0735,63.61295011223592
2317.5076,65.78425198477544
2318.941,86.12393526066899
2320.3737,82.08203840627812
2321.8056,81.75859902672391
2323.2369,80.9536539063015
2324.6674,74.36723901172536
2326.0972,71.39938950017631
2327.5263,81.80013978516445
2328.9547,80.96952356621068
2330.3823,69.95757372483786
2331.8092,80.66432233287605
2333.2355,62.339800762583764
2334.661,86.73403957957726
2336.0858,75.19706872608049
2337.5098,80.17891727697724
2338.9332,74.1296135551861
2340.3558,70.69918508183537
2341.7778,69.93765863675935
2343.199,84.09506029280328
2344.6195,91.32141542343788
2346.0393,76.2667485611837
2347.4583,81.88108332534694
2348.8767,73.61444257256744
2350.2943,87.61684834067637
2351.7113,81.73832193136013
2353.1275,96.2288837701426
2354.543,82.6885534651633
2355.9578,96.56734966227395
2357.3718,86.71529018044248
2358.7852,60.88239187296631
2360.1978,74.36867072598852
2361.6098,74.07414211682953
2363.021,89.09882067912258
2364.4315,91.59272030576312
2365.8413,72.45585399866013
2367.2504,69.08823384379639
2368.6587,78.93987120259908
2370.0664,70.91077674561166
2371.4733,69.30096035398356
2372.8795,57.01043119975566
2374.285,66.23919776196544
2375.6899,58.98726794954291
2377.0939,56.2046490090288
2378.4973,60.2413475970925
2379.9,56.847369808363055
2381.3019,62.922721135057145
2382.7032,45.56740650091888
2384.1037,44.73143020046609
2385.5035,55.96479607254469
2386.9027,60.36750750868896
2388.3011,42.58956734078856
2389.6987,53.230977797057676
2391.0957,44.54174067981694
2392.492,38.87185725907739
2393.8876,40.221328359434665
2395.2824,44.290154416767564
2396.6765,39.828335464742395
2398.07,34.08587109412656
2399.4627,39.862760497405816
2400.8547,40.109002526207405
2402.246,44.07459563353268
2403.6366,55.75953787129447
2405.0265,17.113826850662008
2406.4156,30.53745962521043
2407.8041,37.18043307738208
2409.1918,36.69274378424143
2410.5789,19.674387951052722
2411.9652,24.625361416151463
2413.3508,28.395659821132085
2414.7358,25.58527856133469
2416.12,12.09421274814622
2417.5035,26.822457237100025
2418.8863,11.920006762790308
2420.2684,20.086855791589187
2421.6497,19.37299867066986
2423.0304,8.928429546338066
2424.4104,5.853142371170634
2425.7896,23.847131008460565
2427.1682,13.460389262969784
2428.546,12.542910700989978
2429.9232,6.2446887542091645
2431.2996,14.315716728891857
2432.6753,23.455987868853754
2434.0503,11.165495274754903
2435.4246,15.69423181269758
2436.7982,-5.907809762871693
2438.1711,21.159363145553016
2439.5433,11.795802154495505
2440.9148,18.90155866888699
2442.2856,7.62668397570269
2443.6557,19.271229172902167
2445.025,8.135245282180222
2446.3937,13.018783132518365
2447.7617,14.071893471544627
2449.1289,11.49462691670169
2450.4955,16.137033944714858
2451.8613,12.449164917365124
2453.2265,26.43107003506384
2454.5909,14.782799373730086
2455.9546,6.6544027449763234
2457.3177,17.295929812587474
2458.68,16.257430173806824
2460.0416,20.288953252918418
2461.4025,12.64054831163503
2462.7627,17.86226440878181
2464.1222,24.604150476779978
2465.4811,18.216255269428075
2466.8392,30.79862729448587
2468.1966,29.501314877551522
2469.5533,40.724366036239644
2470.9093,33.867828493154775
2472.2645,27.231749563658468
2473.6191,33.26617622443564
2474.973,30.47115517985503
2476.3262,36.99673280162642
2477.6787,26.942955156748667
2479.0305,24.109867942256642
2480.3816,25.747516585755875
2481.7319,31.855946273755762
2483.0816,36.135201935293026
2484.4306,32.68532818084623
2485.7789,32.6063692595435
2487.1264,22.94836909365904
2488.4733,20.31137127940292
2489.8195,20.545419183501508
2491.165,11.800555969569814
2492.5097,15.776824595769085
2493.8538,14.674267902256815
2495.1972,2.742928571421544
2496.5398,3.732849138911206
2497.8818,9.494072112948288
2499.2231,4.976639964425885
2500.5637,8.080595069297942
2501.9035,17.95597975375449
2503.2427,13.402836263182053
2504.5812,18.77120666340852
2505.919,17.661132886237283
2507.256,24.972656675758117
2508.5924,10.905819599450297
2509.9281,7.260662975068499
2511.2631,9.937228011311618
2512.5974,17.635555844271494
2513.9309,16.55568751066903
2515.2638,10.14766387087002
2516.596,22.161525619686017
2517.9275,20.597313350451714
2519.2583,11.555067434887405
2520.5884,21.8848280387424
2521.9178,18.486635212214424
2523.2465,19.06052878665514
2524.5745,11.356548408551589
2525.9018,4.124733533785729
2527.2284,12.71512350467674
2528.5543,18.77775762229612
2529.8796,14.11267506056629
2531.2041,13.769914805629924
2532.5279,3.549515702505232
2533.851,22.15151645851256
2535.1735,7.575955745476676
2536.4952,21.472872013710912
2537.8163,26.442303637771147
2539.1366,22.33428877748247
2540.4562,16.948865328250122
2541.7752,34.68607096213509
2543.0935,29.745943181710118
2544.411,29.528519142688765
2545.7279,48.58383570333126
2547.0441,35.16192942660837
2548.3596,35.51283638965742
2549.6744,40.93659231799484
2550.9885,36.8332325820129
2552.3019,49.65279214273778
2553.6146,44.945305592862496
2554.9266,49.810807028556155
2556.2379,44.89933009653123
2557.5485,49.460907945394865
2558.8585,39.04557327475959
2560.1677,58.80335828962825
2561.4762,59.73429480455388
2562.7841,55.83841404604891
2564.0913,66.41574664328937
2565.3977,65.0163226670661
2566.7035,59.34017152401384
2568.0086,77.23732197060372
2569.313,89.80780216990706
2570.6167,84.10163951262439
2571.9197,85.11886049137638
2573.222,85.35949075777035
2574.5236,86.07355511222568
2575.8246,70.41107750156743
2577.1248,90.22208101188608
2578.4244,95.00658802516227
2579.7232,93.26462002115659
2581.0214,85.64619752956469
2582.3189,99.35134014743699
2583.6157,100.28006661536529
2584.9118,104.68239468042793
2586.2072,103.95834108690497
2587.5019,96.45792153225125
2588.7959,99.53115067434078
2590.0893,114.22804220646958
2591.3819,97.99860882662347
2592.6739,106.79286209050724
2593.9652,112.61081257384308
2595.2557,104.70246978442265
2596.5456,106.26784210393089
2597.8348,111.85693686702825
2599.1234,113.3197603456988
2600.4112,114.90631769335619
2601.6983,124.41661293022025
2602.9848,102.95064892744767
2604.2705,116.25842731203011
2605.5556,110.63994868145164
2606.84,106.8452124706123
2608.1237,106.3742170080152
2609.4067,114.17695955371187
2610.689,112.80343630401353
2611.9707,120.7536423134618
2613.2516,98.22757150856614
2614.5319,83.6752166082997
2615.8115,88.14656934936079
2617.0903,97.39162063169579
2618.3685,92.96036047378698
2619.6461,98.20277792020056
2620.9229,96.21886108590161
2622.199,93.80859710382856
2623.4745,104.07197214473103
2624.7493,90.45897144127571
2626.0234,83.36957918540998
2627.2968,101.50377866449298
2628.5695,91.66155233218842
2629.8415,85.19288162712246
2631.1128,85.69774707130637
2632.3835,84.87612833482262
2633.6535,77.37800423077692
2634.9228,72.60335272351449
2636.1914,82.50215100360174
2637.4593,86.67437553557238
2638.7265,79.4700019589402
2639.9931,78.08900504647568
2641.259,80.73135877625077
2642.5242,70.64703634544821
2643.7887,86.18601014393789
2645.0525,85.44825185511968
2646.3156,81.38373230053458
2647.5781,87.99242144724235
2648.8398,89.27428844846713
2650.1009,76.42930157750857
2651.3613,81.70742821492536
2652.6211,88.10863497698347
2653.8801,83.5328876628771
2655.1385,88.43015119071515
2656.3961,85.75038964327837
2657.6531,78.1935662190474
2658.9094,80.60964325899931
2660.1651,92.99858232217821
2661.42,83.16034416153275
2662.6743,90.74488860002589
2663.9279,102.05217462901851
2665.1808,94.58216033242184
2666.433,94.93480277362778
2667.6846,100.76005807020783
2668.9354,100.50788139038559
2670.1856,99.47822689478494
2671.4351,101.77104773895189
2672.6839,115.4362960836504
2673.9321,103.87392307193431
2675.1795,116.13387869249618
2676.4263,112.01611189528944
2677.6724,114.22057046892951
2678.9179,105.94720108187289
2680.1626,120.09594926037153
2681.4067,126.41675947120552
2682.6501,120.1595749801977
2683.8928,111.77433778900377
2685.1348,100.8109886976847
2686.3761,100.96946738855945
2687.6168,104.64971253583758
2688.8568,103.45166180403544
2690.0961,83.22525181117226
2691.3348,95.5704181407516
2692.5727,95.8870955440243
2693.81,92.12521781653845
2695.0466,98.2847177949709
2696.2826,89.51552739474755
2697.5178,98.36757754844825
2698.7524,95.39079829349794
2699.9863,96.28511868364649
2701.2195,96.40046681873741
2702.452,96.28676983576406
2703.6839,104.74395390771474
2704.9151,109.52194424471145
2706.1456,111.87066500943683
2707.3755,109.64003926935584
2708.6046,116.4299889732265
2709.8331,122.79043497340831
2711.0609,122.82129695796016
2712.2881,134.32249338703764
2713.5145,132.44394149258278
2714.7403,125.63555716331439
2715.9654,133.29725496351193
2717.1899,148.2789482011001
2718.4136,157.68054885103197
2719.6367,169.70196740547158
2720.8591,160.04311277977808
2722.0809,160.0538921922912
2723.3019,179.33421126092048
2724.5223,180.93397400303684
2725.7421,178.50308264267028
2726.9611,187.09143759451308
2728.1795,177.7489374882266
2729.3972,183.72547908255888
2730.6142,171.92095735876887
2731.8306,161.33526546086068
2733.0462,147.7682948136287
2734.2612,137.91993522851544
2735.4756,128.44007503927992
2736.6892,114.02860120048308
2737.9022,107.73539938228555
2739.1145,105.660354114563
2740.3262,86.10334884983808
2741.5372,83.51426598402895
2742.7475,68.44298705202186
2743.9571,67.03939275356106
2745.1661,52.503363103961874
2746.3744,62.034777448147
2747.582,49.48351460600543
2748.7889,37.99945277708025
2749.9952,42.88246966607926
2751.2008,48.282442597716
2752.4057,35.799248467880716
2753.61,26.732763689640024
2754.8136,28.23286431806764
2756.0165,25.149426140911828
2757.2188,28.38232466359227
2758.4204,27.081435140035637
2759.6213,14.496632540345217
2760.8215,24.127791563812025
2762.0211,18.82478676476012
2763.22,21.187492456237806
2764.4182,15.715782763045581
2765.6158,15.709531598109834
2766.8127,20.56861271719913
2768.009,19.09289971898761
2769.2045,19.482265996463866
2770.3994,10.936584751688315
2771.5936,8.655728991898059
2772.7872,-3.910428385034038
2773.9801,-0.7120145677922665
2775.1723,-5.849117679880692
2776.3639,-1.1718187317790125
2777.5548,-5.330140301280608
2778.745,-2.1240932597108895
2779.9346,-9.353635230293321
2781.1235,-17.818702616560813
2782.3117,1.6308616207697924
2783.4992,-10.5546074701806
2784.6861,-7.574774857598186
2785.8723,-17.729200069141143
2787.0579,-9.367366960468189
2788.2428,0.1614177274695976
2789.427,3.607940833716384
2790.6106,2.3729891957016207
2791.7935,9.607349614776012
2792.9757,-3.4381911314387708
2794.1573,1.8871536386061507
2795.3382,4.984204953987728
2796.5184,13.103783824911943
2797.698,21.04671121174306
2798.8769,32.11380794380739
2800.0551,30.155894639965254
2801.2327,34.07379159793868
2802.4096,46.618318813892984
2803.5859,53.44029594325707
2804.7615,55.54054217527869
2805.9364,65.81987616480296
2807.1106,81.87911601127462
2808.2842,100.76907915593847
2809.4572,114.99058222124972
2810.6294,128.94444082197288
2811.801,154.58146942296457
2812.972,174.25248119964067
2814.1423,195.30828778160026
2815.3119,229.79969905591838
2816.4808,251.32752295658975
2817.6491,281.792565119611
2818.8167,319.09562866770375
2819.9837,353.3875139056647
2821.15,380.619017947334
2822.3157,421.29093437267784
2823.4807,458.2540529554735
2824.645,497.0091592565884
2825.8086,532.4570342543498
2826.9716,561.4484539569926
2828.134,594.3341890481836
2829.2957,636.0650045971033
2830.4567,640.4416597295926
2831.617,656.8149072108424
2832.7767,678.2354934016271
2833.9358,668.8041580945737
2835.0941,667.0716342999531
2836.2519,654.2886483399957
2837.4089,637.2059198662164
2838.5653,629.0741619872424
2839.7211,623.1440814396435
2840.8761,621.6663786692482
2842.0306,631.1417478904439
2843.1843,629.5208771009557
2844.3374,658.2044479870913
2845.4899,682.3931359399508
2846.6417,723.5876097685912
2847.7928,758.3885314581378
2848.9433,799.5965557578409
2850.0931,834.3123298330656
2851.2422,876.6364928532125
2852.3907,898.8696756445584
2853.5385,935.0625002670149
2854.6857,970.6155797917991
2855.8323,1005.329517939502
2856.9781,1029.50490872456
2858.1233,1077.142336108115
2859.2679,1091.6423737562602
2860.4118,1136.1055845636656
2861.555,1149.6825205085788
2862.6976,1173.3237222081916
2863.8395,1195.8297187828716
2864.9808,1227.6010276197494
2866.1214,1238.088154147659
2867.2614,1256.9415915194256
2868.4007,1266.1618205069924
2869.5393,1273.299309312887
2870.6773,1276.8045134780195
2871.8146,1285.3278758103072
2872.9513,1278.869826349623
2874.0874,1270.1807822825615
2875.2227,1263.0111480070207
2876.3574,1249.0113152190906
2877.4915,1241.2816629847498
2878.6249,1220.822557879866
2879.7577,1205.3843540674895
2880.8898,1189.4173935024448
2882.0212,1192.5220060857143
2883.152,1161.9485098241073
2884.2821,1159.8472107992136
2885.4116,1158.2684034731385
2886.5405,1153.6123707095155
2887.6686,1168.029383789296
2888.7962,1170.5697024573064
2889.923,1182.7835747780812
2891.0493,1189.8712371104575
2892.1748,1184.3329139854388
2893.2997,1204.568818035315
2894.424,1203.1291500490488
2895.5476,1214.5640987699153
2896.6706,1226.3738409098983
2897.7929,1231.1585410353405
2898.9145,1253.8183514488474
2900.0355,1268.0534121414396
2901.1559,1274.313850565956
2902.2756,1298.7497814946992
2903.3946,1308.8613069568355
2904.513,1338.7985159940326
2905.6308,1342.9614845593458
2906.7479,1368.050275217846
2907.8643,1387.81493710499
2908.9801,1391.5055056757315
2910.0953,1402.8220025068767
2911.2098,1402.6644352601763
2912.3236,1384.3827975691638
2913.4368,1386.577069040728
2914.5494,1384.6472154379298
2915.6613,1348.0431886580616
2916.7725,1327.1149267519413
2917.8831,1320.4123542899565
2918.9931,1287.0353825713464
2920.1024,1280.9339096912265
2921.211,1261.85782087436
2922.319,1251.8569885361712
2923.4264,1245.2312724735057
2924.5331,1239.9805199646412
2925.6391,1249.8045658355422
2926.7445,1255.8032325123677
2927.8493,1244.9763299232318
2928.9534,1244.6736554382162
2930.0569,1253.2449939776395
2931.1597,1253.1401180150851
2932.2619,1250.108787491687
2933.3634,1253.150749817177
2934.4643,1268.9657399002008
2935.5645,1254.2534801178977
2936.6641,1245.7636801577485
2937.763,1220.496037164701
2938.8613,1208.7502358260663
2939.959,1183.9259486241945
2941.056,1146.172835953935
2942.1523,1103.340546370877
2943.248,1055.7287169688832
2944.3431,991.0869738084104
2945.4375,936.7149323926293
2946.5313,871.5621983138406
2947.6244,814.4783677971957
2948.7169,745.713028352225
2949.8087,698.5157593436751
2950.8999,635.2361326791621
2951.9904,584.7737132811458
2953.0803,546.3280597197247
2954.1696,512.4987247172606
2955.2582,480.5852555328355
2956.3462,450.18719430054455
2957.4335,419.0040783486312
2958.5202,399.7854405034666
2959.6062,387.5808094013821
2960.6916,380.78970968085366
2961.7764,361.8116621045498
2962.8605,356.24618362724254
2963.9439,351.89278758558817
2965.0267,336.90098375378113
2966.1089,333.52027838708875
2967.1905,332.2001743717683
2968.2714,339.0401712588756
2969.3516,330.2397652774647
2970.4312,345.0484492661885
2971.5102,346.01571276130267
2972.5885,349.4410418485784
2973.6662,365.0739191536303
2974.7432,363.5138238076638
2975.8196,353.8602312911445
2976.8954,356.61261344940067
2977.9705,354.82043858915813
2979.045,345.0831714510173
2980.1188,343.00027322737435
2981.192,333.82120165979427
2982.2645,323.09541105983953
2983.3364,307.6723524008605
2984.4077,293.951473425254
2985.4783,279.7322187986932
2986.5483,270.3640302473369
2987.6177,252.49634670002206
2988.6864,233.0286043819458
2989.7545,204.3602369933417
2990.8219,192.69067590415807
2991.8887,167.06935044074112
2992.9548,145.19568800253103
2994.0204,141.11911431827502
2995.0852,123.48905366476322
2996.1495,103.6549289075956
2997.2131,87.11616167748173
2998.276,74.67217256858271
2999.3383,67.42238130389819
3000.4,56.56620685970563
3001.4611,44.50306753806012
3002.5215,37.6823810753541
3003.5812,32.053564762950145
3004.6404,19.066035515387284
3005.6989,22.319209926669373
3006.7567,11.512504400140074
3007.8139,6.645335115951866
3008.8705,6.367118139132458
3009.9264,-1.1727305317439232
3010.9818,1.4752050382267043
3012.0364,-1.5396475004739614
3013.0905,-6.867860512115385
3014.1439,-3.109990979889062
3015.1966,-13.566527277060231
3016.2487,0.4120732919151351
3017.3002,-3.874511047812348
3018.3511,-7.376602075211963
3019.4013,-6.544482862887776
3020.4509,-3.82836279118942
3021.4998,-8.328385861083007
3022.5481,-0.19465782819088417
3023.5958,-2.9772012475610836
3024.6428,1.0739632703897541
3025.6892,-4.941155142515299
3026.735,4.777452634808128
3027.7802,-1.1201549144159344
3028.8247,3.616080645262514
3029.8685,5.936228939641296
3030.9118,12.590359558357022
3031.9544,16.378542031684788
3032.9963,21.050845763996676
3034.0376,20.207339995879806
3035.0783,27.69809375741238
3036.1184,26.723175876599726
3037.1578,31.28265490446654
3038.1966,32.9265991248061
3039.2348,37.755076508585375
3040.2723,44.41815469750509
3041.3092,42.01590095571589
3042.3455,44.09838210318674
3043.3811,48.3656645397283
3044.4161,37.517814224167296
3045.4505,48.35489663167448
3046.4842,56.226976862242054
3047.5173,41.23411953231425
3048.5498,50.22638869606533
3049.5816,50.853847995328806
3050.6128,51.9665605696747
3051.6434,51.11458905013501
3052.6734,49.74799554807669
3053.7027,51.81684166372054
3054.7314,51.02118849980798
3055.7594,48.76109664091223
3056.7868,47.8866261613951
3057.8136,49.49783664800714
3058.8398,47.94478720863293
3059.8653,55.927536456179155
3060.8902,48.79614252410494
3061.9145,54.80066298659449
3062.9381,50.941154929870834
3063.9612,52.867674892150205
3064.9835,41.18027890223772
3066.0053,45.979022460261945
3067.0264,49.46396065454917
3068.0469,43.28514811363539
3069.0668,51.09263897141739
3070.086,50.23648692894085
3071.1046,43.366745176325196
3072.1226,50.83346640132521
3073.1399,35.98670285802871
3074.1567,44.67650629218866
3075.1727,30.75292808969158
3076.1882,37.76601918965895
3077.203,31.315830223683236
3078.2173,27.152411445696828
3079.2308,28.825812796473826
3080.2438,26.186083945264386
3081.2561,23.333274273060795
3082.2678,20.367432898994764
3083.2789,24.9386087088655
3084.2893,21.246850384798165
3085.2991,18.192206359532065
3086.3083,8.374724853338307
3087.3169,13.194453904566501
3088.3248,9.151441467818586
3089.3321,10.045735365752876
3090.3388,7.1273833295135205
3091.3449,10.996432989787763
3092.3503,7.502931905989215
3093.3551,13.74692752756755
3094.3593,3.228467228943373
3095.3629,4.547598247068095
3096.3658,4.654367786608816
3097.3681,8.79882300675689
3098.3698,5.431011020160213
3099.3708,4.5509788514786464
3100.3713,4.00877347106217
3101.3711,10.904441803751013
3102.3702,5.088030734298229
3103.3688,-0.19041296158724208
3104.3667,0.019157440923265767
3105.364,2.0167905688838346
3106.3607,-3.847465142034366
3107.3568,1.0764387236722541
3108.3522,-1.3114109823164313
3109.347,1.13907258091524
3110.3412,5.527989355278578
3111.3348,0.35543927129435815
3112.3277,6.921522204203768
3113.32,0.2763344784092965
3114.3117,2.6199723490987026
3115.3028,3.002529310878174
3116.2932,6.9240988321541295
3117.2831,4.334774351307772
3118.2723,5.2846492374795275
3119.2608,4.923816816462306
3120.2488,-0.39762963879741164
3121.2361,3.020403095408824
3122.2229,4.728012215109061
3123.209,4.575294886127779
3124.1944,2.062348227009295
3125.1793,13.889269310545046
3126.1635,7.606155188903529
3127.1471,4.613102775360517
3128.1301,5.060208907130345
3129.1125,4.397570375297164
3130.0942,14.175283920342622
3131.0753,6.493446238773117
3132.0558,9.452153885342284
3133.0357,8.401503349869472
3134.015,8.441591027652919
3134.9936,12.022513229975686
3135.9716,8.294366183705336
3136.949,10.407245995484232
3137.9258,19.061248689011393
3138.902,9.506470183913336
3139.8775,16.493006209204225
3140.8524,27.420952398833776
3141.8267,19.740404221821564
3142.8004,15.501456872978224
3143.7735,21.454205349710264
3144.7459,19.84874449440997
3145.7178,20.135168934927606
3146.689,23.46357310062615
3147.6596,28.53405121951687
3148.6295,25.196697284975357
3149.5989,26.8516050050369
3150.5676,25.79886783576987
3151.5357,24.73857896472697
3152.5032,28.620831321472195
3153.4701,20.245717588183624
3154.4364,21.11333016083117
3155.402,26.123761232927393
3156.367,19.32710278685181
3157.3315,18.72344654374632
3158.2952,27.612884031481997
3159.2584,26.545506590695624
3160.221,24.571405285895196
3161.1829,27.79067091613399
3162.1442,30.55339403475108
3163.105,28.259664917179066
3164.065,25.909573533316575
3165.0245,30.853209570465765
3165.9834,32.3906624568333
3166.9416,32.67202131209379
3167.8993,34.89737493201534
3168.8563,32.266811785645956
3169.8127,35.03041999306001
3170.7684,34.438287351663945
3171.7236,39.59050130856008
3172.6782,37.78714896646807
3173.6321,38.378317032202574
3174.5854,36.61409183470681
3175.5381,36.94455931914112
3176.4902,43.41980506452498
3177.4417,44.88991428043241
3178.3926,41.95497174223948
3179.3428,40.615061776423204
3180.2924,41.92026828991101
3181.2415,46.470674783479694
3182.1899,45.266364338703795
3183.1377,41.20741957245096
3184.0848,46.59392264892537
3185.0314,48.97595532025707
3185.9773,48.803598872637
3186.9227,52.27693410249668
3187.8674,50.09604131823167
3188.8115,49.11100030546825
3189.755,50.97189034887239
3190.6979,54.32879024200008
3191.6402,51.33177826868871
3192.5818,51.33093216948771
3193.5229,57.12632917162878
3194.4633,59.51804598903436
3195.4031,53.95615876436375
3196.3423,52.840743045095735
3197.2809,59.67187383914742
3198.2189,53.69962562602868
3199.1563,63.32407228853049
3200.0931,56.845287172447826
3201.0292,57.413342990334996
3201.9648,60.77831188629341
3202.8997,61.4902654302912
3203.834,58.99927458451333
3204.7677,68.10540969624228
3205.7008,64.5587405227678
3206.6333,61.60933614032572
3207.5652,66.0572649795644
3208.4964,72.05259485503893
3209.4271,65.84539292073192
3210.3571,70.98572561010002
3211.2865,67.27365869814608
3212.2154,69.10925725001586
3213.1436,74.39258565811845
3214.0712,69.32370762377047
3214.9982,72.40268610436284
3215.9246,69.72958336404928
3216.8503,76.10446094295685
3217.7755,76.27737968391679
3218.7001,81.0483996687158
3219.624,75.31758021636693
3220.5473,80.88497983539918
3221.4701,79.55065628116581
3222.3922,83.01466650017045
3223.3137,82.12706664341009
3224.2346,84.03791203173517
3225.1549,84.24725716472545
3226.0746,85.65515570158165
3226.9937,84.1116604590319
3227.9121,87.66682339725287
3228.83,83.32069563530469
3229.7473,88.12332741557927
3230.6639,87.5747681472617
3231.5799,86.82506635830364
3232.4954,86.92426970090925
3233.4102,91.42242495903193
3234.3244,91.71957804738243
3235.238,93.26577396644724
3236.151,93.16105679951724
3237.0634,97.05546969722542
3237.9752,93.34905487859437
3238.8864,97.2918535920919
3239.797,99.4339061526954
3240.7069,100.47525190246382
3241.6163,98.46592918911698
3242.5251,98.35597535562222
3243.4332,99.8454267602877
3244.3408,103.5343187778617
3245.2477,108.3726857846384
3246.154,103.16056112156872
3247.0598,101.19797704587671
3247.9649,103.08496478318095
3248.8694,104.07155454712012
3249.7733,106.50777552048343
3250.6766,104.39365584534437
3251.5793,113.97922259869883
3252.4814,107.01450181360609
3253.3829,110.59951838333323
3254.2838,111.98429613100237
3255.1841,110.36885777374049
3256.0838,110.85322490883155
3256.9829,112.037418029871
3257.8814,111.37145652192204
3258.7792,115.80535864967366
3259.6765,110.48914156410036
3260.5731,117.77282125812306
3261.4692,116.55641261977122
3262.3647,112.08992935934616
3263.2595,115.82338402158508
3264.1538,115.55678803032589
3265.0474,117.39015165117264
3265.9404,115.52348399416157
3266.8329,115.85679299542736
3267.7247,118.19008543586992
3268.616,118.82336693782115
3269.5066,107.20664194171218
3270.3966,111.43991369974036
3271.286,106.5731843920367
