RamanShift,CorrectedData
30.1047,6907.176082336729
32.3739,6456.38709887314
34.6426,6010.748046337787
36.9109,5569.158791095042
39.1787,5116.21913940179
41.4461,4674.478841823329
43.7131,4233.887597762762
45.9796,3792.845059878403
48.2456,3351.5008384896855
50.5112,2909.404505987589
52.7764,2471.3556012480853
55.0411,2030.7036340530992
57.3054,1594.1980894709977
59.5692,1163.3884322631118
61.8326,729.0741112487902
64.0955,299.7545636134974
66.3579,-124.77078074804297
68.6199,-540.4024949386529
70.8815,-912.1899056010554
73.1426,-1189.9769407570493
75.4032,-1194.7984156512766
77.6634,-500.52725765874584
79.9231,1916.7755418817096
82.1824,8050.203991898557
84.4412,21517.60208215251
86.6995,44697.31372190225
88.9574,55175.63260523041
91.2148,58047.25197924654
93.4717,58067.86453930381
95.7282,57798.16240028292
97.9842,57422.28709638589
100.2398,56911.62958383313
102.4949,56438.030244622176
104.7495,55911.528891634305
107.0036,55400.11477337046
109.2573,55016.076579216315
111.5105,54446.65244455641
113.7632,53964.47995461449
116.0154,53545.74615014784
118.2672,53175.53753226889
120.5185,52719.94006663267
122.7693,52230.58918713878
125.0197,51590.16980048748
127.2696,51454.66629107308
129.519,50901.96252738824
131.7679,50566.19186337895
134.0163,49834.98714397156
136.2642,49473.13070843055
138.5117,49178.35439767051
140.7587,48670.18955787472
143.0052,48195.96704344296
145.2512,47593.06722207306
147.4967,47330.669979503255
149.7417,46844.65472554103
151.9863,46368.15039668724
154.2304,45861.685460996174
156.4739,45430.537922840624
158.717,45157.18532797652
160.9596,44591.25476785446
163.2017,43995.47288235313
165.4433,43727.21586543871
167.6844,43202.70947112265
169.925,42826.17901614426
172.1651,42259.39938521575
174.4047,41933.04503478753
176.6439,41443.289998716034
178.8825,40923.507891527246
181.1206,40703.07191331427
183.3582,40215.95485493509
185.5954,39736.579100217
187.832,39333.96663082778
190.0681,38749.989031069395
192.3037,38551.7174919042
194.5388,38369.42281679464
196.7734,37398.975423686046
199.0075,37537.64534682949
201.2411,36909.00224648632
203.4742,36806.06540754146
205.7068,36325.253745789814
207.9389,35915.085808965654
210.1704,35487.32978155071
212.4015,35260.20348887591
214.632,34678.37440139884
216.862,34514.509636975126
219.0915,33979.025966676636
221.3205,33599.93981643014
223.549,33410.01727237218
225.777,32982.17408463989
228.0044,32686.52566927023
230.2314,32252.887112478475
232.4578,31878.273173614616
234.6837,31528.548289499806
236.909,31276.8765781725
239.1339,30621.071842385674
241.3582,30429.19757212358
243.582,30030.81695115975
245.8053,29653.99285897577
248.0281,29334.637874745044
250.2503,28994.514281101016
252.472,28528.484067330814
254.6932,28256.258932776407
256.9139,27859.25029149498
259.134,27644.869274981123
261.3536,27147.07673613692
263.5727,26873.4332514158
265.7912,26512.64912580043
268.0092,26188.234395539184
270.2267,25861.048831753928
272.4436,25454.051943684215
274.6601,25189.952981959126
276.8759,24878.71094266721
279.0913,24497.93456999754
281.3061,24199.132359352065
283.5204,23856.112561153415
285.7341,23525.583183832925
287.9473,23247.85199726082
290.16,22903.526536051497
292.3721,22594.464102340877
294.5837,22256.471769229618
296.7947,21918.806383873758
299.0052,21697.774570864698
301.2152,21347.532735605775
303.4246,21067.387066522606
305.6334,20753.5435385655
307.8418,20367.557916010963
310.0495,20044.185755600083
312.2568,19754.38241039845
314.4635,19443.75303302976
316.6696,19199.352578573926
318.8752,18934.135807673352
321.0802,18436.057288976932
323.2847,18282.971401792238
325.4887,17964.43234106627
327.692,17651.944118916377
329.8949,17417.060567815577
332.0972,17070.53534371747
334.2989,16848.17192840507
336.5001,16631.873632956034
338.7007,16141.543599966324
340.9008,16009.184805713172
343.1003,15760.450065058423
345.2992,15561.942032772095
347.4976,15185.96320601974
349.6955,14978.515926347507
351.8927,14621.252383441955
354.0895,14460.824617204511
356.2856,14213.034521324094
358.4812,14045.183844881423
360.6763,13597.274194826896
362.8707,13568.807037659099
365.0646,13192.58370390391
367.258,12963.75538839915
369.4508,12579.623154056819
371.643,12594.987934151424
373.8346,12274.550536161216
376.0257,12068.5616416146
378.2162,11792.171809294487
380.4062,11346.781477298195
382.5956,11341.740965801342
384.7844,11080.800481511811
386.9726,10965.16011772005
389.1603,10718.919856908571
391.3474,10316.92957190831
393.5339,10258.08902836105
395.7199,9817.147888739324
397.9052,9697.805712934773
400.09,9568.061962667576
402.2743,9532.666002679878
404.4579,9109.617102033248
406.641,8967.614434462623
408.8235,8845.857082606788
411.0054,8707.194039428468
413.1868,8559.374209431859
415.3675,8281.346410049235
417.5477,8109.159373119153
419.7273,7950.411747666745
421.9064,7745.702101625604
424.0848,7579.628923425211
426.2627,7554.24062403803
428.4399,7138.785538640252
430.6166,6741.711926865646
432.7928,6818.817976960199
434.9683,6489.5018097527645
437.1432,6296.461477884084
439.3176,6324.244969099898
441.4914,5879.750208181373
443.6645,5757.225056667281
445.8371,5642.917317298903
448.0091,5360.074735245296
450.1806,5154.944999246429
452.3514,5083.325744441587
454.5216,4765.4645544206
456.6913,4817.958961940058
458.8603,4724.556452101948
461.0288,4342.854461828705
463.1967,4446.000380797159
465.3639,4311.691555255675
467.5306,3782.77528699259
469.6967,3931.7488346793834
471.8622,3960.8094191597847
474.0271,3685.254221960051
476.1914,3604.23038499838
478.3551,3503.2850133404936
480.5182,3613.065176009797
482.6807,3193.2679069969163
484.8426,3147.4402041618523
487.0039,3302.7290334319405
489.1647,3207.831329260145
491.3248,2821.3439930721506
493.4843,3061.2638942153644
495.6432,2976.6378738237763
497.8015,2550.1627424188264
499.9592,2644.4852807555435
502.1163,2513.602244087364
504.2728,2406.9103612229155
506.4287,2281.6063358347965
508.5839,2022.1368475265117
510.7386,2081.098553085503
512.8927,2006.4380890778702
515.0461,1861.0020712587066
517.199,1936.1870953188045
519.3512,1700.689738339017
521.5029,1669.956558038335
523.6539,1660.6340951289094
525.8043,1305.118873623338
527.9541,1515.107400927911
530.1033,1400.3461713977595
532.2519,1201.7816642369944
534.3999,1386.860344646302
536.5472,1446.8786658085592
538.694,1067.3830670380776
540.8401,1242.9199731804401
542.9856,1228.2751459243373
545.1305,1293.484334529283
547.2748,998.4332759721074
549.4185,918.1076942947329
551.5615,1091.0433035548122
553.704,997.9666459140572
555.8458,855.3042526238496
557.987,888.982644955875
560.1276,959.7283356288754
562.2675,856.2178284718029
564.4069,910.3776177163745
566.5456,1030.8341890321535
568.6837,740.4640189849306
570.8212,819.5935738321932
572.958,390.0993124268207
575.0942,660.757685425735
577.2299,408.79124639373913
579.3648,372.6725422880627
581.4992,297.77003624133795
583.6329,267.5484683875038
585.766,280.7196041377829
587.8985,437.74253609417065
590.0304,38.42355246981606
592.1616,337.2689371004599
594.2922,160.9845899705324
596.4222,-87.77359230822185
598.5515,5.698678639935679
600.6802,179.90656804886385
602.8083,-166.89481577739934
604.9358,-197.60216180148564
607.0626,119.0895082931529
609.1888,-346.4128531313545
611.3144,-8.603483417071402
613.4393,-135.6231592417098
615.5636,-331.26257133420586
617.6873,-72.31105554821988
619.8103,-345.85463842435274
621.9327,35.12137588419864
624.0544,28.935138312030176
626.1756,-195.8952005574247
628.2961,-174.0014904300915
630.4159,-330.7136240188993
632.5351,-359.10975576193596
634.6537,192.53526373171917
636.7716,-377.44982864052145
638.8889,-207.58629790656414
641.0056,-205.7416383705713
643.1216,-67.58127054961369
645.237,62.9314403981989
647.3518,-237.46687000937527
649.4659,-106.93956688386243
651.5793,-51.997643042770505
653.6922,37.897909765772056
655.8043,-290.5638996863345
657.9159,248.405936993855
660.0268,-528.6006690674112
662.137,-34.84180922792439
664.2466,33.5797058751923
666.3556,-117.18893404673872
668.4639,74.09946038180351
670.5716,-76.85792029172444
672.6786,135.63611373920867
674.785,-85.27124695028033
676.8907,5.1171868585952325
678.9958,112.64860523737298
681.1002,247.3701982064449
683.204,-38.07084534023306
685.3072,-113.32733898232982
687.4097,78.39790408119734
689.5115,62.10207178471319
691.6127,283.5323512786417
693.7132,79.68592909244035
695.8131,181.50998892029747
697.9123,306.35171365953283
700.0109,397.5582843923985
702.1089,93.87687913762784
704.2061,284.0046719384336
706.3028,328.988835899283
708.3987,418.87654128464055
710.4941,357.8649550691189
712.5887,622.2012400386084
714.6827,544.1825554003808
716.7761,754.8560541397092
718.8688,890.1688838000191
720.9608,766.1181843762533
723.0522,854.9010869616395
725.1429,729.9647149882294
727.233,1270.6561833390879
729.3224,613.1225995976056
731.4112,869.7110586406561
733.4993,917.1186492139241
735.5867,911.0924513660357
737.6735,827.5795359744225
739.7596,702.5769648056375
741.845,788.8317913504507
743.9298,930.391062073897
746.014,852.601815552669
748.0974,736.7610810595797
750.1802,1082.5658793414404
752.2624,699.8132237774189
754.3439,859.3501169210431
756.4247,992.6235543277653
758.5048,918.4305229595484
760.5843,1086.9179998521358
762.6631,1276.7829528569637
764.7413,1366.6223389563238
766.8188,1556.583102364726
768.8956,1799.3621736304776
770.9718,1889.5064677361079
773.0473,1848.5628816705212
775.1221,1702.7782935275245
777.1962,1715.2995629153302
779.2697,1539.6235324143781
781.3426,1725.3970274521707
783.4147,1867.3668580599551
785.4862,1899.2298170150898
787.557,1797.0826784212477
789.6271,1904.4221973898675
791.6966,1666.0451110615468
793.7654,1376.2981375326926
795.8335,1418.4779782393234
797.901,1481.681320854521
799.9678,1393.8048388666284
802.0339,1378.6951909472045
804.0993,1441.5490218297564
806.1641,1443.4129624609413
808.2282,1433.2836293718792
810.2916,1458.1076246596494
812.3544,1621.8315360884808
814.4164,1426.4019368415393
816.4778,1570.0153838837214
818.5385,1633.118419915947
820.5986,1693.60757193905
822.658,1861.8293506226764
824.7166,2034.4302497004464
826.7747,1969.2567442876898
828.832,2268.005289155415
830.8886,2483.622319382106
832.9446,2600.8042473662063
834.9999,2208.8474606699965
837.0545,2443.748320847728
839.1085,2550.503167365234
841.1618,2449.758315250874
843.2143,2229.01005402804
845.2662,2238.304648722602
847.3175,2377.0883420703467
849.368,2080.9073544239873
851.4179,2399.1578823653763
853.467,2190.436101667314
855.5155,2384.138164111013
857.5633,2202.8601995733916
859.6105,2154.848314090006
861.6569,2331.7985916677935
863.7027,2084.6070947652333
865.7478,2296.4198625228382
867.7922,2261.182913235105
869.8359,2479.7422422323434
871.8789,2176.3438222330806
873.9212,2457.6336011584353
875.9629,2575.7075051661086
878.0039,2667.9614358374893
880.0441,2649.8412689968827
882.0837,2808.6928537890562
884.1226,2856.1120128603798
886.1609,2947.394540770336
888.1984,2839.5862035173195
890.2352,3226.6827376258225
892.2714,2930.7798512244844
894.3069,3238.273220175128
896.3416,2965.4584910318517
898.3757,2964.331277966048
900.4091,2583.587165494566
902.4418,3235.221708490979
904.4739,2992.780435992994
906.5052,3219.258844686141
908.5358,3063.852401328164
910.5658,2926.7065404842506
912.595,2922.1166660810704
914.6236,2386.1281527782194
916.6515,3206.0363460141525
918.6786,2428.2365673660242
920.7051,2726.77410635064
922.7309,2728.4942282024494
924.756,2912.3421708881724
926.7804,2752.163145089602
928.8041,2240.0523323651287
930.8272,2803.404886751545
932.8495,2823.41593988517
934.8711,2513.5805953682866
936.892,2297.0939285690256
938.9123,2578.4009897197247
940.9318,2429.546806081795
942.9506,2363.226379132655
944.9688,2491.3346860542733
946.9862,1888.4166803963453
949.003,2096.417290795267
951.019,1548.3814270032744
953.0344,1736.253977808432
955.0491,1746.7298165150205
957.063,1992.5537990648518
959.0763,2238.420763932423
961.0888,1883.2755296666655
963.1007,2345.562892432383
965.1119,2375.9776295615884
967.1223,2113.4644949307185
969.1321,2567.018218656427
971.1412,2182.1335097207557
973.1495,2008.1050514355738
975.1572,2208.6775052914236
977.1641,2194.1955126978137
979.1704,2198.2036929774913
981.1759,2262.6966435112845
983.1808,2065.7689396979695
985.1849,2170.7151343094156
987.1884,2352.1297594598072
989.1911,2678.4073255562107
991.1932,2152.6423194844538
993.1945,2357.829201346307
995.1951,2427.162409717166
997.1951,2149.886359594122
999.1943,2094.795441702692
1001.1928,2035.1840252695401
1003.1906,2200.04645857343
1005.1877,1990.2770695412764
1007.1841,1886.0201640995801
1009.1798,1945.020028272047
1011.1748,1924.5209292222062
1013.1691,1763.1671146634544
1015.1627,1137.3528130639825
1017.1556,1144.7222352603567
1019.1477,1257.7195807155877
1021.1392,876.1890374455179
1023.1299,540.9247808887885
1025.12,758.3209777221782
1027.1093,624.7217892132248
1029.0979,725.9713690462959
1031.0859,773.3638646585387
1033.0731,503.7434162273639
1035.0596,637.6041561966049
1037.0454,512.0902119726379
1039.0304,324.09570458584494
1041.0148,42.01474994573073
1042.9985,1.4414607208382222
1044.9814,158.06994915961695
1046.9636,-110.80567250387685
1048.9452,-131.19129361625528
1050.926,-27.741696575460082
1052.9061,22.489646821566566
1054.8855,56.349265055323485
1056.8642,24.183686381460575
1058.8421,74.58943849214847
1060.8194,100.9130488377341
1062.7959,81.75104412269866
1064.7717,181.04995004239026
1066.7469,188.65629147469008
1068.7213,295.866591486978
1070.695,332.2273712601018
1072.6679,217.23514901624003
1074.6402,335.33643965532974
1076.6117,356.3277559049602
1078.5826,312.80560713942396
1080.5527,237.5664991697122
1082.5221,130.40693467879464
1084.4908,186.1734139739783
1086.4587,171.21243605852942
1088.426,372.0704980739756
1090.3925,314.9440954497404
1092.3584,358.3797198945904
1094.3235,190.2238599678749
1096.2879,215.27300064515293
1098.2515,316.87362499979645
1100.2145,479.32221395244414
1102.1767,545.4152452549824
1104.1382,747.3491918661166
1106.099,936.770521290382
1108.0591,1063.6256935588608
1110.0185,1144.3111593349386
1111.9771,1319.9733586457587
1113.9351,1124.258720075406
1115.8923,987.2136590082227
1117.8488,782.9845795860383
1119.8045,544.3178760785377
1121.7596,542.0099349255761
1123.7139,423.0571371238693
1125.6675,382.2058582500613
1127.6204,532.4024696502165
1129.5726,429.0933388483609
1131.524,430.7748280445594
1133.4748,457.49329514792043
1135.4248,294.4450937598667
1137.3741,230.52657290687057
1139.3226,149.78407867100032
1141.2705,185.56395482902735
1143.2176,-16.887456340089557
1145.164,51.52618558698305
1147.1097,25.651389739243314
1149.0546,4.784664730410441
1150.9989,12.272518917685375
1152.9424,-14.738587140520394
1154.8852,-111.60219300852623
1156.8272,-129.7716910121526
1158.7686,-28.849358571329503
1160.7092,-95.9861766868271
1162.6491,-147.63283815434988
1164.5883,22.810923132303287
1166.5267,48.196848131367005
1168.4644,272.52667757293966
1170.4014,437.5521517051602
1172.3377,724.8250080508951
1174.2732,955.4969797575395
1176.2081,1307.9197927242203
1178.1421,1648.3451632950819
1180.0755,2026.8247947350173
1182.0082,2148.260373825491
1183.9401,2299.2035670797704
1185.8713,2177.0560195285143
1187.8017,1984.4193532103818
1189.7315,1811.3951683935084
1191.6605,1419.885045501862
1193.5888,1140.7905468454846
1195.5163,1041.863220535568
1197.4432,908.704603275437
1199.3693,906.4162213497839
1201.2947,818.349591956292
1203.2193,776.1062232285112
1205.1432,801.537615116511
1207.0664,803.095259809299
1208.9889,745.4306414805469
1210.9106,745.5952362729877
1212.8316,726.5405128750717
1214.7519,764.16793251934
1216.6715,706.02894917292
1218.5903,827.7750091612979
1220.5084,833.907551749704
1222.4257,1013.5780079256219
1224.3424,906.2378003375197
1226.2583,989.9883414980577
1228.1735,1115.6810348575818
1230.0879,1171.5672739665242
1232.0016,1320.2984412185397
1233.9146,1378.5759072916335
1235.8269,1350.8010296608336
1237.7384,1332.5251520154052
1239.6492,1157.999604536657
1241.5592,1193.7757040806537
1243.4686,1148.3047559234838
1245.3772,1215.138053403476
1247.285,1325.6768783759471
1249.1922,1407.1725005448607
1251.0986,1539.6761763574395
1253.0042,1508.5391481891565
1254.9092,1601.8126430187767
1256.8134,1645.5978727396723
1258.7169,1870.4960332271075
1260.6196,1986.608303900386
1262.5216,2242.6858454738685
1264.4229,2411.6297987958533
1266.3234,2593.8412822877654
1268.2232,2677.121390254746
1270.1223,2721.421191063564
1272.0207,2790.7917263097625
1273.9183,2784.1840103747018
1275.8151,2658.249029731858
1277.7113,2706.637743012863
1279.6067,2716.101082266876
1281.5014,2821.589952476723
1283.3953,3056.155231464225
1285.2885,3395.447768835329
1287.181,3711.1683836344564
1289.0727,4081.467860951583
1290.9637,4308.296948765019
1292.854,4554.056354238441
1294.7435,4540.646741452554
1296.6323,4564.518728947522
1298.5204,4575.922889857047
1300.4077,4529.059751669636
1302.2943,4449.629796114612
1304.1802,4361.083459630689
1306.0653,3993.1711341603223
1307.9497,3684.2931680351176
1309.8333,3497.8498696549905
1311.7162,3355.641510576941
1313.5984,3336.3183273794966
1315.4798,3195.480523084774
1317.3605,3141.87826735172
1319.2405,3238.2116978845006
1321.1197,3124.130920968484
1322.9982,2880.8360105069587
1324.876,2839.1770091619037
1326.753,2580.803930786944
1328.6293,2556.3667608439537
1330.5048,2566.61545898678
1332.3796,2450.8499593055894
1334.2537,2403.0701702244332
1336.127,2365.7259756588574
1337.9996,2348.567235493745
1339.8714,2399.693785956715
1341.7426,2339.2554397897693
1343.6129,2427.9519857379564
1345.4826,2463.433189153784
1347.3515,2485.598791110242
1349.2196,2503.9485080460254
1351.087,2538.882031543835
1352.9537,2655.849028146924
1354.8197,2768.7991390097304
1356.6849,2941.331978728227
1358.5493,3065.547134210381
1360.4131,3200.44416295088
1362.276,3323.02259178894
1364.1383,3234.9819155593577
1365.9998,3150.271595866736
1367.8606,2879.3910619658673
1369.7206,2595.889711608852
1371.5799,2335.966913753884
1373.4384,2126.17201140026
1375.2962,2016.5043241876228
1377.1533,1725.2631504939309
1379.0096,1386.6477685321006
1380.8652,1183.8074392624585
1382.7201,921.141409778862
1384.5742,693.2989153370945
1386.4275,503.4791819815473
1388.2802,399.0814288236397
1390.132,284.30486994000967
1391.9832,294.0987154164868
1393.8336,180.562172495891
1395.6832,174.5944454800483
1397.5322,117.4447368652036
1399.3803,22.162247401676723
1401.2278,-51.453823334664776
1403.0745,-21.904275989581947
1404.9204,-73.48939718514885
1406.7656,-5.859254719714954
1408.6101,-18.21318223257549
1410.4538,-12.40045482909045
1412.2968,33.37983433506815
1414.139,22.27871598474303
1415.9805,134.6972205110069
1417.8213,164.9863780821397
1419.6613,253.59721751946927
1421.5006,433.78076599446285
1423.3391,626.338048142643
1425.1769,828.3700842617509
1427.0139,1199.7778883861174
1428.8502,1693.7124662664319
1430.6858,2098.824811655577
1432.5206,2378.96590136932
1434.3547,2658.7866912351856
1436.188,2706.438113291053
1438.0206,2695.721072986911
1439.8524,2508.8864487084065
1441.6835,2459.135091883978
1443.5139,2384.5678288532217
1445.3435,2368.7854613643976
1447.1724,2359.638767320088
1449.0005,2395.5285009350628
1450.8279,2283.7053928276982
1452.6545,2319.0201496611044
1454.4804,2440.4234552613198
1456.3056,2399.7659702641977
1458.13,2420.498330901337
1459.9536,2296.7711494066643
1461.7766,2131.6350138091366
1463.5987,1855.2404891700244
1465.4202,1573.3381192342495
1467.2409,1288.3284291943346
1469.0608,1165.511928509466
1470.88,928.6391137555256
1472.6984,798.4104698532974
1474.5161,647.0764724371911
1476.3331,555.9875891575102
1478.1493,404.2442811938199
1479.9648,467.1470041658322
1481.7795,376.9462096508032
1483.5935,380.14234455457336
1485.4067,355.73585201350943
1487.2192,350.27717136257706
1489.031,363.516738379396
1490.842,334.7049853388344
1492.6522,358.7923408805873
1494.4618,329.8792302973234
1496.2705,342.4660752938071
1498.0785,330.8532942760139
1499.8858,321.8413022252862
1501.6924,297.7805108144348
1503.4981,355.2713284978636
1505.3032,344.91416075218876
1507.1075,361.1594095013097
1508.911,373.45747322001625
1510.7138,318.55874677149404
1512.5159,283.91362128435867
1514.3172,292.7724847016543
1516.1178,225.98572212728686
1517.9176,257.50371573746816
1519.7166,237.0268454485631
1521.515,207.45548860191775
1523.3126,204.29002016862069
1525.1094,181.48081304520747
1526.9055,168.67823808534376
1528.7008,143.28266432788587
1530.4954,51.64445912490555
1532.2893,130.11398839567119
1534.0824,78.89161754300949
1535.8747,97.3777106686357
1537.6663,108.47263108533662
1539.4572,98.37674113214598
1541.2473,118.44040206337013
1543.0367,142.01397414957682
1544.8253,111.99781647693453
1546.6132,169.34228671147503
1548.4003,149.8477413992805
1550.1867,185.41453539302165
1551.9723,263.4930220469105
1553.7572,352.5835528610114
1555.5414,434.48647670048376
1557.3247,530.0521389046735
1559.1074,644.6808804680622
1560.8893,746.6730370846417
1562.6705,857.3289380015995
1564.4509,1001.8489049994059
1566.2305,1089.083251285254
1568.0094,1187.2822800478752
1569.7876,1228.546283585165
1571.565,1249.2755423222043
1573.3417,1284.0703243986172
1575.1176,1260.4808854612638
1576.8928,1263.7074683163264
1578.6672,1224.8003031651824
1580.4409,1230.7596075721412
1582.2138,1215.4355868535204
1583.986,1238.5784340180471
1585.7575,1309.338329920094
1587.5282,1342.4154430282579
1589.2981,1423.4599287177662
1591.0673,1430.0719289396911
1592.8358,1505.5015714105175
1594.6035,1605.248969546028
1596.3704,1670.6642217069893
1598.1366,1713.7474102016895
1599.9021,1812.4986006317777
1601.6668,1803.8678414614405
1603.4308,1946.7551630298913
1605.194,2084.7605776376804
1606.9564,2251.8340781178085
1608.7182,2476.325636455669
1610.4791,2674.9852021183215
1612.2394,2886.312699809583
1613.9988,3092.5080274834036
1615.7576,3363.6210542306508
1617.5156,3526.6016182170933
1619.2728,3680.549523972317
1621.0293,3723.164540759899
1622.785,3628.5964010379284
1624.54,3404.8948000328564
1626.2942,3189.3093966851848
1628.0477,2878.8398158864547
1629.8005,2644.4856506351352
1631.5525,2439.0464651412985
1633.3037,2244.1717971701837
1635.0542,2122.8611600965633
1636.804,1989.7640448535167
1638.553,1947.579921145505
1640.3013,1845.308238779373
1642.0488,1850.1484280861514
1643.7955,1896.6999009438005
1645.5416,1959.0120507288048
1647.2868,2068.234251850663
1649.0313,2143.3658591287676
1650.7751,2296.956206700197
1652.5181,2454.7546072683654
1654.2604,2582.1103505671344
1656.0019,2782.3227017828467
1657.7427,2956.2409002807435
1659.4828,3255.6641576028524
1661.222,3418.091655728811
1662.9606,3397.372544081598
1664.6984,3290.855937903296
1666.4354,2994.9909184622666
1668.1717,2501.8765341183207
1669.9072,2065.0618032813727
1671.642,1734.8457193425602
1673.3761,1432.6272550424364
1675.1094,1177.2053657731049
1676.8419,995.478992600405
1678.5737,816.1470648181457
1680.3048,738.6585017653415
1682.0351,608.4122146195587
1683.7646,530.6071071717961
1685.4934,492.8420771289457
1687.2215,425.96601689182353
1688.9488,373.62781393284604
1690.6754,315.1763514647864
1692.4012,342.71050896412635
1694.1263,280.37916275561656
1695.8506,298.08118573690444
1697.5742,284.6154480018595
1699.297,251.43081666354556
1701.0191,178.82615598887423
1702.7404,159.4003277304655
1704.461,85.75219185267997
1706.1808,75.13060672590291
1707.8999,70.18442986301307
1709.6182,51.262518025578174
1711.3358,107.66372727333328
1713.0527,73.83691315339638
1714.7688,43.830930136246025
1716.4841,21.24463195399767
1718.1987,31.926871900464903
1719.9126,35.176503057018635
1721.6257,9.292378185751659
1723.338,38.673349697004596
1725.0496,-0.3817300917926332
1726.7605,23.025990750058554
1728.4706,35.39536415708608
1730.18,-29.024758166442552
1731.8886,-58.885524870194786
1733.5964,-4.287794646519615
1735.3036,-7.631837921380793
1737.0099,37.13211771432361
1738.7156,13.653920911745445
1740.4204,-43.816580049277036
1742.1246,1.7704629745549028
1743.8279,-4.134664145822171
1745.5306,16.368324442822995
1747.2325,-8.320244100992568
1748.9336,-19.150042782421224
1750.634,-32.42066148739468
1752.3336,-3.381498792925413
1754.0325,27.318370606364624
1755.7307,6.3799057970300055
1757.4281,46.70406559245566
1759.1247,59.49180874223748
1760.8206,70.94409352893308
1762.5158,114.9618776401876
1764.2102,45.24611805421773
1765.9039,49.297770599630894
1767.5968,81.46779065258124
1769.289,91.00713309625098
1770.9804,121.51675199915371
1772.6711,124.4476005197339
1774.361,140.1006306012805
1776.0502,109.92679294261325
1777.7386,122.37703684155167
1779.4263,130.35231049665163
1781.1132,187.8535608827042
1782.7994,182.28173367098316
1784.4849,182.48777265423269
1786.1696,165.62261980238327
1787.8535,164.73721526049303
1789.5367,167.88249751739932
1791.2192,205.60940341457172
1792.9009,193.56886811466939
1794.5818,190.91182472425317
1796.2621,181.28920441420632
1797.9415,188.8019364462998
1799.6202,194.1009482694135
1801.2982,212.48716544440686
1802.9755,209.36151159113615
1804.6519,239.6249082045906
1806.3277,210.17827468615178
1808.0027,189.02252804096133
1809.6769,233.158583172386
1811.3504,227.6873530935718
1813.0231,259.259748486078
1814.6951,275.72667775459377
1816.3664,330.2390467112127
1818.0369,320.7977584107666
1819.7067,307.75371260570137
1821.3757,282.80780584049353
1823.044,346.16093158209696
1824.7115,336.2639804693863
1826.3783,298.1678396796324
1828.0443,311.5233930274826
1829.7096,337.53152134591255
1831.3741,350.5431023526762
1833.0379,366.15901039022174
1834.701,361.6801162955635
1836.3633,371.75728724413966
1838.0248,358.54138679459356
1839.6856,369.533274788002
1841.3457,421.8838074800442
1843.005,377.79383743106155
1844.6636,421.2642129825672
1846.3214,420.0957786981471
1847.9785,469.889374928749
1849.6349,448.0458378243802
1851.2904,487.165998836148
1852.9453,451.40068493471335
1854.5994,455.55071821909405
1856.2528,506.11691627429354
1857.9054,533.3500921298164
1859.5572,528.1010537540078
1861.2083,545.270603781717
1862.8587,587.4595395667911
1864.5084,584.018653010371
1866.1572,572.7987301390185
1867.8054,537.3505511391177
1869.4528,530.1248904690656
1871.0994,540.622517213762
1872.7453,543.1941951568642
1874.3905,576.4906826758033
1876.0349,582.8627327160775
1877.6786,570.0110924582805
1879.3215,586.1865032543828
1880.9637,589.6397007562537
1882.6051,626.3214147539074
1884.2458,634.2323691409583
1885.8858,621.0232815478157
1887.525,608.5948632625732
1889.1634,573.5478193631025
1890.8011,572.7328488413168
1892.4381,627.8006449536624
1894.0743,662.1518952292645
1895.7098,633.7872809192395
1897.3446,637.2574766531943
1898.9786,655.8131507228718
1900.6118,650.6049650474433
1902.2443,614.3335749879407
1903.8761,632.5496293993583
1905.5071,614.1037709933662
1907.1374,582.1966361561481
1908.7669,605.3788551328489
1910.3957,618.7010523466561
1912.0237,589.0638461669696
1913.651,581.6678487761856
1915.2776,605.8636664660589
1916.9034,555.1018997116807
1918.5285,577.48314292951
1920.1528,531.0579849849964
1921.7764,553.9770089687554
1923.3992,555.0407926608314
1925.0213,485.64990830150055
1926.6427,501.75492258063605
1928.2633,460.00639733162643
1929.8832,485.2548893703042
1931.5023,485.40095091244984
1933.1207,491.4951293212962
1934.7383,494.13796710607494
1936.3552,457.0800018610771
1937.9714,468.8217662392217
1939.5868,451.3637883226329
1941.2015,471.35659150522224
1942.8154,459.350694667266
1944.4286,426.8466119754794
1946.041,403.14485300307024
1947.6528,373.0959230547851
1949.2637,405.7503234039177
1950.8739,377.30855159282146
1952.4834,413.4211011063453
1954.0921,426.58846165626164
1955.7001,375.71111882013975
1957.3074,387.13955390966476
1958.9139,366.62424447942067
1960.5197,364.96566421261014
1962.1247,345.71428312619173
1963.729,359.3705675874753
1965.3325,319.4349805066249
1966.9353,319.30798120011787
1968.5374,322.09002579007756
1970.1387,343.23156720556835
1971.7393,318.4330551547555
1973.3392,323.19493591349055
1974.9383,295.8176525733088
1976.5366,252.6516449937917
1978.1342,275.74735007635536
1979.7311,279.25520219590544
1981.3273,303.02563296987864
1982.9227,287.15907122317003
1984.5173,287.6059427504224
1986.1112,271.6666704746913
1987.7044,255.89167444297527
1989.2968,265.78137198561853
1990.8885,271.7361778740469
1992.4795,270.7565042218739
1994.0697,257.09276042535566
1995.6592,247.79535317319278
1997.2479,241.4146865831608
1998.8359,264.7011622950904
2000.4232,251.40517953466042
2002.0097,238.07713488055015
2003.5955,230.26742239739542
2005.1805,246.17643376906744
2006.7648,236.80455837675436
2008.3484,236.4021831398968
2009.9312,273.2696926098797
2011.5133,267.6574689740719
2013.0946,246.21589168714854
2014.6752,269.7453375272107
2016.2551,265.3961808102049
2017.8342,238.91879315462938
2019.4126,241.76354352502494
2020.9902,222.3807984967534
2022.5672,241.620922227532
2024.1433,240.28427665128402
2025.7188,232.5712212857179
2027.2935,229.9321132457062
2028.8674,202.76730732040778
2030.4406,229.6771559996705
2032.0131,189.76200974567837
2033.5849,192.4722167238524
2035.1559,214.9081232019962
2036.7261,222.47007352320907
2038.2957,198.00840988150776
2039.8645,225.82347224621117
2041.4325,237.21559860656635
2042.9998,213.78512469359157
2044.5664,231.88238386614648
2046.1323,208.6077073452434
2047.6974,202.91142403306912
2049.2617,215.79386074573813
2050.8254,228.60534227026437
2052.3883,243.14619123572447
2053.9504,228.76672798514664
2055.5118,225.6172704301007
2057.0725,223.2981341944942
2058.6325,228.90963264606398
2060.1917,225.10207691955839
2061.7502,216.22577586063926
2063.3079,210.23103606395125
2064.8649,214.46816196188593
2066.4212,224.98745588452584
2067.9767,224.0892180172741
2069.5315,212.52374629566475
2071.0856,204.64133641435728
2072.6389,191.1422819427753
2074.1915,168.32687440392328
2075.7433,131.29540340939639
2077.2945,148.44815688751987
2078.8448,129.2854214536692
2080.3945,154.75748223873597
2081.9434,175.16462308076916
2083.4916,164.9071262702455
2085.039,156.93527234600333
2086.5857,184.24934019780994
2088.1317,157.0496071460866
2089.677,162.53634866876746
2091.2215,166.00983867329433
2092.7652,164.62034944175684
2094.3083,191.66815159614453
2095.8506,187.40351411224765
2097.3921,197.52670404918172
2098.933,182.73798659202566
2100.4731,197.78762495059982
2102.0124,218.37588050734485
2103.5511,197.7530126668389
2105.089,182.6192786499023
2106.6261,193.17493369983185
2108.1626,206.720231233734
2109.6983,213.00542273697465
2111.2332,209.8307576277184
2112.7675,195.44648319408589
2114.301,175.8028446258959
2115.8337,213.55008515850022
2117.3657,218.33844626922746
2118.897,219.81816729990624
2120.4276,215.08948540898655
2121.9575,202.05263555673628
2123.4866,215.50785055253436
2125.0149,218.55536118523833
2126.5426,198.54539608863251
2128.0695,203.17818171095223
2129.5956,219.30394251498365
2131.1211,210.37290093173488
2132.6458,208.83527719917493
2134.1698,233.94128945154443
2135.693,195.7411537347316
2137.2155,215.88508375520996
2138.7373,222.7732912620504
2140.2584,227.75598584547242
2141.7787,220.18337486796554
2143.2983,209.5056634144621
2144.8171,215.0230543680691
2146.3353,209.7357485168368
2147.8527,194.0939444985952
2149.3693,192.7478388538202
2150.8853,194.2976261820495
2152.4005,169.4434991553544
2153.9149,209.23564850282582
2155.4287,178.87426325912384
2156.9417,212.8095303665541
2158.454,199.74163497867812
2159.9655,194.02076012097132
2161.4764,200.4470868214912
2162.9865,187.5707941681003
2164.4958,208.5420592441942
2166.0045,176.1610572574673
2167.5124,208.02796133019365
2169.0195,204.592942823042
2170.526,192.80617101639928
2172.0317,218.167813144727
2173.5367,215.1780345144216
2175.0409,207.68699825020758
2176.5445,211.39486532502906
2178.0473,208.95179463496606
2179.5494,210.6079429621568
2181.0507,205.16346499921838
2182.5513,209.31851333269424
2184.0512,204.77323849750246
2185.5504,196.02778893538107
2187.0488,180.5323110403342
2188.5465,194.83694924609154
2190.0435,208.14184618106265
2191.5397,189.89714252528756
2193.0353,187.50297687739294
2194.5301,171.3594859370387
2196.0241,142.5668045288503
2197.5175,147.9250657638695
2199.0101,148.58440132746546
2200.502,140.44494142576423
2201.9931,130.356814779042
2203.4835,121.37014870313305
2204.9733,132.38506921030603
2206.4622,144.80170109913342
2207.9505,126.5201678443309
2209.438,118.69059147260396
2210.9248,116.96309274546002
2212.4109,106.93779123750755
2213.8962,131.4148053537274
2215.3809,121.29425242972957
2216.8648,115.32624848697742
2218.3479,122.66090833399812
2219.8304,101.19834562605774
2221.3121,101.83867279181777
2222.7931,99.0320012479524
2224.2733,78.37844139275421
2225.7529,93.82810263419924
2227.2317,91.33109359648279
2228.7098,111.98752196552505
2230.1872,95.2974945139431
2231.6638,101.46111689448207
2233.1397,93.3284938069146
2234.6149,102.44972893640534
2236.0894,84.42492503483481
2237.5632,109.90418382958887
2239.0362,87.23760620380745
2240.5085,84.67529194159033
2241.9801,86.56733995466311
2243.4509,80.21384830800253
2244.921,80.16491420091188
2246.3904,78.120634030558
2247.8591,66.8811033924676
2249.3271,56.94641710096403
2250.7943,83.31666930156553
2252.2608,54.441953570328224
2253.7266,81.32236265014035
2255.1917,47.707988739476605
2256.656,53.54892322359319
2258.1197,48.64525701067123
2259.5826,54.897080473408096
2261.0447,63.10448349805574
2262.5062,57.81755542189603
2263.9669,69.3363849511652
2265.4269,97.31106021392861
2266.8862,67.14166864488743
2268.3448,90.12829670563406
2269.8026,103.17103018634225
2271.2598,83.71995397590854
2272.7162,82.67515193151849
2274.1719,98.43670707316232
2275.6268,88.05470159408378
2277.0811,89.32921670316045
2278.5346,81.26033272872701
2279.9874,90.59812910582605
2281.4395,119.39268445689959
2282.8908,82.89407649841178
2284.3414,102.2523817529036
2285.7914,84.56767591397966
2287.2406,75.64003365272401
2288.689,90.51952879454711
2290.1368,88.8562344084603
2291.5838,80.65022265828793
2293.0302,94.6015648192888
2294.4758,82.76033136023125
2295.9206,92.07659180386509
2297.3648,85.45041484533976
2298.8082,119.53186825904231
2300.251,87.67101896485656
2301.693,75.66793268734727
2303.1343,99.02267427437346
2304.5748,94.4353078171207
2306.0147,88.55589641655115
2307.4538,111.48450222927295
2308.8922,89.9211865263369
2310.3299,88.6160094639472
2311.7669,79.36903029910081
2313.2031,100.68030740264112
2314.6387,93.59989835172019
2316.0735,83.32785971668545
2317.5076,104.26424713189135
2318.941,87.55911539841418
2320.3737,106.86251827469096
2321.8056,106.07450864357088
2323.2369,101.34513831928052
2324.6674,83.07445805530551
2326.0972,109.66251759167972
2327.5263,88.80936583769653
2328.9547,87.66505060602412
2330.3823,70.17961882124018
2331.8092,85.65311653127992
2333.2355,98.38558908229425
2334.661,94.87708096389815
2336.0858,97.02763568184764
2337.5098,90.48729579313476
2338.9332,95.75610288448206
2340.3558,90.78409763773743
2341.7778,96.52131977719091
2343.199,89.06780811930366
2344.6195,87.87360051532323
2346.0393,106.38873392582082
2347.4583,108.21324443263711
2348.8767,97.24716705372884
2350.2943,120.79053572491648
2351.7113,126.59338340955946
2353.1275,119.25574186311678
2354.543,123.22764157511028
2355.9578,116.1091118425129
2357.3718,104.10018073001538
2358.7852,103.20087514122042
2360.1978,114.16122093873582
2361.6098,110.13124295316629
2363.021,99.21096487351042
2364.4315,117.1004092874573
2365.8413,91.54959779059573
2367.2504,101.20855080751062
2368.6587,97.47728784729406
2370.0664,93.85582740696009
2371.4733,93.59418700876085
2372.8795,91.19238323639456
2374.285,80.5004317376206
2375.6899,75.86834724827531
2377.0939,93.49614369919163
2378.4973,77.08383426252749
2379.9,65.9314311754797
2381.3019,88.9389459044096
2382.7032,93.1063892563734
2384.1037,87.98377114903997
2385.5035,85.87110056902111
2386.9027,88.16838562309931
2388.3011,94.77563355935308
2389.6987,70.04285074417658
2391.0957,86.27004259621208
2392.492,70.95721383366163
2393.8876,51.20436831203551
2395.2824,74.36150917726627
2396.6765,63.72863906323437
2398.07,52.30575986020631
2399.4627,56.94287282116147
2400.8547,72.03997867602993
2402.246,80.79707758530913
2403.6366,62.21416898910411
2405.0265,39.04125151955304
2406.4156,40.42832318665569
2407.8041,57.225381609997385
2409.1918,40.53242400488307
2410.5789,22.349447014363705
2411.9652,54.02644687617067
2413.3508,58.96341960454083
2414.7358,36.56036067345349
2416.12,26.217264967255232
2417.5035,35.9341270046898
2418.8863,30.96094104233498
2420.2684,39.147700977426666
2421.6497,33.29440039759311
2423.0304,21.101032498989298
2424.4104,13.167590144829774
2425.7896,24.39406598731921
2427.1682,32.680452546987
2428.546,33.57674210042114
2429.9232,29.73292659740855
2431.2996,40.29899765196842
2432.6753,16.224946580791766
2434.0503,31.61076429758168
2435.4246,19.25644155379223
2436.7982,15.911968784771489
2438.1711,27.577336233304777
2439.5433,21.602533983059857
2440.9148,10.337551841932964
2442.2856,12.182379401800063
2443.6557,12.187006151163587
2445.025,-9.298578543296117
2446.3937,13.325614563233557
2447.7617,15.859667608361633
2449.1289,18.1536625964427
2450.4955,29.65768137323539
2451.8613,33.17180560296629
2453.2265,31.196116653286936
2454.5909,34.13069556013306
2455.9546,41.17562304748162
2457.3177,32.030979498002125
2458.68,30.996844882609366
2460.0416,31.773298851911477
2461.4025,51.11042074654824
2462.7627,44.25828958942975
2464.1222,49.316983892361804
2465.4811,30.736581724566804
2466.8392,46.96716066209956
2468.1966,45.65879797365096
2469.5533,58.661570458241385
2470.9093,58.225554458307215
2472.2645,56.75082572966994
2473.6191,60.98745944589791
2474.973,65.63553021305233
2476.3262,62.195112027324285
2477.6787,46.96627822855089
2479.0305,47.24910153462133
2480.3816,39.69365419376072
2481.7319,29.700007981703948
2483.0816,58.66823427724921
2484.4306,60.948404162197676
2485.7789,42.390588131668665
2487.1264,38.79485607129982
2488.4733,41.3612774428243
2489.8195,42.03992132002713
2491.165,52.180856363083876
2492.5097,37.134150811769814
2493.8538,34.89987238405274
2495.1972,11.078088426562317
2496.5398,14.318865936929797
2497.8818,22.972271802009345
2499.2231,28.638372765465647
2500.5637,13.467235341241576
2501.9035,20.65892575689668
2503.2427,19.36351010532144
2504.5812,28.0810542728168
2505.919,21.961623952052378
2507.256,36.65528455488766
2508.5924,8.362101273566168
2509.9281,27.032138933779606
2511.2631,41.96546227759745
2512.5974,32.662135776771265
2513.9309,44.32222348339883
2515.2638,18.69578912295765
2516.596,26.78289597770572
2517.9275,24.033607142945584
2519.2583,35.947985446151506
2520.5884,21.176093474463414
2521.9178,23.417993455543183
2523.2465,27.773747405294216
2524.5745,11.043417105440767
2525.9018,16.177064059972963
2527.2284,16.3247496624449
2528.5543,16.086535144641857
2529.8796,9.412481575101538
2531.2041,43.45264986149823
2532.5279,45.607100817382616
2533.851,36.12589482178237
2535.1735,38.65909179765549
2536.4952,40.956751306702245
2537.8163,52.968932524033335
2539.1366,47.545694215193635
2540.4562,34.43709461604158
2541.7752,47.39319148697814
2543.0935,67.81404224403695
2544.411,55.84970382932033
2545.7279,71.55023250679051
2547.0441,63.465683981914935
2548.3596,76.34611324465732
2549.6744,70.94157465032686
2550.9885,71.05212179077216
2552.3019,88.57780754842634
2553.6146,65.86868409520412
2554.9266,72.87480271724417
2556.2379,64.39621404199988
2557.5485,91.58296796817831
2558.8585,91.2351137505243
2560.1677,85.15269972795477
2561.4762,82.33577332703726
2562.7841,93.08438112281465
2564.0913,92.59856886697344
2565.3977,78.47838138035604
2566.7035,97.47386255782294
2568.0086,91.98505550945356
2569.313,112.31200237058647
2570.6167,99.00474435671322
2571.9197,108.56332156020471
2573.222,108.63777308338695
2574.5236,105.0781369429551
2575.8246,108.78445006922766
2577.1248,112.10674834174324
2578.4244,114.39506655219657
2579.7232,128.74943837121737
2581.0214,108.96989632548366
2582.3189,137.05647165418122
2583.6157,135.45919450679685
2584.9118,128.7280936622551
2586.2072,133.56319654489107
2587.5019,145.0145292917573
2588.7959,140.33211670427636
2590.0893,143.91598213372436
2591.3819,144.06614752805672
2592.6739,149.98263339607183
2593.9652,145.71545880590702
2595.2557,146.01464132587444
2596.5456,144.58019706713367
2597.8348,146.5121406807002
2599.1234,141.46048537178785
2600.4112,140.77524288049108
2601.6983,136.40642353230032
2602.9848,137.9540362449552
2604.2705,137.61808857213055
2605.5556,150.2485866879647
2606.84,146.99553539041472
2608.1237,153.708937974955
2609.4067,144.3887962671024
2610.689,138.43511055528916
2611.9707,132.1978796840599
2613.2516,135.17710111360884
2614.5319,133.12277098215145
2615.8115,127.13488407613204
2617.0903,129.31343385077025
2618.3685,130.15841248993684
2619.6461,135.36981088437005
2620.9229,133.09761862322466
2622.199,126.7418239419585
2623.4745,142.25241374505367
2624.7493,128.67937366957676
2626.0234,116.32268793007006
2627.2968,119.58233945428447
2628.5695,109.4083100067437
2629.8415,111.00058015615014
2631.1128,112.4591293771241
2632.3835,116.08393603428021
2633.6535,116.32497736764299
2634.9228,105.63222945639882
2636.1914,117.00566721648465
2637.4593,117.29526450751564
2638.7265,116.35099401905427
2639.9931,114.52282726770954
2641.259,120.26073460658245
2642.5242,114.41468524354514
2643.7887,124.78464718386749
2645.0525,111.97058728867205
2646.3156,108.97247117123379
2647.5781,103.14026332512549
2648.8398,108.32392715419246
2650.1009,112.07342503088239
2651.3613,101.78871824440375
2652.6211,117.56976696323
2653.8801,115.81653033794873
2655.1385,100.42896634345288
2656.3961,109.75703179646416
2657.6531,118.85068250941413
2658.9094,127.20987319716824
2660.1651,128.53455738608272
2661.42,118.77468733041769
2662.6743,116.03021399908721
2663.9279,126.05108717326084
2665.1808,113.73725547380513
2666.433,133.78866626107788
2667.6846,130.55526575806675
2668.9354,137.28699884987327
2670.1856,139.7338091160484
2671.4351,147.54563876327256
2672.6839,152.47242860088932
2673.9321,131.91411796278908
2675.1795,150.67064465813678
2676.4263,144.04194517695987
2677.6724,139.1779545025779
2678.9179,157.07860617789402
2680.1626,154.54383235403498
2681.4067,136.97356361134166
2682.6501,143.9177289847171
2683.8928,143.52625613933014
2685.1348,152.09907130117313
2686.3761,141.43609926097747
2687.6168,145.93726328848516
2688.8568,147.40248523907894
2690.0961,130.38168550877003
2691.3348,143.32478301954552
2692.5727,135.9816953895761
2693.81,133.2023388037876
2695.0466,128.23662808728818
2696.2826,146.38447673316546
2697.5178,146.6957969521418
2698.7524,123.27049949109664
2699.9863,141.00849362995177
2701.2195,131.15968741592656
2702.452,137.023987486157
2703.6839,143.10129916618394
2704.9151,142.59152641130936
2706.1456,142.24457174582335
2707.3755,149.810336268102
2708.6046,152.48871965407602
2709.8331,152.42962008157428
2711.0609,168.33293420353857
2712.2881,169.69855714861546
2713.5145,163.826382362123
2714.7403,178.46630159239476
2715.9654,179.91820494950048
2717.1899,192.73198075884875
2718.4136,195.40751554666554
2719.6367,200.19469391185885
2720.8591,204.64339849926205
2722.0809,215.90350995176186
2723.3019,216.92490686581073
2724.5223,239.80746567882693
2725.7421,239.65106065898135
2726.9611,228.3555636763706
2728.1795,232.42084420458127
2729.3972,222.84676943364525
2730.6142,209.88320422938637
2731.8306,190.78001122916203
2733.0462,185.83705097149937
2734.2612,164.15418208712663
2735.4756,149.43126134840122
2736.6892,154.91814388614011
2737.9022,134.36468333684797
2739.1145,117.82073178784799
2740.3262,120.8361399828184
2741.5372,113.71075748722888
2742.7475,94.64443265818909
2743.9571,84.83701271570067
2745.1661,79.48834393332163
2746.3744,76.74827173624021
2747.582,66.21664075476315
2748.7889,64.39329485171538
2749.9952,64.07807722775738
2751.2008,52.8208304396162
2752.4057,54.42139640324126
2753.61,57.22961650637376
2754.8136,45.94533159254115
2756.0165,37.46838193297731
2757.2188,50.29860733946293
2758.4204,38.685847249096696
2759.6213,42.47994059599091
2760.8215,32.18072592739986
2762.0211,45.8380413657801
2763.22,33.50172471178075
2764.4182,30.221613307671532
2765.6158,32.747544160706184
2766.8127,17.72935397592255
2768.009,24.21687913088431
2769.2045,21.85995582586179
2770.3994,15.558420018957577
2771.5936,6.91210744967475
2772.7872,-8.179146298065916
2773.9801,-6.415505709464696
2775.1723,-6.997053560051199
2776.3639,-5.523808534452655
2777.5548,-2.695719416732345
2778.745,-2.2126798081073957
2779.9346,-14.674556379557998
2781.1235,-6.631193697394792
2782.3117,-9.532289729110516
2783.4992,-9.477476196573662
2784.6861,-6.316289594078853
2785.8723,-17.64817173593474
2787.0579,-9.272501336716687
2788.2428,-15.538480805766994
2789.427,0.45478007985980184
2790.6106,0.8083267725317
2791.7935,5.773204720069998
2792.9757,10.100459362213769
2794.1573,17.741136080970364
2795.3382,21.64628015734388
2796.5184,32.716936694927654
2797.698,35.954150580853366
2798.8769,42.108966375083355
2800.0551,45.08242827803974
2801.2327,60.92558006905733
2802.4096,56.439465076646
2803.5859,76.475126020061
2804.7615,85.93360505416558
2805.9364,108.16594356907194
2807.1106,116.72318209555624
2808.2842,144.90636008273827
2809.4572,159.3665158125059
2810.6294,180.9046861176871
2811.801,220.12190623744436
2812.972,233.86920960189332
2814.1423,263.347627439932
2815.3119,307.35818864176713
2816.4808,339.70191946413
2817.6491,381.2298430901692
2818.8167,395.89297930601447
2819.9837,447.7423440855007
2821.15,494.37894944353434
2822.3157,529.7538029175978
2823.4807,572.6679071013857
2824.645,625.5222592910507
2825.8086,659.417851056068
2826.9716,708.1556677106912
2828.134,751.3366879749954
2829.2957,789.7118834874991
2830.4567,807.1822183733552
2831.617,828.6986488605962
2832.7767,839.9121231054339
2833.9358,818.0235809770943
2835.0941,832.8339539456813
2836.2519,820.344165301065
2837.4089,813.0551300047757
2838.5653,793.7177548149034
2839.7211,788.2829383589865
2840.8761,770.5515713273851
2842.0306,794.2245365276317
2843.1843,807.7027090617428
2844.3374,830.7869560894899
2845.4899,862.978136693619
2846.6417,925.0271016490067
2847.7928,966.4346931007492
2848.9433,1007.8017439436719
2850.0931,1073.329077408254
2851.2422,1113.8175066469576
2852.3907,1163.6678340789545
2853.5385,1209.8308509852425
2854.6857,1247.6573370101423
2855.8323,1283.6480596996676
2856.9781,1325.8037741232577
2858.1233,1368.5752225138735
2859.2679,1408.5131338464391
2860.4118,1441.7182234101256
2861.555,1468.7411924089745
2862.6976,1510.6327276298446
2863.8395,1534.7935011721836
2864.9808,1569.8241700291132
2866.1214,1560.3753758458201
2867.2614,1575.7477445692507
2868.4007,1593.3418865425967
2869.5393,1617.6083963515744
2870.6773,1623.397852648481
2871.8146,1625.5108179095314
2872.9513,1633.9978383769617
2874.0874,1614.1594440379017
2875.2227,1608.9461485395027
2876.3574,1600.3084493873225
2877.4915,1574.646827997459
2878.6249,1535.861749782925
2879.7577,1525.5536644102663
2880.8898,1509.523006187412
2882.0212,1496.9201941667536
2883.152,1491.0456323054545
2884.2821,1484.1497095914756
2885.4116,1474.4328001023218
2886.5405,1471.4952630740024
2887.6686,1490.8374429981984
2888.7962,1484.609669651639
2889.923,1489.912257902679
2891.0493,1491.595507773578
2892.1748,1503.009704387473
2893.2997,1504.2051179515465
2894.424,1501.9820036428853
2895.5476,1531.240601596524
2896.6706,1556.5811369276792
2897.7929,1569.053819439161
2898.9145,1585.1088433679702
2900.0355,1619.5963872605687
2901.1559,1619.5666138123318
2902.2756,1640.96966952267
2903.3946,1684.755684695329
2904.513,1702.8247732243588
2905.6308,1732.7270321562528
2906.7479,1739.8125415092568
2907.8643,1760.1313639743473
2908.9801,1781.5835448443768
2910.0953,1781.1191118108839
2911.2098,1783.7380747495718
2912.3236,1756.8904257249537
2913.4368,1764.326138964163
2914.5494,1755.2451711254287
2915.6613,1725.6474612237193
2916.7725,1697.082930721552
2917.8831,1675.4514838249693
2918.9931,1655.8030077691863
2920.1024,1617.9373730349037
2921.211,1606.8544335447918
2922.319,1594.354027042149
2923.4264,1593.0859752017288
2924.5331,1590.8500837547458
2925.6391,1581.2961425015546
2926.7445,1562.47392533401
2927.8493,1570.983190331006
2928.9534,1583.023679946698
2930.0569,1567.2951209254109
2931.1597,1576.5472241812306
2932.2619,1586.029684955295
2933.3634,1603.542182723268
2934.4643,1605.7843811005196
2935.5645,1590.605927666996
2936.6641,1582.756453944801
2937.763,1551.9355755499807
2938.8613,1523.192892271016
2939.959,1471.7279883770336
2941.056,1440.6404329052325
2942.1523,1378.2797801755303
2943.248,1311.2955701014437
2944.3431,1254.4373288136903
2945.4375,1168.9545693300322
2946.5313,1101.2467921238608
2947.6244,1018.8134859790223
2948.7169,937.8541286668938
2949.8087,871.2181877707203
2950.8999,797.0051214952052
2951.9904,742.6643793328717
2953.0803,684.0954028061913
2954.1696,642.4976260109925
2955.2582,589.6704762021498
2956.3462,556.9633742095627
2957.4335,530.4757349664267
2958.5202,504.0069678363036
2959.6062,474.8564768779984
2960.6916,462.1236611102472
2961.7764,461.20791480322237
2962.8605,444.0586276058591
2963.9439,432.1251845550139
2965.0267,423.9069662469585
2966.1089,422.4533489567134
2967.1905,415.01370472022927
2968.2714,415.48740134892387
2969.3516,419.9238025040794
2970.4312,424.8722676921034
2971.5102,434.23215222016665
2972.5885,429.3028071467169
2973.6662,435.6335791878819
2974.7432,433.5738107667614
2975.8196,432.4728399501205
2976.8954,443.63000046898685
2977.9705,439.7446217296599
2979.045,429.5660287021402
2980.1188,419.2435419589822
2981.192,412.826477777081
2982.2645,397.6141482408966
2983.3364,374.1558613066245
2984.4077,368.0009209543191
2985.4783,348.548627422477
2986.5483,329.6982772695859
2987.6177,300.2491635686479
2988.6864,282.300576095683
2989.7545,256.50180162422043
2990.8219,237.4021241047833
2991.8887,216.2008249228776
2992.9548,183.64718308998818
2994.0204,164.04047545559308
2995.0852,144.57997703269848
2996.1495,120.76496119390606
2997.2131,111.14469986601853
2998.276,92.41846376818796
2999.3383,70.58552250812
3000.4,64.09514476933668
3001.4611,44.94659852950417
3002.5215,42.53915112533855
3003.5812,26.022069444089766
3004.6404,23.544619947615615
3005.6989,17.65606883755379
3006.7567,11.655682080096312
3007.8139,5.692725464874684
3008.8705,3.86646466496461
3009.9264,1.3761652965145004
3010.9818,-3.0789070629911066
3012.0364,-11.099486849829532
3013.0905,-13.836277741996469
3014.1439,-4.08987253361488
3015.1966,-7.560725794393306
3016.2487,-8.599251236214968
3017.3002,-3.7057870393134635
3018.3511,1.3194145225974125
3019.4013,-5.223861803384352
3020.4509,-8.135831283354491
3021.4998,-6.366656997029963
3022.5481,-7.26642074717347
3023.5958,5.814859266355711
3024.6428,11.077237435241159
3025.6892,4.170768093017841
3026.735,6.295505462448773
3027.7802,13.251503724589497
3028.8247,14.938816997540812
3029.8685,11.507499266889113
3030.9118,29.107604368832767
3031.9544,22.23918602449578
3032.9963,30.402297663926333
3034.0376,35.846992494780466
3035.0783,45.173323420692554
3036.1184,53.48134298682669
3037.1578,54.521103286615585
3038.1966,58.14265587867794
3039.2348,53.196051776421655
3040.2723,68.981341411828
3041.3092,60.44857468491807
3042.3455,55.79780080589967
3043.3811,69.2290683804955
3044.4161,63.99242545645018
3045.4505,64.33791938921797
3046.4842,67.6655968943295
3047.5173,60.375504043936076
3048.5498,66.3676862335335
3049.5816,70.34218825486255
3050.6128,66.54905423598802
3051.6434,65.13832760155287
3052.6734,68.66005111071047
3053.7027,70.61426687123117
3054.7314,68.30101630428476
3055.7594,61.57034012489919
3056.7868,70.72227836509205
3057.8136,66.95687044117813
3058.8398,64.82415506224993
3059.8653,60.524170267831096
3060.8902,65.85695344920441
3061.9145,65.82254139241127
3062.9381,65.17097022492374
3063.9612,66.35227541598886
3064.9835,67.9664917831443
3066.0053,66.16365348040517
3067.0264,61.64379398212213
3068.0469,62.35694610100984
3069.0668,66.60314203334497
3070.086,62.782413351835544
3071.1046,54.64479096315824
3072.1226,53.84030514616552
3073.1399,49.01898563326233
3074.1567,44.180861618451104
3075.1727,42.125961805544534
3076.1882,31.6043144565474
3077.203,34.715947412205196
3078.2173,27.810888197220493
3079.2308,30.88916398913591
3080.2438,34.80080168738641
3081.2561,31.095827882515096
3082.2678,21.574268817056918
3083.2789,28.336150422589185
3084.2893,20.23149841494694
3085.2991,20.610338226603346
3086.3083,16.422695087717102
3087.3169,11.46859402234395
3088.3248,9.94805989031289
3089.3321,9.561117436767574
3090.3388,6.70779130737094
3091.3449,9.588106052175135
3092.3503,6.6520861541548015
3093.3551,0.3997560004035563
3094.3593,-3.3688600885057554
3095.3629,4.346258214437228
3096.3658,2.145164891154934
3097.3681,1.8779138801072008
3098.3698,-0.7054409016977274
3099.3708,3.5951544439697614
3100.3713,3.8297608626933197
3101.3711,1.9984392641054
3102.3702,6.851250519540827
3103.3688,3.0882554803499147
3104.3667,-0.6904850706291654
3105.364,4.315089618559398
3106.3607,-1.69495280218257
3107.3568,5.179455273895769
3108.3522,-4.4616016138760415
3109.347,1.8819610220367622
3110.3412,1.9102722405689292
3111.3348,6.773461081835876
3112.3277,1.4216565668506291
3113.32,1.9549876488919153
3114.3117,9.173583267021911
3115.3028,5.277572340753352
3116.2932,3.767083697863427
3117.2831,8.542246113353883
3118.2723,4.903188324555742
3119.2608,7.90003898337784
3120.2488,3.98292669269739
3121.2361,10.301979976391067
3122.2229,4.107327318506918
3123.209,11.199097100073061
3124.1944,14.677417661044558
3125.1793,6.642417229385558
3126.1635,9.744223886286022
3127.1471,11.382965646511707
3128.1301,9.158770427386628
3129.1125,7.42176603240506
3130.0942,9.772080173473853
3131.0753,10.859840488282089
3132.0558,18.585174516798418
3133.0357,15.948209690393185
3134.015,20.449073254585016
3134.9936,18.28789229541087
3135.9716,17.214793694417153
3136.949,15.429904150271625
3137.9258,16.43335018949432
3138.902,22.875258184306347
3139.8775,14.805754342595606
3140.8524,21.024964643497583
3141.8267,18.533014918090316
3142.8004,24.480030787202452
3143.7735,24.566137686332354
3144.7459,30.04146080617818
3145.7178,28.806125091777005
3146.689,29.76025518775151
3147.6596,31.45397545066288
3148.6295,27.037409939470308
3149.5989,24.56068239859343
3150.5676,36.973916302078294
3151.5357,24.927234878364686
3152.5032,27.570760986152948
3153.4701,32.404617234870955
3154.4364,42.878925958239506
3155.402,37.04380916593334
3156.367,40.29938843883792
3157.3315,36.59578498740109
3158.2952,40.63311961907675
3159.2584,42.161512775361075
3160.221,35.4810844914191
3161.1829,37.29195438080069
3162.1442,34.24424170224506
3163.105,36.63806534157203
3164.065,40.173543842159006
3165.0245,45.35079538100314
3165.9834,51.919937733366055
3166.9416,51.38108822100173
3167.8993,47.68436364646476
3168.8563,46.47988029849907
3169.8127,49.8177539890051
3170.7684,50.448100065084645
3171.7236,49.72103337566202
3172.6782,46.936668265180685
3173.6321,53.74511858087365
3174.5854,52.046497700607404
3175.5381,51.7909184647975
3176.4902,58.528493193394524
3177.4417,52.909333688440114
3178.3926,52.08355116669094
3179.3428,58.50125631581059
3180.2924,54.81255930262728
3181.2415,58.86756970895652
3182.1899,59.76639656848826
3183.1377,58.35914832623706
3184.0848,61.19593282955336
3185.0314,63.67685734219623
3185.9773,63.90202851596567
3186.9227,60.72155236589322
3187.8674,68.48553426799029
3188.8115,66.09407899105267
3189.755,64.54729061902117
3190.6979,62.99527257489581
3191.6402,59.938127636203916
3192.5818,73.17595795052006
3193.5229,73.95886506603784
3194.4633,73.78694979919106
3195.4031,74.81031222682515
3196.3423,76.77905168791591
3197.2809,74.29326677333634
3198.2189,77.35305530616887
3199.1563,78.5585143665634
3200.0931,76.30974026113927
3201.0292,84.65682851093078
3201.9648,81.39987387387504
3202.8997,79.88897026134075
3203.834,87.62421077069811
3204.7677,81.3556877004277
3205.7008,87.48349247276795
3206.6333,87.40771569640052
3207.5652,85.57844710517224
3208.4964,88.39577555885305
3209.4271,86.80978906142823
3210.3571,94.02057473292567
3211.2865,85.1782188252752
3212.2154,93.78280665020102
3213.1436,95.33442266764521
3214.0712,94.98315039972172
3214.9982,101.42907241520044
3215.9246,96.42227033301978
3216.8503,99.91282475782745
3217.7755,103.85081533004855
3218.7001,104.93632069098007
3219.624,103.06941844341083
3220.5473,104.25018514076658
3221.4701,104.82869630577896
3222.3922,102.55502641867777
3223.3137,104.92924891140586
3224.2346,105.551436190356
3225.1549,110.42165961262845
3226.0746,113.68998947980907
3226.9937,115.25649498926732
3227.9121,116.0712442014727
3228.83,113.23430402432982
3229.7473,116.04574020503101
3230.6639,117.95561735842553
3231.5799,114.76399893890536
3232.4954,118.5709472213063
3233.4102,120.37652333282422
3234.3244,113.23078721494566
3235.238,116.28379760539192
3236.151,125.33561210957652
3237.0634,124.18628717007509
3237.9752,124.33587797610708
3238.8864,124.2844384750292
3239.797,125.93202137083928
3240.7069,122.6286781246909
3241.6163,125.72445893841733
3242.5251,133.4694127875652
3243.4332,130.5635873904365
3244.3408,139.45702913063914
3245.2477,134.6997830861452
3246.154,137.6418929403565
3247.0598,137.38340102967703
3247.9649,136.3243483140919
3248.8694,137.71477437975224
3249.7733,138.05471744956577
3250.6766,141.04421436929232
3251.5793,143.7833006041447
3252.4814,144.1720102088936
3253.3829,141.86037580047665
3254.2838,144.7484285541116
3255.1841,147.6361982264122
3256.0838,146.07371312650818
3256.9829,146.46100008716715
3257.8814,146.69808448041962
3258.7792,154.73499021368625
3259.6765,148.52173972740673
3260.5731,149.9083539146709
3261.4692,147.8448521833513
3262.3647,145.78125244223682
3263.2595,155.56757112166792
3264.1538,151.75382319417247
3265.0474,152.84002207660268
3265.9404,152.37617966827256
3266.8329,147.3123063400958
3267.7247,146.39841093922442
3268.616,149.5345008396872
3269.5066,148.82058195152902
3270.3966,147.90665868944956
3271.286,144.74273397994273
