RamanShift,CorrectedData
30.1047,421.4202978370555
32.3739,394.1491217171344
34.6426,366.97794138301026
36.9109,333.3567486789889
39.1787,309.2855317795966
41.4461,275.86427552579215
43.7131,245.6929616656789
45.9796,218.47156918871724
48.2456,189.4500746274378
50.5112,163.37845232965526
52.7764,133.6566747486836
55.0411,104.13471270405222
57.3054,74.7125356787236
59.5692,45.84011211431314
61.8326,18.417409705310856
64.0955,-9.955604312194396
66.3579,-34.528962886287836
68.6199,-60.00259950856761
70.8815,-83.52610272629269
73.1426,-93.348461660753
75.4032,-77.61783100747228
77.6634,-3.281432910842227
79.9231,236.7142858868769
82.1824,765.7229114249396
84.4412,1668.6980273754575
86.6995,2902.143209753314
88.9574,4159.462017886411
91.2148,5038.507982081219
93.4717,5502.734591049589
95.7282,5646.545283118292
97.9842,5683.093441586755
100.2398,5635.982393288949
102.4949,5581.715408227914
104.7495,5516.845700046865
107.0036,5456.626426571861
109.2573,5358.960690460508
111.5105,5272.651539804146
113.7632,5184.351969104506
116.0154,5102.864920136808
118.2672,5018.443282832752
120.5185,4924.539896095384
122.7693,4839.857548643326
125.0197,4725.298979949794
127.2696,4644.266881089434
129.519,4585.6138958839
131.7679,4543.342621712178
134.0163,4489.405610097116
136.2642,4448.805367128131
138.5117,4429.844354000592
140.7587,4358.774987421809
143.0052,4298.14963980065
145.2512,4228.270639958233
147.4967,4145.740273734181
149.7417,4085.7107846854105
151.9863,4023.3343749114374
154.2304,3985.56320565467
156.4739,3916.599397924172
158.717,3914.4450328733765
160.9596,3863.3021524897226
163.2017,3857.372759616198
165.4433,3843.1088184627733
167.6844,3801.412254665686
169.925,3743.9849554300904
172.1651,3664.428769947018
174.4047,3600.3955099676505
176.6439,3529.4369505988825
178.8825,3460.0548309436554
181.1206,3426.30085481054
183.3582,3384.1266914075595
185.5954,3360.93397567973
187.832,3304.124308730804
190.0681,3268.9992580551907
192.3037,3257.6603581060617
194.5388,3221.409110646595
196.7734,3196.7469848633655
199.0075,3174.225417728861
201.2411,3185.495814248094
203.4742,3159.8095476838294
205.7068,3148.21795944387
207.9389,3125.922359337925
210.1704,3134.8740256935234
212.4015,3094.6742055789728
214.632,3062.774114713838
216.862,3040.2249378709485
219.0915,3016.077829195388
221.3205,2987.8339124299937
223.549,2966.0942811568266
225.777,2941.709999079607
228.0044,2905.8321002411135
230.2314,2884.7115892670263
232.4578,2839.3494417247066
234.6837,2813.4466043344
236.909,2786.4539954228608
239.1339,2717.1225051823753
241.3582,2711.3529959406937
243.582,2656.3463028543406
245.8053,2639.3032339663123
248.0281,2617.0245707561435
250.2503,2595.411068310341
252.472,2563.9634555451653
254.6932,2552.282435422769
256.9139,2497.4186852656726
259.134,2501.42285687357
261.3536,2479.195577071973
263.5727,2487.237447672163
265.7912,2463.349045693468
268.0092,2515.480923282841
270.2267,2496.683607953746
272.4436,2498.2576020648426
274.6601,2492.0033830079524
276.8759,2476.7714031923224
279.0913,2488.7620901071687
281.3061,2456.5258464739927
283.5204,2455.813050126677
285.7341,2458.574054333846
287.9473,2458.359187805998
290.16,2438.768754667887
292.3721,2390.1030344606816
294.5837,2331.01228233786
296.7947,2271.8967295518746
299.0052,2224.456584045054
301.2152,2172.9420310407627
303.4246,2157.853233517797
305.6334,2132.3403327255396
307.8418,2105.40344833484
310.0495,2059.592678693144
312.2568,2013.2581010938638
314.4635,1953.599772234486
316.6696,1888.8677286799161
318.8752,1811.3119874590643
321.0802,1758.4325467121648
323.2847,1735.2793864663322
325.4887,1694.752469164357
327.692,1706.7017398962344
329.8949,1705.377126804437
332.0972,1716.228540964421
334.2989,1743.1058763978763
336.5001,1720.2590099642052
338.7007,1682.2378010917578
340.9008,1633.4920920062882
343.1003,1560.9717081111799
345.2992,1509.5764584748927
347.4976,1459.8061365561725
349.6955,1403.9605207180011
351.8927,1390.2893747253001
354.0895,1343.0924483033882
356.2856,1305.6194772746908
358.4812,1277.2701840307127
360.6763,1264.3942779067638
362.8707,1228.0914554654532
365.0646,1217.1114006254488
367.258,1207.3037850245064
369.4508,1184.4682681292702
371.643,1203.8044973333472
373.8346,1192.1121081856677
376.0257,1214.5907241971186
378.2162,1232.0899569574658
380.4062,1229.8094059105715
382.5956,1181.4486581793944
384.7844,1128.7572885888057
386.9726,1063.8348601491903
389.1603,1019.7309245833617
391.3474,980.245022975791
393.5339,965.7766862136391
395.7199,953.5754353816214
397.9052,955.1907819066869
400.09,957.9222276800324
402.2743,1001.9692650409493
404.4579,984.3813767495058
406.641,1019.3580355460804
408.8235,1028.9987043272417
411.0054,1063.2028357959766
413.1868,1153.4698723652882
415.3675,1267.6492458161538
417.5477,1296.5903763948531
419.7273,1203.792671671175
421.9064,1035.1055262490054
424.0848,943.9783226943041
426.2627,862.1604332219767
428.4399,811.9012206071484
430.6166,768.300039003338
432.7928,709.9062344450567
434.9683,652.3191452838173
437.1432,605.3881027720704
439.3176,564.9624316390764
441.4914,558.3414505602159
443.6645,542.0744725612476
445.8371,514.2108050845195
448.0091,492.29975015163336
450.1806,479.2906046420844
452.3514,448.83266051237024
454.5216,449.7252049260828
456.6913,407.8175205584903
458.8603,413.808885587609
461.0288,434.7985741132811
463.1967,390.9858560972639
465.3639,384.81999715332904
467.5306,368.70025898539006
469.6967,348.975899449164
471.8622,326.7961727133679
474.0271,326.9103294569577
476.1914,311.6176170909316
478.3551,320.46727975718704
480.5182,314.1085584814482
482.6807,297.44069108476697
484.8426,324.56291224711595
487.0039,345.5744536740599
489.1647,370.4745438255336
491.3248,414.96240770573104
493.4843,407.7372666141014
495.6432,389.1483377004706
497.8015,375.5948340372961
499.9592,341.7759648055521
502.1163,289.84093543026756
504.2728,240.98894791871408
506.4287,242.86920137975494
508.5839,194.33089251236288
510.7386,197.92321558681988
512.8927,184.7953629300996
515.0461,179.04652488994589
517.199,192.67588996614904
519.3512,229.1826448680349
521.5029,268.4159743781729
523.6539,304.97506098730946
525.8043,317.3590845020299
527.9541,279.2172216791755
530.1033,222.39864610199675
532.2519,188.60252856157285
534.3999,167.57803762499816
536.5472,149.52433997334174
538.694,147.9406006118952
540.8401,167.2259830507096
542.9856,173.77964932043233
545.1305,177.75075977945562
547.2748,183.93847304837573
549.4185,185.1919459702849
551.5615,186.46033354889414
553.704,214.49278893599694
555.8458,231.53846341878625
557.987,232.04650613952936
560.1276,236.11606392510976
562.2675,297.4462812819447
564.4069,334.9863003552946
566.5456,382.38526031595666
568.6837,371.44229698487425
570.8212,302.50654235913225
572.958,248.32712472140065
575.0942,230.85316932927844
577.2299,207.0337989570985
579.3648,152.91813407066184
581.4992,116.25529306543513
583.6329,104.29439280770703
585.766,115.38454900121178
587.8985,139.8748763067424
590.0304,167.31448823124538
592.1616,188.00249688292024
594.2922,211.1880126968258
596.4222,182.42014422799548
598.5515,136.7979979195843
600.6802,97.07067839054798
602.8083,27.837288891863864
604.9358,24.596931703802966
607.0626,9.798431012120545
609.1888,15.890365279221442
611.3144,31.07121508118371
613.4393,54.989302249336106
615.5636,92.89294830429435
617.6873,146.7304742167862
619.8103,192.10020002861074
621.9327,187.55044431426222
624.0544,179.97952372723512
626.1756,138.4357530455204
628.2961,89.46744524731412
630.4159,58.62291192645807
632.5351,66.05046378211864
634.6537,59.048410927235636
636.7716,42.11506281424636
638.8889,42.298728305105215
641.0056,72.89771584061873
643.1216,49.560333438605994
645.237,81.43488838791109
647.3518,68.11968748177514
649.4659,55.16303669909348
651.5793,33.81324133756789
653.6922,20.91860614327061
655.8043,21.227435524143857
657.9159,-1.511966321057571
660.0268,-21.401295405848487
662.137,-15.592232639203303
664.2466,10.513754868846263
666.3556,2.3153557746695697
668.4639,2.5112586294985704
670.5716,-9.899871145838915
672.6786,-16.969393217987545
674.785,-9.998568353881183
676.8907,-27.938487796217487
678.9958,-16.840142901997297
681.1002,-11.00424592273066
683.204,-15.881340876902868
685.3072,-1.4718618505835366
687.4097,-5.626084275250832
689.5115,4.505716432338886
691.6127,-4.126678939994235
693.7132,-2.1234896494834175
695.8131,-6.584934912093104
697.9123,13.138766077448054
700.0109,18.947459907911707
702.1089,30.490993036682994
704.2061,43.31921173167484
706.3028,43.08196195589289
708.3987,52.279089239150835
710.4941,83.06043868044617
712.5887,91.92585485598647
714.6827,91.92518151137529
716.7761,94.30826147295647
718.8688,105.07493664782714
720.9608,103.07504800000015
723.0522,108.70843544274157
725.1429,137.72493785856977
727.233,154.07439304291938
729.3224,207.0566374139762
731.4112,245.67150584918636
733.4993,279.1188311554297
735.5867,249.64844368287368
737.6735,202.81017099049905
739.7596,169.30383814080142
741.845,142.87926816817935
743.9298,131.78628241399338
746.014,163.42470079081477
748.0974,187.09434189335525
750.1802,208.4950226820797
752.2624,180.126558246513
754.3439,162.83876159123065
756.4247,128.78144391954356
758.5048,130.05441480637546
760.5843,117.35748253883821
762.6631,131.29045410349818
764.7413,169.8531353133485
766.8188,219.4453306684818
768.8956,275.6668429704582
770.9718,338.16747282638653
773.0473,326.447018086712
775.1221,310.7052732202046
777.1962,288.84202943116907
779.2697,322.45707481685577
781.3426,408.7501945860972
783.4147,474.82117072315805
785.4862,490.36978112480256
787.557,426.29579893958453
789.6271,329.498992412362
791.6966,242.9291255250355
793.7654,143.3859589645158
795.8335,114.51925098842639
797.901,82.77875842053163
799.9678,78.51423693940569
802.0339,58.02544139583506
804.0993,84.76212585546682
806.1641,86.77404380369308
808.2282,80.1609478782857
810.2916,56.522589849277665
812.3544,52.00872068509625
814.4164,50.41909078894241
816.4778,67.3534500439323
818.5385,58.51154782899221
820.5986,85.04313284951513
822.658,145.89795322577856
824.7166,161.47575622762952
826.7747,237.42628766593907
828.832,311.34929173682167
830.8886,355.4945102621291
832.9446,396.6116819502222
834.9999,367.2005419545185
837.0545,323.9108214623184
839.1085,247.89224798891883
841.1618,194.04454581050913
843.2143,170.01743672435805
845.2662,123.41064058728807
847.3175,112.9238755559445
849.368,98.05685855286902
851.4179,106.85930537136255
853.467,93.58093082416008
855.5155,109.77144865540595
857.5633,105.08057167343577
859.6105,110.85801158887352
861.6569,98.95347906153984
863.7027,88.26668364267562
865.7478,87.79733389399007
867.7922,92.49513749452672
869.8359,73.60980124535672
871.8789,68.79103102259933
873.9212,80.58853196628161
875.9629,79.00200852851822
878.0039,93.98116435554039
880.0441,99.62570230355959
882.0837,134.68532428898015
884.1226,122.15973123194999
886.1609,174.59862270576696
888.1984,217.40169706212828
890.2352,254.96865090674964
892.2714,250.29917867133054
894.3069,250.79297223788262
896.3416,220.5497209854252
898.3757,192.01911178505225
900.4091,164.25082930235612
902.4418,157.24455628274336
904.4739,184.89997382911133
906.5052,217.56676147191365
908.5358,207.49459689260448
910.5658,201.53315559697057
912.595,188.98211101585366
914.6236,145.59113456476462
916.6515,123.85989576939346
918.6786,100.63806269952192
920.7051,105.02530218633456
922.7309,110.37128005463455
924.756,113.22566107897273
926.7804,109.98810893018799
928.8041,99.45828614686525
930.8272,147.38585416770866
932.8495,130.77047343684126
934.8711,146.21180292453028
936.892,139.60950029334026
938.9123,152.063221743721
940.9318,186.12262208002858
942.9506,195.38735458598967
944.9688,192.45707068410547
946.9862,180.53141984300692
949.003,160.21004960675327
951.019,138.49260571409332
953.0344,109.07873230167388
955.0491,102.46807212121621
957.063,106.9102668336559
959.0763,109.9049570752527
961.0888,104.85178241316271
963.1007,108.55038131549463
965.1119,96.7003912018381
967.1223,99.10144840628209
969.1321,100.35318829591233
971.1412,88.75524524680122
973.1495,95.85725263149288
975.1572,96.20884293497738
977.1641,113.5096476836743
979.1704,107.05929744191599
981.1759,107.85742163893929
983.1808,103.70364863339046
985.1849,78.84760570534172
987.1884,82.8889190978316
989.1911,101.3772142654243
991.1932,103.36211583379418
993.1945,99.64324741484506
995.1951,96.87023158686088
997.1951,93.34268993169326
999.1943,106.51024306249246
1001.1928,87.72251065898263
1003.1906,99.92911133578673
1005.1877,124.629662830303
1007.1841,135.42378188064276
1009.1798,158.36108397862017
1011.1748,139.64118326181415
1013.1691,120.41369228419308
1015.1627,90.628222203316
1017.1556,67.08438297260318
1019.1477,48.13178363919724
1021.1392,26.77003257939532
1023.1299,12.848737688178517
1025.12,8.867506592828704
1027.1093,23.625946792143168
1029.0979,36.673665696243006
1031.0859,51.21027047899133
1033.0731,57.68536794751526
1035.0596,70.09856439683972
1037.0454,55.599465545137264
1039.0304,49.787676409595406
1041.0148,22.762801451409814
1042.9985,24.77444463389793
1044.9814,10.17220969275104
1046.9636,-6.9942998840829205
1048.9452,1.0745192896215485
1050.926,20.428270670035545
1052.9061,25.066557702585214
1054.8855,34.438983628416736
1056.8642,38.64515143801236
1058.8421,45.48466377746581
1060.8194,37.80712290642077
1062.7959,31.56213062967663
1064.7717,35.99928837395919
1066.7469,39.7181972503754
1068.7213,39.06845801004056
1070.695,40.19967100688791
1072.6679,49.21143620416842
1074.6402,88.00335316313658
1076.6117,95.27502095293403
1078.5826,88.4260377626706
1080.5527,68.30600082870387
1082.5221,39.764506503133816
1084.4908,15.401150455002607
1086.4587,0.41552795570714807
1088.426,-8.192765877365673
1090.3925,-6.224135930983266
1092.3584,5.821094753816396
1094.3235,-3.2073346848865185
1096.2879,7.440314832773311
1098.2515,25.46381442793836
1100.2145,48.612935147344615
1102.1767,75.13744778309274
1104.1382,100.23712264115193
1106.099,148.76172927612015
1108.0591,194.56103624022217
1110.0185,211.4848105980691
1111.9771,252.13281746866141
1113.9351,289.8048198561519
1115.8923,356.6505782433678
1117.8488,401.9698502150877
1119.8045,373.66238978958563
1121.7596,296.6279469654378
1123.7139,202.26626800459826
1125.6675,145.027096202743
1127.6204,141.71017283288484
1129.5726,163.51523771776692
1131.524,174.9920292630302
1133.4748,148.34028423916607
1135.4248,94.85973766674556
1137.3741,64.75012308294004
1139.3226,22.311173076322348
1141.2705,26.89261958796692
1143.2176,25.644194335836346
1145.164,29.915628768968418
1147.1097,43.35665407996112
1149.0546,32.36700116225711
1150.9989,12.146400475732435
1152.9424,7.14458215659306
1154.8852,-14.338723780417922
1156.8272,-3.053787392002505
1158.7686,-8.35073549101503
1160.7092,-3.3296643829748973
1162.6491,-20.140586949554745
1164.5883,-0.5334828090817609
1166.5267,14.741869624580886
1168.4644,37.585697267063324
1170.4014,58.798226886576
1172.3377,89.42968487547546
1174.2732,123.43029703813636
1176.2081,196.85028828463828
1178.1421,270.38988229075767
1180.0755,388.04930076377195
1182.0082,458.87876270705783
1183.9401,467.8284832435006
1185.8713,399.44867290719867
1187.8017,303.7895375539674
1189.7315,218.4512790451363
1191.6605,139.33409620414068
1193.5888,98.28818566990526
1195.5163,69.16374268801655
1197.4432,53.96096152117843
1199.3693,27.5800357404612
1201.2947,12.621158377326537
1203.2193,8.134522187435323
1205.1432,-1.4296801997636521
1207.0664,3.2787437638346546
1208.9889,-5.189999091161553
1210.9106,-17.885701966927172
1212.8316,-5.458106217549357
1214.7519,10.643225481047011
1216.6715,16.068784979417615
1218.5903,31.619064021686654
1220.5084,28.894554191292627
1222.4257,48.39574675548374
1224.3424,59.02313269256456
1226.2583,66.97720249688314
1228.1735,96.00844607255863
1230.0879,107.76735265393745
1232.0016,140.9544105152836
1233.9146,174.02010685318896
1235.8269,189.01492745470182
1237.7384,195.13935636666997
1239.6492,178.99387574579328
1241.5592,185.2289657973779
1243.4686,220.94510493679218
1245.3772,278.74276972711596
1247.285,341.92243452197977
1249.1922,403.184570887586
1251.0986,474.0796469709139
1253.0042,528.758126887097
1254.9092,586.2204700104737
1256.8134,675.0171304278026
1258.7169,750.3485563636377
1260.6196,821.0151892923618
1262.5216,862.4674631848748
1264.4229,856.2558038019233
1266.3234,835.0806282795807
1268.2232,791.2923451913637
1270.1223,739.2913547599821
1272.0207,697.8780492952237
1273.9183,691.6028137139624
1275.8151,683.5660259542929
1277.7113,706.5180570382818
1279.6067,772.9092711523358
1281.5014,875.3900254176824
1283.3953,1019.4106692264563
1285.2885,1196.9715432168932
1287.181,1347.772977833124
1289.0727,1428.2652915495646
1290.9637,1383.0487893629029
1292.854,1299.3737619871747
1294.7435,1185.8904863059277
1296.6323,1066.6992262089734
1298.5204,979.0502337272196
1300.4077,891.8437502245808
1302.2943,851.5800072744719
1304.1802,831.3592275318683
1306.0653,793.98162513595
1307.9497,768.4974059123042
1309.8333,752.3067677467034
1311.7162,734.4099008399455
1313.5984,712.7569878697636
1315.4798,694.0982041697916
1317.3605,697.4337179460945
1319.2405,723.1136904637551
1321.1197,716.4882760135188
1322.9982,688.7076216549956
1324.876,659.0718672829125
1326.753,575.2811459049219
1328.6293,526.0355839379586
1330.5048,434.63530204614744
1332.3796,384.08041563325764
1334.2537,311.4210357567051
1336.127,280.60726963310344
1337.9996,253.53922136485608
1339.8714,232.31699224829526
1341.7426,218.69068104436087
1343.6129,210.2603841908226
1345.4826,196.47619593854483
1347.3515,185.3882084357881
1349.2196,172.1965118660521
1351.087,180.50119455895583
1352.9537,175.60234312215312
1354.8197,187.85004235828728
1356.6849,188.54437531397684
1358.5493,192.93542315734157
1360.4131,213.2232651710574
1362.276,229.30797870844617
1364.1383,274.88963899059763
1365.9998,296.16831894552206
1367.8606,279.4440887523324
1369.7206,277.2170156284599
1371.5799,274.58716399689524
1373.4384,272.10459550845894
1375.2962,261.6193690681009
1377.1533,219.48154085972533
1379.0096,177.89116445104287
1380.8652,161.64829121494972
1382.7201,116.80297074543
1384.5742,107.90525101998628
1386.4275,85.55517884809183
1388.2802,72.0027999601682
1390.132,60.69815923108649
1391.9832,53.24130081569069
1393.8336,51.83226826184432
1395.6832,59.071104584998466
1397.5322,43.75785228228142
1399.3803,39.4425532601108
1401.2278,31.275248987325995
1403.0745,16.955980538340555
1404.9204,17.534788674817264
1406.7656,10.461713988858492
1408.6101,9.886796897218574
1410.4538,-0.3399222879629633
1412.2968,-0.018403353414896628
1414.139,0.5013973099576106
1415.9805,10.219523495098656
1417.8213,13.036018989938839
1419.6613,31.000927480214386
1421.5006,54.164292521302286
1423.3391,86.92615735857044
1425.1769,126.7865646957448
1427.0139,191.44555636728933
1428.8502,257.1531729398032
1430.6858,320.4094530654313
1432.5206,343.56443282478676
1434.3547,353.5681450943887
1436.188,338.0706193151111
1438.0206,321.77188139214945
1439.8524,308.37195384999336
1441.6835,314.52085599541374
1443.5139,321.36860405146354
1445.3435,320.16521109598716
1447.1724,323.8106869931439
1449.0005,323.0550384054411
1450.8279,325.7982687572794
1452.6545,323.09037824251027
1454.4804,318.5813637970027
1456.3056,306.22121912572356
1458.13,299.6099347478262
1459.9536,286.3474981202519
1461.7766,266.58389370384316
1463.5987,235.86910309596942
1465.4202,202.65310522816162
1467.2409,173.03587667326065
1469.0608,149.51739197757593
1470.88,122.74762395705898
1472.6984,105.77654393248872
1474.5161,96.30412199716784
1476.3331,78.63032718663521
1478.1493,70.7051275733902
1479.9648,74.82849044362956
1481.7795,67.50038237650006
1483.5935,77.12076920286404
1485.4067,84.88961607858005
1487.2192,81.7568873882999
1489.031,83.67254666778058
1490.842,82.33655663521063
1492.6522,96.69887917205438
1494.4618,87.30947533641097
1496.2705,87.16830521939232
1498.0785,94.62532803901786
1499.8858,87.4805021416239
1501.6924,73.23378492729535
1503.4981,77.93513292131365
1505.3032,78.13450191662105
1507.1075,73.93184692681075
1508.911,67.6271221841298
1510.7138,64.2202811815082
1512.5159,56.811276735604906
1514.3172,68.05006102087714
1516.1178,69.0365856436697
1517.9176,52.37080152982821
1519.7166,43.75265891483332
1521.515,50.932107510457854
1523.3126,47.80909659095005
1525.1094,36.483574921237505
1526.9055,32.90549078815775
1528.7008,34.92479211371369
1530.4954,31.64142649085352
1532.2893,23.655341163278536
1534.0824,31.016483058276208
1535.8747,26.22479886658175
1537.6663,21.130234968764853
1539.4572,33.28273748314882
1541.2473,27.78225231675424
1543.0367,26.72872504377483
1544.8253,25.072100960582702
1546.6132,39.562325096263066
1548.4003,39.34934222918014
1550.1867,49.23309674207644
1551.9723,50.51353262420025
1553.7572,78.29059337247031
1555.5414,85.41422197866973
1557.3247,100.83436065167655
1559.1074,129.5509507462266
1560.8893,167.11393260871398
1562.6705,193.52324529002271
1564.4509,233.97882616989853
1566.2305,233.18061069285466
1568.0094,250.52853196361662
1569.7876,252.72252075510494
1571.565,253.3125053349545
1573.3417,258.64841144357615
1575.1176,254.68016228825536
1576.8928,280.507678489794
1578.6672,284.180878122192
1580.4409,323.2996764543726
1582.2138,340.0139859134516
1583.986,384.92371569354805
1585.7575,436.22877158864117
1587.5282,472.5290555434734
1589.2981,489.2744651404993
1591.0673,495.164893236882
1592.8358,517.5502277970428
1594.6035,524.3303518337533
1596.3704,502.8551431842826
1598.1366,490.92447444259756
1599.9021,458.78821317411337
1601.6668,443.74622203500223
1603.4308,419.04835909355336
1605.194,412.5944779805959
1606.9564,439.73442813647466
1608.7182,478.5180548755907
1610.4791,553.1951991150017
1612.2394,648.315696986584
1613.9988,735.079379090263
1615.7576,833.7860695428083
1617.5156,880.7355851101952
1619.2728,880.8277342205396
1621.0293,812.7123164946015
1622.785,719.3391227448647
1624.54,599.6579356566896
1626.2942,492.21853072204647
1628.0477,403.2706774363263
1629.8005,330.3641403727354
1631.5525,264.6986800717732
1633.3037,216.07405377029886
1635.0542,181.39001605818567
1636.804,156.14631936456612
1638.553,135.89271430467295
1640.3013,120.82894993227603
1642.0488,99.45477394221871
1643.7955,92.419932821055
1645.5416,74.97417206079126
1647.2868,70.56723622923607
1649.0313,70.79886914445535
1650.7751,65.81881391884406
1652.5181,62.77681295680816
1654.2604,59.52260800456645
1656.0019,71.60594018056975
1657.7427,78.52655000804282
1659.4828,96.33417729415157
1661.222,113.87856106079676
1662.9606,156.6594393665374
1664.6984,179.6765491311471
1666.4354,210.17962570780605
1668.1717,201.46840265292883
1669.9072,174.29261142113432
1671.642,131.80198145235784
1673.3761,97.14624044360892
1675.1094,70.02511477387714
1676.8419,50.18832985069048
1678.5737,35.83561038132643
1680.3048,25.76668057117945
1682.0351,20.631264267288543
1683.7646,23.779085059026784
1685.4934,13.359866329454917
1687.2215,12.423331223842979
1688.9488,7.669202753863146
1690.6754,3.2972038069540304
1692.4012,0.20705719386285182
1694.1263,0.24848569236496587
1695.8506,-2.228787921834396
1697.5742,2.474959124485281
1699.297,-2.440528129863992
1701.0191,2.7744953291798993
1702.7404,-4.83020110344512
1704.461,-5.904848060546215
1706.1808,-3.0996279212214404
1707.8999,-1.414664075136784
1709.6182,-1.3500489466755425
1711.3358,2.4941391722728667
1713.0527,2.7178354768078634
1714.7688,1.370975137087612
1716.4841,-3.9465067039078576
1718.1987,-4.334674916907716
1719.9126,3.356445052959998
1721.6257,-0.22312893603054818
1723.338,3.076620940831276
1725.0496,4.5557147373129965
1726.7605,-4.885827523582975
1728.4706,3.7520141355884107
1730.18,-5.480691498310648
1731.8886,4.0161243240618205
1733.5964,6.392585104155955
1735.3036,-0.0011856967394123785
1737.0099,1.2849353187388033
1738.7156,11.501071559798788
1740.4204,1.647346422800183
1742.1246,8.873883189091998
1743.8279,14.980805123549999
1745.5306,13.668235402312007
1747.2325,9.736297051707652
1748.9336,5.685112961385357
1750.634,22.564805923630274
1752.3336,18.62549867387702
1754.0325,18.767313721911023
1755.7307,11.040373391263415
1757.4281,13.994799817791773
1759.1247,15.230715026950634
1760.8206,22.79824090424654
1762.5158,21.247499182880347
1764.2102,25.028611368070187
1765.9039,28.541698752559682
1767.5968,26.78688237880624
1769.289,30.8642830038508
1770.9804,25.42402111686556
1772.6711,34.36621689838023
1774.361,29.99099027468401
1776.0502,25.44846082840411
1777.7386,39.43874784225784
1779.4263,29.2619703444783
1781.1132,33.9182469689116
1782.7994,31.557696056784494
1784.4849,35.48043561014197
1786.1696,23.63658331545173
1787.8535,29.726256504377602
1789.5367,38.79957227221803
1791.2192,22.85664741700907
1792.9009,27.147598348791234
1794.5818,35.022541249038454
1796.2621,38.88159202774898
1797.9415,34.57486624469607
1799.6202,35.95247907083706
1801.2982,40.06454533138094
1802.9755,37.31117949201223
1804.6519,33.692495617769964
1806.3277,28.608607400581604
1808.0027,39.209628195449454
1809.6769,33.7956710712906
1811.3504,38.916848704925656
1813.0231,38.223273435218516
1814.6951,39.665057211865246
1816.3664,43.14231160232907
1818.0369,44.65514777742328
1819.7067,34.303676476538385
1821.3757,43.938007992513235
1823.044,48.30825227515095
1824.7115,41.51451883487414
1826.3783,42.20691669902419
1828.0443,42.38555447979684
1829.7096,44.20054036731926
1831.3741,45.20198212786329
1833.0379,41.389987085695964
1834.701,45.36466211306475
1836.3633,50.67611366831744
1838.0248,53.82444775615545
1839.6856,33.65976987451916
1841.3457,43.88218498310516
1843.005,42.54179770501247
1844.6636,39.738712224518565
1846.3214,52.523032300483464
1847.9785,55.194861294379734
1849.6349,45.10430204245051
1851.2904,50.10145682899008
1852.9453,51.3864274872501
1854.5994,57.459315349467545
1856.2528,44.270221234015935
1857.9054,51.469245384675105
1859.5572,53.306487602523646
1861.2083,53.03204717394749
1862.8587,54.246022852268084
1864.5084,49.09851286048672
1866.1572,53.53961487914461
1867.8054,40.81942609779787
1869.4528,56.5880431706064
1871.0994,49.3455623435363
1872.7453,53.84207929667315
1874.3905,62.577689216647
1876.0349,60.05248675166723
1877.6786,58.36656592416642
1879.3215,61.870020156052874
1880.9637,52.41294228556893
1882.6051,63.8454245322572
1884.2458,52.867558591530724
1885.8858,58.87943552034869
1887.525,54.43114584699475
1889.1634,50.97277951095896
1890.8011,55.05442590741967
1892.4381,50.67617392182808
1894.0743,48.5881118890909
1895.7098,58.89032763735361
1897.3446,60.482908508880314
1898.9786,53.81594125703202
1900.6118,50.48951203034062
1902.2443,56.303706439178995
1903.8761,56.45860958902517
1905.5071,44.70430602232028
1907.1374,57.240879716919494
1908.7669,50.36841420363476
1910.3957,58.28699244086994
1912.0237,53.14669688334453
1913.651,56.69760940290831
1915.2776,49.289811339944265
1916.9034,59.923383467859594
1918.5285,51.99840606716384
1920.1528,49.16495881913272
1921.7764,53.17312088505855
1923.3992,48.27297093458401
1925.0213,46.964587105620865
1926.6427,47.39804705335132
1928.2633,54.27342796331243
1929.8832,51.69080654706079
1931.5023,53.25025897341902
1933.1207,44.60186089430181
1934.7383,58.74568742912135
1936.3552,47.681813251271535
1937.9714,45.010312446689795
1939.5868,43.68125862449563
1941.2015,39.644724943705455
1942.8154,52.90078412652372
1944.4286,48.89950849870746
1946.041,48.29096985700596
1947.6528,50.02523950917367
1949.2637,42.30238828005565
1950.8739,43.97248649424438
1952.4834,54.835604053309
1954.0921,44.89181041909376
1955.7001,41.44117450508702
1957.3074,40.73376477585958
1958.9139,43.66964928157063
1960.5197,49.9988956650418
1962.1247,41.621571132398344
1963.729,41.037742389776895
1965.3325,38.24747572709799
1966.9353,41.800837023905274
1968.5374,49.44789177726773
1970.1387,40.28870506624639
1971.7393,41.273341475423535
1973.3392,42.20186518649433
1974.9383,35.87433996842094
1976.5366,35.990829168147
1978.1342,41.60139577387304
1979.7311,34.556102413891324
1981.3273,35.955011300480464
1982.9227,39.14818430035831
1984.5173,41.1856829206929
1986.1112,43.417568277170176
1987.7044,36.14390107361987
1989.2968,41.91474157969583
1990.8885,34.68014970361321
1992.4795,43.39018493444007
1994.0697,34.744906414443165
1995.6592,43.94437285198751
1997.2479,37.48864260798939
1998.8359,39.77777360392156
2000.4232,34.4118233863702
2002.0097,36.64084910414414
2003.5955,35.21490756193384
2005.1805,44.584055198021645
2006.7648,37.09834809854107
2008.3484,35.657841903785084
2009.9312,36.16259188306367
2011.5133,37.41265294910852
2013.0946,38.25807965302545
2014.6752,36.54892617179388
2016.2551,42.58524629981258
2017.8342,36.86709346599099
2019.4126,38.04452067338622
2020.9902,33.46758055638463
2022.5672,40.18632536892761
2024.1433,32.35080703028109
2025.7188,38.961077057847376
2027.2935,38.01718664552101
2028.8674,30.2191865975862
2030.4406,31.167127338155353
2032.0131,33.36105898914957
2033.5849,24.251031360818672
2035.1559,39.18709392980213
2036.7261,32.46929593022918
2038.2957,31.74768620435799
2039.8645,34.422313269754056
2041.4325,39.443225326506365
2042.9998,40.810470230480746
2044.5664,32.824095443111105
2046.1323,38.48414801772668
2047.6974,35.49067467941592
2049.2617,33.89372176842568
2050.8254,33.1933352700961
2052.3883,34.28956083083057
2053.9504,35.23244376509916
2055.5118,35.22202904447636
2057.0725,35.95836128821236
2058.6325,38.041484763336996
2060.1917,37.87144337729694
2061.7502,36.048280657123996
2063.3079,31.72203975113564
2064.8649,33.84276344716693
2066.4212,35.01049421583264
2067.9767,37.17527418932036
2069.5315,31.987145149712717
2071.0856,36.54614850733992
2072.6389,32.352325352660785
2074.1915,34.1057164106727
2075.7433,34.70636208284998
2077.2945,28.504302429610163
2078.8448,31.399577164307402
2080.3945,29.542225715252698
2081.9434,32.98228719676155
2083.4916,35.21980042772719
2085.039,36.30480389721998
2086.5857,31.23733574211201
2088.1317,35.76743373622793
2089.677,31.995135341018738
2091.2215,34.27047766026146
2092.7652,34.59349747778191
2094.3083,33.014231234701356
2095.8506,36.432715026206154
2097.3921,36.59898461734036
2098.933,39.41307540882099
2100.4731,31.02502243537566
2102.0124,35.734860337601106
2103.5511,42.14262344584455
2105.089,34.198345733104475
2106.6261,31.902060750953183
2108.1626,33.553801708979734
2109.6983,37.25360149775253
2111.2332,41.55149267230223
2112.7675,41.84750741512357
2114.301,34.8416774931963
2115.8337,36.03403425502529
2117.3657,38.724608700698866
2118.897,37.7634314699651
2120.4276,33.50053281532627
2121.9575,33.73594261165056
2123.4866,36.86969039880097
2125.0149,34.20180537928138
2126.5426,32.68231638689855
2128.0695,32.56125191344154
2129.5956,32.83864012387596
2131.1211,41.51450885755554
2132.6458,40.038885625447904
2134.1698,38.61179752337563
2135.693,33.98327124677297
2137.2155,32.30333310495621
2138.7373,34.97200906740903
2140.2584,36.08932478058205
2141.7787,30.005305541206212
2143.2983,30.21997628511923
2144.8171,31.733361648105813
2146.3353,31.345485963751116
2147.8527,37.056373248306386
2149.3693,32.06604720456835
2150.8853,31.324531164769837
2152.4005,29.331848140483373
2153.9149,33.088020830036555
2155.4287,30.74307163843821
2156.9417,37.74702263981732
2158.454,35.24989560087238
2159.9655,38.55171191083156
2161.4764,28.202492606424585
2162.9865,36.25225833886401
2164.4958,35.40102947733766
2166.0045,33.39882602851094
2167.5124,36.845667645039214
2169.0195,28.641573645589688
2170.526,34.686562980372855
2172.0317,34.680654313183936
2173.5367,32.673865960952355
2175.0409,33.61621589380155
2176.5445,31.457721755115983
2178.0473,28.298400852118107
2179.5494,31.238270177453444
2181.0507,26.97734644078372
2182.5513,31.015646039388287
2184.0512,35.10318510077303
2185.5504,25.989979442287392
2187.0488,32.676044530249214
2188.5465,32.461395571076764
2190.0435,32.5460474444281
2191.5397,27.73001470534757
2193.0353,30.213311583419284
2194.5301,18.345952030927435
2196.0241,24.077949698023474
2197.5175,27.459318051399407
2199.0101,25.090070316967797
2200.502,29.470219446048304
2201.9931,26.44977813905973
2203.4835,23.178758801718914
2204.9733,25.957173575244838
2206.4622,27.28503436906942
2207.9505,25.912352833052978
2209.438,24.98914034420551
2210.9248,29.565408020413884
2212.4109,22.09116672967332
2213.8962,23.516427044325155
2215.3809,26.04119931579919
2216.8648,19.415493660360767
2218.3479,18.189319933863317
2219.8304,23.7626877980058
2221.3121,29.88560673259377
2222.7931,24.45808597980607
2224.2733,23.030134482965593
2225.7529,20.55176094081463
2227.2317,20.42297382179447
2228.7098,23.343781388828575
2230.1872,21.264191700611036
2231.6638,16.634212582398504
2233.1397,19.35385164680565
2234.6149,19.073116340105457
2236.0894,22.242013915032317
2237.5632,22.710551433589558
2239.0362,20.528735735360783
2240.5085,19.29657343282412
2241.9801,28.614070933170126
2243.4509,23.28123445062431
2244.921,16.498069913271365
2246.3904,17.16458301638403
2247.8591,16.88077929025468
2249.3271,18.796664093529785
2250.7943,13.962242616048115
2252.2608,14.627519859682081
2253.7266,14.792500686681592
2255.1917,16.857189813021535
2256.656,22.121591806752008
2258.1197,8.235711067351332
2259.5826,16.049551773082044
2261.0447,18.113118019849736
2262.5062,16.52641374306478
2263.9669,17.239442697006268
2265.4269,14.602208470689447
2266.8862,14.414714480735427
2268.3448,13.576963997743206
2269.8026,14.288960148165103
2271.2598,13.450705922683738
2272.7162,19.362204169092365
2274.1719,15.173457600677239
2275.6268,19.984468737102958
2277.0811,14.895239946299569
2278.5346,14.955773396352186
2279.9874,16.866071106393917
2281.4395,13.97613494600003
2282.8908,15.285966616085517
2284.3414,16.445567677804064
2285.7914,14.104939539449958
2287.2406,17.51408344486225
2288.689,14.32300049683073
2290.1368,17.43169162300427
2291.5838,15.240157607801962
2293.0302,10.84839906132629
2294.4758,9.656416441278196
2295.9206,15.464210096874808
2297.3648,17.871780280769286
2298.8082,16.82912709097272
2300.251,13.386250446778803
2301.693,13.293150099189887
2303.1343,18.44982566534597
2304.5748,9.45627662945563
2306.0147,13.562502291229322
2307.4538,15.218501855814822
2308.8922,9.524274392735208
2310.3299,13.52981881932854
2311.7669,11.38513395769013
2313.2031,13.19021849461717
2314.6387,12.34507100305558
2316.0735,17.89968992404951
2317.5076,11.154073575192314
2318.941,18.05822009508057
2320.3737,13.462127510770387
2321.8056,17.115793668735478
2323.2369,9.519216280828516
2324.6674,18.972392887744178
2326.0972,13.425320934984995
2327.5263,18.927997678329206
2328.9547,18.030420239302174
2330.3823,17.782585550149292
2331.8092,18.534490362812022
2333.2355,15.686131251406607
2334.661,14.937504604704287
2336.0858,13.088606654615234
2337.5098,13.889433483674765
2338.9332,16.78998104353255
2340.3558,15.940245146943482
2341.7778,16.04022143876324
2343.199,7.439905404445142
2344.6195,14.089292369040606
2346.0393,13.588377583201861
2347.4583,8.187156156688445
2348.8767,7.285623063375908
2350.2943,7.133773195268077
2351.7113,12.431601371512244
2353.1275,17.429102339918245
2354.543,8.676270723980082
2355.9578,7.823100972900789
2357.3718,10.419587449120826
2358.7852,12.065724436849735
2360.1978,8.21150611610122
2361.6098,12.206926546231955
2363.021,14.601979704483512
2364.4315,17.596659446028127
2365.8413,12.240959480018432
2367.2504,14.034873339640455
2368.6587,10.478394435670879
2370.0664,12.121516038537578
2371.4733,10.614231313884801
2372.8795,8.806533306141603
2374.285,11.598414953594897
2375.6899,8.839869106466182
2377.0939,5.230888498993124
2378.4973,11.771465777014669
2379.9,12.161593534061211
2381.3019,9.851264245948414
2382.7032,14.040470266876099
2384.1037,10.07920385253172
2385.5035,11.167457118197945
2386.9027,4.455222078365466
2388.3011,16.142490635850606
2389.6987,10.67925464891755
2391.0957,3.415505814405691
2392.492,10.451235722362014
2393.8876,2.386435928678509
2395.2824,6.4710978847348315
2396.6765,5.405213018046396
2398.07,6.288772691417677
2399.4627,10.371768213601229
2400.8547,12.354190830461818
2402.246,9.636031684146644
2403.6366,9.617281793261043
2405.0265,-0.05206791995004778
2406.4156,9.877973370585579
2407.8041,2.0573970110984874
2409.1918,3.286194249039653
2410.5789,2.064356311286218
2411.9652,4.641874391853435
2413.3508,4.768739664113156
2414.7358,1.9949432550186543
2416.12,3.470476243835833
2417.5035,3.2953296898811004
2418.8863,4.069494617766395
2420.2684,1.6429620191503318
2421.6497,4.115722844996668
2423.0304,3.28776802983964
2424.4104,2.1590884670564776
2425.7896,3.42967501714665
2427.1682,6.399518519018983
2428.546,2.4186097772853827
2429.9232,4.936939532562803
2431.2996,5.5044985012820575
2432.6753,4.371277350504727
2434.0503,7.38726669224738
2435.4246,6.302457094813747
2436.7982,9.066839052634947
2438.1711,6.080402997117716
2439.5433,0.4931392690002667
2440.9148,1.4550381482169996
2442.2856,2.26608990977104
2443.6557,0.4262848141151778
2445.025,6.185613099041518
2446.3937,3.9440649980793694
2447.7617,3.8016306829019584
2449.1289,5.358300285742047
2450.4955,2.9640639008161997
2451.8613,3.668911568758034
2453.2265,2.422833300560768
2454.5909,9.825819070528553
2455.9546,-0.37214117126259794
2457.3177,5.378942427005313
2458.68,-0.3709365651595533
2460.0416,6.878215367961786
2461.4025,4.926395447744454
2462.7627,1.623600826781427
2464.1222,6.7198286084019685
2465.4811,3.0150758796993102
2466.8392,4.659339660568548
2468.1966,6.952616940754183
2469.5533,8.194904663407328
2470.9093,1.8361997021529817
2472.2645,4.676498848667251
2473.6191,4.815798876264324
2474.973,1.754096511493401
2476.3262,6.491388432745964
2477.6787,3.3776713008724357
2479.0305,5.462941711809549
2480.3816,3.747196227717353
2481.7319,1.7804313561265985
2483.0816,2.6126435670961996
2484.4306,6.793829312880632
2485.7789,5.373985019608142
2487.1264,0.35310704546867555
2488.4733,6.581191694912519
2489.8195,2.008235268858897
2491.165,4.484234002415178
2492.5097,6.509184110606384
2493.8538,8.933081763615377
2495.1972,4.005923066533228
2496.5398,4.727704035120183
2497.8818,6.298420645077471
2499.2231,5.16806882482922
2500.5637,7.23664443981545
2501.9035,0.9541433037954619
2503.2427,6.370561158162303
2504.5812,2.385893734767535
2505.919,4.450136701757174
2507.256,7.41328570341841
2508.5924,4.975336339537222
2509.9281,4.836284135766817
2511.2631,1.2961245680071158
2512.5974,2.054853063795207
2513.9309,3.7124650377070907
2515.2638,2.968955883770491
2516.596,6.174320958888131
2517.9275,4.078555590273567
2519.2583,2.8316550433969496
2520.5884,7.833614542942911
2521.9178,6.934429285279862
2523.2465,6.434094388439718
2524.5745,1.78260490111046
2525.9018,4.479955807639044
2527.2284,-0.42385792545346135
2528.5543,1.0711586235543393
2529.8796,4.265004610724532
2531.2041,5.457679181407656
2532.5279,8.799181438304231
2533.851,5.639510429538149
2535.1735,2.128665115241489
2536.4952,4.2166443991513916
2537.8163,6.853447163718101
2539.1366,7.9890722492258135
2540.4562,4.5235184274242215
2541.7752,5.356784390172379
2543.0935,4.388868784094257
2544.411,6.119770202245974
2545.7279,5.099487193795085
2547.0441,4.628018246711434
2548.3596,3.755361797970181
2549.6744,5.831516238266204
2550.9885,5.656479920740992
2552.3019,4.78025114022094
2553.6146,2.3028281349677115
2554.9266,9.324209095440494
2556.2379,5.444392189070356
2557.5485,9.663375490046349
2558.8585,9.53115701811376
2560.1677,5.547734696384111
2561.4762,7.063106352657343
2562.7841,7.377269759256194
2564.0913,9.890222617872382
2565.3977,1.601962556424894
2566.7035,7.412487103930573
2568.0086,7.771793773386776
2569.313,6.579880003665949
2570.6167,10.786743155922721
2571.9197,10.942380525513016
2573.222,6.0967892999253195
2574.5236,1.599966557224434
2575.8246,5.15190931450725
2577.1248,5.402614572871045
2578.4244,9.402079281894089
2579.7232,8.150300337128613
2581.0214,9.097274540106156
2582.3189,7.592998610855318
2583.6157,6.837469178432073
2584.9118,7.730682795962366
2586.2072,9.172635948197609
2587.5019,8.663325042582443
2588.7959,12.352746394835194
2590.0893,11.090896234041097
2591.3819,12.627770665757993
2592.6739,5.213365684634695
2593.9652,11.697677159042527
2595.2557,13.93070090521914
2596.5456,13.062432622425433
2597.8348,9.342867870615393
2599.1234,9.572002079118747
2600.4112,10.949830583836572
2601.6983,11.226348624950063
2602.9848,16.051551333142115
2604.2705,13.725433726832222
2605.5556,12.897990663924489
2606.84,9.519216865068728
2608.1237,12.189106921934922
2609.4067,9.457655331000879
2610.689,13.424856466853427
2611.9707,8.09070460950285
2613.2516,11.005193904710836
2614.5319,6.268318417332225
2615.8115,12.230072102169899
2617.0903,10.440448851343604
2618.3685,8.599442434672454
2619.6461,9.007046517571212
2620.9229,10.413254679460238
2622.199,11.218060409689414
2623.4745,11.221457093476161
2624.7493,6.423438003857214
2626.0234,12.22399630165485
2627.2968,8.22312508345702
2628.5695,12.620817323611647
2629.8415,13.467065914235448
2631.1128,9.861863621237077
2632.3835,7.4052030758545015
2633.6535,10.79707681070714
2634.9228,11.837477284362365
2636.1914,6.926396847416896
2637.4593,12.413827732092656
2638.7265,5.849762101347665
2639.9931,11.434191994001736
2641.259,9.41710939037705
2642.5242,7.748506156453956
2643.7887,7.478374064041745
2645.0525,11.806704807464726
2646.3156,7.883490006263628
2647.5781,9.20872116191208
2648.8398,12.732389697048987
2650.1009,8.804486942226035
2651.3613,7.025004100671126
2652.6211,9.743932287567262
2653.8801,8.46126254784754
2655.1385,6.126985829005747
2656.3961,10.841092993923155
2657.6531,11.203574844211232
2658.9094,6.314422073070588
2660.1651,9.223625261666058
2661.42,5.531174928018288
2662.6743,5.787061497911736
2663.9279,6.641275341819153
2665.1808,7.343806772342717
2666.433,7.944646035671937
2667.6846,6.843783304558258
2668.9354,11.391208672306803
2670.1856,10.98691216378485
2671.4351,8.730883689947646
2672.6839,13.423113051881359
2673.9321,13.063589963363398
2675.1795,15.002304003940097
2676.4263,15.339244622521932
2677.6724,12.324401117996473
2678.9179,9.457762635858998
2680.1626,8.83931819836073
2681.4067,12.569056733175387
2682.6501,12.04696707958351
2683.8928,11.82303795117518
2685.1348,13.947257941070802
2686.3761,13.81961552416054
2687.6168,10.690099035861962
2688.8568,8.758696673396486
2690.0961,5.525396527084638
2691.3348,4.690186599660024
2692.5727,9.453054838602284
2693.81,11.463989144489318
2695.0466,5.8729773233684455
2696.2826,6.780007066647187
2697.5178,6.285066007003337
2698.7524,6.488141709314704
2699.9863,10.889221675608539
2701.2195,8.088293343030642
2702.452,10.335344039834695
2703.6839,13.83036101339141
2704.9151,11.123331407718155
2706.1456,12.76424222852873
2707.3755,7.703080370303667
2708.6046,10.839832599881063
2709.8331,9.674485607068362
2711.0609,13.157025973274614
2712.2881,12.287440183164179
2713.5145,15.215714589831151
2714.7403,10.49183542349536
2715.9654,10.215788762219503
2717.1899,16.737560579147967
2718.4136,15.707136745267292
2719.6367,13.474502964188474
2720.8591,14.889644782451185
2722.0809,18.3525476118501
2723.3019,17.31319671528358
2724.5223,23.221577172124526
2725.7421,18.97767388861392
2726.9611,21.281471538777012
2728.1795,22.732954606862336
2729.3972,17.482107364303687
2730.6142,14.778913855205332
2731.8306,12.623357948850526
2733.0462,12.415423366733378
2734.2612,11.40509370411445
2735.4756,13.642352432100111
2736.6892,11.92718290774583
2737.9022,9.359568351683578
2739.1145,9.589491865273573
2740.3262,12.916936456280368
2741.5372,11.041885036573618
2742.7475,8.814320388853545
2743.9571,11.034225185401667
2745.1661,12.40158201035625
2746.3744,4.11637333751338
2747.582,6.1285815166533695
2748.7889,6.188188856392827
2749.9952,3.5451776040626726
2751.2008,7.299529945111971
2752.4057,5.151228029538046
2753.61,10.050253934342933
2754.8136,7.296589685016443
2756.0165,6.190217206545924
2757.2188,-0.2188816490470913
2758.4204,1.6192749083568003
2759.6213,4.2046708555046735
2760.8215,5.437290152950837
2762.0211,5.467116719202963
2763.22,6.594134418395782
2764.4182,4.418327059993004
2765.6158,5.3396783875169405
2766.8127,4.908172100306729
2768.009,4.573791844304694
2769.2045,3.786521216371483
2770.3994,3.8963437676298582
2771.5936,2.353243011337412
2772.7872,0.607202421788358
2773.9801,0.7582054497444943
2775.1723,2.7562355398956555
2776.3639,4.301276129349688
2777.5548,-0.9066893723478557
2778.745,-1.7176775986642383
2779.9346,-0.6316961252399125
2781.1235,-2.9487353681161608
2782.3117,-0.36877943268997626
2783.4992,1.7082170335079496
2784.6861,-0.017696932946634547
2785.8723,0.9035276874399898
2787.0579,1.621940090953828
2788.2428,0.23758946484555565
2789.427,-0.049475019853446156
2790.6106,3.5607958055123277
2791.7935,2.0184516038537765
2792.9757,2.823542002473829
2794.1573,0.47611660849104
2795.3382,3.2262250007884745
2796.5184,3.623916753488146
2797.698,0.8692414084497813
2798.8769,5.512248471293958
2800.0551,1.502987438948935
2801.2327,3.3915077532204947
2802.4096,-2.7221411591154094
2803.5859,0.512090094802204
2804.7615,5.044278102024435
2805.9364,3.4244994444815404
2807.1106,4.752830653661121
2808.2842,8.479348226805769
2809.4572,7.754128613629902
2810.6294,4.927248179054402
2811.801,8.448783210458956
2812.972,6.068809945950875
2814.1423,9.187404539149597
2815.3119,8.704643082986522
2816.4808,11.420601578519069
2817.6491,14.635355939758284
2818.8167,17.148981966509197
2819.9837,21.411555312223243
2821.15,21.373151458862168
2822.3157,28.083845674272112
2823.4807,34.84371301256773
2824.645,38.95282824702534
2825.8086,51.96126580248401
2826.9716,53.9690997142546
2828.134,66.17640349803533
2829.2957,68.1832501298335
2830.4567,73.0397119238923
2831.617,78.79586051262257
2832.7767,81.65176679803791
2833.9358,83.80750089419352
2835.0941,79.3631320986268
2836.2519,79.61872887080027
2837.4089,72.27435887654508
2838.5653,72.98008898550516
2839.7211,68.83598534458088
2840.8761,63.792113370871704
2842.0306,69.64853779311737
2843.1843,65.3053227021364
2844.3374,65.0625314922621
2845.4899,66.12022690477453
2846.6417,66.5784710303285
2847.7928,70.78732529837676
2848.9433,70.4468504725872
2850.0931,73.2571066087546
2851.2422,69.31815305820523
2852.3907,70.48004843969437
2853.5385,72.09285067879571
2854.6857,76.9066169962826
2855.8323,76.22140389199986
2856.9781,80.33726709672622
2858.1233,75.70426157902637
2859.2679,82.72244150409242
2860.4118,83.94186028007385
2861.555,85.11257048789581
2862.6976,95.18462386906485
2863.8395,91.25807131396186
2864.9808,93.4329627611215
2866.1214,93.95934723649776
2867.2614,99.53727283171501
2868.4007,100.11678669880418
2869.5393,97.54793499442346
2870.6773,100.83076287406317
2871.8146,106.26531451773441
2872.9513,105.90163309714063
2874.0874,105.28976072133214
2875.2227,109.07973844034302
2876.3574,113.02160625130968
2877.4915,110.6654030605712
2878.6249,114.81116664425058
2879.7577,118.6589336718169
2880.8898,119.90873966462757
2882.0212,122.26061895745072
2883.152,121.41460468596713
2884.2821,125.47072876325142
2885.4116,126.97902188823221
2886.5405,125.38951350513082
2887.6686,129.9522317883785
2888.7962,126.21720365851127
2889.923,130.73445473654283
2891.0493,133.0540093813151
2892.1748,129.12589064432515
2893.2997,124.40012024653028
2894.424,128.92671861762878
2895.5476,125.70570494331778
2896.6706,128.98709712002727
2897.7929,125.22091178713036
2898.9145,133.00716429412904
2900.0355,131.14586873831635
2901.1559,129.93703788691369
2902.2756,126.28068319568378
2903.3946,126.27681482101897
2904.513,120.87544165650488
2905.6308,124.726571332959
2906.7479,119.48021027244441
2907.8643,122.98636364975856
2908.9801,126.79503544489684
2910.0953,125.65622840799104
2911.2098,116.51994402122264
2912.3236,128.1861825102108
2913.4368,125.2049429353753
2914.5494,123.32622307527407
2915.6613,114.90001945641572
2916.7725,113.87632737204657
2917.8831,113.45514096641281
2918.9931,115.58645324499753
2920.1024,108.92025607873225
2921.211,111.55654018268409
2922.319,107.99529518271765
2923.4264,106.18650958913214
2924.5331,108.63017083227382
2925.6391,105.42626528062388
2926.7445,105.0247782163619
2927.8493,103.2756938674048
2928.9534,112.52899541142173
2930.0569,108.53466499332498
2931.1597,106.54268363273685
2932.2619,111.2530312639331
2933.3634,116.71568675576262
2934.4643,107.18062786454406
2935.5645,115.04783117943921
2936.6641,117.21727221780364
2937.763,121.18892534651457
2938.8613,118.2627637602766
2939.959,114.58875944190508
2941.056,114.71688319158778
2942.1523,108.34710466362486
2943.248,98.67939236514769
2944.3431,97.76371371981664
2945.4375,88.70003516449816
2946.5313,83.83832215842169
2947.6244,77.32853927381623
2948.7169,67.37065024452764
2949.8087,65.71461803111634
2950.8999,55.41040492043636
2951.9904,54.75797254219549
2953.0803,50.907281971997506
2954.1696,50.758293737866495
2955.2582,45.66096785875376
2956.3462,46.26526384602762
2957.4335,40.02114075444679
2958.5202,40.728557176117306
2959.6062,41.8874713029338
2960.6916,38.39784091950535
2961.7764,40.95962339156634
2962.8605,41.57277570087275
2963.9439,41.08725441958437
2965.0267,43.453015704133264
2966.1089,42.87001530007892
2967.1905,44.13820851845073
2968.2714,39.457550241577934
2969.3516,39.17799491040775
2970.4312,39.99949657131189
2971.5102,38.42200887888216
2972.5885,39.29548508771543
2973.6662,40.169878068188545
2974.7432,38.095140297723496
2975.8196,40.271223852043576
2976.8954,40.44808042592063
2977.9705,41.075661311414294
2979.045,42.45391739610347
2980.1188,38.73279915681045
2981.192,43.96225664581837
2982.2645,39.44223952808238
2983.3364,39.52269702893509
2984.4077,39.55357797928674
2985.4783,35.034830814820666
2986.5483,37.916403575684434
2987.6177,32.548243951677364
2988.6864,29.580299253434696
2989.7545,30.61251646610927
2990.8219,29.49484227905093
2991.8887,23.62722307548445
2992.9548,25.909604943686148
2994.0204,22.49193373566017
2995.0852,17.524155044314604
2996.1495,14.506214237638218
2997.2131,17.088056508378294
2998.276,12.21962690421995
2999.3383,15.100870301967788
3000.4,10.231731456230165
3001.4611,10.762154970606744
3002.5215,9.142085346379936
3003.5812,5.121466977210581
3004.6404,4.550244165338718
3005.6989,3.828361161789701
3006.7567,7.055762172086482
3007.8139,4.7823913634684345
3008.8705,0.15819283261728856
3009.9264,-0.9668893716091134
3010.9818,2.3570887980651705
3012.0364,3.180081048140856
3013.0905,2.4020410615478127
3014.1439,0.27292248941509456
3015.1966,1.9426789588513955
3016.2487,-2.388735905763795
3017.3002,1.578631500522249
3018.3511,-0.7052413538660502
3019.4013,2.059622983709467
3020.4509,-0.9267909887519394
3021.4998,1.135501206152803
3022.5481,1.5464933044687186
3023.5958,1.4561790308858633
3024.6428,-0.5354479053706171
3025.6892,1.2216061903626212
3026.735,2.377340361873472
3027.7802,0.03175364073379683
3028.8247,1.0848450347420666
3029.8685,-0.2633864486207784
3030.9118,1.3370581872777905
3031.9544,3.036180570300928
3032.9963,0.683982314941197
3034.0376,3.4804650053293926
3035.0783,3.5756302187565225
3036.1184,3.9194794977089487
3037.1578,1.362014348916773
3038.1966,0.5532362399153357
3039.2348,3.3931466246198596
3040.2723,-0.8682530485867943
3041.3092,3.719038634746795
3042.3455,5.205031762919987
3043.3811,4.6397363870417365
3044.4161,4.623162506170658
3045.4505,3.7053200729679645
3046.4842,2.086218993863227
3047.5173,2.2158691382328186
3048.5498,3.4942803545909484
3049.5816,6.921462469293111
3050.6128,5.997425273752036
3051.6434,3.722178490165824
3052.6734,1.6957317807583365
3053.7027,8.468094770531643
3054.7314,9.23927706753052
3055.7594,10.859288195118793
3056.7868,7.378137584267556
3057.8136,4.595834557355019
3058.8398,6.712388362978043
3059.8653,6.8278082037751275
3060.8902,7.292103215260919
3061.9145,7.355282464671983
3062.9381,5.617354946323864
3063.9612,8.97832958097931
3064.9835,10.388215233227534
3066.0053,9.697020677874463
3067.0264,8.554754585843892
3068.0469,9.661425531089424
3069.0668,10.117042002017126
3070.086,11.771612390418841
3071.1046,11.325144986916008
3072.1226,11.327647964413988
3073.1399,8.779129382566694
3074.1567,11.829597187751602
3075.1727,7.579059238554894
3076.1882,9.927523275266807
3077.203,8.224996962386985
3078.2173,8.021487865139868
3079.2308,8.267003466499926
3080.2438,9.411551169226797
3081.2561,8.355138293410075
3082.2678,5.897772065023865
3083.2789,3.289459626490892
3084.2893,7.730208061256185
3085.2991,4.970024419870203
3086.3083,6.008915675581328
3087.3169,5.946888751937706
3088.3248,7.683950512398351
3089.3321,4.220107760953386
3090.3388,4.655367224753441
3091.3449,4.839735588748049
3092.3503,4.6732194913331035
3093.3551,5.105825522507139
3094.3593,5.187560225536501
3095.3629,6.268430092629288
3096.3658,2.298441564118008
3097.3681,4.677601017650879
3098.3698,3.6059148078917147
3099.3708,3.1833892427283423
3100.3713,5.810030593989435
3101.3711,3.8358451016697863
3102.3702,7.660838947663908
3103.3688,4.285018275507841
3104.3667,4.158389152129271
3105.364,7.9309576016057015
3106.3607,6.652729606430764
3107.3568,3.923711069788535
3108.3522,3.4439078283358135
3109.347,1.863325679492288
3110.3412,4.7819703862385765
3111.3348,6.199847692922052
3112.3277,5.516963296070401
3113.32,3.9833228302128347
3114.3117,3.6489318747089357
3115.3028,1.913795969085065
3116.2932,2.4279206163782767
3117.2831,4.541311300487685
3118.2723,5.3039734810332
3119.2608,5.0659125722216345
3120.2488,5.22713393522006
3121.2361,2.5876428805364533
3122.2229,4.097444666407444
3123.209,1.156544525193258
3124.1944,4.864947648279671
3125.1793,3.472659215487024
3126.1635,2.3796843579862
3127.1471,3.486028172221495
3128.1301,-0.15830426915962548
3129.1125,4.096692071630034
3130.0942,2.951023813837299
3131.0753,6.704697535742099
3132.0558,0.6577197861141357
3133.0357,2.4600970466761574
3134.015,4.361835792573711
3134.9936,2.8629424743513994
3135.9716,5.063423498935482
3136.949,3.9632852446227886
3137.9258,1.7125340390759405
3138.902,1.4111761703247012
3139.8775,4.109217909273518
3140.8524,1.2566655127150774
3141.8267,4.053525196349899
3142.8004,3.5998031633118472
3143.7735,1.5455055761995595
3144.7459,4.190638561613655
3145.7178,2.1352082306997087
3146.689,4.929220652696916
3147.6596,4.272681875492404
3148.6295,4.615597897681107
3149.5989,4.907974675131133
3150.5676,2.84981811755463
3151.5357,2.4411340855840002
3152.5032,2.3819284113534795
3153.4701,5.6222069025859565
3154.4364,4.96197534318506
3155.402,5.551239460832335
3156.367,1.59000493358959
3157.3315,2.3282773840062525
3158.2952,4.616062418731694
3159.2584,6.1533656211325365
3160.221,3.99019252841477
3161.1829,7.426548616250749
3162.1442,2.7124393204109047
3163.105,4.797870002400204
3164.065,8.632845996599215
3165.0245,5.317372589409818
3165.9834,4.901454980905431
3166.9416,3.435098317985762
3167.8993,4.8683076985359754
3168.8563,5.001088186090266
3169.8127,4.933444795499753
3170.7684,4.2653824916046865
3171.7236,3.896906189910853
3172.6782,4.328020763270224
3173.6321,4.708731045565715
3174.5854,4.18904182740004
3175.5381,4.968957852288609
3176.4902,3.3984838218564306
3177.4417,3.4776243880389206
3178.3926,4.006384168786665
3179.3428,6.6347677472740045
3180.2924,7.312779666611439
3181.2415,5.990424403561791
3182.1899,2.9177063617601
3183.1377,7.644629884937157
3184.0848,4.071199287646687
3185.0314,3.2974188079961237
3185.9773,5.023292643380913
3186.9227,-0.2511750417776941
3187.8674,7.324019866708646
3188.8115,4.6488839922669385
3189.755,7.123423885084005
3190.6979,4.2476460488578365
3191.6402,5.521556916052182
3192.5818,3.795162876654329
3193.5229,3.618470265436006
3194.4633,6.641485379217311
3195.4031,5.164214478633646
3196.3423,4.136663757905563
3197.2809,5.05883935961146
3198.2189,7.380747384963126
3199.1563,4.802393884583951
3200.0931,5.023784835289851
3201.0292,5.144926165872803
3201.9648,5.715823754886942
3202.8997,3.5864834294371324
3203.834,7.656910959470014
3204.7677,5.9771120790674
3205.7008,7.697092445741995
3206.6333,4.916857657235389
3207.5652,7.1364132343182485
3208.4964,6.505764648592668
3209.4271,9.024917300296616
3210.3571,8.143876524610423
3211.2865,7.1126475664652515
3212.2154,7.181235589353489
3213.1436,5.899645685641052
3214.0712,6.117882875881513
3214.9982,5.13595212163199
3215.9246,3.5538583232707746
3216.8503,4.121606329816644
3217.7755,5.739200954749785
3218.7001,5.256646970334334
3219.624,4.723949091442414
3220.5473,9.191111980379684
3221.4701,10.308140252212318
3222.3922,8.125038430095369
3223.3137,8.741810934102494
3224.2346,8.458462103056954
3225.1549,7.174996188363894
3226.0746,3.4914173568438605
3226.9937,5.05772970356745
3227.9121,6.823937288691044
3228.83,8.29004412179376
3229.7473,6.0560541442153255
3230.6639,9.321971214395038
3231.5799,6.48779913021165
3232.4954,7.153541596324203
3233.4102,6.719202252513752
3234.3244,6.884784667025931
3235.238,6.50029234091436
3236.151,5.9657287063848115
3237.0634,9.181097130640131
3237.9752,7.746400921225884
3238.8864,7.411643293876668
3239.797,8.776827386863062
3240.7069,4.4919562643392235
3241.6163,9.007032902691035
3242.5251,8.522060233384817
3243.4332,5.237041097816562
3244.3408,8.80197825216166
3245.2477,9.216874400225096
3246.154,7.281732157792071
3247.0598,10.896554048479045
3247.9649,8.161342523085159
3248.8694,7.57609992344401
3249.7733,7.090828509775769
3250.6766,8.355530466539616
3251.5793,7.320207907286437
3252.4814,8.58486286201182
3253.3829,9.74949728750927
3254.2838,11.814113054723665
3255.1841,8.978711937104915
3256.0838,7.893295589961795
3256.9829,8.007865578815965
3257.8814,5.672423390256126
3258.7792,12.386970430792326
3259.6765,8.90150805021038
3260.5731,8.166037474426396
3261.4692,8.480559840341405
3262.3647,9.895076203196064
3263.2595,5.759587533425425
3264.1538,7.074094702513786
3265.0474,8.438598524349567
3265.9404,10.45309974208024
3266.8329,8.76759901446729
3267.7247,9.73209689574121
3268.616,8.946593852456495
3269.5066,9.511090253846676
3270.3966,9.375586379679346
3271.286,9.090082414611192
