RamanShift,CorrectedData
30.1047,6167.2386572700325
32.3739,5764.454893143944
34.6426,5364.271067345468
36.9109,4966.987060557671
39.1787,4571.452699820903
41.4461,4183.317762505646
43.7131,3784.1319802678518
45.9796,3391.795042930294
48.2456,2998.2066024744213
50.5112,2611.31627696373
52.7764,2217.423654479651
55.0411,1825.9282969904489
57.3054,1434.2797442901524
59.5692,1042.6775179135059
61.8326,666.8711250524561
64.0955,289.91006247217445
66.3579,-92.50617973087918
68.6199,-462.42811435934516
70.8815,-805.1053300791286
73.1426,-1068.282795899273
75.4032,-1105.3974378265748
77.6634,-575.0255097227009
79.9231,1314.0677774710848
82.1824,6194.972957318358
84.4412,16188.380550242018
86.6995,33740.63101471525
88.9574,46167.914647327394
91.2148,52675.521407261534
93.4717,53881.090792021576
95.7282,54117.06177235622
97.9842,53972.72278020325
100.2398,53459.21170632987
102.4949,52968.66590177601
104.7495,52478.17218298952
107.0036,51825.81683673159
109.2573,51586.83562498169
111.5105,50836.61379146113
113.7632,50418.38606402285
116.0154,50058.18666215369
118.2672,49804.79930115662
120.5185,49325.95719575273
122.7693,48875.093062615146
125.0197,48049.289125157404
127.2696,48337.377118042124
129.519,47746.188295439024
131.7679,47602.853428144066
134.0163,46485.90280949134
136.2642,46324.91625678639
138.5117,46317.223122475756
140.7587,45714.902295756816
143.0052,45267.68220265473
145.2512,44461.74081204561
147.4967,44565.50564012877
149.7417,43985.25375848613
151.9863,43549.16179304453
154.2304,42897.655929878296
156.4739,42645.561919570144
158.717,42566.60508372622
160.9596,41902.41031749707
163.2017,41096.552090367186
165.4433,41081.10445279694
167.6844,40408.49104428121
169.925,40211.13509350386
172.1651,39489.80942506378
174.4047,39228.636461448594
176.6439,38706.48823024776
178.8825,38149.08636676443
181.1206,38181.852119236835
183.3582,37692.90635441237
185.5954,37100.96955721991
187.832,36734.81183565926
190.0681,36017.45292672055
192.3037,36206.51220004582
194.5388,36291.008665102614
196.7734,34670.76096929333
199.0075,35507.6373971103
201.2411,34727.505886338266
203.4742,34966.78401968561
205.7068,34502.039032585686
207.9389,34100.83781080399
210.1704,33703.59689508565
212.4015,33733.232485167435
214.632,32931.41044375018
216.862,33095.59629620237
219.0915,32554.705238578408
221.3205,32164.752135976774
223.549,32219.651527948863
225.777,31870.817632398554
228.0044,31760.764345033247
230.2314,31330.455242852164
232.4578,31061.003585246894
234.6837,30838.372318304493
236.909,31075.774077502003
239.1339,29850.12118993276
241.3582,29893.52567193239
243.582,29540.49924133531
245.8053,29136.003317040686
248.0281,28845.54902254269
250.2503,28626.04718997548
252.472,27984.9083630177
254.6932,27897.14279908757
256.9139,27444.460475754233
259.134,27670.871091615423
261.3536,26742.684070824274
263.5727,26835.60856082521
265.7912,26337.803441635857
268.0092,26130.227324917767
270.2267,25872.088558954456
272.4436,25268.295230727177
274.6601,25258.805168496314
276.8759,25060.575947839323
279.0913,24605.914891745597
281.3061,24367.679072598803
283.5204,24090.57531672348
285.7341,23772.910206767367
287.9473,23762.640084472492
290.16,23262.72105385179
292.3721,23171.858981291793
294.5837,22736.259500551874
296.7947,22352.578013672828
299.0052,22477.169695332872
301.2152,21975.039496684505
303.4246,21870.592144108537
305.6334,21534.232144235386
307.8418,20902.6637849896
310.0495,20609.941138953473
312.2568,20272.518069682657
314.4635,19962.29823463341
316.6696,19825.535088536853
318.8752,19692.83188650111
321.0802,18852.091685378982
323.2847,18877.217345094978
325.4887,18590.261537052706
327.692,18210.726743883635
329.8949,18110.415262316637
332.0972,17715.979206973323
334.2989,17527.270511371156
336.5001,17448.690931867837
338.7007,16685.34204954835
340.9008,16716.77527101079
343.1003,16493.591835999876
345.2992,16402.59281709259
347.4976,15912.079121930015
349.6955,15773.501494127355
351.8927,15350.510518179028
354.0895,15396.15662084445
356.2856,15159.440075377992
358.4812,15131.411001072454
360.6763,14503.269365626293
362.8707,14613.114985423854
365.0646,14213.947531816826
367.258,14049.766530025758
369.4508,13605.571363131749
371.643,13788.311273718253
373.8346,13379.635368313051
376.0257,13200.492615560775
378.2162,12915.681850309746
380.4062,12367.601775403375
382.5956,12497.150964528271
384.7844,12236.977867695095
386.9726,12151.13080994298
389.1603,11942.707993941316
391.3474,11410.907500848254
393.5339,11541.027292394865
395.7199,10936.015216203203
397.9052,10822.419004485026
400.09,10764.286280091983
402.2743,10854.564557651545
404.4579,10381.501244148356
406.641,10198.943638021432
408.8235,10242.388933894807
411.0054,10159.934224403121
413.1868,10102.72649975722
415.3675,9892.71264856858
417.5477,9783.389458421429
419.7273,9605.45361797294
421.9064,9361.851718046397
424.0848,9274.080253410575
426.2627,9261.33562521574
428.4399,8697.31414187135
430.6166,8149.562019173522
432.7928,8371.425385945251
434.9683,7846.450289513959
437.1432,7616.882693492822
439.3176,7736.468483030549
441.4914,7054.20346710708
443.6645,6969.933377337664
445.8371,6905.00387479557
448.0091,6497.9605508547465
450.1806,6227.4489278391775
452.3514,6179.014463093285
454.5216,5745.002551687008
456.6913,5934.958526900162
458.8603,5925.477664562568
461.0288,5378.6551811544705
463.1967,5621.63623390135
465.3639,5506.615926242164
467.5306,4666.989305399518
469.6967,5066.551363529885
471.8622,5234.547046119849
474.0271,4852.171247990511
476.1914,4829.168811617528
478.3551,4747.334530954875
480.5182,5072.363151664882
482.6807,4404.349371936536
484.8426,4422.937839235252
487.0039,4876.523156982956
489.1647,4848.099884372226
491.3248,4260.112531830418
493.4843,4829.155561303909
495.6432,4733.973392137981
497.8015,4019.1603953864105
499.9592,4305.61089476326
502.1163,4152.369173790998
504.2728,3952.9794729360146
506.4287,3806.2859911409905
508.5839,3342.082887818862
510.7386,3435.5142843196663
512.8927,3415.074268572629
515.0461,3221.4568941518664
517.199,3408.406180480786
519.3512,3015.8661147683015
521.5029,2983.930650139271
523.6539,2999.4437095599424
525.8043,2532.3491861572547
527.9541,2871.990943063778
530.1033,2749.762818088595
532.2519,2493.5086203209066
534.3999,2791.9221313523303
536.5472,2994.24710783943
538.694,2462.6772785195426
540.8401,2864.9563421876082
542.9856,2925.927973011807
545.1305,3102.4858165107944
547.2748,2628.3234889439336
549.4185,2506.884575545737
551.5615,2752.9126352675084
553.704,2550.2512019916758
555.8458,2262.893782071631
557.987,2335.6338563582176
560.1276,2443.3148830733917
562.2675,2301.3302970827863
564.4069,2416.423508818909
566.5456,2607.6879057009646
568.6837,2107.8168509839743
570.8212,2207.8036818461187
572.958,1463.1917143874161
575.0942,1876.4742426298908
577.2299,1453.844545963715
579.3648,1342.6458850143463
581.4992,1261.1215058687958
583.6329,1262.7146411876602
585.766,1288.7185110203645
587.8985,1429.3263227891948
590.0304,765.5812710292739
592.1616,1288.826535982509
594.2922,943.8976497338735
596.4222,523.0301314800963
598.5515,561.3594909789972
600.6802,806.5660129172829
602.8083,200.62437400034833
604.9358,211.45924286795344
607.0626,584.0432839223649
609.1888,-15.15295091207372
611.3144,384.8910844486163
613.4393,97.64608746630984
615.5636,-158.67108945905056
617.6873,188.7054305880447
619.8103,-210.4568903527179
621.9327,147.30752459104406
624.0544,156.06635475602525
626.1756,-58.81419212327455
628.2961,-52.219467415277904
630.4159,-325.53423493463924
632.5351,-372.2427368235949
634.6537,279.8240368626284
636.7716,-382.4611852263042
638.8889,-156.47567723893007
641.0056,-213.192892536601
643.1216,-76.78472128864087
645.237,137.4790761324839
647.3518,-236.72125987778418
649.4659,-102.00549029880494
651.5793,-50.44101126453461
653.6922,33.05478211114678
655.8043,-372.7355047812016
657.9159,309.92073311846616
660.0268,-788.3401755021623
662.137,-238.68190505455277
664.2466,-88.71025443181861
666.3556,-269.23102014030155
668.4639,-110.89999779918435
670.5716,-238.77298033537227
672.6786,-26.005759566745837
674.785,-372.5541249234011
676.8907,-241.7238655754045
678.9958,-59.72076696721342
681.1002,38.04938787397259
683.204,-293.01918348182517
685.3072,-403.2322638450132
687.4097,-296.895633095839
689.5115,-280.4150670821691
691.6127,-68.64633868289093
693.7132,-331.94521797273774
695.8131,-194.31747433993587
697.9123,-89.71887385325681
700.0109,-0.6551806382703944
702.1089,-401.2321579233321
704.2061,-204.25556893021712
706.3028,-90.4811728683344
708.3987,-8.664726904527924
710.4941,-133.56198730078904
712.5887,144.17128976752429
714.6827,222.62934946070163
716.7761,474.95643549734814
718.8688,612.3967893698209
720.9608,505.8446478209298
723.0522,656.9442414695804
725.1429,411.78979587621143
727.233,978.5755300318924
729.3224,163.795658809795
731.4112,383.84438729739486
733.4993,379.765918944242
735.5867,278.70445336146076
737.6735,187.95418636254908
739.7596,22.659310973991523
741.845,29.114018342770578
743.9298,248.9124993893056
746.014,126.64894474288303
748.0974,0.36754254364495864
750.1802,275.212479665337
752.2624,-172.97205702196516
754.3439,-24.691883400235383
756.4247,134.09718637829064
758.5048,77.88933840830578
760.5843,228.0287574435788
762.6631,401.9096274590047
764.7413,535.3761301491759
766.8188,875.1724431896146
768.8956,1110.1427389021337
770.9718,1247.231180856841
773.0473,1184.1319215224648
775.1221,946.139100895416
777.1962,818.8968471308617
779.2697,585.7992789225755
781.3426,777.2405067754007
783.4147,941.664635336223
785.4862,1027.0157614795753
787.557,923.0379726633837
789.6271,981.5753460754277
791.6966,699.8219496731472
793.7654,296.57184159829194
795.8335,233.26907299437153
797.901,264.5576920392341
799.9678,189.8817445780296
802.0339,130.53527381038293
804.0993,202.462321037121
806.1641,138.05692625369556
808.2282,70.91312743101298
810.2916,108.17496115937683
812.3544,287.43646332000935
814.4164,18.091668712389946
816.4778,191.68460926161788
818.5385,185.75931671196304
820.5986,243.10982089087338
822.658,469.08014976822597
824.7166,593.2143288828302
826.7747,596.2063790827233
828.832,882.3003152838501
830.8886,1042.7901464400784
832.9446,1160.8698726823204
834.9999,789.2334837136223
837.0545,994.0749576283633
839.1085,1074.9882646285769
841.1618,1006.467364975586
843.2143,817.2062081808326
845.2662,737.6987336911625
847.3175,849.6388727814119
849.368,618.4205493494374
851.4179,746.9876787967514
853.467,615.1841703406317
855.5155,700.1039257285447
857.5633,581.5908405561277
859.6105,512.5388034180069
861.6569,624.8916970929349
863.7027,474.1433992343009
865.7478,609.3877812465871
867.7922,593.4187097929098
869.8359,724.0800454425262
871.8789,687.0156428305127
873.9212,862.6193493511819
875.9629,976.3350055287156
878.0039,1125.4064432611049
880.0441,1170.777484683058
882.0837,1262.541940675219
884.1226,1252.5936104104476
886.1609,1264.8762804362195
888.1984,1252.983724774087
890.2352,1520.2597047968593
892.2714,1323.2979693475281
894.3069,1458.34225206649
896.3416,1332.3362733611793
898.3757,1398.023739055643
900.4091,1261.6483416505653
902.4418,1420.9037596663911
904.4739,1368.3836590071223
906.5052,1508.2816913677234
908.5358,1400.4914947593352
910.5658,1301.2066921103033
912.595,1249.9208923440528
914.6236,1027.6276913719557
916.6515,1396.9706726061704
918.6786,1000.29340918261
920.7051,1240.239460267505
922.7309,1300.4023750241831
924.756,1369.0756902135909
926.7804,1389.2529295926797
928.8041,1042.227603227686
930.8272,1318.4932072923402
932.8495,1308.2932275381027
934.8711,1161.1211365315175
936.892,1009.5703937562066
938.9123,1070.2344470845346
940.9318,968.9567342932423
942.9506,961.6806824567102
944.9688,959.2997089598066
946.9862,741.6572215706037
949.003,723.2966184641627
951.019,470.0112903990521
953.0344,601.3946209008573
955.0491,621.0899887950873
957.063,826.7907668932748
959.0763,1018.7403217961182
961.0888,900.2320118364296
963.1007,1101.0091851596444
965.1119,1173.0651809089031
967.1223,1125.893327217258
969.1321,1294.4369404871686
971.1412,1228.2393258621523
973.1495,1127.093775541376
975.1572,1228.4935694416126
977.1641,1302.5819762087121
979.1704,1267.4022522036248
981.1759,1292.9476407615148
983.1808,1301.1113725435425
985.1849,1393.286665281441
987.1884,1509.2667236958296
989.1911,1644.3947385744978
991.1932,1555.563885612566
993.1945,1596.8173240612086
995.1951,1545.7481976159906
997.1951,1516.29963400431
999.1943,1434.3647454961028
1001.1928,1366.1366291982704
1003.1906,1462.5583678741168
1005.1877,1415.2730306255908
1007.1841,1317.7736719290915
1009.1798,1310.803332108313
1011.1748,1238.5550383092486
1013.1691,1072.0718045698668
1015.1627,776.6966325425674
1017.1556,661.5225131590851
1019.1477,669.1424295842007
1021.1392,461.7493583675023
1023.1299,367.1862693671137
1025.12,378.8461278237228
1027.1093,280.1218953061325
1029.0979,413.85652959472645
1031.0859,382.99298566865036
1033.0731,299.8242143685202
1035.0596,337.14316270504787
1037.0454,176.04277469072258
1039.0304,110.1659909666123
1041.0148,-79.49424958659802
1042.9985,-113.84500918987032
1044.9814,-42.04334926924639
1046.9636,-141.09519393911614
1048.9452,-188.85646689342684
1050.926,-118.13168228519498
1052.9061,-93.87346759129287
1054.8855,-133.4832701530977
1056.8642,-63.06159951612062
1058.8421,-18.857631728016713
1060.8194,35.28008714887983
1062.7959,-4.046988759189844
1064.7717,102.8125943212217
1066.7469,128.96029020406422
1068.7213,142.04755167518306
1070.695,132.22583023081825
1072.6679,79.0965759467581
1074.6402,135.51123757656023
1076.6117,198.97126308285806
1078.5826,183.07809907315095
1080.5527,140.33319016520545
1082.5221,107.08797914601018
1084.4908,206.09390739927767
1086.4587,303.90241523780423
1088.426,448.1149409134814
1090.3925,378.08291963920783
1092.3584,392.1077821467261
1094.3235,238.44095538696274
1096.2879,251.83386238973617
1098.2515,308.83792380047817
1100.2145,402.05455774627626
1102.1767,469.6351792658752
1104.1382,608.5811993774842
1106.099,765.9440244029538
1108.0591,873.3750545783405
1110.0185,989.4256824802869
1111.9771,1120.5472919516978
1113.9351,939.8412569412249
1115.8923,733.9589401920748
1117.8488,556.7016950490579
1119.8045,298.2708675173999
1121.7596,283.46779803531535
1123.7139,250.8938240583375
1125.6675,226.75028020734317
1127.6204,442.6884985943143
1129.5726,353.25980906372934
1131.524,365.2155370332257
1133.4748,387.5570043878506
1135.4248,223.18552936050037
1137.3741,256.8024263085208
1139.3226,197.6090073573905
1141.2705,246.80658206461158
1143.2176,72.79645801158767
1145.164,152.57994031169073
1147.1097,50.40833335032221
1149.0546,132.28293998710433
1150.9989,118.50506257761299
1152.9424,91.42600215459606
1154.8852,-3.5529414342236123
1156.8272,-5.530469255398202
1158.7686,39.894753118409426
1160.7092,-10.175884636089904
1162.6491,-43.141391390810895
1164.5883,102.29932563941838
1166.5267,98.09779022226576
1168.4644,243.10552510241178
1170.4014,371.22405204359166
1172.3377,621.9048903784897
1174.2732,802.2495557275652
1176.2081,1079.8095574922372
1178.1421,1266.7863970514663
1180.0755,1491.7815649861113
1182.0082,1605.6465392091814
1183.9401,1702.2327827158515
1185.8713,1612.7917424448679
1187.8017,1476.4248483126648
1189.7315,1333.4835141077456
1191.6605,1000.2191388543833
1193.5888,836.3331082420336
1195.5163,793.5267979579658
1197.4432,731.4515753261148
1199.3693,680.2587997351766
1201.2947,612.2998232593563
1203.2193,570.3259911702844
1205.1432,646.2386426166122
1207.0664,580.3891110437617
1208.9889,616.7787234347561
1210.9106,583.7588009687497
1212.8316,558.3806586571482
1214.7519,626.6456056737698
1216.6715,613.7049456086388
1218.5903,694.7099757853321
1220.5084,684.5619873903925
1222.4257,753.1622646632677
1224.3424,669.2620849978048
1226.2583,733.4627182562508
1228.1735,771.5154276082176
1230.0879,803.971468888707
1232.0016,878.7820902176027
1233.9146,956.0485316750746
1235.8269,887.7720245535093
1237.7384,896.5537905847923
1239.6492,724.7950426231255
1241.5592,751.8469845571744
1243.4686,670.710813027672
1245.3772,722.8377171568973
1247.285,709.2288793600346
1249.1922,730.5854748239035
1251.0986,809.0586716430553
1253.0042,761.1496306061927
1254.9092,856.5595044114307
1256.8134,865.7394381454251
1258.7169,1079.7905683292338
1260.6196,1141.3140228265474
1262.5216,1367.0109187031485
1264.4229,1462.8323616116977
1266.3234,1558.5794435347561
1268.2232,1665.6532418265888
1270.1223,1707.2048182556937
1272.0207,1761.2852179340407
1273.9183,1730.2454689015503
1275.8151,1679.7365815853227
1277.7113,1651.5595491100212
1279.6067,1615.4153478029366
1281.5014,1654.904937475796
1283.3953,1702.2792617861778
1285.2885,1854.9392478426198
1287.181,1971.085805730865
1289.0727,2249.6698269873013
1290.9637,2317.392183437445
1292.854,2547.3037244101542
1294.7435,2549.455276060373
1296.6323,2637.047639070028
1298.5204,2680.7815886264907
1300.4077,2763.7078735466894
1302.2943,2765.377215839755
1304.1802,2766.7403098777613
1306.0653,2551.4978223790567
1307.9497,2398.8003923945653
1309.8333,2322.7986334602465
1311.7162,2224.6931351240746
1313.5984,2237.5844637060363
1315.4798,2216.27316327922
1317.3605,2256.909755540877
1319.2405,2323.6947400255413
1321.1197,2272.2785936986547
1322.9982,2145.061770288732
1324.876,2095.844700801488
1326.753,2004.0277947920622
1328.6293,2040.9614408571288
1330.5048,2047.0460075531046
1332.3796,1992.1818430268213
1334.2537,1949.719274954663
1336.127,1956.458611091195
1337.9996,1926.2501396937987
1339.8714,1962.2941294552802
1341.7426,1964.9908298059308
1343.6129,1946.9404705531233
1345.4826,2009.1432618543186
1347.3515,2065.14939439758
1349.2196,2049.4090387795804
1351.087,2085.9723449454978
1352.9537,2142.439442346429
1354.8197,2249.360439573753
1356.6849,2422.0354237944885
1358.5493,2499.1144596820523
1360.4131,2525.8475876895136
1362.276,2577.734823278821
1364.1383,2495.426156653448
1365.9998,2428.1715522395025
1367.8606,2208.6709495088617
1369.7206,1988.3742636516945
1371.5799,1796.9313877714521
1373.4384,1659.3421950878583
1375.2962,1588.556540851343
1377.1533,1363.7242637189265
1379.0096,1108.1951864620823
1380.8652,882.1191182150396
1382.7201,764.6958570300885
1384.5742,548.3251921383526
1386.4275,369.6069051239974
1388.2802,343.64077208794697
1390.132,184.62656543505727
1391.9832,222.16405413379107
1393.8336,121.65300530637978
1395.6832,56.093183853394294
1397.5322,62.23435345889084
1399.3803,99.67627724600607
1401.2278,-42.33128228445639
1403.0745,1.761436371532909
1404.9204,-26.39538239248577
1406.7656,5.798428220266942
1408.6101,3.5432986964333395
1410.4538,-40.76034053533294
1412.2968,37.987905556066835
1414.139,36.08883919751679
1415.9805,123.14326223602984
1417.8213,130.10197615775905
1419.6613,218.46578121743732
1421.5006,365.33547636877483
1423.3391,522.361858380842
1425.1769,687.395720369379
1427.0139,1031.787850226523
1428.8502,1437.98902897046
1430.6858,1796.9000273015117
1432.5206,2047.6716015401362
1434.3547,2219.204490037784
1436.188,2284.149410669219
1438.0206,2304.5570591171454
1439.8524,2146.678108222808
1441.6835,2146.763207781889
1443.5139,2098.812986123299
1445.3435,2024.4780501083296
1447.1724,2028.5089856101513
1449.0005,1998.806358257145
1450.8279,1986.4707133926167
1452.6545,2012.7525763718222
1454.4804,2048.2024526852983
1456.3056,2079.870827696068
1458.13,2069.2581662851553
1459.9536,1957.864912534871
1461.7766,1767.0414898349773
1463.5987,1536.9383019965644
1465.4202,1314.405735160326
1467.2409,1083.4941600975726
1469.0608,958.4539344355544
1470.88,805.6854049666108
1472.6984,632.2889088985394
1474.5161,492.31477538228864
1476.3331,424.21332724592867
1478.1493,364.5848823943925
1479.9648,373.0797544904708
1481.7795,289.79825355111825
1483.5935,268.49068586250723
1485.4067,238.0073548128239
1487.2192,249.09856110536566
1489.031,262.66460306337467
1490.842,237.70577651910207
1492.6522,248.22237467815648
1494.4618,241.76468836911226
1496.2705,231.033005938305
1498.0785,225.62761331446382
1499.8858,236.69879411598959
1501.6924,243.64682970500144
1503.4981,276.4719990766498
1505.3032,250.57457878961213
1507.1075,282.20484263784965
1508.911,246.71306190958785
1510.7138,245.04950507100875
1512.5159,215.96443812118014
1514.3172,246.10812460867237
1516.1178,192.93082592242718
1517.9176,217.73280099030308
1519.7166,172.66430681083875
1521.515,150.47559820527385
1523.3126,190.2669282681818
1525.1094,139.58854858941413
1526.9055,140.9907088561231
1528.7008,151.32365735959684
1530.4954,54.237640981220466
1532.2893,125.73290508914943
1534.0824,64.90969450918055
1535.8747,116.6182528097961
1537.6663,53.358822910362505
1539.4572,63.23164656408335
1541.2473,83.83696499055804
1543.0367,83.07501877709365
1544.8253,76.99604767261917
1546.6132,113.25029059532972
1548.4003,114.53798569347418
1550.1867,137.6093699828125
1551.9723,183.81467933373642
1553.7572,240.65414824055551
1555.5414,304.12800935944324
1557.3247,336.9364929400508
1559.1074,391.07982619075483
1560.8893,519.1582329505763
1562.6705,539.7719331477638
1564.4509,680.2711415189733
1566.2305,726.7560674031483
1568.0094,802.2269133365226
1569.7876,814.6838745877903
1571.565,872.377138403368
1573.3417,860.4068838828571
1575.1176,894.3732814020841
1576.8928,884.9764927328215
1578.6672,877.1166707031116
1580.4409,807.7439592912542
1582.2138,787.7584937043866
1583.986,752.06040107222
1585.7575,750.5998006468835
1587.5282,747.1268041599178
1589.2981,820.5915158368789
1591.0673,777.8440324320527
1592.8358,860.9344424938281
1594.6035,926.3128267921584
1596.3704,912.2292574876556
1598.1366,946.0837974778187
1599.9021,991.9765005378558
1601.6668,1044.2574109821398
1603.4308,1114.776563205287
1605.194,1237.8839811593443
1606.9564,1322.2296776486128
1608.7182,1482.5636530985594
1610.4791,1623.4358947123656
1612.2394,1788.2963748675902
1613.9988,1913.6950497074413
1615.7576,2082.781857492153
1617.5156,2254.8567173450247
1619.2728,2411.2195275615195
1621.0293,2434.1701638885643
1622.785,2431.908477960884
1624.54,2339.4842970715144
1626.2942,2251.6974241944154
1628.0477,1997.9476389087158
1629.8005,1862.634698276568
1631.5525,1704.9083393806577
1633.3037,1553.0682806773439
1635.0542,1510.1142235738898
1636.804,1415.3458539468938
1638.553,1376.6128425718125
1640.3013,1337.3648460706445
1642.0488,1317.201507299269
1643.7955,1344.5224557399288
1645.5416,1400.3273077028498
1647.2868,1489.6656660530443
1649.0313,1533.287119652261
1650.7751,1687.5412424655915
1652.5181,1798.427593125276
1654.2604,1946.29571338815
1656.0019,2091.94512702678
1657.7427,2304.0253383507825
1659.4828,2529.8358307503313
1661.222,2653.8760645753555
1662.9606,2656.9454748774297
1664.6984,2559.393470169358
1666.4354,2316.969432394515
1668.1717,1971.272717902346
1669.9072,1569.452659872606
1671.642,1359.8585717723363
1673.3761,1116.9397513740605
1675.1094,922.2954828517104
1676.8419,734.8250392098307
1678.5737,594.6276842300176
1680.3048,519.6526743456143
1682.0351,460.24926004369445
1683.7646,390.866686614816
1685.4934,380.30419474705377
1687.2215,300.9110212198266
1688.9488,264.0863990095204
1690.6754,211.72955808341794
1692.4012,235.9897257679513
1694.1263,256.7161272722642
1695.8506,212.45798544560603
1697.5742,201.06452057007664
1699.297,189.784950803205
1701.0191,117.86849229186555
1702.7404,114.21435928509891
1704.461,74.17176485327036
1706.1808,45.03992092459339
1707.8999,66.71803868558709
1709.6182,64.75532887236659
1711.3358,70.20100155387627
1713.0527,71.00426615151264
1714.7688,7.164331384657999
1716.4841,4.680405262663044
1718.1987,25.201695723246303
1719.9126,16.72741065732771
1721.6257,10.756757703809853
1723.338,28.888944334335974
1725.0496,6.623177912986648
1726.7605,28.558665514949098
1728.4706,2.0946141491858725
1730.18,-47.31976946092618
1731.8886,5.0647213870543055
1733.5964,-8.702233879943378
1735.3036,25.729044114365024
1737.0099,19.008321681580128
1738.7156,29.935364876024323
1740.4204,-34.59006043806585
1742.1246,-17.01818869579256
1743.8279,-3.348908777565157
1745.5306,12.018060447908283
1747.2325,-7.166966432487243
1748.9336,2.196325047962091
1750.634,-31.191679046047284
1752.3336,-6.380592671768682
1754.0325,18.13028181840673
1755.7307,26.291705814195666
1757.4281,71.20444052403036
1759.1247,73.0692468934194
1760.8206,46.486885155838536
1762.5158,57.00811481407436
1764.2102,62.83369490604673
1765.9039,40.6643838996024
1767.5968,71.50093963425388
1769.289,65.34411954287498
1770.9804,63.7446803433304
1772.6711,99.25337810006022
1774.361,73.6709682400633
1776.0502,116.29820519780333
1777.7386,117.38584267105216
1779.4263,131.33463319459588
1781.1132,136.6953281293827
1782.7994,115.06867752300604
1784.4849,154.6054300561209
1786.1696,120.95633325869312
1787.8535,139.872133114628
1789.5367,119.20357439828877
1791.2192,146.6514004853143
1792.9009,128.96635355931903
1794.5818,146.8991743374081
1796.2621,147.4006022470312
1797.9415,138.7713752466425
1799.6202,136.86222982069557
1801.2982,152.9239010659512
1802.9755,187.85712271055672
1804.6519,190.0126269534412
1806.3277,184.9911441149634
1808.0027,172.24340261535872
1809.6769,197.27012902495153
1811.3504,197.82204819164872
1813.0231,213.79988299064644
1814.6951,235.05435431892693
1816.3664,276.43618093547593
1818.0369,255.5960792487458
1819.7067,277.4347629028234
1821.3757,304.85294298584995
1823.044,251.30132781162138
1824.7115,229.93062264540822
1826.3783,256.34153023948056
1828.0443,268.4847510467953
1829.7096,245.06098295691118
1831.3741,274.07092117453976
1833.0379,279.2652584537882
1834.701,274.2446848080581
1836.3633,305.0598874581083
1838.0248,297.1115508822477
1839.6856,288.50035650819336
1841.3457,303.72698279255565
1843.005,334.7921053069422
1844.6636,339.0463965856943
1846.3214,335.5905258152379
1847.9785,361.0251587915318
1849.6349,367.9509579546411
1851.2904,380.5185821343912
1852.9453,399.97868648108306
1854.5994,353.7319223398463
1856.2528,399.72893705602473
1857.9054,410.62037443765075
1859.5572,408.8068742954638
1861.2083,436.9390723340166
1862.8587,448.5676001697866
1864.5084,443.043085049876
1866.1572,435.41614973570177
1867.8054,441.7874125582657
1869.4528,423.6074874944061
1871.0994,440.0769841031015
1872.7453,455.09650770725057
1874.3905,436.31665922900174
1876.0349,449.2880350395353
1877.6786,466.8612271468719
1879.3215,504.13682306616283
1880.9637,498.9154056439511
1882.6051,498.34755268541267
1884.2458,496.0838370065794
1885.8858,455.52482644000156
1887.525,473.4210838574036
1889.1634,447.2231675752628
1890.8011,457.4816311758441
1892.4381,471.4470237691876
1894.0743,492.61988989052224
1895.7098,507.3007693606087
1897.3446,496.9401970740073
1898.9786,501.0887028522757
1900.6118,510.7968115475651
1902.2443,502.9650430011425
1903.8761,475.6939119463077
1905.5071,460.68392808671524
1907.1374,473.8855963690785
1908.7669,476.84941713328226
1910.3957,491.6758859803522
1912.0237,483.46549374283677
1913.651,455.6187263365173
1915.2776,461.4860648425274
1916.9034,439.76798578581656
1918.5285,409.91496107648527
1920.1528,421.77745822695033
1921.7764,428.2559406504806
1923.3992,423.8508675425728
1925.0213,399.56269381616767
1926.6427,409.7918701457111
1928.2633,392.2388432100179
1929.8832,409.15405558999373
1931.5023,386.98794594415085
1933.1207,390.8409488394609
1934.7383,407.16349497302326
1936.3552,388.0560111335308
1937.9714,409.81892003804205
1939.5868,375.95264052306266
1941.2015,354.60758732691465
1942.8154,340.68417142839826
1944.4286,338.9828002602517
1946.041,326.4538778483675
1947.6528,312.7478048288158
1949.2637,334.71497857313625
1950.8739,297.5057933253938
1952.4834,318.27063998251106
1954.0921,324.109906466354
1955.7001,301.0739775160873
1957.3074,318.2632346297778
1958.9139,302.2780562947628
1960.5197,317.81881781574975
1962.1247,288.3858914746761
1963.729,273.37964637528967
1965.3325,275.950448737487
1966.9353,277.8986620473679
1968.5374,271.37464703152637
1970.1387,255.67876163757774
1971.7393,251.11136109939343
1973.3392,221.8727980940639
1974.9383,233.1134227875682
1976.5366,181.98358312715845
1978.1342,230.88362472895642
1979.7311,223.56389138924897
1981.3273,229.92472459549026
1982.9227,226.51646359949427
1984.5173,214.5394453538338
1986.1112,223.54400454592178
1987.7044,204.23047371777375
1989.2968,186.0991831759693
1990.8885,203.60046118479022
1992.4795,221.6846341475275
1994.0697,201.15202643146858
1995.6592,203.55296018706485
1997.2479,199.08775555324792
1998.8359,224.45673063342383
2000.4232,197.81020154012276
2002.0097,189.54848214131653
2003.5955,160.92188432687453
2005.1805,187.4807180911912
2006.7648,196.52529181944465
2008.3484,187.3559120220134
2009.9312,230.52288324402616
2011.5133,219.776508157056
2013.0946,212.46708712744567
2014.6752,226.69491832377753
2016.2551,212.51029778996326
2017.8342,201.41351930296696
2019.4126,187.95487451465306
2020.9902,147.83465306275139
2022.5672,176.50314270544732
2024.1433,168.6606297225817
2025.7188,170.8073986289637
2027.2935,180.99373225280215
2028.8674,181.9199117142316
2030.4406,182.93621632345548
2032.0131,182.54292357148006
2033.5849,144.69030911995105
2035.1559,170.0786468050901
2036.7261,133.1582090162201
2038.2957,161.479266441881
2039.8645,172.34208843903616
2041.4325,206.34694274985668
2042.9998,184.694095393098
2044.5664,195.28381032405014
2046.1323,170.26634965106405
2047.6974,147.19197352965693
2049.2617,166.3109404126908
2050.8254,158.1235072811005
2052.3883,187.57992945271326
2053.9504,172.9804606641228
2055.5118,175.07535277612442
2057.0725,180.0148559197114
2058.6325,172.79921847512287
2060.1917,179.17868702245414
2061.7502,154.7535064138192
2063.3079,171.12391970954195
2064.8649,173.14016842242654
2066.4212,170.80249235403699
2067.9767,154.36112957453588
2069.5315,155.46631644606987
2071.0856,144.66828778717263
2072.6389,120.71727686171926
2074.1915,140.66351548690636
2075.7433,92.60723427276025
2077.2945,106.4486624226738
2078.8448,118.08802821397603
2080.3945,102.32555885951024
2081.9434,141.8114803912449
2083.4916,144.09601781789752
2085.039,129.67939473007027
2086.5857,144.06183327740928
2088.1317,138.04355431276963
2089.677,127.974777248397
2091.2215,121.75572011609893
2092.7652,119.58659966794039
2094.3083,133.71763143843327
2095.8506,129.29902976622816
2097.3921,152.2310076527965
2098.933,145.56377680662354
2100.4731,155.49754741389097
2102.0124,172.23252820513972
2103.5511,162.2189263559385
2105.089,174.7569473195299
2106.6261,167.19679492696923
2108.1626,170.738671261749
2109.6983,153.03277673539014
2111.2332,166.02931005203027
2112.7675,159.22846838547594
2114.301,146.73044724924966
2115.8337,171.48544056459195
2117.3657,182.99364078543658
2118.897,176.60523865086543
2120.4276,183.57042307002575
2121.9575,151.38938118601254
2123.4866,185.61229830621778
2125.0149,170.83935822414242
2126.5426,145.62074287716405
2128.0695,163.4566324942689
2129.5956,158.5472058482428
2131.1211,176.39264007730253
2132.6458,172.44311073419794
2134.1698,176.24879160775617
2135.693,180.90985476237802
2137.2155,174.17647049997686
2138.7373,186.79880731337562
2140.2584,166.27703195362574
2141.7787,170.46130930380605
2143.2983,171.35180258422042
2144.8171,138.84867331057012
2146.3353,169.60208128503928
2147.8527,154.46218492132994
2149.3693,168.57914093712225
2150.8853,163.90310450547622
2152.4005,134.7342291136647
2153.9149,154.02266660993246
2155.4287,123.21856749518338
2156.9417,179.17208073009988
2158.454,160.2833540431775
2159.9655,138.1525333711952
2161.4764,170.57976304809836
2162.9865,151.06518602630786
2164.4958,150.20894355244945
2166.0045,138.06117536249803
2167.5124,151.17201969034613
2169.0195,157.9916133892766
2170.526,179.4200918008528
2172.0317,169.25758868672347
2173.5367,171.20423601434413
2175.0409,187.66016405859136
2176.5445,178.12550138229653
2178.0473,152.3503746716906
2179.5494,166.78490883175527
2181.0507,148.72922724397267
2182.5513,148.88345162197948
2184.0512,156.39770219212278
2185.5504,157.3220976919165
2187.0488,146.7067552949011
2188.5465,142.9017906013978
2190.0435,148.00731774466203
2191.5397,150.12344942893833
2193.0353,156.4502968784018
2194.5301,128.43796981599644
2196.0241,134.33657640016008
2197.5175,141.04622350495538
2199.0101,140.46701666107583
2200.502,112.89905998875747
2201.9931,112.19245620356742
2203.4835,118.44730689208336
2204.9733,118.46371251896107
2206.4622,98.5417723643859
2207.9505,121.4315845239089
2209.438,76.48324610766213
2210.9248,78.24685301146656
2212.4109,98.17250036631322
2213.8962,96.4102825207292
2215.3809,98.310292841521
2216.8648,96.27262373139001
2218.3479,85.99736660993858
2219.8304,101.08461193404491
2221.3121,96.13444930062087
2222.7931,88.0969672957317
2224.2733,76.22225354410239
2225.7529,76.26039478948951
2227.2317,71.36147701343089
2228.7098,65.87558543486284
2230.1872,75.20280455910961
2231.6638,95.69321823273458
2233.1397,79.64690955027618
2234.6149,84.56396064934506
2236.0894,73.29445287108047
2237.5632,64.338466710984
2239.0362,63.846081931616936
2240.5085,57.417377652157484
2241.9801,57.10243235332473
2243.4509,70.20132394166376
2244.921,62.51412975270068
2246.3904,64.89092641994648
2247.8591,57.931789951781866
2249.3271,73.38679570767636
2250.7943,44.95601846778209
2252.2608,47.18953227838938
2253.7266,50.287410736226775
2255.1917,38.79972696612822
2256.656,33.37655359005112
2258.1197,46.417962841960616
2259.5826,53.17402662205495
2261.0447,63.14481636635719
2262.5062,63.93040297914922
2263.9669,55.48085673327387
2265.4269,68.8962472622643
2266.8862,50.376643644854084
2268.3448,71.12211427081093
2269.8026,77.98272702614486
2271.2598,66.20854908563979
2272.7162,64.89964684426013
2274.1719,59.15608603488636
2275.6268,70.87793174140825
2277.0811,82.41524845615095
2278.5346,66.11809996266857
2279.9874,78.9365492203624
2281.4395,89.62065852745218
2282.8908,71.67048939279812
2284.3414,82.63610242905361
2285.7914,62.76755753216912
2287.2406,54.61491377173752
2288.689,82.2782295896759
2290.1368,66.60756288175344
2291.5838,69.70297072095673
2293.0302,68.51450951419974
2294.4758,75.59223497137009
2295.9206,62.68620211720736
2297.3648,71.34646522053572
2298.8082,72.32307792331176
2300.251,68.31609315403239
2301.693,75.12556311796743
2303.1343,88.75153933722868
2304.5748,88.39407258267693
2306.0147,75.75321273765894
2307.4538,89.92900880158368
2308.8922,75.0215090163274
2310.3299,80.53076072448039
2311.7669,71.45681051841802
2313.2031,90.24970418521025
2314.6387,64.75948679735438
2316.0735,87.18620252485107
2317.5076,62.52989489010952
2318.941,85.64060654367859
2320.3737,78.46837951080852
2321.8056,66.6132549603467
2323.2369,75.47527327645867
2324.6674,72.15447417718178
2326.0972,65.35089662580322
2327.5263,72.91457886406806
2328.9547,64.14555848021791
2330.3823,64.74387233334892
2331.8092,86.60955664110361
2333.2355,65.04264697368671
2334.661,81.64317803520771
2336.0858,71.16118387934694
2337.5098,83.04669774335298
2338.9332,98.89975215286177
2340.3558,85.12037880304479
2341.7778,94.7086084000789
2343.199,52.7644707989366
2344.6195,69.0379949075068
2346.0393,77.52920910603143
2347.4583,83.73814108437091
2348.8767,94.5648177570938
2350.2943,89.70926520139301
2351.7113,95.17150854881402
2353.1275,106.40157203381523
2354.543,73.2994789391405
2355.9578,88.16525148351548
2357.3718,88.39891115267437
2358.7852,79.60047855069388
2360.1978,68.56997339766531
2361.6098,86.90741461767902
2363.021,87.16282044912259
2364.4315,79.98620826131264
2365.8413,79.42759455193391
2367.2504,68.98699501881492
2368.6587,79.46442456551404
2370.0664,82.65989740571695
2371.4733,73.52342695846619
2372.8795,76.20502581620758
2374.285,59.80470583615488
2375.6899,46.97247811347461
2377.0939,45.458353145288584
2378.4973,57.01234095899372
2379.9,61.28445112741065
2381.3019,50.32469265323607
2382.7032,62.533073926326324
2384.1037,74.25960283328959
2385.5035,61.104286635405515
2386.9027,45.56713185135959
2388.3011,49.098144388797664
2389.6987,57.99732969969182
2391.0957,49.66469274503197
2392.492,48.10023790582818
2393.8876,38.553969066449554
2395.2824,61.025889630269376
2396.6765,28.566002615122216
2398.07,33.37431042858725
2399.4627,49.10081519258301
2400.8547,40.59551869528923
2402.246,48.20842223387717
2403.6366,36.98952669956316
2405.0265,38.338832501478464
2406.4156,28.356339678859513
2407.8041,16.192047887555418
2409.1918,24.14595649985222
2410.5789,9.468064726115244
2411.9652,29.80837153524908
2413.3508,4.9668758014763625
2414.7358,17.643576100922473
2416.12,22.138470960045197
2417.5035,26.30155872886735
2418.8863,14.782837536030002
2420.2684,26.282305247156273
2421.6497,1.1499595800451061
2423.0304,2.685797989671755
2424.4104,-5.26018208048572
2425.7896,8.36201678619409
2427.1682,1.7524445555486636
2428.546,-0.43884889020228
2429.9232,12.988186313640199
2431.2996,23.733604415871923
2432.6753,24.547459535407597
2434.0503,13.379805553828646
2435.4246,12.730696107240874
2436.7982,7.000184697957593
2438.1711,5.738324700983412
2439.5433,16.795169421324317
2440.9148,8.520772106604454
2442.2856,15.76518583649613
2443.6557,21.82846360546455
2445.025,19.91065825032456
2446.3937,15.961822389610006
2447.7617,13.432008442746792
2449.1289,21.32126866954377
2450.4955,25.37965519549107
2451.8613,12.007219932868338
2453.2265,12.154014540157277
2454.5909,18.22009055576882
2455.9546,19.605499396573578
2457.3177,31.460292297243086
2458.68,12.484520296396568
2460.0416,36.47823411804893
2461.4025,32.34148436137275
2462.7627,34.774321260759734
2464.1222,37.526794727189554
2465.4811,32.298954323900034
2466.8392,31.59084923886212
2468.1966,52.252528337058266
2469.5533,38.43404016756449
2470.9093,46.18543275693264
2472.2645,35.65675374737475
2473.6191,57.4480503192508
2474.973,40.70936929635491
2476.3262,35.54075692800325
2477.6787,35.942259056420426
2479.0305,35.76392116842362
2480.3816,30.15578839140926
2481.7319,42.36790549513398
2483.0816,40.50031694779955
2484.4306,18.703066793930702
2485.7789,22.326198673050385
2487.1264,21.419756037651496
2488.4733,20.883782116967723
2489.8195,18.618319926037202
2491.165,22.773412271060806
2492.5097,20.24910177205902
2493.8538,23.645430821319223
2495.1972,14.162441608641075
2496.5398,16.40017608737162
2497.8818,23.858676069236026
2499.2231,15.687983201960378
2500.5637,16.98813889468329
2501.9035,13.209184399664991
2503.2427,12.85116079928548
2504.5812,14.964109043834469
2505.919,5.99806995508925
2507.256,33.8030842051885
2508.5924,16.529192406292168
2509.9281,8.47643483253205
2511.2631,22.09485159274891
2512.5974,16.784482711020246
2513.9309,19.89536799047619
2515.2638,3.8775470664013483
2516.596,29.43105937512928
2517.9275,28.505944314216322
2519.2583,16.2022409869096
2520.5884,18.919988211394866
2521.9178,33.909224643838115
2523.2465,9.569988751205528
2524.5745,8.002318661373465
2525.9018,13.706252406519525
2527.2284,9.18182793880078
2528.5543,16.179083073311176
2529.8796,13.298055533327897
2531.2041,25.288782880339113
2532.5279,21.5013025428525
2533.851,31.335651696490004
2535.1735,31.241867301858747
2536.4952,27.769986006212093
2537.8163,28.42004414438543
2539.1366,31.292077773514393
2540.4562,35.58612266653563
2541.7752,33.25221428346504
2543.0935,35.09038772845952
2544.411,46.2006777731558
2545.7279,51.6331188382901
2547.0441,42.1877448825926
2548.3596,50.76458934846369
2549.6744,55.91368525642656
2550.9885,43.68506511935993
2552.3019,60.92876089100855
2553.6146,55.24480408826594
2554.9266,55.7832256187412
2556.2379,48.79405583759717
2557.5485,49.47732454216339
2558.8585,57.8830610418313
2560.1677,62.06129415122132
2561.4762,66.6620521061227
2562.7841,78.53536252171489
2564.0913,68.9312523465569
2565.3977,71.84974774385591
2566.7035,63.69087418750678
2568.0086,69.90465643290736
2569.313,78.54111859854902
2570.6167,74.65028410387595
2571.9197,76.53217558292272
2573.222,91.73681492322339
2574.5236,83.21422324699142
2575.8246,79.16442075907298
2577.1248,83.1874268321726
2578.4244,78.48326004735236
2579.7232,95.35193815380171
2581.0214,92.04347811587786
2582.3189,109.65789594442026
2583.6157,104.74520672983317
2584.9118,98.45542446594663
2586.2072,110.5885620991371
2587.5019,110.24463159122911
2588.7959,104.92364379816217
2590.0893,105.32560847342916
2591.3819,106.95053432128816
2592.6739,115.74842899274017
2593.9652,104.31929906928303
2595.2557,111.31314997492996
2596.5456,112.7299860905016
2597.8348,108.06981068368964
2599.1234,107.68262589488586
2600.4112,115.31843278378574
2601.6983,117.57723133326022
2602.9848,103.1590203729977
2604.2705,106.61379755691496
2605.5556,115.19155950733989
2606.84,108.8923017804641
2608.1237,98.66601878056258
2609.4067,107.26270382298867
2610.689,97.08234923643704
2611.9707,102.6249462769747
2613.2516,93.69048522984576
2614.5319,97.07895535404623
2615.8115,85.59034497166749
2617.0903,86.07464143401353
2618.3685,86.68183123648623
2619.6461,91.76190001374107
2620.9229,92.86483253361644
2622.199,103.29061264633128
2623.4745,108.53922327345799
2624.7493,97.86064630366354
2626.0234,99.4548625402224
2627.2968,101.32185180780357
2628.5695,98.91159293652868
2629.8415,99.27406374330349
2631.1128,114.85924105591744
2632.3835,96.06710070942108
2633.6535,95.19761739027331
2634.9228,100.0007648242622
2636.1914,88.27651578520181
2637.4593,79.97484204689954
2638.7265,94.44571450039848
2639.9931,90.68910323699356
2641.259,97.15497740352339
2642.5242,91.79330523993531
2643.7887,91.50405401462854
2645.0525,94.38719007807026
2646.3156,96.79267886568914
2647.5781,94.52048486904141
2648.8398,92.37057161175744
2650.1009,75.59290167226345
2651.3613,85.88743670528038
2652.6211,96.15413760960155
2653.8801,94.04296442514669
2655.1385,88.10387623029374
2656.3961,96.53683116299408
2657.6531,101.94178648016077
2658.9094,90.46869847334028
2660.1651,91.81752241466211
2661.42,110.93821267156795
2662.6743,107.13072269332429
2663.9279,104.89500481981668
2665.1808,100.58101031962292
2666.433,115.58868941237142
2667.6846,105.01799131188068
2668.9354,102.26886407608276
2670.1856,107.84125471273
2671.4351,124.53510920688632
2672.6839,111.05037246520396
2673.9321,111.13698814898385
2675.1795,111.94489880902461
2676.4263,117.42404588475688
2677.6724,117.97436969616251
2678.9179,115.44580938898298
2680.1626,124.5883029292172
2681.4067,123.45178712840698
2682.6501,122.7861975522103
2683.8928,115.7914685317703
2685.1348,122.76753317036787
2686.3761,107.81432341337063
2687.6168,111.481769978471
2688.8568,107.71980250522029
2690.0961,116.37834951835066
2691.3348,102.75733846539856
2692.5727,116.40669563011738
2693.81,113.67634626869221
2695.0466,108.16621447323837
2696.2826,108.87622319910906
2697.5178,104.85629431999541
2698.7524,101.05634862082798
2699.9863,116.02630583797463
2701.2195,107.66608469724179
2702.452,113.97560276417312
2703.6839,106.85477652765235
2704.9151,105.35352133680749
2706.1456,110.87175147221888
2707.3755,123.759380160933
2708.6046,128.76631952127832
2709.8331,118.79248043399002
2711.0609,127.687772492141
2712.2881,135.1521041008798
2713.5145,134.53538238847614
2714.7403,146.88751313167904
2715.9654,155.30840076188474
2717.1899,154.99794824161518
2718.4136,169.05605698030877
2719.6367,170.2326268374254
2720.8591,171.17755598186477
2722.0809,176.99074088020188
2723.3019,189.92207628723577
2724.5223,191.0214551878596
2725.7421,191.1387686677449
2726.9611,194.2239059023516
2728.1795,197.42675415575172
2729.3972,193.14719874977823
2730.6142,165.68512303199714
2731.8306,157.1404084185035
2733.0462,159.31293466854186
2734.2612,157.0025799699531
2735.4756,139.1592209174487
2736.6892,121.98273253571597
2737.9022,108.22298845784985
2739.1145,96.1298610971196
2740.3262,100.35322178456386
2741.5372,80.7429408899236
2742.7475,83.99888777940623
2743.9571,81.02093101179184
2745.1661,72.70893830587124
2746.3744,56.01277657022683
2747.582,49.38231198635276
2748.7889,45.26741017561426
2749.9952,50.86793626555482
2751.2008,42.333754931045405
2752.4057,42.164730338277195
2753.61,26.910726230105638
2754.8136,27.221605927738892
2756.0165,33.94723248327841
2757.2188,15.187468676608887
2758.4204,27.592176948144015
2759.6213,29.811219586423476
2760.8215,31.24445860406513
2762.0211,23.791755715576755
2763.22,22.70297232302096
2764.4182,14.927969590544308
2765.6158,20.166608455263486
2766.8127,9.818749705015989
2768.009,8.53425392597319
2769.2045,11.76298160611941
2770.3994,15.254793148096041
2771.5936,-1.6404511630853449
2772.7872,-3.0728911949599933
2773.9801,-1.2926504269578345
2775.1723,2.4501783596747373
2776.3639,-4.744484702732279
2777.5548,-12.97671950634981
2778.745,-6.9965585459472095
2779.9346,-6.003904678867457
2781.1235,-8.49859086683341
2782.3117,-0.8303900925611742
2783.4992,-18.048990437844623
2784.6861,-19.35407168888173
2785.8723,-10.445133322456286
2787.0579,-1.1214814681763983
2788.2428,-5.7823179087686185
2789.427,-2.826833223360154
2790.6106,5.445839774276237
2791.7935,0.18659651043049053
2792.9757,9.596332356935363
2794.1573,14.625942683756648
2795.3382,21.976322764896622
2796.5184,13.348367728099902
2797.698,34.6929724813474
2798.8769,39.26103179913889
2800.0551,48.75344010904382
2801.2327,55.77109144602332
2802.4096,63.91487935750388
2803.5859,71.08569683320115
2804.7615,73.53443622368286
2805.9364,102.21198916865887
2807.1106,121.96924657249474
2808.2842,133.6570983174356
2809.4572,136.376433066034
2810.6294,171.17813814427177
2811.801,184.31309951436538
2812.972,226.63220142675095
2814.1423,250.68632628873434
2815.3119,264.92635424129935
2816.4808,299.85316291856657
2817.6491,341.56762730539435
2818.8167,367.6706193881089
2819.9837,399.1130077373607
2821.15,422.84565724709387
2822.3157,463.3194288201221
2823.4807,501.38517913080204
2824.645,533.7937602202987
2825.8086,562.9960191159225
2826.9716,596.3927975070469
2828.134,633.3349314530849
2829.2957,645.7732510495225
2830.4567,673.2085800584964
2831.617,691.8917357844111
2832.7767,696.4735287995861
2833.9358,704.8547627574239
2835.0941,695.786234346592
2836.2519,688.3687332072107
2837.4089,668.7530420215378
2838.5653,671.4399365881457
2839.7211,653.1801860180765
2840.8761,646.5245527079744
2842.0306,658.1237925226819
2843.1843,685.878654861797
2844.3374,712.9898825436808
2845.4899,755.8082115279078
2846.6417,785.5843706441549
2847.7928,827.6690811640171
2848.9433,877.8630565032468
2850.0931,923.0170018009062
2851.2422,971.4316134174271
2852.3907,1009.0075784830728
2853.5385,1042.5955744137902
2854.6857,1077.3462685354516
2855.8323,1118.460317747974
2856.9781,1143.488368177812
2858.1233,1181.131054766818
2859.2679,1210.3890010219607
2860.4118,1237.5128186388974
2861.555,1262.3531072093967
2862.6976,1299.3604539501002
2863.8395,1317.9354334541188
2864.9808,1335.17860732096
2866.1214,1350.8405239707754
2867.2614,1359.921718471933
2868.4007,1380.2727123843952
2869.5393,1370.9940136689079
2870.6773,1394.0861164834912
2871.8146,1381.6495012762239
2872.9513,1390.5346345543267
2874.0874,1371.6419690085236
2875.2227,1369.5219434241944
2876.3574,1361.6749828703012
2877.4915,1344.9514987205848
2878.6249,1323.0518887320386
2879.7577,1319.7265372121403
2880.8898,1295.4758152378504
2882.0212,1299.050080688863
2883.152,1280.4996784901164
2884.2821,1273.8249405760464
2885.4116,1245.6261860760935
2886.5405,1250.35372138145
2887.6686,1262.7078404270453
2888.7962,1275.0888246442728
2889.923,1270.7469428374472
2891.0493,1281.032451059997
2892.1748,1294.2955926578798
2893.2997,1300.6365981667304
2894.424,1309.7056851792286
2895.5476,1314.3530582816868
2896.6706,1335.1789089633612
2897.7929,1351.4334155699783
2898.9145,1371.3167430954759
2900.0355,1389.4290430194576
2901.1559,1390.3704531083622
2902.2756,1414.3910972343374
2903.3946,1433.8410853658277
2904.513,1454.2705133273664
2905.6308,1475.7794626050772
2906.7479,1497.6180001423802
2907.8643,1501.036178124899
2908.9801,1525.5340337620803
2910.0953,1513.061589253007
2911.2098,1513.8188515414236
2912.3236,1525.9058124404578
2913.4368,1507.322448625051
2914.5494,1487.8187215110866
2915.6613,1461.9445774412234
2916.7725,1454.4499478799344
2917.8831,1447.9847496722466
2918.9931,1425.7988851186888
2920.1024,1401.7422420399425
2921.211,1387.6646939987013
2922.319,1385.3161005402358
2923.4264,1376.0963073331707
2924.5331,1362.0051461929709
2925.6391,1349.5924351741382
2926.7445,1358.757978711124
2927.8493,1347.101567742455
2928.9534,1352.4229796190791
2930.0569,1348.0219782209294
2931.1597,1358.7483139037092
2932.2619,1363.8517235429026
2933.3634,1352.681930426511
2934.4643,1362.688644204019
2935.5645,1367.1215609980918
2936.6641,1331.6303633045102
2937.763,1314.3147199478385
2938.8613,1292.824286436338
2939.959,1269.3087051351235
2941.056,1222.2176054810661
2942.1523,1152.7506042179505
2943.248,1117.057305867386
2944.3431,1046.2373034234772
2945.4375,974.5401787097552
2946.5313,924.2655030873791
2947.6244,859.5128381721061
2948.7169,802.231736337039
2949.8087,729.0717413601533
2950.8999,671.0323889971073
2951.9904,619.0632077128423
2953.0803,581.0637192619761
2954.1696,532.9334392084958
2955.2582,512.1218773057512
2956.3462,468.77853797775913
2957.4335,435.90292052731763
2958.5202,420.9445195694394
2959.6062,396.6528253601082
2960.6916,394.82732394586276
2961.7764,375.71749740671453
2962.8605,368.62282387440155
2963.9439,360.5927777234874
2965.0267,349.3268296423088
2966.1089,360.6744467132736
2967.1905,346.88509252552274
2968.2714,349.80822706145227
2969.3516,364.14330683460867
2970.4312,347.58978486045623
2971.5102,359.6971105130259
2972.5885,361.114729690452
2973.6662,364.8420846938981
2974.7432,367.9786142133805
2975.8196,366.3737532904951
2976.8954,354.37693328705154
2977.9705,355.0375819011217
2979.045,348.25512328700927
2980.1188,341.4289780486422
2981.192,329.30856330739755
2982.2645,328.0932927703627
2983.3364,314.8825768515401
2984.4077,289.3758226839992
2985.4783,273.12243425198494
2986.5483,265.6218126459835
2987.6177,244.4233562252574
2988.6864,223.57646069285124
2989.7545,203.73051930757606
2990.8219,184.18492309247915
2991.8887,161.6890610333029
2992.9548,148.4423202739406
2994.0204,125.09408634139652
2995.0852,106.54374327825178
2996.1495,95.5906738761471
2997.2131,81.48425986128586
2998.276,71.67388200396545
2999.3383,55.15892025964081
3000.4,43.13875386702807
3001.4611,37.81276151325494
3002.5215,23.930321454061186
3003.5812,11.590811567059632
3004.6404,12.993609490560061
3005.6989,15.488092746964071
3006.7567,9.473638728738251
3007.8139,-1.6003753265317755
3008.8705,-4.4845722759966975
3009.9264,-5.629558989057614
3010.9818,-4.385897534238893
3012.0364,-6.854093740771077
3013.0905,2.3153903772318927
3014.1439,-8.12783872194791
3015.1966,-10.884174603181805
3016.2487,-10.553929634232873
3017.3002,-8.337307449959894
3018.3511,-0.13440625146574803
3019.4013,-0.6452409501519014
3020.4509,-0.619825114701257
3021.4998,2.041834132159238
3022.5481,-0.41026414024406677
3023.5958,3.2238791169964998
3024.6428,9.544267051327097
3025.6892,11.30090277795557
3026.735,10.29378931664769
3027.7802,22.622929574160366
3028.8247,10.588326354313608
3029.8685,21.939982234697823
3030.9118,24.677899687020613
3031.9544,22.30208096359013
3032.9963,33.16252806993634
3034.0376,44.55924278856867
3035.0783,45.2422265703716
3036.1184,53.21148042063726
3037.1578,55.16700489223547
3038.1966,67.55880000592185
3039.2348,65.38686523078229
3040.2723,64.95119936031483
3041.3092,70.65180053414906
3042.3455,69.98866624240293
3043.3811,66.51179326867691
3044.4161,70.37117769668498
3045.4505,60.716814945023316
3046.4842,73.44869972857703
3047.5173,61.666826155062836
3048.5498,69.82118759771072
3049.5816,65.76177681308275
3050.6128,66.08858585952976
3051.6434,64.60160613778476
3052.6734,63.55082838769499
3053.7027,59.086242703092296
3054.7314,59.80783854230009
3055.7594,66.11560477277988
3056.7868,64.50952966391469
3057.8136,57.58960082393173
3058.8398,61.05580521596306
3059.8653,56.1581292272449
3060.8902,55.496558634455425
3061.9145,63.571078652691995
3062.9381,56.38167394208659
3063.9612,58.57832852706031
3064.9835,63.161025868218246
3066.0053,52.629748840382035
3067.0264,54.53447968676369
3068.0469,58.87520012427734
3069.0668,49.75189132449299
3070.086,51.364533870228854
3071.1046,50.56310784678442
3072.1226,49.84759282581399
3073.1399,46.267967873341036
3074.1567,41.224211556913076
3075.1727,43.56630198139834
3076.1882,33.494216839423075
3077.203,36.8079333879507
3078.2173,31.957428549002714
3079.2308,23.192678876521654
3080.2438,15.663660604875872
3081.2561,12.320349736507353
3082.2678,21.16272211722122
3083.2789,16.44075346961904
3084.2893,15.004419304675764
3085.2991,7.003694968958712
3086.3083,8.288555658991186
3087.3169,6.258976501259838
3088.3248,11.514932539365816
3089.3321,8.906398754320776
3090.3388,5.983350011987284
3091.3449,8.295761089163989
3092.3503,1.593606702816487
3093.3551,1.0268614869530097
3094.3593,1.445500059645667
3095.3629,4.299497028698283
3096.3658,9.488826987459845
3097.3681,-4.036535513715421
3098.3698,1.623383980638664
3099.3708,0.06860025097785183
3100.3713,-0.9008719384758592
3101.3711,1.7149814911827548
3102.3702,-8.083816381430722
3103.3688,5.6527575051497365
3104.3667,4.424806969715576
3105.364,1.3324357745309499
3106.3607,0.6257476376119939
3107.3568,3.8548462636507566
3108.3522,-2.280170893879699
3109.347,3.0707935799452457
3110.3412,14.657859878957709
3111.3348,7.5811481662816504
3112.3277,6.740778458462955
3113.32,1.3868706962360307
3114.3117,5.9695447529277885
3115.3028,5.688920487996654
3116.2932,9.29511770120564
3117.2831,8.438256135428617
3118.2723,12.81845544058865
3119.2608,8.935835182226526
3120.2488,12.590514797698688
3121.2361,9.732613635003531
3122.2229,8.4122509162342
3123.209,13.829545766158162
3124.1944,12.034617225420277
3125.1793,13.927584196370049
3126.1635,11.108565461010755
3127.1471,14.52767966207017
3128.1301,10.735045331190406
3129.1125,13.130780854736884
3130.0942,14.165004511724646
3131.0753,16.98783444986111
3132.0558,12.549388675203602
3133.0357,23.499785023931395
3134.015,14.089141206729892
3134.9936,17.967574699286672
3135.9716,23.685202836398275
3136.949,21.442142773185594
3137.9258,26.2385114279179
3138.902,25.324425504443013
3139.8775,25.500001444224125
3140.8524,23.815355435480086
3141.8267,26.320603411429914
3142.8004,26.865861067139264
3143.7735,28.95124383446776
3144.7459,27.67686687661657
3145.7178,33.59284506727434
3146.689,33.59929300336134
3147.6596,28.646324945869424
3148.6295,28.534054819797603
3149.5989,30.812596263681996
3150.5676,36.83206263071767
3151.5357,32.442566965974095
3152.5032,37.444221946200116
3153.4701,36.53713992371908
3154.4364,35.171432876412354
3155.402,35.69721241678974
3156.367,32.41458980564707
3157.3315,40.023675946808254
3158.2952,38.02458141995129
3159.2584,35.56741640451756
3160.221,38.70229069970287
3161.1829,42.42931374902881
3162.1442,40.14859460899413
3163.105,44.410241911804604
3164.065,38.71436388818003
3165.0245,45.46106832473805
3165.9834,41.700462620952635
3166.9416,40.882653721687205
3167.8993,43.25774815480054
3168.8563,45.27585203932509
3169.8127,50.58707106171599
3170.7684,49.84151045566989
3171.7236,51.439274949013
3172.6782,43.080468771156404
3173.6321,50.41519563711853
3174.5854,52.89355883111335
3175.5381,53.76566113320274
3176.4902,50.7316047945132
3177.4417,51.991491528514615
3178.3926,55.945422541360955
3179.3428,56.24349851929131
3180.2924,52.28581958909055
3181.2415,54.372485315108776
3182.1899,56.95359473883789
3183.1377,58.329246358045054
3184.0848,62.949538100961604
3185.0314,63.16456731252643
3185.9773,60.37443070818324
3186.9227,58.02922437172995
3187.8674,61.12904378322037
3188.8115,58.823983842416055
3189.755,64.96413883778828
3190.6979,62.94960246956856
3191.6402,67.480467788347
3192.5818,63.60682721521772
3193.5229,66.37877249647042
3194.4633,65.94639474232645
3195.4031,71.50978439921954
3196.3423,67.76903125411971
3197.2809,73.72422437889911
3198.2189,71.07545216773978
3199.1563,73.12280227758151
3200.0931,72.16636165460973
3201.0292,75.30621651378195
3201.9648,71.04245234839205
3202.8997,76.47515389867185
3203.834,79.8544051944287
3204.7677,80.53028950071838
3205.7008,77.15288928405276
3206.6333,84.1222862056409
3207.5652,84.38856115516286
3208.4964,79.401794181076
3209.4271,83.06206448795207
3210.3571,86.16945048634484
3211.2865,87.32402975618763
3212.2154,80.82587901571918
3213.1436,86.82507410993803
3214.0712,87.371690075584
3214.9982,86.21580108114622
3215.9246,91.30748042139705
3216.8503,87.64680052895083
3217.7755,95.58383292334705
3218.7001,92.06864824765732
3219.624,94.85131618911483
3220.5473,97.58190551426648
3221.4701,97.4104840411459
3222.3922,99.18711861196785
3223.3137,95.86187509484209
3224.2346,99.68481836600745
3225.1549,104.55601234308389
3226.0746,105.02551994684329
3226.9937,99.54340305249742
3227.9121,101.05972248500285
3228.83,103.32453807388208
3229.7473,100.68790863806059
3230.6639,107.54989196321839
3231.5799,107.01054482815653
3232.4954,108.41992293617706
3233.4102,110.0780809204767
3234.3244,105.33507233005287
3235.238,106.5909496131222
3236.151,114.94576416455072
3237.0634,108.39956631329488
3237.9752,111.30240523885352
3238.8864,114.05432903672994
3239.797,118.1553846894033
3240.7069,118.90561803880955
3241.6163,121.55507374533072
3242.5251,113.60379528029276
3243.4332,116.55182489947074
3244.3408,120.09920372260191
3245.2477,118.14597170390526
3246.154,116.9421675966077
3247.0598,125.33782897247654
3247.9649,120.98299223385735
3248.8694,125.47769252971752
3249.7733,125.47196379919444
3250.6766,122.51583872664864
3251.5793,125.25934874172101
3252.4814,127.10252404889408
3253.3829,127.64539360005692
3254.2838,128.53798507607328
3255.1841,133.0803248813531
3256.0838,129.8724381349264
3256.9829,130.36434862501997
3257.8814,129.3060788411362
3258.7792,132.44764996913412
3259.6765,131.28908190181178
3260.5731,127.88039320749087
3261.4692,134.52160114160222
3262.3647,131.41272168077273
3263.2595,135.40376945641327
3264.1538,134.04475778580752
3265.0474,136.58569863220143
3265.9404,130.97660261839337
3266.8329,135.6174790013248
3267.7247,136.45833572817102
3268.616,132.4491793899326
3269.5066,129.19001521302675
3270.3966,128.33084709937887
3271.286,132.67167765901422
