RamanShift,CorrectedData
30.1047,5527.351960279282
32.3739,5165.100007081329
34.6426,4809.647998609854
36.9109,4450.79582794034
39.1787,4096.793340051787
41.4461,3741.9403354152314
43.7131,3384.7865735337814
45.9796,3028.7317764911363
48.2456,2676.975632523127
50.5112,2320.217799578264
52.7764,1966.3579088353026
55.0411,1615.7955682708177
57.3054,1262.0303661978041
59.5692,919.1618747713011
61.8326,570.1396535260432
64.0955,220.71325280514628
66.3579,-111.91778274967004
68.6199,-447.003910703819
70.8815,-753.9444705640642
73.1426,-972.9343362681018
75.4032,-978.3108498483676
77.6634,-441.4516337232801
79.9231,1419.5754630141323
82.1824,6079.957001372661
84.4412,15500.979528165342
86.6995,31322.129529405644
88.9574,42291.19333609725
91.2148,47347.00696602252
93.4717,48626.406014051914
95.7282,48946.17560158583
97.9842,48824.20036376055
100.2398,48407.86444625067
102.4949,47847.551506488744
104.7495,47381.09471782871
107.0036,46701.22677514897
109.2573,46453.679899516996
111.5105,45745.835844987996
113.7632,45361.2259010804
116.0154,44977.380899854244
118.2672,44731.28121975735
120.5185,44301.35678946372
122.7693,43916.33709033454
125.0197,43311.55116071744
127.2696,43351.52759979666
129.519,42858.04457364096
131.7679,42675.329814803794
134.0163,41762.41062725822
136.2642,41574.913888223964
138.5117,41429.51605729667
140.7587,40901.94317832285
143.0052,40486.42088085385
145.2512,39801.8743854216
147.4967,39729.5285076938
149.7417,39207.85766531943
151.9863,38843.33587865219
154.2304,38256.7867759672
156.4739,38041.583597106226
158.717,37805.24919934318
160.9596,37276.65605953612
163.2017,36614.32627649064
165.4433,36506.03157624574
167.6844,35947.34331869721
169.925,35669.582498680495
172.1651,35129.36975155762
174.4047,34747.775355994796
176.6439,34407.26923936453
178.8825,33950.27098156158
181.1206,33728.999818407996
183.3582,33373.17464622317
185.5954,32850.96402403643
187.832,32566.736177145434
190.0681,32120.709002338157
192.3037,32068.750070735274
194.5388,31958.226632250356
196.7734,31054.905616109492
199.0075,31245.053631956514
201.2411,30794.38697888621
203.4742,30785.521643542837
205.7068,30448.923304626827
207.9389,30088.857332983363
210.1704,29799.43879496842
212.4015,29701.68245604944
214.632,29123.052783699462
216.862,29189.563948374707
219.0915,28765.7298293009
221.3205,28429.664013808127
223.549,28380.17980156918
225.777,28047.640207960194
228.0044,27868.60796455555
230.2314,27540.495522453224
232.4578,27235.615054065118
234.6837,26968.8784563982
236.909,27190.147354103297
239.1339,26221.48310214249
241.3582,26179.596783576384
243.582,25849.49921925078
245.8053,25575.450968215508
248.0281,25320.262331025413
250.2503,25116.793352480814
252.472,24645.153824179433
254.6932,24492.803286551058
256.9139,24127.00103357399
259.134,24282.95611429847
261.3536,23557.927336504756
263.5727,23640.37326514355
265.7912,23250.402229586307
268.0092,23084.82232280075
270.2267,22852.791405250606
272.4436,22401.917106551373
274.6601,22349.906827790663
276.8759,22134.317746036908
279.0913,21736.50681485949
281.3061,21455.88076648463
283.5204,21283.946115773495
285.7341,20979.30916302847
287.9473,20945.275995712473
290.16,20510.202491495358
292.3721,20446.744318594232
294.5837,19971.30694012418
296.7947,19646.04561473291
299.0052,19743.815401355045
301.2152,19303.7711624648
303.4246,19245.41756309825
305.6334,18867.60907525377
307.8418,18304.34997847562
310.0495,18036.49436363198
312.2568,17666.946138547573
314.4635,17317.009030682188
316.6696,17101.48659082617
318.8752,16951.03219659978
321.0802,16281.149054608431
323.2847,16235.09020194722
325.4887,15999.608512899817
327.692,15653.856699398973
329.8949,15592.937313381393
332.0972,15197.902750245208
334.2989,15030.3552494592
336.5001,14878.296898513123
338.7007,14357.079634593189
340.9008,14251.55524610266
343.1003,14038.325377874033
345.2992,13890.74153222426
347.4976,13486.855071087084
349.6955,13355.267217488836
351.8927,13098.129059587329
354.0895,12952.34155198773
356.2856,12740.655518313928
358.4812,12602.471652666427
360.6763,12243.390521739202
362.8707,12140.562566201523
365.0646,11875.238104288794
367.258,11719.66733283081
369.4508,11399.200329904976
371.643,11382.03705639208
373.8346,11173.32735918089
376.0257,10967.220971339812
378.2162,10701.767514204017
380.4062,10385.11649943648
382.5956,10247.067331682512
384.7844,10106.3693117363
386.9726,9880.82163792137
389.1603,9724.673407497583
391.3474,9340.273618916617
393.5339,9372.971173383456
395.7199,8955.014878700378
397.9052,8815.553448939943
400.09,8697.185508624592
402.2743,8641.359594121219
404.4579,8427.87415482493
406.641,8262.527553717235
408.8235,8254.068069500936
411.0054,8178.0438982536
413.1868,8116.003153512174
415.3675,7918.343867033182
417.5477,7847.713989413103
419.7273,7653.611392065046
421.9064,7426.833867924994
424.0848,7311.779133392847
426.2627,7178.244830600139
428.4399,6796.028528560644
430.6166,6508.5777245056815
432.7928,6415.939847706322
434.9683,6047.862262347873
437.1432,5879.092268456268
439.3176,5788.1271055788675
441.4914,5442.663954472111
443.6645,5367.899938011222
445.8371,5167.332124644789
448.0091,4893.107529142435
450.1806,4726.673114600519
452.3514,4573.125795184351
454.5216,4446.01243779256
456.6913,4315.429863592486
458.8603,4252.824849291399
461.0288,4066.9441284422865
463.1967,4062.2343920698695
465.3639,3957.442290529485
467.5306,3644.914433554113
469.6967,3633.797391302338
471.8622,3552.6876974836123
474.0271,3414.0318494694293
476.1914,3326.3763091044384
478.3551,3264.4175040929986
480.5182,3300.8518288757405
482.6807,3122.47564524912
484.8426,3115.685282001141
487.0039,3222.9770366950397
489.1647,3196.5971757372536
491.3248,3142.2919333044047
493.4843,3226.957511607201
495.6432,3088.4900814334615
497.8015,2777.7857813014707
499.9592,2802.6407188446174
502.1163,2671.6009739184447
504.2728,2540.1625983521226
506.4287,2435.021617258797
508.5839,2167.274030350025
510.7386,2121.4658129871095
512.8927,2075.4929188586684
515.0461,1948.7512804386133
517.199,1966.2868094460282
519.3512,1907.4453981125116
521.5029,1905.6229190068334
523.6539,1944.415225623321
525.8043,1745.918152400096
527.9541,1778.1775143311606
530.1033,1663.1391089513709
532.2519,1518.6487160138058
534.3999,1503.7520986402233
536.5472,1605.0950047658916
538.694,1436.4731672885682
540.8401,1587.3823030551284
542.9856,1632.7181145477298
545.1305,1600.076288374723
547.2748,1532.002494817294
549.4185,1430.7423881558498
551.5615,1398.7916073508095
553.704,1314.2457770551482
555.8458,1233.0005079339608
557.987,1267.451397509918
560.1276,1320.39403097568
562.2675,1371.3239808494327
564.4069,1494.6868064454247
566.5456,1592.52805336468
568.6837,1514.5932522613875
570.8212,1360.1279178645054
572.958,1063.6775497570707
575.0942,1004.9376339208466
577.2299,774.2036457008944
579.3648,664.6210503929324
581.4992,564.6853055506435
583.6329,563.5418620815399
585.766,594.8305296869003
587.8985,631.6854882847765
590.0304,392.8909118449228
592.1616,509.7809680202554
594.2922,372.9858994834867
596.4222,200.885943809546
598.5515,197.85761244421155
600.6802,248.1754099826794
602.8083,-45.588135577469075
604.9358,-43.41297551097523
607.0626,111.5713943328301
609.1888,-88.36408819977078
611.3144,139.2004001392488
613.4393,52.635565355129074
615.5636,-46.58927715889149
617.6873,132.29466216109722
619.8103,-59.89336169415037
621.9327,99.66458464244351
624.0544,70.18703287259268
626.1756,-67.25848095119
628.2961,-108.95512194489129
630.4159,-240.68538331225864
632.5351,-273.0806697954249
634.6537,84.38001831044676
636.7716,-245.4295912139205
638.8889,-102.88577143157454
641.0056,-30.86234356397472
643.1216,-20.682101003738353
645.237,150.4324711712834
647.3518,-109.54090550258843
649.4659,-14.174510993354488
651.5793,49.26046904458781
653.6922,61.792849098586885
655.8043,-264.2985568365766
657.9159,265.715064616008
660.0268,-526.9848328242297
662.137,47.3332019050722
664.2466,109.75588444467576
666.3556,-55.780070037923
668.4639,72.71205252721848
670.5716,-112.33103323215619
672.6786,138.42738658461167
674.785,-185.47597299850895
676.8907,-165.85439834179851
678.9958,44.53067709939205
681.1002,58.31947675515403
683.204,-135.99777638974047
685.3072,-252.98085993369023
687.4097,-101.78955011507787
689.5115,-193.18109589350934
691.6127,153.78725478929846
693.7132,-80.68981612924108
695.8131,2.032371750479797
697.9123,135.64849963499
700.0109,257.05324871047196
702.1089,-38.858701193355955
704.2061,99.90732718277286
706.3028,237.84601148666115
708.3987,350.9020283670761
710.4941,208.820052094321
712.5887,508.894753429704
714.6827,440.6208010463306
716.7761,705.4428585283968
718.8688,883.0055850539138
720.9608,693.7536327464695
723.0522,847.3316448996266
725.1429,655.9342578693904
727.233,1365.7060995385255
729.3224,530.6417912304387
731.4112,903.3859406115153
733.4993,855.1331500417436
735.5867,820.0780128472979
737.6735,527.6651138030356
739.7596,291.3890294830853
741.845,199.09433118489687
743.9298,623.7255872920578
746.014,288.27736419721623
748.0974,109.34422205579904
750.1802,618.6207181404534
752.2624,39.6514086304378
754.3439,181.78084351880534
756.4247,415.10357240214216
758.5048,274.0641430592368
760.5843,526.5570991178683
762.6631,857.4269814652434
764.7413,1074.3683257229932
766.8188,1425.1256589385375
768.8956,1854.8434974156116
770.9718,2051.3663432067187
773.0473,1939.4386798159467
775.1221,1605.0549702337084
777.1962,1578.3096580560814
779.2697,1278.7971708285622
781.3426,1540.6119203135822
783.4147,1669.098305485626
785.4862,1709.9507099130788
787.557,1311.9135004733907
789.6271,1553.1810269445414
791.6966,998.0476259853385
793.7654,425.80761872282164
795.8335,367.4553163035598
797.901,292.185025616076
799.9678,99.79104987438768
802.0339,80.86768937067973
804.0993,146.80924339927878
806.1641,3.3600104457946145
808.2282,43.764287527796114
810.2916,45.36637162927218
812.3544,192.21055929653812
814.4164,-94.30885337768996
816.4778,64.50242777718813
818.5385,130.63963907718426
820.5986,239.89801619332866
822.658,498.8727934902272
824.7166,670.6592029335807
826.7747,803.6524715003397
828.832,1226.4978194609066
830.8886,1598.3904590491657
832.9446,1752.225590234084
834.9999,1241.7483970007306
837.0545,1359.0540458119576
839.1085,1301.387690713127
841.1618,1086.9444721591208
843.2143,741.8695175909161
845.2662,672.157943580045
847.3175,824.9548592793726
849.368,468.7053671201793
851.4179,760.0545612842325
853.467,456.7475312662209
855.5155,633.9793589603069
857.5633,481.09512169317895
859.6105,327.08989045173075
861.6569,496.6087314119286
863.7027,342.2967074788103
865.7478,417.2988765913906
867.7922,415.11029326569405
869.8359,580.0260078448191
871.8789,393.64106652080227
873.9212,561.2505096854438
875.9629,618.8493737941608
878.0039,775.1326896898536
880.0441,845.745482026934
882.0837,908.8327677085472
884.1226,970.9895551803857
886.1609,1021.8608437998555
888.1984,1126.041623214449
890.2352,1432.8768728530413
892.2714,1217.4115608841748
894.3069,1299.5406411475778
896.3416,1123.9090553089409
898.3757,1145.6617320385194
900.4091,951.4935887675165
902.4418,1171.2995314705622
904.4739,1052.3244566073772
906.5052,1279.1132489246884
908.5358,1146.5107826460153
910.5658,1103.5619192037339
912.595,1038.5615085651443
914.6236,807.6543896619478
916.6515,1074.6353910402395
918.6786,711.699333169563
920.7051,834.5410257731346
922.7309,913.8552714571779
924.756,934.6368644825416
926.7804,960.1305899715007
928.8041,776.1312237000238
930.8272,934.2335318427649
932.8495,966.0322728130486
934.8711,934.7221956819267
936.892,800.2980398601212
938.9123,795.0545354111673
940.9318,822.8864043956055
942.9506,817.0883609234588
944.9688,819.6551108758867
946.9862,661.7813519631891
949.003,599.4117736991466
951.019,438.9410589797408
953.0344,463.86388470684324
955.0491,456.0249233929644
957.063,564.9188429119822
959.0763,738.040306577539
961.0888,681.0339720540942
963.1007,853.7944896257468
965.1119,891.5665027662617
967.1223,848.7946464114721
969.1321,934.8235465815887
971.1412,977.8978208088884
973.1495,886.9620772774288
975.1572,932.010914392311
977.1641,964.9889216890442
979.1704,946.5906793830436
981.1759,893.4107580398268
983.1808,1003.3937187590418
985.1849,1007.3841137062336
987.1884,1034.5264850130043
989.1911,1171.4153647371422
991.1932,1208.0952745911782
993.1945,1173.010724573527
995.1951,1078.606212601655
997.1951,1089.5262248629442
999.1943,1001.7652367587725
1001.1928,1043.917712795228
1003.1906,1001.9781074608254
1005.1877,1094.2408648048877
1007.1841,1056.9504188570063
1009.1798,1079.2511927043743
1011.1748,978.2875988646774
1013.1691,864.4040390631199
1015.1627,743.2449052420416
1017.1556,506.8545806997281
1019.1477,440.32744130206265
1021.1392,290.5078578463581
1023.1299,267.6401967266647
1025.12,210.61882143196271
1027.1093,183.3880927747996
1029.0979,257.4923694615645
1031.0859,309.9260083647714
1033.0731,318.43336378205277
1035.0596,288.7087869117822
1037.0454,170.0966257680484
1039.0304,76.44122547786537
1041.0148,3.1869294673051627
1042.9985,-114.02191960194978
1044.9814,-24.191010905658914
1046.9636,-147.92489454059978
1048.9452,-160.97787893538043
1050.926,-84.85279474894196
1052.9061,-79.15086447122303
1054.8855,-80.47246291277406
1056.8642,-54.16717416701431
1058.8421,32.416221592531656
1060.8194,22.329485322403343
1062.7959,78.17437765500654
1064.7717,132.85265899946899
1066.7469,151.1160889831881
1068.7213,263.31642590506453
1070.695,287.75542655284517
1072.6679,219.88484508112379
1074.6402,279.1064327669628
1076.6117,308.57193868858303
1078.5826,315.4331091331769
1080.5527,240.19168730222736
1082.5221,144.5994132429114
1084.4908,118.85802460048217
1086.4587,160.6192575742498
1088.426,216.78484717494212
1090.3925,191.20652680710555
1092.3584,230.8360277074571
1094.3235,189.22507920067437
1096.2879,248.97540830308571
1098.2515,291.0887401388027
1100.2145,478.81679734218415
1102.1767,576.7612996367097
1104.1382,728.9739619577485
1106.099,817.2064934730552
1108.0591,941.9105960606576
1110.0185,1084.887963426525
1111.9771,1193.5902798575771
1113.9351,1062.6192187918568
1115.8923,977.5764417315149
1117.8488,893.0135995525525
1119.8045,688.4823333552486
1121.7596,666.1842753097335
1123.7139,540.9710507013151
1125.6675,561.7442781534846
1127.6204,654.9055708800261
1129.5726,623.106536477284
1131.524,586.6487759925731
1133.4748,535.0338842421479
1135.4248,372.3134501757995
1137.3741,310.6390573929748
1139.3226,261.96228577001966
1141.2705,292.3847120768769
1143.2176,132.20791046388695
1145.164,194.2834521575569
1147.1097,115.76290706233704
1149.0546,109.54784313985147
1150.9989,67.38982719411797
1152.9424,90.19042493369125
1154.8852,-13.898798606765922
1156.8272,-47.77627929448863
1158.7686,25.409685852246184
1160.7092,27.761277100195002
1162.6491,31.580674462020397
1164.5883,122.17005767278533
1166.5267,170.3316061517471
1168.4644,313.4674980965174
1170.4014,460.5299100013908
1172.3377,677.671015226013
1174.2732,896.9429825247498
1176.2081,1208.9979738752882
1178.1421,1485.3881422858794
1180.0755,1861.1656286748148
1182.0082,2009.432559106499
1183.9401,2140.8910410336794
1185.8713,2063.543161814796
1187.8017,1873.3409873993915
1189.7315,1671.6865631016153
1191.6605,1355.3819155022065
1193.5888,1100.7790544650634
1195.5163,1096.0299763002731
1197.4432,959.8866663101362
1199.3693,869.8010988366696
1201.2947,851.725238623043
1203.2193,798.0610417144126
1205.1432,818.9104556386956
1207.0664,833.7254199432027
1208.9889,768.9578659861581
1210.9106,710.2597167885506
1212.8316,686.082887681805
1214.7519,785.8792868947785
1216.6715,748.9008157954886
1218.5903,811.0993678931991
1220.5084,873.0268292081564
1222.4257,1024.8850776496474
1224.3424,935.1759823966713
1226.2583,1051.6514023794043
1228.1735,1173.1631871762802
1230.0879,1166.3631758492375
1232.0016,1291.553195728604
1233.9146,1388.885062481073
1235.8269,1389.010578857822
1237.7384,1419.431533721181
1239.6492,1260.9497020434137
1241.5592,1327.0168446024763
1243.4686,1313.5347095668294
1245.3772,1428.8550318347843
1247.285,1509.8795331693254
1249.1922,1607.3099210449
1251.0986,1731.447887837181
1253.0042,1772.4451098487625
1254.9092,1853.6532460677954
1256.8134,1963.023937757971
1258.7169,2086.708807646468
1260.6196,2130.8594588302294
1262.5216,2367.2274735391147
1264.4229,2420.964412694404
1266.3234,2585.921813545119
1268.2232,2692.951189130643
1270.1223,2711.154026631153
1272.0207,2794.7317862973214
1273.9183,2785.935901268287
1275.8151,2721.8177767358866
1277.7113,2769.928790032609
1279.6067,2790.2202912727807
1281.5014,2942.99360287144
1283.3953,3224.300019341419
1285.2885,3570.640805765641
1287.181,3881.8171949840253
1289.0727,4275.730384130107
1290.9637,4451.4315315192325
1292.854,4668.171752709481
1294.7435,4617.2521187446
1296.6323,4592.2236539866535
1298.5204,4478.987336625196
1300.4077,4397.244098927567
1302.2943,4312.244828371222
1304.1802,4148.7903684612065
1306.0653,3821.731519580131
1307.9497,3540.6690406227135
1309.8333,3343.4036522663846
1311.7162,3097.636039781879
1313.5984,3073.6168550059083
1315.4798,2962.146718798853
1317.3605,2876.926221284917
1319.2405,2905.6559229668674
1321.1197,2777.336355578187
1322.9982,2526.868021795828
1324.876,2459.8513965233833
1326.753,2259.7869293957847
1328.6293,2180.375045449444
1330.5048,2085.216147122919
1332.3796,1985.3106150510066
1334.2537,1967.4088090163714
1336.127,1897.6610689485824
1337.9996,1923.6177151031334
1339.8714,1923.3290487589475
1341.7426,1879.645351958774
1343.6129,1926.0168875120726
1345.4826,1928.593899431864
1347.3515,1969.5766124710099
1349.2196,1964.2152320964415
1351.087,2037.8099440793521
1352.9537,2074.2609145487804
1354.8197,2216.3682892556826
1356.6849,2336.8821932084356
1358.5493,2418.252729251726
1360.4131,2556.729976861454
1362.276,2667.913991330988
1364.1383,2691.254802386411
1365.9998,2594.202413074672
1367.8606,2359.9567995301913
1369.7206,2151.417911945373
1371.5799,1910.1356769130762
1373.4384,1722.1099995119803
1375.2962,1608.6407657194286
1377.1533,1354.2278442916613
1379.0096,1122.921087898536
1380.8652,941.5203356676429
1382.7201,713.7754154973773
1384.5742,568.7361458709129
1386.4275,424.8523381336927
1388.2802,326.17379794381486
1390.132,250.40032671085282
1391.9832,241.13172258266786
1393.8336,169.16778120312665
1395.6832,125.35829580478821
1397.5322,109.85305792851432
1399.3803,67.8518578616131
1401.2278,18.05448479282859
1403.0745,9.610727232426143
1404.9204,-24.329626489881775
1406.7656,-11.566788140466087
1408.6101,-0.7507264327250596
1410.4538,-29.231294527839054
1412.2968,16.241654420540726
1414.139,7.718559279393958
1415.9805,102.94985875326893
1417.8213,133.7359914695553
1419.6613,205.12739502613113
1421.5006,300.2245056835309
1423.3391,453.9777576510205
1425.1769,620.3875821356269
1427.0139,932.4044058046129
1428.8502,1266.6286491213687
1430.6858,1636.4607232252602
1432.5206,1862.8010265893608
1434.3547,2062.5499413221332
1436.188,2072.457830904059
1438.0206,2034.875038190119
1439.8524,1927.701885310722
1441.6835,1900.0886740475362
1443.5139,1849.9856869052273
1445.3435,1825.243187387583
1447.1724,1821.4114204985453
1449.0005,1773.8406129896393
1450.8279,1767.3309733982642
1452.6545,1815.8826925234243
1454.4804,1877.7459434908378
1456.3056,1868.970881267407
1458.13,1825.6076420425707
1459.9536,1796.2063433160765
1461.7766,1665.317084331593
1463.5987,1449.8899463707494
1465.4202,1231.2749940620124
1467.2409,1042.3722775349524
1469.0608,871.1818346063992
1470.88,700.8036926694731
1472.6984,608.387870405466
1474.5161,444.9843794876542
1476.3331,368.34322550544675
1478.1493,338.9644095984113
1479.9648,293.4979292226999
1481.7795,251.24377844481205
1483.5935,261.7519483962933
1485.4067,262.2224276962588
1487.2192,274.65520234630094
1489.031,245.7502557258049
1490.842,262.25756846761215
1492.6522,271.627118747052
1494.4618,252.70888211689817
1496.2705,258.15283141365944
1498.0785,239.80893694674887
1499.8858,204.4771664440741
1501.6924,167.5574852354548
1503.4981,218.69985660594102
1505.3032,213.55424216501706
1507.1075,209.37060133517662
1508.911,196.99889140339292
1510.7138,177.73906756292672
1512.5159,178.44108303707617
1514.3172,122.50488927174592
1516.1178,105.73043592844442
1517.9176,112.26767144364203
1519.7166,85.26654319651243
1521.515,105.07699744355523
1523.3126,131.8489795886162
1525.1094,95.53243398478116
1526.9055,68.37730366665528
1528.7008,61.28353071352649
1530.4954,19.051056520909697
1532.2893,51.929821871493914
1534.0824,-26.43023264254043
1535.8747,26.620833051700174
1537.6663,42.333223065117636
1539.4572,22.357141242420767
1541.2473,67.34279100498134
1543.0367,45.29037555060859
1544.8253,82.95009740369278
1546.6132,116.42215863572346
1548.4003,95.60676048868663
1550.1867,144.75410304037177
1551.9723,171.11438541249663
1553.7572,288.13780527925337
1555.5414,338.82455860369737
1557.3247,405.9248384675211
1559.1074,562.3388345641724
1560.8893,657.1667325278595
1562.6705,744.8087123694077
1564.4509,863.7149475279948
1566.2305,909.4856039947117
1568.0094,1003.8708391235014
1569.7876,1028.6708011734572
1571.565,1024.5356283649762
1573.3417,1056.9654486317577
1575.1176,1079.1603796621494
1576.8928,1072.4705285748569
1578.6672,1032.995991697002
1580.4409,1066.1868546309925
1582.2138,1078.0431926492893
1583.986,1130.8650703624826
1585.7575,1219.8025416007367
1587.5282,1249.0556488855655
1589.2981,1330.4744225404575
1591.0673,1378.5088803983472
1592.8358,1435.4090269874414
1594.6035,1534.2748530508634
1596.3704,1612.356334977645
1598.1366,1643.9534338140747
1599.9021,1714.4160944828873
1601.6668,1773.6942454672935
1603.4308,1837.23779810634
1605.194,1974.6466460021566
1606.9564,2118.320664384488
1608.7182,2284.859708736627
1610.4791,2520.2636133586675
1612.2394,2705.582189702114
1613.9988,2941.8652240158317
1615.7576,3115.162475492878
1617.5156,3296.6736739076587
1619.2728,3395.348517882965
1621.0293,3391.4366730748607
1622.785,3245.837771185934
1624.54,3004.6514100044005
1626.2942,2821.5271548601177
1628.0477,2517.114541036415
1629.8005,2351.163075601362
1631.5525,2139.872240451896
1633.3037,1935.8414939733211
1635.0542,1783.2202731522302
1636.804,1678.257995616812
1638.553,1592.7040611630546
1640.3013,1570.207852804373
1642.0488,1548.9187376271566
1643.7955,1625.636067015721
1645.5416,1608.359176865204
1647.2868,1706.4873868143968
1649.0313,1758.7200004184942
1650.7751,1866.4563041678375
1652.5181,1993.7455669655574
1654.2604,2050.4870390502383
1656.0019,2197.529950723001
1657.7427,2385.9235117801054
1659.4828,2601.016910042521
1661.222,2730.1093094719836
1662.9606,2714.849848020074
1664.6984,2583.4876363372823
1666.4354,2351.471757925612
1668.1717,2003.7512704521869
1669.9072,1644.4752080694252
1671.642,1361.4425848922365
1673.3761,1145.9523985907854
1675.1094,962.2536332208201
1676.8419,790.8952613785677
1678.5737,655.5762460377282
1680.3048,564.0955422630486
1682.0351,495.3520985635241
1683.7646,395.9448578071915
1685.4934,360.7227579085684
1687.2215,313.5347328227399
1688.9488,301.22971289756424
1690.6754,246.0566253455654
1692.4012,223.16439436698056
1694.1263,219.9019417014806
1695.8506,205.56818685709732
1697.5742,172.3120471428574
1699.297,165.18243781210367
1701.0191,121.12827239507533
1702.7404,111.64846277018296
1704.461,60.94191960456919
1706.1808,56.657552448887145
1707.8999,47.394270244380095
1709.6182,58.80098136571905
1711.3358,63.57659371364571
1713.0527,43.42001460088977
1714.7688,1.28015070442234
1716.4841,-19.144091732983725
1718.1987,2.796193518654036
1719.9126,3.700103938785105
1721.6257,10.666736978904737
1723.338,11.54519005351176
1725.0496,-15.11543952955617
1726.7605,15.183945422104443
1728.4706,26.74259310412708
1730.18,-4.240248439684365
1731.8886,-2.415331432952371
1733.5964,-26.53336573922934
1735.3036,-28.545037092897473
1737.0099,-1.550766160025887
1738.7156,12.349311558238696
1740.4204,10.005076052895674
1742.1246,0.11640719145725598
1743.8279,3.533184741385412
1745.5306,19.20528846898742
1747.2325,-15.567401894755676
1748.9336,-17.63500681091682
1750.634,-40.94749122222311
1752.3336,-13.604643897697315
1754.0325,5.8441554590754095
1755.7307,10.899663054897246
1757.4281,49.5626350381317
1759.1247,39.68382744815426
1760.8206,45.96399582871527
1762.5158,67.6538953267409
1764.2102,60.40428062951105
1765.9039,69.21590574778202
1767.5968,55.53952408827354
1769.289,52.425888365552964
1770.9804,60.52575073879052
1772.6711,93.23986284289276
1774.361,99.51897570751134
1776.0502,82.56383942990578
1777.7386,76.12520311214757
1779.4263,91.70381503067438
1781.1132,129.95042270067825
1782.7994,99.86577272031172
1784.4849,125.15061038823478
1786.1696,140.65568000443818
1787.8535,106.78172461741997
1789.5367,124.77948586911953
1791.2192,157.34970433367198
1792.9009,117.19311933741847
1794.5818,165.5604686332099
1796.2621,176.35248880196377
1797.9415,157.86991476900585
1799.6202,144.31347969614035
1801.2982,186.63391516647607
1802.9755,203.08195131999673
1804.6519,201.35831643035272
1806.3277,186.91373674038186
1808.0027,164.74893647934914
1809.6769,205.06463800739039
1811.3504,182.31156203715182
1813.0231,208.24042723063576
1814.6951,223.3519504267424
1816.3664,221.4968463819623
1818.0369,241.6258276192748
1819.7067,247.78960444669428
1821.3757,234.8888847559756
1823.044,265.8743739609872
1824.7115,270.84677512670896
1826.3783,258.4567886593977
1828.0443,255.80511225684313
1829.7096,264.64244103227793
1831.3741,281.46946754089186
1833.0379,250.58688169144625
1834.701,260.44537057802154
1836.3633,287.04561878883214
1838.0248,318.4383083076318
1839.6856,311.5241182477239
1841.3457,325.3537245380412
1843.005,311.02779999227823
1844.6636,326.59701417059114
1846.3214,327.6120335228661
1847.9785,359.773521233019
1849.6349,364.78213720885105
1851.2904,346.33853776043543
1852.9453,339.1933755500231
1854.5994,355.59729977648385
1856.2528,362.70095624676105
1857.9054,374.4549872118332
1859.5572,401.6100312956587
1861.2083,387.41672337765704
1862.8587,428.7256943211578
1864.5084,394.93757111531704
1866.1572,423.90297646204635
1867.8054,424.2725291138868
1869.4528,410.24684358435843
1871.0994,428.8265301442607
1872.7453,418.31219496192716
1874.3905,418.55443991744323
1876.0349,412.0538627077676
1877.6786,480.6110568443255
1879.3215,464.4766117180043
1880.9637,483.3011119135808
1882.6051,467.9351373710779
1884.2458,488.2292631975124
1885.8858,459.83405982055046
1887.525,454.3000927855719
1889.1634,431.92792303961687
1890.8011,463.76810698673216
1892.4381,468.77119671168566
1894.0743,455.7877396615677
1895.7098,485.81827859576515
1897.3446,485.1133517157841
1898.9786,487.0734923649543
1900.6118,499.0492290354723
1902.2443,457.89108534880506
1903.8761,473.19957993593016
1905.5071,423.6252268489188
1907.1374,449.8685354078534
1908.7669,452.4800106965695
1910.3957,445.91015330021946
1912.0237,430.6094592791578
1913.651,463.82842023463945
1915.2776,460.8675234618222
1916.9034,435.2772516175846
1918.5285,417.90808275013114
1920.1528,418.51049055489057
1921.7764,448.5849445482163
1923.3992,409.53191006135603
1925.0213,388.7018479397166
1926.6427,363.19521493338107
1928.2633,383.9124639054198
1929.8832,389.30404408695813
1931.5023,380.0204008699902
1933.1207,370.21197575348106
1934.7383,394.22920643618727
1936.3552,375.22252691475296
1937.9714,369.54236724352904
1939.5868,370.3391537246471
1941.2015,351.4133089648185
1942.8154,347.765251867364
1944.4286,335.64539782147494
1946.041,311.6041587386908
1947.6528,296.7419431741
1949.2637,327.1591565667559
1950.8739,303.2562013882989
1952.4834,316.13347683878055
1954.0921,315.44137908569246
1955.7001,337.33030113519453
1957.3074,326.1506328390369
1958.9139,287.10276067567247
1960.5197,300.1870678620535
1962.1247,294.2039347441023
1963.729,281.2037386658694
1965.3325,272.83685402937135
1966.9353,270.90365242458483
1968.5374,255.90450271312147
1970.1387,256.2897710475627
1971.7393,253.35982102145226
1973.3392,242.56501366543853
1974.9383,220.3057074765802
1976.5366,226.93225852628166
1978.1342,226.69502068289876
1979.7311,241.5443455454697
1981.3273,248.98058244609
1982.9227,226.10407830141594
1984.5173,232.2151775383054
1986.1112,211.36422232257792
1987.7044,229.85155249790841
1989.2968,230.9775057943316
1990.8885,230.84241764337094
1992.4795,228.04662116678264
1994.0697,201.04044717789657
1995.6592,242.22422420958264
1997.2479,222.69827878430897
1998.8359,229.7629350023044
2000.4232,211.81851473681763
2002.0097,222.86533756347308
2003.5955,207.30372093971073
2005.1805,212.93398009432076
2006.7648,208.70642818305896
2008.3484,201.6713762323434
2009.9312,234.62913318153096
2011.5133,213.78000595326466
2013.0946,229.2242991239018
2014.6752,214.81231513200146
2016.2551,221.8443541238812
2017.8342,217.97071409773798
2019.4126,197.09169083333109
2020.9902,190.00757793071898
2022.5672,193.1686670190411
2024.1433,193.32524782736618
2025.7188,202.47760815307902
2027.2935,192.6260338603106
2028.8674,187.22080878841916
2030.4406,201.81221485050173
2032.0131,194.20053208745412
2033.5849,190.8860385220496
2035.1559,186.11901023505925
2036.7261,171.24972139840065
2038.2957,194.57844432280217
2039.8645,199.95544960649568
2041.4325,227.88100590193062
2042.9998,166.35537986200416
2044.5664,187.12883586080625
2046.1323,212.40163660887265
2047.6974,183.2240429454505
2049.2617,185.84631358577371
2050.8254,205.1187054128386
2052.3883,209.0414734511778
2053.9504,185.51487067414564
2055.5118,182.93914796468562
2057.0725,180.21455435059943
2058.6325,159.94133703030457
2060.1917,195.8697414000735
2061.7502,187.85001125677172
2063.3079,195.88238843857198
2064.8649,176.21711290514577
2066.4212,168.05442265734837
2067.9767,193.44455393386306
2069.5315,168.28774129283102
2071.0856,169.43421735795164
2072.6389,162.134213070045
2074.1915,156.43795767559095
2075.7433,136.24567879973438
2077.2945,131.1076025032453
2078.8448,134.7239534844348
2080.3945,133.94495513054335
2081.9434,128.7708294815675
2083.4916,137.60179723805777
2085.039,132.18807781285705
2086.5857,131.4798892427898
2088.1317,141.37744824280617
2089.677,137.78097021306075
2091.2215,134.6406691399352
2092.7652,134.3567576320056
2094.3083,145.57944695144488
2095.8506,152.15894701685465
2097.3921,165.2454662910477
2098.933,143.53921171524507
2100.4731,164.99038857821415
2102.0124,172.89920073333542
2103.5511,176.7658503840903
2105.089,194.34053800496622
2106.6261,168.37346230279945
2108.1626,172.91482004102727
2109.6983,163.46480629935286
2111.2332,174.02361442833262
2112.7675,178.8914361438783
2114.301,181.1684614216665
2115.8337,191.25487844845975
2117.3657,179.50087359933696
2118.897,181.20663133683502
2120.4276,182.67233432848207
2121.9575,175.99816342974282
2123.4866,182.08429766936024
2125.0149,177.930914316099
2126.5426,159.53818881788084
2128.0695,161.60629484332458
2129.5956,183.08540446566712
2131.1211,170.07568814208025
2132.6458,186.27731449888597
2134.1698,179.44045046165138
2135.693,168.16526109316783
2137.2155,174.20190966182417
2138.7373,186.4005577543603
2140.2584,183.11136521549815
2141.7787,168.83449002595353
2143.2983,155.570088335332
2144.8171,132.21831460489648
2146.3353,150.02932174021407
2147.8527,161.60326132467344
2149.3693,164.79028344136714
2150.8853,159.8905365573628
2152.4005,151.10416749182423
2153.9149,169.53132146501412
2155.4287,147.5721421861581
2156.9417,163.72677166916947
2158.454,153.89535045224693
2159.9655,143.9280174363248
2161.4764,166.32490998338653
2162.9865,168.48616401613617
2164.4958,152.36191379403317
2166.0045,151.85229189167603
2167.5124,168.90742936004972
2169.0195,170.32745573161446
2170.526,154.11249884976587
2172.0317,140.71268485462133
2173.5367,148.22813834518
2175.0409,168.80898251331746
2176.5445,177.00533906863166
2178.0473,167.76732803263258
2179.5494,164.79506765677615
2181.0507,166.43867451484766
2182.5513,162.54826353268345
2184.0512,161.8739479717333
2185.5504,159.56583946796854
2187.0488,147.8740480386141
2188.5465,139.14868210524764
2190.0435,137.13984861070094
2191.5397,144.79765310632683
2193.0353,133.37219977208224
2194.5301,147.11359133995575
2196.0241,126.32192920821763
2197.5175,134.04731330400136
2199.0101,116.88984229122707
2200.502,120.8496134933439
2201.9931,108.97672306490313
2203.4835,104.52126595196296
2204.9733,115.63333601081376
2206.4622,118.7130260525355
2207.9505,109.61042773187455
2209.438,85.52563151644699
2210.9248,76.95872677776788
2212.4109,79.60980203210056
2213.8962,60.37894502612562
2215.3809,103.81624271042801
2216.8648,106.47178143180827
2218.3479,104.39564649890417
2219.8304,99.13792215564263
2221.3121,82.3486916019965
2222.7931,75.37803704655835
2224.2733,83.97603987443745
2225.7529,73.29278071696535
2227.2317,95.17833936571242
2228.7098,100.43279487932432
2230.1872,86.0562253646649
2231.6638,87.44870792426991
2233.1397,64.96031880011378
2234.6149,66.59113335968414
2236.0894,83.29122632087001
2237.5632,91.41067173564352
2239.0362,62.14954282307008
2240.5085,74.40791188811
2241.9801,66.18585061423255
2243.4509,77.18342994083378
2244.921,69.00072014545094
2246.3904,70.18779073379937
2247.8591,64.3947105215866
2249.3271,43.82154762264781
2250.7943,26.468369506877025
2252.2608,44.33524320595279
2253.7266,54.12223548687689
2255.1917,52.62941267329643
2256.656,41.90684054764051
2258.1197,61.10458436604222
2259.5826,38.672708965567836
2261.0447,54.6112785722371
2262.5062,55.62035702534604
2263.9669,41.00000761807951
2265.4269,42.30029308742496
2266.8862,56.271275760371736
2268.3448,67.36301754090482
2269.8026,75.52557977029801
2271.2598,73.0090231161953
2272.7162,58.86340749098963
2274.1719,68.8887920769871
2275.6268,52.23523546786009
2277.0811,80.85279556839578
2278.5346,66.59152976102814
2279.9874,85.65149461966848
2281.4395,72.88274605231118
2282.8908,58.08533911044151
2284.3414,67.05932811671937
2285.7914,59.55476681295568
2287.2406,56.32170827036771
2288.689,77.01020496462525
2290.1368,81.02030880818211
2291.5838,59.90207094339121
2293.0302,68.35554170241039
2294.4758,53.380770818374
2295.9206,72.62780734086573
2297.3648,64.19669978565935
2298.8082,93.83749594225537
2300.251,82.05024295818612
2301.693,63.5349870426071
2303.1343,71.89177358417692
2304.5748,83.77064733620227
2306.0147,70.77165233307733
2307.4538,54.89483177149532
2308.8922,78.84022814043237
2310.3299,70.90788337991626
2311.7669,52.697838641568524
2313.2031,67.56013436793364
2314.6387,69.6448104745823
2316.0735,80.40190620148314
2317.5076,63.83146009215898
2318.941,79.68350988611655
2320.3737,64.75809268454714
2321.8056,72.60524479181277
2323.2369,68.8250018646977
2324.6674,67.86739883393784
2326.0972,73.48246994201418
2327.5263,83.07024875273964
2328.9547,74.3807680951113
2330.3823,77.41405996742378
2331.8092,90.87015562417264
2333.2355,66.0990855457053
2334.661,78.65087930367099
2336.0858,72.17556580872997
2337.5098,88.62317318503256
2338.9332,81.39372883497799
2340.3558,73.33725927472778
2341.7778,70.45379020650944
2343.199,77.19334659917376
2344.6195,75.00595271702787
2346.0393,77.69163205244104
2347.4583,77.5504073477232
2348.8767,79.03230056826715
2350.2943,87.03733290396667
2351.7113,92.66552475439312
2353.1275,71.86689564874678
2354.543,70.14146418957444
2355.9578,77.98924826075745
2357.3718,65.41026504476213
2358.7852,69.65453094416262
2360.1978,73.82206170743257
2361.6098,59.31287238650066
2363.021,80.276977295081
2364.4315,79.06439015376145
2365.8413,68.32512388036093
2367.2504,80.70919060205642
2368.6587,63.31660176277592
2370.0664,72.59736799935763
2371.4733,55.15149931547285
2372.8795,65.47900498882382
2374.285,68.22989374559484
2375.6899,53.35417365718649
2377.0939,56.401852112697725
2378.4973,52.37293596768859
2379.9,37.667431513699285
2381.3019,39.13534451854457
2382.7032,60.62668037336471
2384.1037,55.2914440779482
2385.5035,46.879640025818844
2386.9027,40.99127205758532
2388.3011,55.67634354506163
2389.6987,58.33485745015014
2391.0957,43.566816177989494
2392.492,42.27222155037134
2393.8876,31.751074953419447
2395.2824,42.053377350536266
2396.6765,51.6291293876161
2398.07,31.328331290020287
2399.4627,28.600982766820835
2400.8547,39.84708321380731
2402.246,19.966631740763205
2403.6366,27.759627059000195
2405.0265,35.92606768016594
2406.4156,27.065951838316323
2407.8041,23.479277408245707
2409.1918,29.96604199409103
2410.5789,10.176242965198526
2411.9652,10.509877391255031
2413.3508,16.116942240186745
2414.7358,18.547434374821478
2416.12,26.15135049681976
2417.5035,28.578687122370866
2418.8863,21.179440506149604
2420.2684,20.703606617046262
2421.6497,15.651181212158008
2423.0304,12.222159841545363
2424.4104,2.1665378987572694
2425.7896,17.884310655126228
2427.1682,20.325473360318483
2428.546,5.940021085160879
2429.9232,25.477948697225656
2431.2996,7.389251004686685
2432.6753,21.673922560939445
2434.0503,12.581957845490251
2435.4246,9.163351121106643
2436.7982,17.4680965247353
2438.1711,12.69618810169186
2439.5433,25.44761972261267
2440.9148,15.922385131174906
2442.2856,1.0704778165786593
2443.6557,6.641891108802156
2445.025,-3.8633816728797683
2446.3937,12.804652724388234
2447.7617,16.946026148643796
2449.1289,15.760770319880521
2450.4955,17.99891678863287
2451.8613,8.260496947830688
2453.2265,11.04554201041492
2454.5909,5.854083106724829
2455.9546,18.7861512566451
2457.3177,7.49177742152051
2458.68,17.17099237483717
2460.0416,12.123826815162829
2461.4025,28.9003112693581
2462.7627,22.7504761430464
2464.1222,22.57435155284793
2465.4811,20.72196738788125
2466.8392,22.39335331152097
2468.1966,38.28853877992515
2469.5533,33.057553025319066
2470.9093,32.70042489704565
2472.2645,39.167182913869965
2473.6191,44.257855267556806
2474.973,37.32246975819771
2476.3262,24.561053743305365
2477.6787,42.473634207167834
2479.0305,31.760237888464417
2480.3816,32.070891101138386
2481.7319,32.35561984153128
2483.0816,21.064449785278157
2484.4306,18.797406284459612
2485.7789,37.05451448051235
2487.1264,26.68579932690045
2488.4733,31.741285406542374
2489.8195,22.02099703550175
2491.165,12.074958212428555
2492.5097,32.50319271576291
2493.8538,22.95572420319695
2495.1972,24.532576007393345
2496.5398,17.583771231455557
2497.8818,23.259332733162864
2499.2231,23.90928319445902
2500.5637,10.933645064695156
2501.9035,25.282440554132336
2503.2427,10.155691763697632
2504.5812,25.203420541493415
2505.919,14.075648634068784
2507.256,17.372397535938944
2508.5924,11.793688600862879
2509.9281,21.339543008876262
2511.2631,18.2099818220795
2512.5974,29.505025889176977
2513.9309,21.024695876773876
2515.2638,3.619012156426834
2516.596,27.58799488944578
2517.9275,21.73166420095049
2519.2583,27.850039940182796
2520.5884,-1.806858260932131
2521.9178,10.310988951032868
2523.2465,26.50361898001711
2524.5745,10.97106912685058
2525.9018,14.713376427328058
2527.2284,17.530577807534883
2528.5543,9.172710046422708
2529.8796,13.43980974763781
2531.2041,6.031913423101287
2532.5279,20.49905745033675
2533.851,26.94127814654803
2535.1735,27.308611623950128
2536.4952,26.351093725345436
2537.8163,24.368760020451646
2539.1366,37.11164581547973
2540.4562,35.779786172950026
2541.7752,35.773215784269496
2543.0935,26.091968983046854
2544.411,28.786079745159213
2545.7279,42.855581785565846
2547.0441,50.20050853136695
2548.3596,50.520892981106044
2549.6744,56.06676763132373
2550.9885,49.93816447335212
2552.3019,49.38511493785859
2553.6146,50.00764995612849
2554.9266,57.55579996559845
2556.2379,48.87959490362937
2557.5485,60.629064132025405
2558.8585,60.20423652379259
2560.1677,56.05514034564658
2561.4762,65.13180326226075
2562.7841,68.88425237775664
2564.0913,74.96251414493781
2565.3977,74.61661432776873
2566.7035,63.14657794058553
2568.0086,73.60242925156444
2569.313,58.1341918974133
2570.6167,81.54188877881893
2571.9197,81.72554221512928
2573.222,84.93517371027156
2574.5236,84.6208039509172
2575.8246,89.23245277438582
2577.1248,82.82013917179097
2578.4244,76.88388124192079
2579.7232,94.07369625536307
2581.0214,92.18960071386823
2582.3189,92.58161017845032
2583.6157,96.44973928822833
2584.9118,83.79400175650494
2586.2072,100.76441033208584
2587.5019,89.86097692583667
2588.7959,100.93371244098194
2590.0893,110.73262688213595
2591.3819,100.05772924457779
2592.6739,109.75902741626123
2593.9652,94.68652828456243
2595.2557,115.6402376392698
2596.5456,111.07016032330444
2597.8348,103.0263000231871
2599.1234,109.15865931473763
2600.4112,101.06723974351371
2601.6983,99.45204176348716
2602.9848,113.16306481795846
2604.2705,92.30030735570767
2605.5556,91.41376669388592
2606.84,99.20343922664097
2608.1237,100.2193204339851
2609.4067,99.11140480389736
2610.689,91.77968582216431
2611.9707,105.97415598345947
2613.2516,100.49480686466131
2614.5319,94.0416289829077
2615.8115,89.2146118503897
2617.0903,79.7637440388828
2618.3685,85.88901322801735
2619.6461,74.39040629978854
2620.9229,90.31790927730162
2622.199,84.1215074397594
2623.4745,94.35118516318585
2624.7493,97.15692598239184
2626.0234,78.58871248867695
2627.2968,103.94652630177234
2628.5695,98.9303482555224
2629.8415,84.69015814430759
2631.1128,85.87593477320547
2632.3835,85.63765610039331
2633.6535,76.32529922529011
2634.9228,87.58884039093732
2636.1914,76.37825507712614
2637.4593,82.04351788775921
2638.7265,76.43460266295779
2639.9931,81.05148242240966
2641.259,85.44412942145686
2642.5242,78.91251510492725
2643.7887,89.95661006320665
2645.0525,82.92638409755796
2646.3156,75.62180610967926
2647.5781,71.99284417200442
2648.8398,74.78946560075156
2650.1009,77.41163699221056
2651.3613,77.05932419477881
2652.6211,86.33249228273667
2653.8801,78.98110555977382
2655.1385,78.80512746625482
2656.3961,82.50452065273453
2657.6531,80.47924698171755
2658.9094,83.52926749066296
2660.1651,87.90454241223892
2661.42,79.00503114382172
2662.6743,89.0806922037425
2663.9279,88.5814833202844
2665.1808,82.75736133092391
2666.433,89.65828218732304
2667.6846,88.68420101357174
2668.9354,105.43507203717786
2670.1856,93.36084859880793
2671.4351,100.11148298477747
2672.6839,95.93692654779488
2673.9321,96.08712963945345
2675.1795,99.0620416519796
2676.4263,102.16161101672765
2677.6724,105.63578517443261
2678.9179,97.83451054421425
2680.1626,106.95773248883506
2681.4067,116.25539539271199
2682.6501,107.57744257068589
2683.8928,106.67381617504407
2685.1348,113.39445728230044
2686.3761,96.28930590223126
2687.6168,93.05830091066878
2688.8568,99.95138022055335
2690.0961,90.41848081424223
2691.3348,85.4595386745807
2692.5727,99.67448888022977
2693.81,93.36326565525633
2695.0466,100.77580222698248
2696.2826,89.61203088909815
2697.5178,89.77188292753544
2698.7524,82.90528873210792
2699.9863,100.46217779491121
2701.2195,94.84247877898838
2702.452,97.79611934276272
2703.6839,105.42302619623206
2704.9151,103.77312507143483
2706.1456,100.59634064617899
2707.3755,106.14259656054242
2708.6046,116.71181544864044
2709.8331,124.45391888316408
2711.0609,123.76882726968506
2712.2881,124.80645976923756
2713.5145,120.26673430516689
2714.7403,130.94956755275462
2715.9654,138.35487498461544
2717.1899,134.93257076386817
2718.4136,142.28256767008315
2719.6367,156.2547771335062
2720.8591,160.54910916155677
2722.0809,160.11547219910813
2723.3019,170.75377308554198
2724.5223,166.56391705908732
2725.7421,183.59580765043575
2726.9611,172.54934672463924
2728.1795,165.2744343107936
2729.3972,168.92096871250078
2730.6142,168.03884658062134
2731.8306,157.7279628768049
2733.0462,144.0882108823148
2734.2612,134.0694823011347
2735.4756,132.27166739636732
2736.6892,121.19465509042152
2737.9022,95.68833298299046
2739.1145,91.8525874618224
2740.3262,82.33730395778207
2741.5372,89.19236698321015
2742.7475,68.16766022707384
2743.9571,66.9630664864178
2745.1661,58.52846787660951
2746.3744,59.113745843386596
2747.582,49.56878124720242
2748.7889,50.14345435737346
2749.9952,43.78764494752886
2751.2008,31.35123228986413
2752.4057,33.58409521869794
2753.61,31.23611225483819
2754.8136,35.357161583252264
2756.0165,25.047121076546546
2757.2188,31.455868253756307
2758.4204,28.283280383446254
2759.6213,25.4792344196228
2760.8215,27.44360703346092
2762.0211,26.37627464134289
2763.22,17.677113385215307
2764.4182,28.495999143262907
2765.6158,12.03280761689848
2766.8127,6.887414222575899
2768.009,5.5596942564213805
2769.2045,11.999522945686522
2770.3994,12.956775462026826
2771.5936,22.031326857103295
2772.7872,0.6730520530086324
2773.9801,-7.218174248475634
2775.1723,2.2075226477004435
2776.3639,-7.449910453852226
2777.5548,-8.090526770596853
2778.745,-10.014305095392956
2779.9346,-8.871143396737352
2781.1235,0.48916039978075787
2782.3117,-1.6331030087060299
2783.4992,-10.037642929955837
2784.6861,-0.9741523570287427
2785.8723,-13.492224006931337
2787.0579,-10.291440864889864
2788.2428,-6.171251128813765
2789.427,2.3189998148825453
2790.6106,-2.469971769418862
2791.7935,-2.537449640523846
2792.9757,-2.332692882222318
2794.1573,-0.4049352291822288
2795.3382,9.04661288752959
2796.5184,15.822745082148458
2797.698,13.474254878444754
2798.8769,23.55193564196179
2800.0551,24.006580603500197
2801.2327,39.538982758341945
2802.4096,46.09993486170333
2803.5859,48.19022927341052
2804.7615,55.91065789229242
2805.9364,66.66201213527575
2807.1106,85.99508286017954
2808.2842,91.0106602582041
2809.4572,108.95953366059939
2810.6294,120.44249148851009
2811.801,144.46032107348606
2812.972,165.1138085426535
2814.1423,196.30373857853624
2815.3119,218.28089421252002
2816.4808,247.54605651295446
2817.6491,270.20000436538
2818.8167,309.2935141798773
2819.9837,333.1273596645269
2821.15,369.80231143447554
2822.3157,399.7191367735966
2823.4807,444.92859926774054
2824.645,471.4814585055667
2825.8086,505.7284696264494
2826.9716,553.3203830549483
2828.134,578.6579441583397
2829.2957,615.2918927706964
2830.4567,634.872962939513
2831.617,637.9018825593648
2832.7767,638.6293731760995
2833.9358,657.9061499565455
2835.0941,644.3829216812387
2836.2519,632.2603905516542
2837.4089,617.1892523254373
2838.5653,619.3201964376306
2839.7211,606.3039061513837
2840.8761,606.2910585366456
2842.0306,604.8823246003276
2843.1843,616.8783692864295
2844.3374,635.9298514901291
2845.4899,659.6374239378208
2846.6417,695.0017329966015
2847.7928,738.9734184371937
2848.9433,763.9031130803032
2850.0931,802.3914423569017
2851.2422,829.4890240589303
2852.3907,870.2964679544168
2853.5385,919.2643755164986
2854.6857,938.0433395153489
2855.8323,975.2339435284973
2856.9781,1005.7867617530407
2858.1233,1029.9523586337366
2859.2679,1053.731288557476
2860.4118,1106.3240956116263
2861.555,1127.2313133462421
2862.6976,1152.6034642481377
2863.8395,1178.591059531815
2864.9808,1192.294598885741
2866.1214,1210.6145702124727
2867.2614,1224.3514494916215
2868.4007,1223.3557005966518
2869.5393,1233.6777751575169
2870.6773,1237.068112570611
2871.8146,1236.3771398955532
2872.9513,1242.7552718212803
2874.0874,1243.3529106729584
2875.2227,1234.820446348202
2876.3574,1218.4082563110956
2877.4915,1202.5167056775213
2878.6249,1177.3461473792777
2879.7577,1163.1969223229976
2880.8898,1143.419359641853
2882.0212,1148.3137768370452
2883.152,1140.9804799755848
2884.2821,1132.4197636413428
2885.4116,1130.8819110083873
2886.5405,1131.2171939265877
2887.6686,1119.0758729369966
2888.7962,1134.5081972684936
2889.923,1146.664404959201
2891.0493,1151.5947227021575
2892.1748,1148.2493657237599
2893.2997,1145.528537734457
2894.424,1165.0824309622049
2895.5476,1171.2612261796735
2896.6706,1190.915092508711
2897.7929,1205.9941873585508
2898.9145,1223.898656229278
2900.0355,1225.2286325610337
2901.1559,1256.0842375549755
2902.2756,1271.8655801599746
2903.3946,1284.2227567640605
2904.513,1307.0058510366066
2905.6308,1316.6649338047605
2906.7479,1329.8000628256104
2907.8643,1342.3112826895958
2908.9801,1360.298624689156
2910.0953,1357.7121066936174
2911.2098,1353.2517329693212
2912.3236,1343.2674942054878
2913.4368,1339.6093675588195
2914.5494,1330.6273167533468
2915.6613,1326.1212921170036
2916.7725,1305.791230671453
2917.8831,1289.8870561771437
2918.9931,1252.508679336614
2920.1024,1242.9559979535316
2921.211,1235.4288973064768
2922.319,1221.5772502444702
2923.4264,1211.7009172622454
2924.5331,1215.549746638762
2925.6391,1204.2735745359698
2926.7445,1214.6222249603243
2927.8493,1210.9955098755433
2928.9534,1203.3932290991243
2930.0569,1214.265170338609
2931.1597,1224.311109267609
2932.2619,1220.0808094170823
2933.3634,1229.7240220748786
2934.4643,1221.7404863280392
2935.5645,1217.9299289663657
2936.6641,1196.842064562256
2937.763,1198.5265955088082
2938.8613,1182.2332122307002
2939.959,1160.4615931673443
2941.056,1118.6614049358213
2942.1523,1072.1323025485954
2943.248,1021.2239298315172
2944.3431,977.085919889115
2945.4375,910.7178956136785
2946.5313,854.0694701266383
2947.6244,797.3402474422467
2948.7169,729.529823034062
2949.8087,678.4877844022405
2950.8999,629.1637117516399
2951.9904,581.7571785022401
2953.0803,529.4177517823853
2954.1696,500.144992902847
2955.2582,461.8384578802202
2956.3462,441.14769772964996
2957.4335,411.57225884789773
2958.5202,400.51168322024705
2959.6062,387.4655087162605
2960.6916,365.33326920038235
2961.7764,348.9144946624026
2962.8605,352.05871143877835
2963.9439,346.16544237682274
2965.0267,342.3842068032618
2966.1089,330.3645205831673
2967.1905,339.4058961577698
2968.2714,340.1078426646542
2969.3516,328.5198658473471
2970.4312,332.89146804829727
2971.5102,339.57214832475415
2972.5885,347.7114024050534
2973.6662,344.9087226218097
2974.7432,351.1135978305233
2975.8196,348.1755134376083
2976.8954,347.94395133834314
2977.9705,344.7183899462516
2979.045,346.2483041954181
2980.1188,333.0331655727434
2981.192,331.1724421026453
2982.2645,317.31559847921096
2983.3364,301.91209608480256
2984.4077,291.01139312862745
2985.4783,277.4129448007717
2986.5483,257.66620338120856
2987.6177,251.82061837578203
2988.6864,233.92563671367384
2989.7545,202.0307028058603
2990.8219,187.13525872406126
2991.8887,169.23874451969004
2992.9548,158.39059837280797
2994.0204,128.1402567710893
2995.0852,122.18715461830288
2996.1495,102.13072553681548
2997.2131,88.72040192712223
2998.276,79.75561516841151
2999.3383,62.43579575266892
3000.4,50.910373374323285
3001.4611,45.028777103446146
3002.5215,35.04043550100607
3003.5812,39.99477667768451
3004.6404,17.341228393758456
3005.6989,5.829218009556826
3006.7567,14.458172711996895
3007.8139,-2.972480370296239
3008.8705,2.4866857467214913
3009.9264,0.6351277421725854
3010.9818,7.82230227031323
3012.0364,-4.652334020951685
3013.0905,1.1106754380607526
3014.1439,-13.539166306149582
3015.1966,-1.902356218190107
3016.2487,-11.82925600639635
3017.3002,-5.970208374565914
3018.3511,-2.025437852229743
3019.4013,-3.04510932653659
3020.4509,-8.079367450511995
3021.4998,-3.3783264565395257
3022.5481,-4.192019864122813
3023.5958,-0.7204474432840016
3024.6428,0.036432914232705116
3025.6892,1.9786705139528067
3026.735,-0.8936853389620865
3027.7802,1.4194146408638062
3028.8247,3.0180286667217615
3029.8685,12.55221493770955
3030.9118,5.022031622744521
3031.9544,13.87753676522209
3032.9963,18.518788358317693
3034.0376,17.845844256431747
3035.0783,23.75876212877722
3036.1184,34.85759946610938
3037.1578,32.892413521595245
3038.1966,40.66326119982671
3039.2348,38.970199076470976
3040.2723,45.86328332056303
3041.3092,44.04256971143616
3042.3455,41.30811356979103
3043.3811,31.15996977590288
3044.4161,43.1981927969656
3045.4505,40.822836788573795
3046.4842,53.68395547434028
3047.5173,47.831602169649784
3048.5498,50.76582965304772
3049.5816,42.136690224764095
3050.6128,48.09423567737076
3051.6434,44.888517382072735
3052.6734,52.06958622913322
3053.7027,47.587492659930376
3054.7314,45.64228659514674
3055.7594,47.284017479590204
3056.7868,49.36273430164624
3057.8136,49.07848557686032
3058.8398,45.03131932715064
3059.8653,50.62128308365084
3060.8902,50.998423927181534
3061.9145,48.2627884323507
3062.9381,37.31442266378218
3063.9612,49.25337220347234
3064.9835,55.02968226027343
3066.0053,49.19339755050402
3067.0264,53.494562240186156
3068.0469,49.033220003408246
3069.0668,44.259413979313194
3070.086,51.223186816711916
3071.1046,47.674580721821826
3072.1226,45.06363738862831
3073.1399,38.24039803437148
3074.1567,32.75490342565524
3075.1727,31.55719394667949
3076.1882,29.597309654095568
3077.203,29.275290288982717
3078.2173,29.941175296447454
3079.2308,28.895003828843414
3080.2438,23.086814739112356
3081.2561,22.91664659124632
3082.2678,21.134537718369586
3083.2789,18.940526224440134
3084.2893,14.784650002070748
3085.2991,19.166946754469336
3086.3083,10.387454036997042
3087.3169,9.29620921334623
3088.3248,13.893249543334662
3089.3321,12.528612193818162
3090.3388,9.302334192720195
3091.3449,8.214452442678237
3092.3503,12.76500375330653
3093.3551,6.354024852075327
3094.3593,4.931552338804693
3095.3629,3.847622749774814
3096.3658,10.70227257195063
3097.3681,6.99553825382111
3098.3698,5.577456136852447
3099.3708,4.098062492555641
3100.3713,3.2073935366672686
3101.3711,1.9054854439433484
3102.3702,1.2423743570661827
3103.3688,5.968096399663295
3104.3667,0.0826876829386265
3105.364,-1.3638157415848582
3106.3607,0.5786221767887127
3107.3568,-1.3899488867255627
3108.3522,1.380520737301424
3109.347,5.640094603887746
3110.3412,3.938836254246553
3111.3348,7.026809173189747
3112.3277,-0.04592319385881183
3113.32,7.420702528256584
3114.3117,4.376750173464359
3115.3028,4.272283501485674
3116.2932,6.407366228274441
3117.2831,3.1820620270619315
3118.2723,7.996434507005915
3119.2608,4.150547245443704
3120.2488,-0.9555362602515629
3121.2361,1.1282474457878493
3122.2229,-2.1480286347631363
3123.209,7.565708488488099
3124.1944,6.919553264740387
3125.1793,13.31360006753522
3126.1635,6.947943201219118
3127.1471,7.122676837002587
3128.1301,11.137895076617156
3129.1125,8.393691950567415
3130.0942,8.19016137797928
3131.0753,12.02739719404184
3132.0558,12.105493152042925
3133.0357,8.774542884996379
3134.015,14.334639904861433
3134.9936,8.435877635852023
3135.9716,15.528349358835783
3136.949,8.612148270321654
3137.9258,11.98736741153516
3138.902,13.854099737580498
3139.8775,14.862438083688403
3140.8524,13.4124751465487
3141.8267,22.054303474226913
3142.8004,19.388015480663967
3143.7735,17.36370335925787
3144.7459,20.481459109526583
3145.7178,21.691374557351224
3146.689,25.89354132379836
3147.6596,26.038050813020902
3148.6295,19.974994170236414
3149.5989,20.204462280282257
3150.5676,22.376545828245952
3151.5357,17.791335297170548
3152.5032,28.548920946333766
3153.4701,24.54939285710023
3154.4364,22.692840825345428
3155.402,29.5793544014511
3156.367,27.859022908870656
3157.3315,24.73193537526396
3158.2952,28.198180549700822
3159.2584,26.257846933931745
3160.221,25.361022747725457
3161.1829,27.907795948272536
3162.1442,26.198254239153272
3163.105,30.38248504487032
3164.065,27.06057552794357
3165.0245,32.03261254706803
3165.9834,28.598682690333106
3166.9416,32.95887222550209
3167.8993,35.61326713435142
3168.8563,35.861953069068846
3169.8127,36.20501532570938
3170.7684,26.142538841708728
3171.7236,35.52460819245229
3172.6782,34.35130769190033
3173.6321,38.372721298766976
3174.5854,36.08893262825333
3175.5381,41.45002491183351
3176.4902,42.35608102009235
3177.4417,39.8571834091145
3178.3926,42.503414111424036
3179.3428,45.64485476097323
3180.2924,47.831586566680244
3181.2415,40.26369028101465
3182.1899,45.54124617813025
3183.1377,45.514334129543954
3184.0848,44.58303355136036
3185.0314,38.547423404540666
3185.9773,45.05758220421603
3186.9227,46.363588080043314
3187.8674,48.11551871110373
3188.8115,47.66345131284265
3189.755,48.70746261955031
3190.6979,49.997628888882474
3191.6402,46.58402589142031
3192.5818,52.16672889776888
3193.5229,52.69581271269303
3194.4633,49.12135161929041
3195.4031,55.24341937370062
3196.3423,54.71208924084982
3197.2809,57.92743393323002
3198.2189,54.83952561621243
3199.1563,56.59843587589394
3200.0931,61.55423574997623
3201.0292,57.75699571017668
3201.9648,57.506785612670285
3202.8997,56.703674736062226
3203.834,67.19773178388988
3204.7677,65.88902489265396
3205.7008,63.677621526878
3206.6333,64.2135884921953
3207.5652,63.89699195746306
3208.4964,68.22789744940269
3209.4271,69.80636985576567
3210.3571,69.98247338202454
3211.2865,69.65627153558806
3212.2154,65.72782712404045
3213.1436,71.29720225840319
3214.0712,74.46445839241946
3214.9982,72.22965626686059
3215.9246,69.19285587785323
3216.8503,74.70411649922762
3217.7755,73.91349671288552
3218.7001,75.57105435368752
3219.624,75.67684651735917
3220.5473,79.48092954391569
3221.4701,77.0833590166037
3222.3922,79.13418972386077
3223.3137,77.38347568329077
3224.2346,79.7812701211558
3225.1549,81.67762548988318
3226.0746,81.42259344408764
3226.9937,82.71622482160763
3227.9121,82.35856964605574
3228.83,83.1496771138823
3229.7473,86.48959559795193
3230.6639,84.32837263963252
3231.5799,84.11605491539602
3232.4954,88.85268825843076
3233.4102,85.5383176607645
3234.3244,89.87298722589823
3235.238,93.0067402019497
3236.151,90.68961893830688
3237.0634,92.62166485429034
3237.9752,90.8029184623245
3238.8864,92.03341934861714
3239.797,93.11320619134685
3240.7069,95.3423167483582
3241.6163,94.8207878463636
3242.5251,95.84865535865235
3243.4332,101.92595421030593
3244.3408,100.10271836791927
3245.2477,97.77898077882774
3246.154,102.75477338933959
3247.0598,103.18012716797328
3247.9649,99.4550720556995
3248.8694,102.3296369616878
3249.7733,99.20384980055687
3250.6766,101.72773746362918
3251.5793,103.5013258501887
3252.4814,104.47463984224194
3253.3829,104.04770328678231
3254.2838,107.42053898605675
3255.1841,109.99316870183526
3256.0838,113.21561312168237
3256.9829,110.6878918332309
3257.8814,108.36002329195767
3258.7792,109.58202484646051
3259.6765,108.25391276173703
3260.5731,107.27570220696458
3261.4692,112.79740726878146
3262.3647,105.06904096106884
3263.2595,110.7906151697339
3264.1538,106.71214072999342
3265.0474,109.68362736915802
3265.9404,106.35508374741687
3266.8329,109.82651742812291
3267.7247,109.39793491107827
3268.616,108.06934159781981
3269.5066,105.79074179590516
3270.3966,107.61213873219842
3271.286,109.28353457565633
