RamanShift,CorrectedData
30.1047,441.20598531346684
32.3739,410.36166155564774
34.6426,379.1673333857687
36.9109,346.27299228815326
39.1787,320.0286259554516
41.4461,288.18421861758384
43.7131,258.2897513041836
45.9796,230.34520216304242
48.2456,200.50054675905395
50.5112,170.3057583536596
52.7764,142.11080820329542
55.0411,113.41566586133968
57.3054,80.8202994600625
59.5692,52.124675997577356
61.8326,24.578761663794683
64.0955,-3.2174778726218634
66.3579,-32.71407718879621
68.6199,-59.86103871924837
70.8815,-80.85803808486729
73.1426,-91.95415289476513
75.4032,-80.09765298625365
77.6634,-2.585889574657216
79.9231,220.034586300253
82.1824,736.8172494317424
84.4412,1630.315572412731
86.6995,2816.433020467966
88.9574,4002.573042519039
91.2148,4855.039059323212
93.4717,5302.134451612017
95.7282,5421.9125515665955
97.9842,5445.626638346745
100.2398,5405.379936893134
102.4949,5345.375617690172
104.7495,5282.416797168463
107.0036,5201.756538304859
109.2573,5122.197851252039
111.5105,5028.393694145125
113.7632,4918.0469738972515
116.0154,4837.2105471376235
118.2672,4750.037221314972
120.5185,4633.129755505926
122.7693,4536.3408612867415
125.0197,4410.7232039023775
127.2696,4331.579403234384
129.519,4281.912035057081
131.7679,4202.5236318289935
134.0163,4162.216683189526
136.2642,4128.293636752847
138.5117,4073.3568985109587
140.7587,4022.258833172927
143.0052,3960.3017647142487
145.2512,3907.237976887832
147.4967,3813.9197138435693
149.7417,3747.5491806589735
151.9863,3673.2785442723616
154.2304,3618.909934146559
156.4739,3572.745443011606
158.717,3557.3371274084434
160.9596,3525.787008150559
163.2017,3498.047070478069
165.4433,3470.7692643732194
167.6844,3468.955504837786
169.925,3392.3076721658545
172.1651,3331.4276119619517
174.4047,3256.3671359075333
176.6439,3199.378022369779
178.8825,3141.712017152193
181.1206,3085.420834064503
183.3582,3035.0561554993196
185.5954,2981.8196329950406
187.832,2955.662887739508
190.0681,2951.987511102366
192.3037,2920.6950648966335
194.5388,2864.837081415453
196.7734,2861.1650637450184
199.0075,2832.7804863231536
201.2411,2832.334794976031
203.4742,2815.379407202022
205.7068,2827.315712176145
207.9389,2793.6450709196297
210.1704,2791.3188161805438
212.4015,2767.28825277051
214.632,2753.2046575879604
216.862,2724.9692798584474
219.0915,2725.4333412754772
221.3205,2688.098036282862
223.549,2670.8145320700846
225.777,2652.0839689456475
228.0044,2604.8074605099055
230.2314,2600.886093842377
232.4578,2556.1209299745087
234.6837,2516.313003928886
236.909,2483.363325166886
239.1339,2408.6728779867594
241.3582,2399.492621853122
243.582,2356.673492143862
245.8053,2354.8164002419426
248.0281,2303.122233963597
250.2503,2294.6918575768927
252.472,2276.876112318681
254.6932,2267.175816478893
256.9139,2232.441765578703
259.134,2214.3747324675237
261.3536,2205.9254676703563
263.5727,2194.744699568452
265.7912,2213.933134483809
268.0092,2232.9414567909807
270.2267,2262.1703287251894
272.4436,2259.420390192244
274.6601,2254.0422584762537
276.8759,2256.7865282671232
279.0913,2256.1537717143365
281.3061,2259.7445383995114
283.5204,2238.159355342733
285.7341,2250.648726966641
287.9473,2252.0131353122806
290.16,2239.5030399142147
292.3721,2180.2188777868737
294.5837,2110.8110635496582
296.7947,2052.0799900197844
299.0052,2016.226028906357
301.2152,1971.3495313976819
303.4246,1946.7008285198076
305.6334,1915.7302315852876
307.8418,1895.2880324396706
310.0495,1859.774503771202
312.2568,1798.6898993152458
314.4635,1745.0844542094246
316.6696,1671.9083856044613
318.8752,1603.9118932002357
321.0802,1571.7951599775447
323.2847,1536.4583528780695
325.4887,1508.2016231255375
327.692,1504.375106579093
329.8949,1521.7289240158666
332.0972,1528.4131811692396
334.2989,1544.777968555305
336.5001,1547.623361406027
338.7007,1515.3494195055928
340.9008,1453.0061871619532
343.1003,1386.8936935295696
345.2992,1321.81195323284
347.4976,1270.6109670272285
349.6955,1227.590722450081
351.8927,1180.7011943326343
354.0895,1150.2923452302202
356.2856,1146.7141258911583
358.4812,1101.5664755608504
360.6763,1085.2993220175567
362.8707,1054.5125820238713
365.0646,1059.6561614894017
367.258,1034.129955778626
369.4508,1010.1338496594653
371.643,1022.5177175585463
373.8346,1011.5814238011576
376.0257,1057.5748224874142
378.2162,1067.247757601619
380.4062,1063.450062552326
382.5956,1029.4315600756127
384.7844,990.7420622730579
386.9726,906.4313709519288
389.1603,871.7992780120726
391.3474,825.3455662890256
393.5339,816.0700099003375
395.7199,806.8723747101003
397.9052,808.0524184217097
400.09,824.5598906698406
402.2743,832.394533008644
404.4579,857.6560787466719
406.641,892.4942528685351
408.8235,924.6587717822854
411.0054,972.6493429710331
413.1868,1048.8656646713034
415.3675,1146.95742539313
417.5477,1170.2243031578919
419.7273,1107.2159645173947
421.9064,948.4320643212018
424.0848,837.4722463467183
426.2627,761.6361448870321
428.4399,677.4233858605044
430.6166,638.3835875691407
432.7928,571.7163615407135
434.9683,503.4213129191603
437.1432,467.2480411312581
439.3176,447.04614056957143
441.4914,416.2152009541851
443.6645,402.85480753472575
445.8371,378.81454139866946
448.0091,377.3939796049458
450.1806,375.4426954243381
452.3514,319.11025835369173
454.5216,335.0962341354252
456.6913,308.2501853208555
458.8603,316.27167111033987
461.0288,306.16024762173356
463.1967,274.7654678101785
465.3639,278.7368815692157
467.5306,267.22403604473266
469.6967,255.92647559524858
471.8622,243.7937419070472
474.0271,236.52537410714604
476.1914,215.4209088846278
478.3551,208.67988056332433
480.5182,198.05182131286074
482.6807,212.73626121606685
484.8426,225.73272837525656
487.0039,252.24074876538316
489.1647,299.20984610407186
491.3248,348.7895415865423
493.4843,358.6293534159163
495.6432,350.12879630742464
497.8015,306.6873813900038
499.9592,257.55461629130787
502.1163,200.58000557211608
504.2728,157.81305121766536
506.4287,147.6032532073932
508.5839,122.60010994260756
510.7386,96.6531183485813
512.8927,114.01177412459083
515.0461,115.17460740525576
517.199,135.29014718507733
519.3512,161.35692130681355
521.5029,210.6234562603231
523.6539,259.23827692189843
525.8043,264.6999060616017
527.9541,231.40686385711297
530.1033,175.40766783911658
532.2519,123.30083322423297
534.3999,100.38487347500359
536.5472,106.20830082096427
538.694,94.76962648780454
540.8401,92.76736063913268
542.9856,116.90001249086345
545.1305,106.0660903312396
547.2748,135.81410127950403
549.4185,139.9925513942435
551.5615,151.69994537590264
553.704,153.48478652500307
555.8458,158.14557662507104
557.987,199.73081592478138
560.1276,209.2390030913607
562.2675,270.7686347947256
564.4069,330.6682056124091
566.5456,374.2362074142602
568.6837,375.9211287634498
570.8212,290.071454480787
572.958,223.3356656278729
575.0942,170.66224036559242
577.2299,140.54965462147493
579.3648,110.99638261642713
581.4992,71.6508971658618
583.6329,57.41166997523169
585.766,101.17717203348047
587.8985,107.14587375543942
590.0304,147.1662445441675
592.1616,166.13675273127
594.2922,189.5058651766917
596.4222,153.77204707901274
598.5515,120.13376174175437
600.6802,64.93947093072074
602.8083,15.68763521037772
604.9358,9.126714495800115
607.0626,-10.4949880174172
609.1888,-2.579260309557867
611.3144,9.672214484020515
613.4393,39.35777899477171
615.5636,93.82567922872613
617.6873,135.67416079833447
619.8103,178.8014683777942
621.9327,196.8558452845623
624.0544,175.23553304808365
626.1756,121.58877122924378
628.2961,71.76379763657542
630.4159,44.15884886272261
632.5351,33.27216078269612
634.6537,52.90196882991677
636.7716,26.94650810508665
638.8889,26.05401317989208
641.0056,53.67271835655447
643.1216,74.75085767676046
645.237,87.18666464547277
647.3518,59.37837202014862
649.4659,46.12421168637684
651.5793,29.372414935965935
653.6922,5.471212599480623
655.8043,-9.981164786233421
657.9159,3.813458658251875
660.0268,-9.49664147580279
662.137,-15.713227693588124
664.2466,-2.7379676288501287
666.3556,4.477628059809376
668.4639,12.132076066081936
670.5716,2.4238483521526177
672.6786,-3.7485832411130104
674.785,-18.436771087096986
676.8907,-36.49223011083359
678.9958,-22.466291054016438
681.1002,-25.55992010096179
683.204,-11.423858997742173
685.3072,-7.8085941468302735
687.4097,-11.914497826350726
689.5115,4.258135693428812
691.6127,21.95913116806969
693.7132,-10.061729185646072
695.8131,24.945336629476515
697.9123,16.08021112730148
700.0109,19.842776572240837
702.1089,19.032915067906288
704.2061,38.500508519484356
706.3028,65.69543864183379
708.3987,97.86758676481122
710.4941,107.16683356131989
712.5887,98.49305872558989
714.6827,118.69614088018443
716.7761,111.62595766273716
718.8688,122.33238552392186
720.9608,115.56529979815377
723.0522,131.57457459652733
725.1429,136.4100828744854
727.233,171.4716962717257
729.3224,226.2092850638469
731.4112,281.6227178117356
733.4993,309.11186081418555
735.5867,290.42657755376695
737.6735,218.06672842192847
739.7596,189.1321709058584
741.845,161.42276031207803
743.9298,132.6383500557872
746.014,185.72879193796098
748.0974,200.59393643319254
750.1802,197.88363215879053
752.2624,196.14772572612264
754.3439,174.486061767725
756.4247,164.14848295465526
758.5048,123.38483021311504
760.5843,122.59494282782134
762.6631,139.9786588496445
764.7413,182.6358151035056
766.8188,254.51624701454148
768.8956,329.81978818153175
770.9718,396.04626965809257
773.0473,381.8455191996445
775.1221,336.21736060114654
777.1962,321.6116138391062
779.2697,373.42809552785866
781.3426,476.1166190656245
783.4147,557.026994116346
785.4862,564.7590255827981
787.557,488.8125127974881
789.6271,399.13724944533396
791.6966,274.53302432312876
793.7654,174.8996222362971
795.8335,120.48682524493279
797.901,106.8944136601367
799.9678,76.97216658814114
802.0339,83.56986206623742
804.0993,104.83727736199671
806.1641,92.97418890729296
808.2282,77.48037208562891
810.2916,78.95560135076676
812.3544,61.49965038166556
814.4164,41.312292067730596
816.4778,59.69329868337127
818.5385,51.89244208987657
820.5986,101.90949355160183
822.658,157.04422381397944
824.7166,220.34640260334754
826.7747,270.56579807560365
828.832,347.9521761831802
830.8886,392.8053001728549
832.9446,438.22492981188407
834.9999,433.8608209394765
837.0545,378.31272501259264
839.1085,296.5803891495857
841.1618,214.91355668568576
843.2143,170.7119679903185
845.2662,146.02536128377687
847.3175,135.55347307923603
849.368,129.24603842961596
851.4179,119.40279103230341
853.467,114.47346329222682
855.5155,132.3577864202848
857.5633,133.60549048264238
859.6105,139.26630422188964
861.6569,131.43995504456097
863.7027,122.27616896452946
865.7478,99.2246706812698
867.7922,99.0851836714969
869.8359,90.70743041967944
871.8789,99.99113241943951
873.9212,73.28601025732314
875.9629,91.74178351996761
878.0039,104.5081710611521
880.0441,114.63489081723992
882.0837,149.52165967951487
884.1226,155.01819339291387
886.1609,185.5242062071561
888.1984,226.88941082178326
890.2352,287.66351808109494
892.2714,307.64623656050117
894.3069,300.0372719587763
896.3416,249.9363268982347
898.3757,209.89310100082002
900.4091,187.65729138911274
902.4418,182.5285930867626
904.4739,191.70669924084814
906.5052,230.94130117316536
908.5358,241.8820882884438
910.5658,231.77874768200263
912.595,193.9809640303415
914.6236,161.43841969217465
916.6515,139.55079508640574
918.6786,119.6177690175582
920.7051,114.33901889464732
922.7309,125.06422093051106
924.756,117.14305019459925
926.7804,124.42518050572153
928.8041,117.96028451125903
930.8272,161.59803361434206
932.8495,162.988098038501
934.8711,162.68014639128614
936.892,175.223845650366
938.9123,192.66886116660862
940.9318,208.86485653864656
942.9506,220.6614934384229
944.9688,213.50843144923329
946.9862,206.00532794776063
949.003,178.60183817560528
951.019,146.74761531431295
953.0344,125.74231075941316
955.0491,105.58557443896007
957.063,107.97705502358667
959.0763,128.81640012807384
961.0888,128.2032562874315
963.1007,135.73726874850854
965.1119,134.11808147612146
967.1223,112.8453370777147
969.1321,117.56867681955828
971.1412,98.63774083946646
973.1495,101.80216809956937
975.1572,98.31159657562102
977.1641,110.26566322535518
979.1704,121.11400402338995
981.1759,103.00625384168916
983.1808,100.99204634107582
985.1849,110.72101415231191
987.1884,93.4927888962402
989.1911,102.55700108649444
991.1932,105.36328030178083
993.1945,117.06125509523645
995.1951,107.00055296636765
997.1951,111.88080024406872
999.1943,95.30162218723035
1001.1928,99.01264293593522
1003.1906,97.36348567725327
1005.1877,131.45377260812666
1007.1841,138.78312495186628
1009.1798,156.6511626172446
1011.1748,145.20750412520647
1013.1691,127.25176643018267
1015.1627,112.63356503453451
1017.1556,86.10251416810297
1019.1477,46.70822693439595
1021.1392,47.150315575897366
1023.1299,30.578391868007657
1025.12,17.24206711462648
1027.1093,6.590952313870275
1029.0979,31.37465829143548
1031.0859,60.14279580710809
1033.0731,85.29497530692834
1035.0596,86.93080663551245
1037.0454,74.59989878452461
1039.0304,52.651859876325034
1041.0148,30.786297287273555
1042.9985,23.55281786721389
1044.9814,11.051028158125973
1046.9636,-6.319465533536459
1048.9452,-2.8590570118280993
1050.926,26.931923050654405
1052.9061,45.203172543294386
1054.8855,44.25438908615433
1056.8642,63.48526984727005
1058.8421,53.39551155212985
1060.8194,40.784810291372196
1062.7959,47.60286162168313
1064.7717,52.69936069190226
1066.7469,53.82400217484201
1068.7213,44.476480216321306
1070.695,64.05648842392111
1072.6679,63.063719960458
1074.6402,110.49786734818872
1076.6117,124.65862247872838
1078.5826,130.6956761387164
1080.5527,82.7087178682059
1082.5221,46.19743590029384
1084.4908,38.76151764099177
1086.4587,9.500650034337923
1088.426,5.064519636755904
1090.3925,-8.447187090338048
1092.3584,-1.9847837361708116
1094.3235,-5.898499502571667
1096.2879,7.111456236618778
1098.2515,39.14493303356721
1100.2145,84.60178036932848
1102.1767,85.681847333507
1104.1382,117.78498216969001
1106.099,167.16103226464793
1108.0591,223.10984382730157
1110.0185,240.53126139496135
1111.9771,293.2751272738424
1113.9351,328.64128136484624
1115.8923,395.07956063612573
1117.8488,443.73979876941985
1119.8045,417.77182549567306
1121.7596,341.77546610843
1123.7139,235.7005417235182
1125.6675,161.9968700390109
1127.6204,163.1142663959772
1129.5726,171.85254451551918
1131.524,194.36151648759596
1133.4748,162.59099268364434
1135.4248,111.9407815314853
1137.3741,67.6606898330333
1139.3226,34.400523270793656
1141.2705,37.310086850666266
1143.2176,26.48918523454995
1145.164,52.38762271124415
1147.1097,55.70520330465888
1149.0546,45.641730514827486
1150.9989,41.14700728473099
1152.9424,2.770836100937231
1154.8852,-11.38698096145663
1156.8272,-13.72664185506028
1158.7686,-10.298230776543733
1160.7092,-3.90169479342876
1162.6491,-6.486878093910491
1164.5883,-14.053585888255157
1166.5267,18.948441417181584
1168.4644,26.569603811366278
1170.4014,53.610301093782255
1172.3377,87.62093279821784
1174.2732,137.45189792235988
1176.2081,215.80359458768658
1178.1421,313.72641954115716
1180.0755,444.1707673716985
1182.0082,523.9370295309725
1183.9401,531.975593028935
1185.8713,464.98683963617214
1187.8017,352.9211458035154
1189.7315,251.52888333192823
1191.6605,144.71042049316497
1193.5888,98.9161230436905
1195.5163,73.49635529286729
1197.4432,41.85148056089747
1199.3693,27.931861433018867
1201.2947,10.087860075956996
1203.2193,-4.8301616228814055
1205.1432,-2.021841876966846
1207.0664,2.3632293535438293
1208.9889,-1.4245176933065977
1210.9106,-4.634652803106064
1212.8316,3.5332684694883483
1214.7519,5.429736869999942
1216.6715,15.45524310862129
1218.5903,31.71027784124817
1220.5084,43.595331569224754
1222.4257,48.11089447679342
1224.3424,45.75745631224527
1226.2583,70.48550634276216
1228.1735,101.79553337795392
1230.0879,122.5380255225748
1232.0016,154.61346986342596
1233.9146,188.3723522619307
1235.8269,202.91515703337677
1237.7384,216.1923666093321
1239.6492,206.20446139221212
1241.5592,215.20191962250965
1243.4686,244.03521747867308
1245.3772,304.004828987132
1247.285,386.9112257339659
1249.1922,454.15487626520644
1251.0986,517.2862452577724
1253.0042,577.005792847036
1254.9092,664.5639739955072
1256.8134,756.0612378956405
1258.7169,845.9980270942506
1260.6196,935.7747765775423
1262.5216,968.1919128717389
1264.4229,990.3998531453183
1266.3234,956.049004884839
1268.2232,917.4397656728615
1270.1223,844.8725235314587
1272.0207,805.397657308306
1273.9183,783.4655374023553
1275.8151,790.4765261585835
1277.7113,804.5809780873126
1279.6067,864.8292397940979
1281.5014,993.721649838687
1283.3953,1159.358538132536
1285.2885,1378.7902246498847
1287.181,1545.1670177713877
1289.0727,1640.7892120898
1290.9637,1613.107086746205
1292.854,1489.820904473796
1294.7435,1341.830911874696
1296.6323,1213.1873406528182
1298.5204,1088.690409093767
1300.4077,1025.3403233512754
1302.2943,959.937278692171
1304.1802,919.58146012988
1306.0653,886.1730430784571
1307.9497,860.2121937561435
1309.8333,836.3990695194511
1311.7162,820.0338191227702
1313.5984,810.7165829565013
1315.4798,775.9474932107071
1317.3605,787.4766739682852
1319.2405,800.4542415526589
1321.1197,813.680304412484
1322.9982,809.4549629918756
1324.876,772.2283095981454
1326.753,683.1504284440571
1328.6293,612.4213960200916
1330.5048,509.6912819852273
1332.3796,426.4101498742293
1334.2537,362.92805812494953
1336.127,312.24506091113926
1337.9996,286.4612087772689
1339.8714,260.0765491453594
1341.7426,229.34112657282026
1343.6129,231.7549830162959
1345.4826,218.51815813901908
1347.3515,206.7306892866743
1349.2196,188.04261161976478
1351.087,182.85395823148838
1352.9537,170.26476033461677
1354.8197,183.77504731338263
1356.6849,196.33484684937207
1358.5493,216.74418478642087
1360.4131,227.4530850050187
1362.276,259.0115692182146
1364.1383,302.7196568645277
1365.9998,314.577364792362
1367.8606,324.0347068229253
1369.7206,300.2416936316522
1371.5799,313.5983326536318
1373.4384,317.1046283215362
1375.2962,283.8605819320569
1377.1533,257.2661916108382
1379.0096,202.7214526449202
1380.8652,175.12635774868272
1382.7201,152.98089760929133
1384.5742,125.83506116264903
1386.4275,94.93883581485125
1388.2802,80.19220771364303
1390.132,57.495162057381094
1391.9832,67.59768324250126
1393.8336,41.74975509048704
1395.6832,51.15136074684756
1397.5322,51.60248293959398
1399.3803,26.5031038852253
1401.2278,18.20320528421621
1403.0745,28.202768572010427
1404.9204,3.8017750020196672
1406.7656,7.900205545628523
1408.6101,-4.301958863794198
1410.4538,4.845262628118235
1412.2968,5.791893852301428
1414.139,-3.862041408760433
1415.9805,3.283480569497442
1417.8213,17.678522093432093
1419.6613,44.72314543656739
1421.5006,53.317412695641906
1423.3391,99.11138552016382
1425.1769,147.90512502646834
1427.0139,210.14869133977822
1428.8502,288.2421431062651
1430.6858,366.58553687061544
1432.5206,388.27892629509506
1434.3547,398.47236137611526
1436.188,371.9158882272991
1438.0206,370.3595489775462
1439.8524,353.75338203659885
1441.6835,357.39742211060343
1443.5139,354.74170036817463
1445.3435,358.3362444039526
1447.1724,362.63107826516216
1449.0005,366.17622241566505
1450.8279,362.2716936930135
1452.6545,367.96750527299764
1454.4804,362.4136667086914
1456.3056,347.76018387349427
1458.13,337.8570590166696
1459.9536,322.00429090987905
1461.7766,288.7018749462154
1463.5987,262.7498032987287
1465.4202,236.3980652534508
1467.2409,191.19664746891613
1469.0608,180.24553423967905
1470.88,146.5947079483269
1472.6984,118.69414917499284
1474.5161,93.09383703386357
1476.3331,87.84374945218451
1478.1493,83.8438634262634
1479.9648,79.44415507397093
1481.7795,70.39459967473908
1483.5935,83.14517171355942
1485.4067,76.3958449714778
1487.2192,89.8465923980898
1489.031,86.94738617903226
1490.842,94.59819760147684
1492.6522,91.8989970831235
1494.4618,94.8997540956882
1496.2705,88.60043719189912
1498.0785,90.65101397548779
1499.8858,84.25145116418116
1501.6924,84.95171456919797
1503.4981,79.50176915924249
1505.3032,92.10157905350184
1507.1075,77.35110757614734
1508.911,76.65031713033432
1510.7138,70.09916934570833
1512.5159,64.69762508541271
1514.3172,61.79564451160036
1516.1178,56.29318713944781
1517.9176,43.240211866175514
1519.7166,54.8866770260729
1521.515,48.082540521027795
1523.3126,47.07775970406192
1525.1094,44.77229144737271
1526.9055,28.81609215237995
1528.7008,27.60911777278193
1530.4954,22.251323974117213
1532.2893,48.842666145833164
1534.0824,32.18309945486385
1535.8747,43.07257857971763
1537.6663,25.261057877072517
1539.4572,24.69849127288012
1541.2473,35.33483244048216
1543.0367,32.02003480623557
1544.8253,33.95405144314964
1546.6132,37.986835104034526
1548.4003,41.46833820215943
1550.1867,54.44851277092721
1551.9723,71.47731042905684
1553.7572,70.05468225078334
1555.5414,89.73057859556866
1557.3247,122.40494912232884
1559.1074,157.97774259267476
1560.8893,178.84890654416836
1562.6705,232.21838693459495
1564.4509,261.9861279332522
1566.2305,273.4020713872537
1568.0094,281.6661565238528
1569.7876,281.77831983628244
1571.565,275.088495001115
1573.3417,292.44661287714007
1575.1176,298.10260157226253
1576.8928,314.9563862699215
1578.6672,334.8078891725311
1580.4409,364.30702933294197
1582.2138,396.3037224559257
1583.986,449.54788060318333
1585.7575,488.0894118733802
1587.5282,530.5282198697018
1589.2981,558.3642033144404
1591.0673,575.4472556246053
1592.8358,589.9272646335651
1594.6035,584.504112420216
1596.3704,578.327675164182
1598.1366,540.5978232000471
1599.9021,524.1144210791183
1601.6668,496.32732794672506
1603.4308,476.58639770705463
1605.194,465.4414793010203
1606.9564,488.99241690367217
1608.7182,535.7390500356471
1610.4791,619.0812133276581
1612.2394,723.5187360530291
1613.9988,817.1014412942714
1615.7576,937.7291448987108
1617.5156,991.8516545426593
1619.2728,1001.5187685251383
1621.0293,931.7302752266518
1622.785,820.4359530125171
1624.54,697.0855709307483
1626.2942,574.2288898250001
1628.0477,464.11566356807316
1629.8005,372.6456402904788
1631.5525,296.7685634815723
1633.3037,243.3341729042521
1635.0542,203.99220535373274
1636.804,180.5423951918865
1638.553,142.68447474066443
1640.3013,128.46817451659342
1642.0488,116.0432236093551
1643.7955,105.3093498239499
1645.5416,88.11627980494518
1647.2868,86.41373914381666
1649.0313,77.30145255087677
1650.7751,72.17914387230189
1652.5181,75.14653618125374
1654.2604,77.35335182910376
1656.0019,69.94931241575773
1657.7427,86.48413876758866
1659.4828,99.70755101147643
1661.222,130.21926840946014
1662.9606,165.16900922650302
1664.6984,207.0064904253768
1666.4354,233.38142731716277
1668.1717,238.94353314287844
1669.9072,202.6925188097274
1671.642,174.27809283547788
1673.3761,121.74996171097291
1675.1094,75.85783018427583
1676.8419,62.95140178595079
1678.5737,46.33037928798365
1680.3048,32.694464832847416
1682.0351,26.293360099711208
1683.7646,22.526766440800884
1685.4934,18.24438494540891
1687.2215,16.04591647756058
1688.9488,11.481061718837509
1690.6754,11.59952119036302
1692.4012,6.05099529844972
1694.1263,14.835184333415441
1695.8506,7.451788525068423
1697.5742,12.850507954865748
1699.297,6.131042629747299
1701.0191,2.1430924281484067
1702.7404,-1.6136428328059083
1704.461,-1.689463357420209
1706.1808,0.9653467702921716
1707.8999,-3.799479655943628
1709.6182,10.365790147944153
1711.3358,-2.7890730771715653
1713.0527,-3.864298694075842
1714.7688,-2.310088202713473
1716.4841,1.5233955013143259
1718.1987,-3.613987399813027
1719.9126,-8.222376739149126
1721.6257,7.098123753985988
1723.338,-2.502507508183953
1725.0496,-3.624292184416504
1726.7605,-5.5172269334193516
1728.4706,8.168727792778554
1730.18,-2.366333340755318
1731.8886,2.2776842493598224
1733.5964,-0.5991012138257474
1735.3036,7.353428469961841
1737.0099,2.935397486017564
1738.7156,7.496929946102341
1740.4204,3.6881499326236735
1742.1246,4.359181453019914
1743.8279,9.76014847784893
1745.5306,10.141174934076162
1747.2325,2.8023846510662906
1748.9336,8.793901356772153
1750.634,14.115848751124076
1752.3336,14.218350446113277
1754.0325,13.801529912573187
1755.7307,12.61551047915384
1757.4281,17.560415336490678
1759.1247,16.686367549064016
1760.8206,23.04349000575064
1762.5158,32.08190542856346
1764.2102,12.05173630908223
1765.9039,22.103104818067095
1767.5968,18.136133005761508
1769.289,22.6509427013782
1770.9804,21.547655552768106
1772.6711,28.626392981272488
1774.361,27.837276192757486
1776.0502,26.580426106825257
1777.7386,26.605963364707122
1779.4263,29.964008341830436
1781.1132,25.554681147563656
1782.7994,24.378101591635073
1784.4849,33.13438922822672
1786.1696,20.323663367740096
1787.8535,37.19604298923264
1789.5367,26.551646868525268
1791.2192,35.390593409478356
1792.9009,46.76300075043605
1794.5818,34.768986675836686
1796.2621,31.458668502488877
1797.9415,37.68216319951193
1799.6202,30.589587421438296
1801.2982,29.7310574459799
1802.9755,39.60668924495326
1804.6519,41.41659849286475
1806.3277,33.16090046815407
1808.0027,33.68971003509478
1809.6769,34.153141726352146
1811.3504,37.0013097376941
1813.0231,38.93432792335716
1814.6951,41.05230976756502
1816.3664,37.75536836519848
1818.0369,41.793616400615406
1819.7067,41.51716618062039
1821.3757,33.57612959408209
1823.044,37.970618114697686
1824.7115,41.45074288040337
1826.3783,46.41661464942945
1828.0443,42.21834376549873
1829.7096,44.20604010816885
1831.3741,42.429813134813344
1833.0379,46.58977186074651
1834.701,42.0360248769847
1836.3633,48.61868030864673
1838.0248,41.83784586049137
1839.6856,40.24362875109057
1841.3457,53.33613578063853
1843.005,61.16547334689278
1844.6636,55.33174731425015
1846.3214,51.48506293545336
1847.9785,53.82552490992725
1849.6349,55.75323742224691
1851.2904,45.01830411873232
1852.9453,55.17082808817145
1854.5994,50.610911969169706
1856.2528,50.438657848624416
1857.9054,51.15416730732363
1859.5572,48.05754142166961
1861.2083,51.548880756522635
1862.8587,55.17828539616778
1864.5084,55.295854909401555
1866.1572,52.50168831323799
1867.8054,44.59588407173271
1869.4528,47.228540123924404
1871.0994,58.94975396289328
1872.7453,57.80962260943397
1874.3905,49.408242494843876
1876.0349,49.99570947232462
1877.6786,61.322118900995974
1879.3215,54.637565640020284
1880.9637,62.142143935339504
1882.6051,59.585947486520354
1884.2458,56.469069371708315
1885.8858,54.9416020731893
1887.525,57.853637508559245
1889.1634,64.65526704599847
1890.8011,56.7965814751509
1892.4381,63.427670939108225
1894.0743,54.74862501299617
1895.7098,54.95953263766455
1897.3446,57.21048220647674
1898.9786,58.55156156320152
1900.6118,60.232857979503024
1902.2443,57.554458141530176
1903.8761,70.26644813310384
1905.5071,60.868913462500814
1907.1374,60.81193893533339
1908.7669,59.69560874852539
1910.3957,58.32000649088138
1912.0237,56.63521515425043
1913.651,63.74131714728151
1915.2776,59.68839431227218
1916.9034,56.02652785410726
1918.5285,52.20579838078709
1920.1528,58.77628594004727
1921.7764,50.33807005756614
1923.3992,52.24122967125936
1925.0213,54.63584321566219
1926.6427,55.32198860289793
1928.2633,40.949743198731426
1929.8832,50.819183815707675
1931.5023,45.73038685687442
1933.1207,44.63342821708818
1934.7383,58.87838333390164
1936.3552,49.06532719853374
1937.9714,48.34433421341953
1939.5868,52.715478290341366
1941.2015,49.52883285763852
1942.8154,54.88447081649571
1944.4286,39.33246457280978
1946.041,44.17288598363319
1947.6528,50.45580651269404
1949.2637,46.23129718199198
1950.8739,40.59942850896891
1952.4834,42.56027054875392
1954.0921,44.91389295048191
1955.7001,48.26036493768487
1957.3074,39.44975528475629
1958.9139,40.63213228348627
1960.5197,40.007563831167545
1962.1247,43.176117418771355
1963.729,47.58786013719401
1965.3325,41.79285864557045
1966.9353,50.24117912715775
1968.5374,47.58288734728421
1970.1387,37.66804856886648
1971.7393,42.796727578992545
1973.3392,44.46898878807025
1974.9383,41.83489617854002
1976.5366,36.79451328815247
1978.1342,34.847903236309776
1979.7311,39.54512877446916
1981.3273,42.83625230560898
1982.9227,34.92133583725621
1984.5173,41.750440948576
1986.1112,37.173628869519916
1987.7044,41.84096041253548
1989.2968,37.80249601833407
1990.8885,40.00829570921752
1992.4795,45.208419129463266
1994.0697,36.55292552326523
1995.6592,36.89187368273372
1997.2479,38.57532203444953
1998.8359,45.75332863607525
2000.4232,30.425951159520423
2002.0097,39.9932468191613
2003.5955,40.70527252511528
2005.1805,42.462084787566994
2006.7648,29.513739709648746
2008.3484,35.760292969871955
2009.9312,36.25179995161045
2011.5133,42.6883156806357
2013.0946,39.91989482020125
2014.6752,40.546591606677566
2016.2551,35.01845987723624
2017.8342,34.38555306358353
2019.4126,32.947924247240906
2020.9902,36.3056261658748
2022.5672,35.20871122767238
2024.1433,36.757231477765
2025.7188,36.651238609197264
2027.2935,30.440783947441673
2028.8674,33.625918451458574
2030.4406,27.05669277580091
2032.0131,42.43315723876293
2033.5849,38.85536188807208
2035.1559,32.52335634712449
2036.7261,28.98718985076266
2038.2957,34.096911308595736
2039.8645,34.30256934036106
2041.4325,37.304212224826756
2042.9998,42.40188789773572
2044.5664,34.345643921788394
2046.1323,37.13552743566686
2047.6974,35.921585234596705
2049.2617,39.30386374244864
2050.8254,30.382409023877642
2052.3883,39.80726675049999
2053.9504,32.32848229010807
2055.5118,36.846100612421594
2057.0725,38.51016636387561
2058.6325,35.42072382244436
2060.1917,42.27781688100049
2061.7502,34.43148907820961
2063.3079,40.68178352995909
2064.8649,40.878743007822436
2066.4212,33.222409876555275
2067.9767,37.21282609212608
2069.5315,34.35003327827923
2071.0856,30.134072686630873
2072.6389,42.36498522529695
2074.1915,28.092811501052893
2075.7433,33.267591697024386
2077.2945,33.739365715409406
2078.8448,33.40817312573034
2080.3945,37.57405316011602
2081.9434,39.187044716613514
2083.4916,34.1971863175296
2085.039,28.104516093300674
2086.5857,24.359071832391635
2088.1317,38.61089104222236
2089.677,35.360010986622115
2091.2215,34.15646854331152
2092.7652,25.600300236411044
2094.3083,38.941542248476765
2095.8506,39.03023050606174
2097.3921,33.11640054630374
2098.933,33.600087516038286
2100.4731,34.93132623093709
2102.0124,38.210151170671
2103.5511,34.286596465597654
2105.089,34.01069586397324
2106.6261,38.93248277118835
2108.1626,46.15199025252696
2109.6983,37.7192509839486
2111.2332,39.384297179893224
2112.7675,44.097160677608485
2114.301,29.35787292049946
2115.8337,34.716464910999605
2117.3657,35.622967357963944
2118.897,35.77741062308331
2120.4276,40.62982471181874
2121.9575,32.88023927185719
2123.4866,36.87868354458749
2125.0149,36.12518644259626
2126.5426,35.269776509683595
2128.0695,35.762481928397904
2129.5956,34.70333052859013
2131.1211,27.892349782486747
2132.6458,30.82956681528094
2134.1698,28.415008473242892
2135.693,34.748701294346915
2137.2155,36.88067153241758
2138.7373,40.46094509379259
2140.2584,32.18954751600296
2141.7787,28.31650393197009
2143.2983,37.44183915272038
2144.8171,34.96557770611497
2146.3353,35.38774374559682
2147.8527,31.758361074953257
2149.3693,32.877453144094375
2150.8853,34.295043085347004
2152.4005,33.911153702263846
2153.9149,34.325807455447034
2155.4287,29.689026466387304
2156.9417,41.200832513317664
2158.454,33.76124707758083
2159.9655,33.07029122851168
2161.4764,38.67798569783264
2162.9865,33.284350886563686
2164.4958,36.38940680894484
2166.0045,33.593173146372806
2167.5124,39.14566921635071
2169.0195,29.246914000449635
2170.526,33.04692608878423
2172.0317,36.69572377900022
2173.5367,31.84332503827403
2175.0409,26.889747466825156
2176.5445,37.98500834643994
2178.0473,34.97912469000755
2179.5494,30.822113130567402
2181.0507,38.06398995136783
2182.5513,27.45477112743629
2184.0512,29.594472253160518
2185.5504,32.533108648380676
2187.0488,31.57069533699257
2188.5465,33.20724701756103
2190.0435,35.5427780729442
2191.5397,29.97730255392827
2193.0353,24.56083415587142
2194.5301,28.743386274359068
2196.0241,31.774972059368565
2197.5175,26.005604373442964
2199.0101,28.3852957613762
2200.502,30.61405850790578
2201.9931,26.24190461391703
2203.4835,28.118845774154636
2204.9733,27.994893420944607
2206.4622,28.770058705424333
2207.9505,24.89435249878244
2209.438,26.117785384507442
2210.9248,27.04036769714412
2212.4109,22.56210951005994
2213.8962,17.28302062621873
2215.3809,24.953110622963663
2216.8648,26.92238890480752
2218.3479,28.64086462673231
2219.8304,22.558546674496142
2221.3121,23.125443647448776
2222.7931,25.541563919354587
2224.2733,24.95691563272362
2225.7529,20.72150667465064
2227.2317,22.08534468266157
2228.7098,22.74843708706726
2230.1872,15.01079109732558
2231.6638,25.822413695410205
2233.1397,20.933311713187095
2234.6149,22.493491724298394
2236.0894,17.702960093053264
2237.5632,21.86172295882602
2239.0362,19.669786283961685
2240.5085,21.977155812188016
2241.9801,23.983837090535417
2243.4509,19.0398354462626
2244.921,25.045155966789878
2246.3904,19.89980354913922
2247.8591,22.203782839881114
2249.3271,18.20709828658812
2250.7943,16.159754114795362
2252.2608,16.361754367967023
2253.7266,19.713102927970226
2255.1917,14.063803513054438
2256.656,14.313859644338493
2258.1197,14.213274702303124
2259.5826,18.212051924290563
2261.0447,18.410194405510367
2262.5062,15.307705059051784
2263.9669,17.004586613902234
2265.4269,13.700841645972105
2266.8862,12.396472561125677
2268.3448,16.841481628218958
2269.8026,19.73587099214359
2271.2598,16.87964262937635
2272.7162,15.972798319035519
2274.1719,17.415339671443235
2275.6268,12.707268137193523
2277.0811,17.04858499272757
2278.5346,15.139291387413948
2279.9874,14.729388300135497
2281.4395,14.068876558382499
2282.8908,12.557756842351239
2284.3414,14.69602969154954
2285.7914,19.733695519907883
2287.2406,15.420754594396783
2288.689,17.157206984649804
2290.1368,14.743052606093158
2291.5838,14.72829120258092
2293.0302,17.562922370537024
2294.4758,15.696945559102687
2295.9206,14.430360041789697
2297.3648,16.863164935140844
2298.8082,20.345359211395362
2300.251,15.726941674161083
2301.693,15.207910923592408
2303.1343,18.78826540257421
2304.5748,14.668003401912301
2306.0147,8.547123024530265
2307.4538,16.525622226671544
2308.8922,11.8534988791086
2310.3299,16.38075068735816
2311.7669,14.757375238402062
2313.2031,11.733369955414332
2314.6387,13.058732113995461
2316.0735,13.7334588724122
2317.5076,14.107547258344198
2318.941,13.680994162136415
2320.3737,12.053796333058472
2321.8056,11.925950383569898
2323.2369,16.447452805592263
2324.6674,18.068299971787667
2326.0972,12.888488090344254
2327.5263,19.258013188767052
2328.9547,16.02687116567688
2330.3823,25.89505772711425
2331.8092,19.962568418851163
2333.2355,18.429398527709225
2334.661,12.695543140884581
2336.0858,14.510997161279363
2337.5098,13.975755364840381
2338.9332,13.88981238240433
2340.3558,16.003162705050272
2341.7778,16.115800684959254
2343.199,9.377720514280668
2344.6195,13.838916224005857
2346.0393,13.04938175134896
2347.4583,14.80911089513495
2348.8767,9.76809732369523
2350.2943,13.076334557270172
2351.7113,9.233816018419162
2353.1275,18.09053499893841
2354.543,14.996484698286139
2355.9578,11.351658135015043
2357.3718,17.05604817771311
2358.7852,8.909647581452134
2360.1978,13.562448930743415
2361.6098,17.614444721001632
2363.021,11.015627312017244
2364.4315,8.915988887436214
2365.8413,14.015521520748138
2367.2504,16.414217196283175
2368.6587,9.562067758216273
2370.0664,13.509064886580234
2371.4733,12.25520016578713
2372.8795,10.6504650451582
2374.285,9.694850851462888
2375.6899,12.388348804966313
2377.0939,12.230950028984836
2378.4973,8.122645522951501
2379.9,7.563426163990329
2381.3019,11.153282747999299
2382.7032,10.542205995242455
2384.1037,10.980186514451361
2385.5035,15.267214808935933
2386.9027,6.953281272204208
2388.3011,15.138376145092366
2389.6987,11.522489598904087
2391.0957,7.205611653559629
2392.492,6.137732213753964
2393.8876,8.868841112126631
2395.2824,11.498928119939933
2396.6765,11.627982919768073
2398.07,9.405995079195947
2399.4627,5.532954049528485
2400.8547,15.458849188012039
2402.246,8.783669796563657
2403.6366,4.007405022512643
2405.0265,11.98004392535168
2406.4156,5.101575524499481
2407.8041,6.471988719574483
2409.1918,10.791272359179374
2410.5789,5.4094152271969165
2411.9652,9.67640599959745
2413.3508,3.3922332982572243
2414.7358,8.5568856482885
2416.12,0.8203515408814894
2417.5035,8.43261938165773
2418.8863,6.243677568035537
2420.2684,2.2535144131070695
2421.6497,4.912118167527865
2423.0304,4.469477059418523
2424.4104,4.17557926777863
2425.7896,3.780412926912902
2427.1682,5.383966129370492
2428.546,1.3362269298964975
2429.9232,4.287183329396441
2431.2996,0.8868233154136078
2432.6753,7.2351348326196785
2434.0503,-1.567894183181778
2435.4246,10.677724131461588
2436.7982,5.821993303264833
2438.1711,5.464916752165919
2439.5433,4.506497839882911
2440.9148,2.646739873484961
2442.2856,3.6356461149762254
2443.6557,5.173219799893673
2445.025,7.3594641274177945
2446.3937,7.394382244997189
2447.7617,5.177977226485893
2449.1289,5.11025207179415
2450.4955,7.091209729052451
2451.8613,5.520853095288771
2453.2265,8.79918499661926
2454.5909,6.7762082039515406
2455.9546,4.301925400201441
2457.3177,7.476339200522688
2458.68,5.449452177049892
2460.0416,1.671266827154227
2461.4025,0.24178559371247843
2462.7627,1.3110109028888814
2464.1222,2.5289451784300923
2465.4811,3.3455908309726112
2466.8392,7.410950245863688
2468.1966,2.625025774994782
2469.5533,8.437819696147926
2470.9093,7.799334260855062
2472.2645,7.45957163626997
2473.6191,7.218533911553209
2474.973,6.776223101269693
2476.3262,9.082641147798967
2477.6787,0.03778992575831808
2479.0305,8.79167121893883
2480.3816,6.144286433610063
2481.7319,9.495636888125063
2483.0816,5.695723839394162
2484.4306,5.144548449371484
2485.7789,8.042111823053887
2487.1264,3.688415013992966
2488.4733,6.933458995319256
2489.8195,4.727244703279183
2491.165,4.419773004784815
2492.5097,5.911044719475768
2493.8538,6.751060622793943
2495.1972,8.189821431070925
2496.5398,6.12732779312779
2497.8818,3.3135802758875172
2499.2231,3.498579384999772
2500.5637,5.38232559297856
2501.9035,7.014819337352208
2503.2427,7.1460610018257285
2504.5812,4.276050899955976
2505.919,7.254789273839293
2507.256,4.932276322811617
2508.5924,2.3085121736611143
2509.9281,8.683496903853325
2511.2631,7.207230567768704
2512.5974,3.479713132952895
2513.9309,6.600944494879371
2515.2638,5.770924514224504
2516.596,9.439652985655385
2517.9275,10.50712964612984
2519.2583,2.6233541382092085
2520.5884,5.188325999383636
2521.9178,2.002044740909838
2523.2465,6.114509822161153
2524.5745,3.8257206824906973
2525.9018,4.6356767001064725
2527.2284,7.094377214959479
2528.5543,6.551821520644012
2529.8796,4.558008839810526
2531.2041,7.862938329591486
2532.5279,2.116609101539325
2533.851,1.969020188577133
2535.1735,7.370170602461997
2536.4952,2.9700593352607996
2537.8163,4.018685305338721
2539.1366,5.316047401360493
2540.4562,6.112144471804044
2541.7752,3.806975311986889
2543.0935,8.500538656105078
2544.411,3.0928332002851278
2545.7279,7.483857555648342
2547.0441,5.873610302387732
2548.3596,1.5120899458578663
2549.6744,7.799294932677299
2550.9885,6.485223694343603
2552.3019,8.619874584361582
2553.6146,6.353245891383864
2554.9266,9.485335817864325
2556.2379,8.316142502724432
2557.5485,9.24566399003237
2558.8585,13.62389824069487
2560.1677,9.550843123162252
2561.4762,3.4264963696459176
2562.7841,9.350855616849032
2564.0913,8.623918467209847
2565.3977,6.445682429658177
2566.7035,8.016144926884749
2568.0086,4.135303317123487
2569.313,11.653154878446998
2570.6167,12.519696847574835
2571.9197,12.834926344695333
2573.222,9.148840364799582
2574.5236,10.561435774529457
2575.8246,8.122709349038388
2577.1248,7.232657757865383
2578.4244,9.941277589322453
2579.7232,8.048565359395269
2581.0214,9.554517484656884
2582.3189,11.40913030119475
2583.6157,9.01240004955119
2584.9118,11.714322856177404
2586.2072,10.714894757400515
2587.5019,8.864111672404647
2588.7959,17.911969413224995
2590.0893,13.05846370325554
2591.3819,10.553590086770782
2592.6739,13.947343977460577
2593.9652,12.989720683478936
2595.2557,12.280715373506581
2596.5456,7.170323086326903
2597.8348,16.35853873791629
2599.1234,9.645357172548017
2600.4112,12.180773070910021
2601.6983,12.464781017236874
2602.9848,11.397375473955293
2604.2705,12.728550778844436
2605.5556,10.358301155709825
2606.84,13.63662070107145
2608.1237,12.963503407866398
2609.4067,12.738943132665554
2610.689,8.612933602404922
2611.9707,12.585468416631244
2613.2516,12.956541088761952
2614.5319,8.926145006359747
2615.8115,8.344273427422053
2617.0903,11.610919520684831
2618.3685,8.276076371441548
2619.6461,9.989736948876384
2620.9229,13.601894139413048
2622.199,12.26254072957795
2623.4745,14.221669369878526
2624.7493,9.629272588197068
2626.0234,11.685342770199213
2627.2968,12.239872205257967
2628.5695,12.692853065892905
2629.8415,11.094277402225003
2631.1128,8.794137137446882
2632.3835,11.542424083808385
2633.6535,10.189129965618037
2634.9228,12.334246391760274
2636.1914,10.27776486922832
2637.4593,8.669676781672933
2638.7265,10.809973409967341
2639.9931,10.998645948288143
2641.259,11.535685482712253
2642.5242,5.471082989330213
2643.7887,14.004829328875786
2645.0525,8.536915307371899
2646.3156,10.367331590793313
2647.5781,7.646068759745674
2648.8398,8.173117291161404
2650.1009,12.848467585512282
2651.3613,6.472109961538962
2652.6211,6.69403460949755
2653.8801,6.01423165492308
2655.1385,9.38269115641026
2656.3961,10.399403112411562
2657.6531,8.914357427552602
2658.9094,11.577543902464981
2660.1651,11.538952248636917
2661.42,7.748572061781289
2662.6743,14.356392822221466
2663.9279,10.512403932795223
2665.1808,9.21659465277638
2666.433,8.318954136314744
2667.6846,9.769471445394274
2668.9354,7.718135558809379
2670.1856,10.464935357659897
2671.4351,11.209859645864384
2672.6839,10.652897122692096
2673.9321,16.294036375313823
2675.1795,14.183265884371423
2676.4263,16.620573967566372
2677.6724,15.90594880076759
2678.9179,14.63937839363831
2680.1626,15.420850596782387
2681.4067,18.850353114409884
2682.6501,7.327873496522457
2683.8928,13.753399104618225
2685.1348,8.826917226916663
2686.3761,9.798415014103256
2687.6168,14.517879528594335
2688.8568,10.685297734822115
2690.0961,14.950656452040022
2691.3348,8.813942392648528
2692.5727,7.525142119541584
2693.81,9.884242107473796
2695.0466,9.84122875594835
2696.2826,12.246088365626079
2697.5178,9.84880713875566
2698.7524,11.0993711551249
2699.9863,6.697766396033657
2701.2195,12.993978731788076
2702.452,12.137993965716745
2703.6839,11.42979777120857
2704.9151,16.96937570027248
2706.1456,12.306713190619575
2707.3755,14.491795510267195
2708.6046,12.874607804165606
2709.8331,13.905135072347079
2711.0609,14.383362186097969
2712.2881,15.609273877653266
2713.5145,10.982854735414392
2714.7403,14.504089191690142
2715.9654,17.222961568960798
2717.1899,19.63945604466575
2718.4136,20.703556624014794
2719.6367,16.465247115823246
2720.8591,19.32451112187094
2722.0809,18.78133207928518
2723.3019,23.335693231948298
2724.5223,18.337577635929208
2725.7421,19.686968113939955
2726.9611,21.433847305316817
2728.1795,16.77819765252643
2729.3972,16.920001383697013
2730.6142,14.559240559174768
2731.8306,16.695897070106014
2733.0462,10.129952662044673
2734.2612,12.911388913585782
2735.4756,11.99018730202495
2736.6892,16.46632917554396
2737.9022,14.739795762422744
2739.1145,9.810568126278042
2740.3262,11.228627183328655
2741.5372,9.44395375168773
2742.7475,7.556528537182231
2743.9571,10.666332151199626
2745.1661,7.973345129562176
2746.3744,9.227547901428835
2747.582,8.278920816225153
2748.7889,8.927444131101225
2749.9952,8.373098020417984
2751.2008,3.1658625692618614
2752.4057,2.8557177789884207
2753.61,7.092643619294591
2754.8136,4.076620031320189
2756.0165,4.75762688527864
2757.2188,2.785644010617176
2758.4204,0.010651189206768663
2759.6213,3.6826281750620353
2760.8215,3.9515547220910463
2762.0211,5.3174105473756725
2763.22,1.1801753284822496
2764.4182,4.63982868980311
2765.6158,4.146350243928879
2766.8127,0.5997195570519551
2768.009,2.5499161539012363
2769.2045,2.3969195532084626
2770.3994,1.440709248206275
2771.5936,0.381264708158227
2772.7872,1.668565387920836
2773.9801,4.352590738538083
2775.1723,3.1333201943683378
2776.3639,1.760733146244121
2777.5548,-0.2651910463352891
2778.745,3.505526958522111
2779.9346,1.6228691519668104
2781.1235,1.6868174900940858
2782.3117,-1.6526460872294564
2783.4992,-4.14553965700533
2784.6861,-0.1418647863007152
2785.8723,-1.9415816282416216
2787.0579,3.8553510812751597
2788.2428,1.2989940027532754
2789.427,0.08940775814286894
2790.6106,-0.12334704359584236
2791.7935,2.360790205603422
2792.9757,-1.458118653956177
2794.1573,4.719988194420679
2795.3382,3.5951871340346315
2796.5184,2.5175545009864777
2797.698,1.7871665954251341
2798.8769,1.4040996923240954
2800.0551,2.2684300487852767
2801.2327,0.13023390786968037
2802.4096,5.6895874899540075
2803.5859,-1.0534329858873406
2804.7615,1.4512486425242344
2805.9364,6.153719061162761
2807.1106,3.504064941489915
2808.2842,6.252372893430234
2809.4572,2.7987294918676042
2810.6294,5.09322124916217
2811.801,3.335934649686976
2812.972,8.026956126882794
2814.1423,7.316372080831158
2815.3119,10.854268831343944
2816.4808,12.990732625069427
2817.6491,20.375849600113142
2818.8167,22.55970576467334
2819.9837,25.292386923189753
2821.15,28.323978654505183
2822.3157,34.4545662845386
2823.4807,38.534234855969416
2824.645,51.31306906693145
2825.8086,55.39115323021633
2826.9716,68.06857114548488
2828.134,74.9454060584865
2829.2957,76.421740534285
2830.4567,85.14765638849002
2831.617,86.37323467249388
2832.7767,88.79855558621239
2833.9358,89.77369846582906
2835.0941,90.74874175954186
2836.2519,88.8237630178118
2837.4089,85.64883888361258
2838.5653,78.2240451116803
2839.7211,75.4994566002627
2840.8761,68.77514746536716
2842.0306,74.35119106800654
2843.1843,74.62766008144234
2844.3374,74.55462643542407
2845.4899,77.73216131342478
2846.6417,74.8603351533713
2847.7928,80.68921761586877
2848.9433,81.16887761291915
2850.0931,81.2493832496322
2851.2422,80.18080181942902
2852.3907,81.71319980323682
2853.5385,81.8466428801749
2854.6857,81.58119591223056
2855.8323,88.16692294292473
2856.9781,88.7038871999664
2858.1233,90.59215102939542
2859.2679,86.3817758902127
2860.4118,95.07282233549773
2861.555,97.71535005451234
2862.6976,99.70941778579002
2863.8395,107.85508329071085
2864.9808,108.40240333356084
2866.1214,104.5014336000751
2867.2614,111.75222869196479
2868.4007,114.80484216592684
2869.5393,114.15932646113586
2870.6773,114.71573286871813
2871.8146,118.92411153820673
2872.9513,120.93451147197739
2874.0874,121.54698048316482
2875.2227,122.46156517555868
2876.3574,127.17831093747883
2877.4915,127.69726193262963
2878.6249,126.26846105293234
2879.7577,130.84194991333578
2880.8898,139.41776886610404
2882.0212,135.29595695508186
2883.152,139.72655182993628
2884.2821,141.85958978737483
2885.4116,148.2951057268395
2886.5405,147.68313312917644
2887.6686,145.57370399228074
2888.7962,150.31684883721624
2889.923,138.6625967293097
2891.0493,147.81097523071952
2892.1748,146.81201051697806
2893.2997,148.8157272855081
2894.424,144.77214876561237
2895.5476,148.18129669843623
2896.6706,146.44319137740376
2897.7929,149.00785161412608
2898.9145,152.0252947557825
2900.0355,148.9455366594739
2901.1559,144.6185916620482
2902.2756,148.49447261089801
2903.3946,143.9231909072301
2904.513,140.20475646730642
2905.6308,140.7391777681572
2906.7479,141.07646188476502
2907.8643,138.61661448472077
2908.9801,139.55963982485073
2910.0953,142.55554077581507
2911.2098,141.40431881267767
2912.3236,137.85597398494696
2913.4368,144.96050492808817
2914.5494,140.26790889900687
2915.6613,134.37818170500356
2916.7725,135.09131775069966
2917.8831,137.40731009693502
2918.9931,124.82615045363625
2920.1024,127.24782915665688
2921.211,121.32233529358905
2922.319,121.44965667954662
2923.4264,120.87977991642006
2924.5331,122.86269039160337
2925.6391,118.64837228369274
2926.7445,118.08680854265744
2927.8493,120.37798093198313
2928.9534,121.97187003428729
2930.0569,120.06845522840773
2931.1597,127.36771467346352
2932.2619,128.46962532788925
2933.3634,124.42416287644245
2934.4643,124.73130171918433
2935.5645,132.44101501193458
2936.6641,133.85327466319973
2937.763,132.7680512570764
2938.8613,133.73531403912835
2939.959,131.80503092723885
2941.056,126.57716850193812
2942.1523,123.15169202570607
2943.248,118.42856549525092
2944.3431,107.95775167576411
2945.4375,104.1392121481514
2946.5313,90.77290741374108
2947.6244,85.05879693246939
2948.7169,77.79683925654348
2949.8087,78.43699208758262
2950.8999,68.12921234923772
2951.9904,64.77345618078974
2953.0803,59.86967904022757
2954.1696,57.46783573780556
2955.2582,51.26788048508135
2956.3462,48.96976691893428
2957.4335,48.27344816356485
2958.5202,46.32887685347596
2959.6062,49.73600514043606
2960.6916,50.84478471292485
2961.7764,46.655166762062024
2962.8605,48.767101970519434
2963.9439,46.83054055441727
2965.0267,45.24543224220476
2966.1089,48.1117262940257
2967.1905,42.37937151756961
2968.2714,44.648316239408715
2969.3516,49.01850836232153
2970.4312,42.18989534260349
2971.5102,46.312424146364975
2972.5885,40.63604131781738
2973.6662,48.360692938047976
2974.7432,45.686324681783674
2975.8196,46.8128817401445
2976.8954,44.89030884738722
2977.9705,46.968550269639834
2979.045,45.84754982412729
2980.1188,48.27725085838899
2981.192,50.25759626148894
2982.2645,42.338528439718644
2983.3364,41.41998929679365
2984.4077,38.30192031304426
2985.4783,40.23426255460094
2986.5483,39.26695670457498
2987.6177,34.5499430437351
2988.6864,34.28316146018045
2989.7545,31.116551496510866
2990.8219,31.000052352494535
2991.8887,27.08360291673415
2992.9548,31.367141767831896
2994.0204,20.850607213554014
2995.0852,20.683937247995317
2996.1495,20.517069656744603
2997.2131,16.599942018551324
2998.276,14.38249170699428
2999.3383,10.414655929652866
3000.4,8.796371750281565
3001.4611,8.577576128488339
3002.5215,5.458205935917469
3003.5812,3.9881979584375173
3004.6404,5.667488927334993
3005.6989,1.1460155340144595
3006.7567,3.2237144132056272
3007.8139,2.70052218817807
3008.8705,0.6763754499642332
3009.9264,2.9012107625913757
3010.9818,2.124964683323036
3012.0364,1.247573740410651
3013.0905,-0.7310255591439301
3014.1439,3.4891032791854144
3015.1966,2.3579040528701256
3016.2487,2.575320524490678
3017.3002,-0.5587035669514719
3018.3511,1.955775491791961
3019.4013,1.4187069954178213
3020.4509,1.5800402190652036
3021.4998,-1.9102755763138504
3022.5481,-2.0022911455676393
3023.5958,2.153961840108501
3024.6428,-1.1915282875922273
3025.6892,2.8612267814837935
3026.735,0.4122272608577262
3027.7802,-0.13852666456151042
3028.8247,0.10896518601276739
3029.8685,2.3547043772485594
3030.9118,1.1986924727242751
3031.9544,-0.4090689875287268
3032.9963,0.9814215245340208
3034.0376,-0.47983037644385007
3035.0783,-0.2928190856329138
3036.1184,2.542465795301716
3037.1578,2.1260375899575408
3038.1966,1.7079095965074416
3039.2348,4.438095091863936
3040.2723,1.8166073358604677
3041.3092,3.043459543949524
3042.3455,1.6686649134175155
3043.3811,5.792236611116294
3044.4161,6.46418778721106
3045.4505,5.484531533944697
3046.4842,4.553280878918272
3047.5173,3.9204487948875624
3048.5498,3.8360482090755355
3049.5816,6.000092009500662
3050.6128,3.462593045821002
3051.6434,3.9735641076936687
3052.6734,8.233017950149893
3053.7027,4.290967288485277
3054.7314,7.0974247556652585
3055.7594,8.70240294174559
3056.7868,7.455914365807821
3057.8136,7.757971459909484
3058.8398,7.658586581548974
3059.8653,7.6577720106450045
3060.8902,7.955539950530422
3061.9145,10.551902527960394
3062.9381,10.746871790134698
3063.9612,13.190459678734108
3064.9835,10.132678027970705
3066.0053,8.92353854015196
3067.0264,8.86305281625858
3068.0469,13.601232368035859
3069.0668,10.98808861859861
3070.086,11.573632855049368
3071.1046,11.407876254609747
3072.1226,10.990829878765084
3073.1399,10.072504674921987
3074.1567,10.002911480578746
3075.1727,9.28206103250863
3076.1882,8.25996396745581
3077.203,7.286630829343856
3078.2173,8.262072079496718
3079.2308,6.686298106372078
3080.2438,9.109319215806948
3081.2561,6.581145646775326
3082.2678,4.351787547158047
3083.2789,4.471254999024502
3084.2893,7.689558040926222
3085.2991,6.106706666702195
3086.3083,6.02271079329584
3087.3169,3.937580276583489
3088.3248,7.451324912214389
3089.3321,9.613954456461972
3090.3388,5.375478591086484
3091.3449,5.935906901708616
3092.3503,3.4452489201943166
3093.3551,8.253514119050443
3094.3593,6.26071193633139
3095.3629,3.516851727556432
3096.3658,3.071942785637777
3097.3681,2.3259943683191118
3098.3698,1.1790157026247066
3099.3708,6.181015992318908
3100.3713,6.932004429375944
3101.3711,6.08199014395985
3102.3702,6.530982196914671
3103.3688,3.878989588264556
3104.3667,4.426021252723846
3105.364,3.3720860862169886
3106.3607,4.767192940408215
3107.3568,1.361350633240903
3108.3522,7.554567934986537
3109.347,2.346853602303071
3110.3412,4.138216316302817
3111.3348,0.578664734629541
3112.3277,3.6682074735448573
3113.32,4.256853143523742
3114.3117,2.694610318359107
3115.3028,2.7814875292753527
3116.2932,0.21749328055080497
3117.2831,1.4526360486489196
3118.2723,2.3369243078582116
3119.2608,3.620366517940873
3120.2488,6.652971115289855
3121.2361,3.7347465000944524
3122.2229,1.2657010060142824
3123.209,4.195842929361483
3124.1944,2.2251805537912155
3125.1793,0.3537221210002244
3126.1635,3.8814758504334606
3127.1471,2.458449957998642
3128.1301,1.4346526207887642
3129.1125,4.310091991312319
3130.0942,2.834776207731295
3131.0753,3.0587133651067653
3132.0558,0.5819115301520448
3133.0357,1.7043787389933236
3134.015,1.2761230219376856
3134.9936,0.8471523922484643
3135.9716,5.017474850427746
3136.949,0.8870983885061108
3137.9258,3.0060309483394043
3138.902,3.2742804629125075
3139.8775,2.5418548351500085
3140.8524,4.108761935233684
3141.8267,0.6250096079267742
3142.8004,2.1906056569049
3143.7735,3.305557879593607
3144.7459,3.819874051512379
3145.7178,1.0335619151251407
3146.689,3.146629174697086
3147.6596,1.109083524157814
3148.6295,5.1209326259706245
3149.5989,2.7821841315079823
3150.5676,1.9428456409330437
3151.5357,4.102924726587123
3152.5032,2.0124289413830887
3153.4701,2.1213657972045716
3154.4364,2.9797427858109238
3155.402,6.087567377747842
3156.367,2.9948470137636036
3157.3315,4.801589073730817
3158.2952,2.5078009075736105
3159.2584,4.063489817200264
3160.221,3.1686630794410284
3161.1829,4.573327930491278
3162.1442,1.9274915748597543
3163.105,2.0311611713219193
3164.065,1.084343859378322
3165.0245,3.937046758217921
3165.9834,2.7892769761862475
3166.9416,0.8910415822583744
3167.8993,1.5923476175166158
3168.8563,2.443202114132859
3169.8127,3.993612088355526
3170.7684,5.193584532001012
3171.7236,2.8931263969496115
3172.6782,5.642244583145784
3173.6321,3.990945961602719
3174.5854,1.0392373469111647
3175.5381,2.0371255137524056
3176.4902,2.1846172264153694
3177.4417,2.031719228817728
3178.3926,4.828438243030995
3179.3428,6.124780970809486
3180.2924,5.170754065623164
3181.2415,4.616364119694172
3182.1899,4.461617673537136
3183.1377,7.706521221503026
3184.0848,3.551081213326661
3185.0314,6.19530402167765
3185.9773,5.289195983714787
3186.9227,4.882763374643826
3187.8674,5.826012416778575
3188.8115,1.868949283605211
3189.755,4.861580090349811
3190.6979,6.503910933548958
3191.6402,4.595947861123435
3192.5818,4.78769685595492
3193.5229,5.629163854965618
3194.4633,2.670354747200774
3195.4031,3.661275365413996
3196.3423,5.201931515655346
3197.2809,4.14232896736214
3198.2189,4.682473437952366
3199.1563,4.2723706034207325
3200.0931,6.112026092937201
3201.0292,3.3014454929480426
3201.9648,8.340634328779274
3202.8997,4.829598092742454
3203.834,5.568342193742801
3204.7677,4.106871992389566
3205.7008,3.8951927936085777
3206.6333,6.783309861256946
3207.5652,5.121228420239865
3208.4964,7.108953627629436
3209.4271,6.546490589285469
3210.3571,6.333844339978246
3211.2865,8.871019849013145
3212.2154,6.208022022357113
3213.1436,4.894855677266898
3214.0712,2.4315255689190387
3214.9982,8.118036403541506
3215.9246,6.554392863047022
3216.8503,6.690599548167951
3217.7755,6.776660994092715
3218.7001,6.662581669103755
3219.624,7.198365973716896
3220.5473,6.934018241822152
3221.4701,2.619542735325883
3222.3922,5.104943646794274
3223.3137,4.590225142598092
3224.2346,6.825391338058669
3225.1549,6.910446302595088
3226.0746,6.495394037372528
3226.9937,7.730238474451721
3227.9121,6.164983480939456
3228.83,8.199632846640144
3229.7473,5.834190299708365
3230.6639,7.268659486302377
3231.5799,7.553043994238537
3232.4954,7.9373473386466085
3233.4102,4.57157295912592
3234.3244,6.255724215902332
3235.238,7.089804423485976
3236.151,4.873816833829752
3237.0634,6.257764627988515
3237.9752,7.141650938278962
3238.8864,6.8754788344401385
3239.797,6.509251314794595
3240.7069,8.642971308910099
3241.6163,8.176641681261906
3242.5251,7.410265209895573
3243.4332,6.943844591090248
3244.3408,7.027382447022424
3245.2477,6.060881330430152
3246.154,9.344343723777662
3247.0598,9.827772048920373
3247.9649,7.561168634270271
3248.8694,7.294535709961624
3249.7733,7.92787543051702
3250.6766,6.961189877513689
3251.5793,8.69448105325012
3252.4814,7.377750890412895
3253.3829,8.311001234743795
3254.2838,7.2942338582070825
3255.1841,9.027450449657008
3256.0838,8.810652625005481
3256.9829,7.593841909889905
3257.8814,9.87701974184116
3258.7792,9.41018748245171
3259.6765,9.74334639454382
3260.5731,8.47649764683788
3261.4692,9.909642310620804
3262.3647,8.642781372414532
3263.2595,4.525915719644585
3264.1538,6.3590461533086655
3265.0474,7.942173429145328
3265.9404,6.9752982393026635
3266.8329,10.158421196507048
3267.7247,7.691542843731866
3268.616,10.674663622366296
3269.5066,8.907783896884094
3270.3966,9.090903925012377
3271.286,7.77402387540042
