RamanShift,CorrectedData
30.1047,614.8619461143952
32.3739,574.4455533146613
34.6426,531.3791543663077
36.9109,488.91273737625977
39.1787,447.9962851376506
41.4461,405.8797755544862
43.7131,366.16318205080927
45.9796,322.0464739918648
48.2456,283.62961708126545
50.5112,241.06257380215914
52.7764,204.3953038013973
55.0411,162.52776431520562
57.3054,118.6599105358567
59.5692,79.7916960303453
61.8326,43.32307317906719
64.0955,1.8539935645010601
66.3579,-38.56559166410504
68.6199,-76.68573137604308
70.8815,-106.1560891703442
73.1426,-131.22556255558328
75.4032,-120.34198854100447
77.6634,-30.201893192482203
79.9231,248.34939964057463
82.1824,895.4668678256701
84.4412,2033.8554867468138
86.6995,3621.820222833347
88.9574,5227.366022176058
91.2148,6408.79779464753
93.4717,7045.970397846688
95.7282,7272.288625284479
97.9842,7353.157200012146
100.2398,7309.180772358045
102.4949,7250.463919118963
104.7495,7182.211143999876
107.0036,7095.326878201126
109.2573,7027.165481100939
111.5105,6924.031241124277
113.7632,6819.628376424445
116.0154,6731.011035914437
118.2672,6673.583300310966
120.5185,6549.499183020629
122.7693,6472.212630714198
125.0197,6370.377524567448
127.2696,6306.39768103403
129.519,6248.576852863817
131.7679,6160.318729742711
134.0163,6104.376938870842
136.2642,6076.955045845156
138.5117,6022.8565552188265
140.7587,5948.634910775482
143.0052,5897.393496070184
145.2512,5811.785635171644
147.4967,5722.964593174637
149.7417,5649.383577056089
151.9863,5570.445736563273
154.2304,5518.504164949632
156.4739,5435.361899764149
158.717,5404.771923370767
160.9596,5356.7871637798125
163.2017,5305.810494953887
165.4433,5289.294737287727
167.6844,5237.142658117962
169.925,5170.506971888275
172.1651,5074.590340670922
174.4047,4985.9453748330925
176.6439,4922.024633996069
178.8825,4841.030627921684
181.1206,4794.415817151519
183.3582,4739.682613816856
185.5954,4684.533382104815
187.832,4639.720438805691
190.0681,4615.596053864449
192.3037,4572.412450828848
194.5388,4522.821807090693
196.7734,4468.3262543176625
199.0075,4459.827878949218
201.2411,4459.32872274156
203.4742,4437.780782852613
205.7068,4414.736011847018
207.9389,4385.896317911603
210.1704,4355.563565085841
212.4015,4304.239573550245
214.632,4279.926119929692
216.862,4234.374937806664
219.0915,4184.637717964382
221.3205,4149.616108842323
223.549,4114.211717033584
225.777,4117.8261076351
228.0044,4071.260804601693
230.2314,4025.1672907099246
232.4578,3963.997008023749
234.6837,3913.7013583554485
236.909,3874.6817038773393
239.1339,3814.8893676247258
241.3582,3799.525633886095
243.582,3731.091748801046
245.8053,3705.1889205139187
248.0281,3658.2683198581362
250.2503,3613.7810806152333
252.472,3601.728299984062
254.6932,3581.1610390256646
256.9139,3504.9803227838042
259.134,3494.887140490634
261.3536,3456.1824463285043
263.5727,3460.067159530896
265.7912,3416.8921647694674
268.0092,3431.7583121152065
270.2267,3421.416417470183
272.4436,3415.067262418883
274.6601,3392.6115943316267
276.8759,3364.1501264280664
279.0913,3351.8835380017395
281.3061,3304.262474704682
283.5204,3306.0375486700987
285.7341,3283.0593389885703
287.9473,3256.778391690304
290.16,3247.6952199749126
292.3721,3189.46030447423
294.5837,3131.474093343138
296.7947,3072.03700284192
299.0052,3030.449417916121
301.2152,2957.761692790919
303.4246,2922.274151386999
305.6334,2853.3870880474324
307.8418,2841.500767892551
310.0495,2788.6154275088243
312.2568,2722.7312750677147
314.4635,2624.698490854532
316.6696,2560.867227927273
318.8752,2488.987613096955
321.0802,2435.5097475659213
323.2847,2425.733707646643
325.4887,2376.459545296496
327.692,2353.137288215523
329.8949,2348.6669403391725
332.0972,2323.798482071519
334.2989,2332.9318703299714
336.5001,2287.7670387939515
338.7007,2246.053897813569
340.9008,2218.692334861261
343.1003,2147.2322149489282
345.2992,2071.4233809015514
347.4976,2032.3656540717948
349.6955,1975.508835098085
351.8927,1944.652704295202
354.0895,1901.497022222834
356.2856,1867.4415299941484
358.4812,1829.9359497073428
360.6763,1824.3299847862063
362.8707,1780.5733203551663
365.0646,1743.1156232953545
367.258,1716.506542682172
369.4508,1687.045710159864
371.643,1679.4827402076153
373.8346,1670.3672304341535
376.0257,1648.1987616533797
378.2162,1650.776897975521
380.4062,1653.3511870288266
382.5956,1578.9711599337743
384.7844,1536.1363312773337
386.9726,1487.1461998567665
389.1603,1406.0002491079722
391.3474,1372.447947595393
393.5339,1347.1887498234737
395.7199,1313.2220965721817
397.9052,1299.447415149597
400.09,1314.9641197315805
402.2743,1320.47161149952
404.4579,1319.9192784851693
406.641,1319.1564955155636
408.8235,1328.1326242185514
411.0054,1355.247013030421
413.1868,1461.848997106139
415.3675,1521.2378980482044
417.5477,1532.6630228406275
419.7273,1441.8736632550435
421.9064,1298.21909573646
424.0848,1196.6485823111498
426.2627,1126.911372023198
428.4399,1081.4067019502008
430.6166,1002.383797900643
432.7928,935.7918748689444
434.9683,884.1801378256914
437.1432,854.9477823835523
439.3176,790.193995313397
441.4914,757.4679548366239
443.6645,739.7688312726932
445.8371,720.3957873663876
448.0091,700.4979784648049
450.1806,676.3745527110905
452.3514,641.7746512434142
454.5216,613.9974084362038
456.6913,576.6419522461392
458.8603,556.8074044899331
461.0288,583.3428812178763
463.1967,538.3474929121894
465.3639,543.6203442216638
467.5306,519.4105344116197
469.6967,488.4171573111771
471.8622,475.9893015553471
474.0271,451.22605089497574
476.1914,435.1764843210167
478.3551,403.23967631216874
480.5182,425.9146969953681
482.6807,401.4506124651534
484.8426,415.3964845569253
487.0039,438.15137109157695
489.1647,465.66432573603925
491.3248,501.4843977757291
493.4843,485.21063183942533
495.6432,483.0420675410651
497.8015,435.2777396424817
499.9592,401.81667807509257
502.1163,367.9579084175375
504.2728,317.25045223029065
506.4287,317.7433273942497
508.5839,304.4355486178074
510.7386,273.6761274319251
512.8927,258.9640723232078
515.0461,274.99838904149874
517.199,270.1780807470104
519.3512,275.25214784997297
521.5029,316.6695880588395
523.6539,350.97939632954603
525.8043,363.98056445133625
527.9541,316.9720807036574
530.1033,255.85292972615844
532.2519,235.02209298876915
534.3999,190.92854940289362
536.5472,200.6712755297185
538.694,196.79924602114534
540.8401,218.1114335223656
542.9856,216.80680871058667
545.1305,218.43434008189888
547.2748,215.09299396432834
549.4185,221.43173450155518
551.5615,211.6995236863322
553.704,220.09532129709532
555.8458,230.51808499528943
557.987,236.116770241405
560.1276,229.79033019075632
562.2675,308.0377156374925
564.4069,326.0578750778586
566.5456,360.4997539277265
568.6837,336.96229434239194
570.8212,300.29443487215667
572.958,252.39511069770015
575.0942,214.56325399676462
577.2299,162.04779442314066
579.3648,135.99765948499407
581.4992,104.21177507001266
583.6329,81.48906570591134
585.766,98.87845487829054
587.8985,125.22805199697905
590.0304,140.28596548302448
592.1616,166.70030250519267
594.2922,153.66916882939586
596.4222,126.29066855454766
598.5515,74.76290424287163
600.6802,53.33397719368622
602.8083,4.1019879586856405
604.9358,1.5645042831265528
607.0626,-22.130947066593762
609.1888,-0.6368549534754493
611.3144,-8.755487152363457
613.4393,39.160894924072636
615.5636,61.51011733047653
617.6873,99.88961490415204
619.8103,121.1968218673037
621.9327,135.079171443238
624.0544,113.78409564330013
626.1756,64.20902512804332
628.2961,20.851389420184205
630.4159,21.708617400347066
632.5351,8.07792964377677
634.6537,26.00632985662378
636.7716,12.490741046524818
638.8889,29.778085961053876
641.0056,39.115162565280116
643.1216,40.248768526489584
645.237,62.075701120824306
647.3518,18.192757221937427
649.4659,31.996733082732135
651.5793,26.78442477418139
653.6922,-2.197371952704998
655.8043,-5.951861614761583
657.9159,-11.182226777076721
660.0268,-29.24159054565007
662.137,-18.03296431603212
664.2466,-7.55906736029192
666.3556,-6.772438801190219
668.4639,-19.675542246403893
670.5716,-17.620773646956877
672.6786,5.039667604790338
674.785,-18.646241851995
676.8907,-39.38052542854075
678.9958,-10.165020260122219
681.1002,-42.10117007056215
683.204,-19.540418482032692
685.3072,-17.483788526016724
687.4097,-22.082108025220805
689.5115,-20.636030139306968
691.6127,-12.945987427680848
693.7132,-4.712206295815122
695.8131,-17.334913019713895
697.9123,19.48566617173674
700.0109,15.349305223006013
702.1089,5.555777883705559
704.2061,31.5048577499565
706.3028,42.24631836232584
708.3987,61.77993294633052
710.4941,84.25547430502957
712.5887,90.37271462368426
714.6827,99.23142524500417
716.7761,91.03137660797256
718.8688,95.52233815926138
720.9608,76.65407843523008
723.0522,113.02636501701909
725.1429,129.2389647192249
727.233,166.79164322617999
729.3224,204.93416492983488
731.4112,229.26629255422176
733.4993,253.2877867740317
735.5867,248.24840597129787
737.6735,185.5979059951751
739.7596,168.23604021233677
741.845,151.5125601334821
743.9298,151.52721558695248
746.014,160.42975488596494
748.0974,177.7699248284689
750.1802,175.1474706081226
752.2624,164.46213564088703
754.3439,146.86366159125282
756.4247,127.4017884790901
758.5048,123.52625485563476
760.5843,132.28679799811107
762.6631,137.13315394848178
764.7413,171.16505742584195
766.8188,230.98224177796328
768.8956,247.6344386409637
770.9718,295.87137734114276
773.0473,291.6427847284531
775.1221,269.6983846941366
777.1962,268.9878982130067
779.2697,297.66104356289907
781.3426,351.6175363317707
783.4147,394.0570891309726
785.4862,429.3794110556819
787.557,396.2842072605072
789.6271,297.3211786062602
791.6966,214.3900219909192
793.7654,153.24043133925443
795.8335,105.12209843213441
797.901,65.5347135180291
799.9678,86.6779657941861
802.0339,75.60154380251606
804.0993,83.10513521814664
806.1641,84.63842696019219
808.2282,72.15110511671628
810.2916,54.19285492939525
812.3544,68.2633609184013
814.4164,53.16230706197712
816.4778,63.83937665573376
818.5385,60.994252463658086
820.5986,104.42661661135025
822.658,133.9861506144607
824.7166,167.12253494437755
826.7747,246.33544873262963
828.832,305.0245694395189
830.8886,330.9395720620014
832.9446,366.9301285467873
834.9999,344.345907531193
837.0545,305.3365739832425
839.1085,256.4017894275039
841.1618,191.7412123351778
843.2143,164.65449861345041
845.2662,138.99130225209683
847.3175,128.05127559434914
849.368,116.58406959353033
851.4179,139.8893339224469
853.467,107.71671708807116
855.5155,113.36586619848549
857.5633,122.43642728460054
859.6105,106.77804524367366
861.6569,101.2903637485997
863.7027,105.07302540449473
865.7478,112.07567180357182
867.7922,113.79794348731684
869.8359,88.4894798764617
871.8789,91.4999192537598
873.9212,92.07889901707722
875.9629,97.32605564927871
878.0039,119.99102471244623
880.0441,122.07344079540007
882.0837,150.92293728705317
884.1226,164.18914635558758
886.1609,203.47169865995875
888.1984,236.37022321723225
890.2352,274.78434700975686
892.2714,276.51369465618336
894.3069,286.5078880273163
896.3416,252.36654622882588
898.3757,217.63928550130322
900.4091,204.5257195616764
902.4418,194.87545995048276
904.4739,205.68811616300445
906.5052,228.71329574577203
908.5358,236.15060418843814
910.5658,219.19964469352453
912.595,201.06001810204862
914.6236,156.4813230630325
916.6515,155.5131562149013
918.6786,143.95511263126764
920.7051,146.456785830615
922.7309,138.91776789187588
924.756,133.88764942941725
926.7804,144.066019668428
928.8041,139.5024664952266
930.8272,169.396576355472
932.8495,162.54793429980236
934.8711,173.6561236848952
936.892,161.17072624194907
938.9123,183.09132196560313
940.9318,190.76748923879404
942.9506,200.99880461354314
944.9688,204.83484273420117
946.9862,190.42517623513322
949.003,156.16937570235496
951.019,139.81700981763333
953.0344,137.71764570104597
955.0491,128.4708490744997
957.063,130.27618428272717
959.0763,149.9832143857525
961.0888,125.34150114083968
963.1007,143.10060480542143
965.1119,142.3100843835141
967.1223,148.0694974481312
969.1321,111.52840014918638
971.1412,133.28634715589942
973.1495,112.59289202220725
975.1572,127.4975869691848
977.1641,133.69998309198036
979.1704,133.0496302107672
981.1759,133.5460768087205
983.1808,133.2888700385206
985.1849,127.6775557173869
987.1884,127.2616783296512
989.1911,137.2407810828745
991.1932,134.76440591200117
993.1945,129.2320933795695
995.1951,122.0933827004751
997.1951,142.4478117972958
999.1943,115.79491737167382
1001.1928,120.38423470077487
1003.1906,122.66529790381628
1005.1877,143.2876398961721
1007.1841,152.40079236656493
1009.1798,143.60428557084288
1011.1748,141.44764824084905
1013.1691,133.83040767238617
1015.1627,105.85208974678335
1017.1556,79.81221900706214
1019.1477,57.810318937728425
1021.1392,45.995912225165284
1023.1299,38.71852097765213
1025.12,44.57766684351327
1027.1093,19.27287108388873
1029.0979,50.903654514144364
1031.0859,40.869537756919726
1033.0731,66.57004092581974
1035.0596,57.204683725753966
1037.0454,40.47298519593414
1039.0304,53.224463803527215
1041.0148,25.008637610971164
1042.9985,9.975024148461216
1044.9814,19.673140696105293
1046.9636,-6.347495565737972
1048.9452,-5.637367653439469
1050.926,15.103041480103911
1052.9061,24.623248938373308
1054.8855,15.872771673819443
1056.8642,25.3011263926619
1058.8421,32.2578296423917
1060.8194,25.642397717493168
1062.7959,23.15434658987033
1064.7717,42.993191975004265
1066.7469,39.608449356835536
1068.7213,32.09963378937209
1070.695,42.6162599305394
1072.6679,41.75784211726523
1074.6402,56.0238942603155
1076.6117,83.46392985288094
1078.5826,87.17746182791552
1080.5527,50.464002283735226
1082.5221,24.973062446882977
1084.4908,12.204153039263474
1086.4587,4.506784533051814
1088.426,-10.869532721616451
1090.3925,-15.77528841967387
1092.3584,-6.61097214735446
1094.3235,-8.926915895765887
1096.2879,-7.223451589901288
1098.2515,24.699088934513384
1100.2145,53.44037391398933
1102.1767,77.30007133804747
1104.1382,98.87784866180846
1106.099,132.57337256739174
1108.0591,156.68630874814016
1110.0185,182.4163215716626
1111.9771,218.51307383870653
1113.9351,234.72622652585687
1115.8923,297.05543842456973
1117.8488,302.2003659790412
1119.8045,289.2106626629161
1121.7596,235.03597892783728
1123.7139,161.5759623333406
1125.6675,109.83025808860702
1127.6204,124.89850978705408
1129.5726,129.43035992380237
1131.524,137.02544974498687
1133.4748,120.88341920244193
1135.4248,70.80390687774889
1137.3741,55.83655014365422
1139.3226,20.430985664867876
1141.2705,20.636849547735437
1143.2176,27.05377769429424
1145.164,38.43140580021418
1147.1097,28.969369290625764
1149.0546,18.617303206346605
1150.9989,17.974842298502608
1152.9424,3.391621132045657
1154.8852,-10.13272590781935
1156.8272,-4.79856446980466
1158.7686,-12.906158976690222
1160.7092,-5.155725913599781
1162.6491,-18.09735283312739
1164.5883,3.8689242178325003
1166.5267,16.093249984937756
1168.4644,31.82576917515871
1170.4014,60.86662633453352
1172.3377,97.2659656908445
1174.2732,117.32393086320826
1176.2081,182.0406644980826
1178.1421,248.7663080686857
1180.0755,352.75100122783215
1182.0082,407.84488114067153
1183.9401,393.19808144484614
1185.8713,340.06073169954925
1187.8017,257.2829575319947
1189.7315,192.61488116879036
1191.6605,120.50662226371696
1193.5888,76.10829854440453
1195.5163,67.1700265334207
1197.4432,34.991921992251264
1199.3693,33.874100010682014
1201.2947,14.46667532857964
1203.2193,-10.780237652925734
1205.1432,1.8334753226258726
1207.0664,-3.4419637937321568
1208.9889,1.493666930695781
1210.9106,-15.909376186174086
1212.8316,-9.400851748163404
1214.7519,3.469640575574431
1216.6715,29.852595030396515
1218.5903,16.4985058269649
1220.5084,34.257866877414926
1222.4257,42.4311719288994
1224.3424,37.21891438599232
1226.2583,67.8215872289561
1228.1735,84.23968306586767
1230.0879,93.97369382658871
1232.0016,130.07411059858623
1233.9146,165.94142352959034
1235.8269,167.32612146659085
1237.7384,196.9286915971652
1239.6492,162.94961943562976
1241.5592,182.33938852701385
1243.4686,191.24848078685181
1245.3772,252.27737630728416
1247.285,308.0265532679673
1249.1922,366.7964873257861
1251.0986,427.23765105736084
1253.0042,465.1005133713488
1254.9092,540.1355389040305
1256.8134,596.0931876406821
1258.7169,659.8739141652272
1260.6196,695.4781671006581
1262.5216,719.9563884712288
1264.4229,703.8090133464143
1266.3234,687.9364695961249
1268.2232,663.5391780521827
1270.1223,631.2175526670458
1272.0207,599.4220007577819
1273.9183,601.7529233292839
1275.8151,582.5607153922265
1277.7113,618.1457659397561
1279.6067,672.258458139414
1281.5014,758.049168977283
1283.3953,880.1182687168639
1285.2885,1019.4661200411649
1287.181,1144.5930768320143
1289.0727,1187.3994827765787
1290.9637,1168.8356701160958
1292.854,1117.6519592178097
1294.7435,1014.5986587606083
1296.6323,935.9760662468607
1298.5204,875.3344690329495
1300.4077,820.1241451154992
1302.2943,778.7453637377887
1304.1802,767.9483859418565
1306.0653,736.3834649822886
1307.9497,720.7508464341875
1309.8333,699.8007685088223
1311.7162,661.4334622099536
1313.5984,656.8991515433347
1315.4798,638.3980539003855
1317.3605,635.6303801035358
1319.2405,650.8963345912355
1321.1197,628.5461154456348
1322.9982,623.7299142399204
1324.876,580.9979162618183
1326.753,529.1503005617574
1328.6293,463.58724038018727
1330.5048,422.6589036660562
1332.3796,343.41545373244
1334.2537,308.60704966582625
1336.127,286.5838471185491
1337.9996,268.1459986568725
1339.8714,243.79365398122582
1341.7426,230.27696011057856
1343.6129,229.99606162596478
1345.4826,220.10110080565096
1347.3515,204.492217627944
1349.2196,204.41954987013992
1351.087,199.28323326461486
1352.9537,208.53340149954852
1354.8197,206.97018627028933
1356.6849,220.5937171868527
1358.5493,225.50412178955253
1360.4131,241.60152541276602
1362.276,271.18605113582976
1364.1383,287.85781962206624
1365.9998,302.31694882293823
1367.8606,306.41355381133053
1369.7206,293.69774663696035
1371.5799,291.06963628541075
1373.4384,289.079328805288
1375.2962,283.7269273345023
1377.1533,249.61253212017232
1379.0096,208.98624057214852
1380.8652,191.04814760415684
1382.7201,168.49834604006332
1384.5742,146.5369267932506
1386.4275,130.76397909211914
1388.2802,117.12959069970248
1390.132,106.38384807139414
1391.9832,98.37683649129372
1393.8336,89.208640179663
1395.6832,92.87934237299646
1397.5322,74.58902541570228
1399.3803,72.18777072339617
1401.2278,67.02565896580381
1403.0745,71.75277009077308
1404.9204,64.46918337589568
1406.7656,67.52497738123748
1408.6101,67.62023002217302
1410.4538,51.95501853882888
1412.2968,34.429419495129196
1414.139,56.19350893544947
1415.9805,63.247362559870226
1417.8213,54.44105550653944
1419.6613,76.52466228113121
1421.5006,96.94825684490934
1423.3391,125.81191239389182
1425.1769,149.56570115461568
1427.0139,200.90969409549803
1428.8502,265.49396068930037
1430.6858,315.1685683996882
1432.5206,349.88358203538746
1434.3547,347.1890632534394
1436.188,343.7850702120511
1438.0206,320.02165759753916
1439.8524,312.4988766583708
1441.6835,316.3167754427975
1443.5139,324.5753988740844
1445.3435,325.7247887123299
1447.1724,343.1649834718787
1449.0005,326.4960184098293
1450.8279,335.0679253516296
1452.6545,327.18073285776904
1454.4804,317.6344661380567
1456.3056,322.87914713049645
1458.13,310.6147945967475
1459.9536,310.2414240696785
1461.7766,279.2090479760109
1463.5987,249.16767564005204
1465.4202,225.96731359401952
1467.2409,206.3079658784543
1469.0608,200.3396342742244
1470.88,169.6623184991197
1472.6984,141.27601626753403
1474.5161,123.6807235972401
1476.3331,123.0764350932509
1478.1493,110.66314412377142
1479.9648,121.39084282624412
1481.7795,117.2095222314806
1483.5935,119.41917215638409
1485.4067,122.91978124576326
1487.2192,115.56133695023664
1489.031,126.79382549122579
1490.842,119.56723193453922
1492.6522,129.33154007804728
1494.4618,115.03673252394901
1496.2705,129.38279058112857
1498.0785,116.66969440810408
1499.8858,125.5474228695673
1501.6924,118.26595366351262
1503.4981,123.87526323246198
1505.3032,118.12532683627865
1507.1075,111.6161184960738
1508.911,117.94761105170574
1510.7138,116.96977622687314
1512.5159,101.18258456579679
1514.3172,92.23600544300189
1516.1178,82.48000722118786
1517.9176,87.61455734069659
1519.7166,94.58962241706831
1521.515,77.15516818969877
1523.3126,92.16115945208844
1525.1094,75.3575602261867
1526.9055,79.14433361233318
1528.7008,82.32144195729188
1530.4954,76.53884681638488
1532.2893,74.29650892172072
1534.0824,59.894388240020135
1535.8747,77.08244399503837
1537.6663,72.21063481158808
1539.4572,63.878918543658074
1541.2473,78.237252323132
1543.0367,74.83559264310497
1544.8253,68.87389521430146
1546.6132,79.15211499909083
1548.4003,82.27020627110414
1550.1867,88.57812251245309
1551.9723,79.77581638254719
1553.7572,107.6132396550147
1555.5414,116.04034330572722
1557.3247,129.80707723442356
1559.1074,163.66339018044005
1560.8893,179.45922958504275
1562.6705,208.24454125286502
1564.4509,232.31926919394846
1566.2305,250.03335533589075
1568.0094,246.13673928309754
1569.7876,246.07935813963968
1571.565,257.8111465482216
1573.3417,254.28203669075447
1575.1176,247.29195817103755
1576.8928,256.84083805005116
1578.6672,276.82860091585576
1580.4409,289.75516878810345
1582.2138,329.6704609181602
1583.986,354.32439365984055
1585.7575,389.8668800702551
1587.5282,408.1978296632717
1589.2981,440.4671480540894
1591.0673,455.0247367759298
1592.8358,455.7704929573433
1594.6035,459.9043091766341
1596.3704,450.4760734544018
1598.1366,432.4356692122037
1599.9021,422.7329753668382
1601.6668,407.01786651074667
1603.4308,393.3902130090403
1605.194,392.4998811566519
1606.9564,400.34673331461227
1608.7182,453.2306279189529
1610.4791,500.701419402239
1612.2394,582.2589576647297
1613.9988,648.6030875996695
1615.7576,722.8336482777152
1617.5156,744.1504722834925
1619.2728,743.3033849732914
1621.0293,690.6922042618971
1622.785,601.2667406310625
1624.54,510.82679765561807
1626.2942,430.3721728977281
1628.0477,354.95265881128717
1629.8005,296.168043546469
1631.5525,241.36811170392025
1633.3037,206.15264492260735
1635.0542,189.77142242781656
1636.804,149.42422138330699
1638.553,140.11081705512504
1640.3013,115.83098321507453
1642.0488,102.8844922338518
1643.7955,94.92111532384365
1645.5416,81.44062266859305
1647.2868,88.89278350243126
1649.0313,72.97736624528306
1650.7751,72.04413842814449
1652.5181,70.24286685223865
1654.2604,72.87331759834728
1656.0019,70.13525604482265
1657.7427,83.17844684128409
1659.4828,99.702653935998
1661.222,112.25764044544724
1662.9606,142.04316848908854
1664.6984,171.2089990638018
1666.4354,186.40489174603567
1668.1717,175.73060440014842
1669.9072,145.98589302644996
1671.642,127.17051186794538
1673.3761,91.78421370778176
1675.1094,66.1267500574022
1676.8419,47.097871510406435
1678.5737,31.39732799912713
1680.3048,27.52486898491793
1682.0351,26.180243615158133
1683.7646,21.66320076197985
1685.4934,16.97348903571151
1687.2215,15.510856830050898
1688.9488,13.325052368960087
1690.6754,10.515823721292918
1692.4012,4.9329188226530505
1694.1263,4.4760855034894576
1695.8506,-0.7549284550781294
1697.5742,6.739624683309103
1699.297,2.9095001967452845
1701.0191,-2.2955467040712847
1702.7404,0.37423916246120825
1704.461,1.9686359104567828
1706.1808,-6.512578349713408
1707.8999,-1.1696255273650422
1709.6182,0.49733752884287696
1711.3358,3.9381656548105184
1713.0527,-3.4472863185350207
1714.7688,-3.659163599645808
1716.4841,-3.2975769585847274
1718.1987,-5.262600610369645
1719.9126,-3.8542758272255924
1721.6257,-3.172591307997436
1723.338,-0.46749724731546394
1725.0496,1.811087854377206
1726.7605,-3.586749833065028
1728.4706,2.889075842101306
1730.18,-1.8113131367491633
1731.8886,-1.93779481513252
1733.5964,9.959770856453247
1735.3036,8.13154328607925
1737.0099,10.927681782219338
1738.7156,17.048345572032417
1740.4204,10.693693773400923
1742.1246,16.76388533372392
1743.8279,20.50907909346506
1745.5306,13.779433725448598
1747.2325,11.575107697408612
1748.9336,28.046259339285484
1750.634,25.843046865268207
1752.3336,19.41562820908439
1754.0325,19.714161046031222
1755.7307,26.838802857249902
1757.4281,25.43971092674019
1759.1247,30.667042270114166
1760.8206,36.07095364858742
1762.5158,26.401601516706023
1764.2102,33.00914196830627
1765.9039,38.14373083320913
1767.5968,25.955523611144258
1769.289,38.99467542040384
1770.9804,41.611341119725694
1772.6711,43.55567517790007
1774.361,40.97783164760506
1776.0502,46.577964145961914
1777.7386,26.956225880313923
1779.4263,41.66276959222489
1781.1132,47.69774775369672
1782.7994,44.911312420103286
1784.4849,40.65361516984217
1786.1696,42.57480713219786
1787.8535,47.67503902991905
1789.5367,47.85446116000651
1791.2192,48.763223342711285
1792.9009,35.751474919739735
1794.5818,44.91936474516626
1796.2621,49.16704131555116
1797.9415,40.49465267826133
1799.6202,50.902346388992896
1801.2982,41.840269598496434
1802.9755,45.35856894849883
1804.6519,48.55739066232434
1806.3277,52.836880509711705
1808.0027,44.347183774826476
1809.6769,52.43844521346523
1811.3504,50.31080913795279
1813.0231,51.114419336230185
1814.6951,48.04941909313095
1816.3664,58.71595118234461
1818.0369,57.26415789706675
1819.7067,48.89418094333371
1821.3757,50.806161454540415
1823.044,48.700240075140414
1824.7115,53.0265569415252
1826.3783,59.4852517030846
1828.0443,52.37646347894338
1829.7096,54.300330793373746
1831.3741,60.45699164688381
1833.0379,56.19658349697875
1834.701,46.56924319659379
1836.3633,53.52510703669884
1838.0248,54.26431084257206
1839.6856,62.486989904240545
1841.3457,54.04327896908819
1843.005,58.233312159630145
1844.6636,57.40722305794884
1846.3214,60.51514466379399
1847.9785,58.40720940284314
1849.6349,59.18354909562299
1851.2904,68.89429497858805
1852.9453,59.48957769635763
1854.5994,62.81952720460879
1856.2528,61.584272864122795
1857.9054,66.7839434074856
1859.5572,57.71866695144104
1861.2083,65.08857094489349
1862.8587,65.04378225956123
1864.5084,57.18442711627711
1866.1572,63.560631085436455
1867.8054,60.12251916559035
1869.4528,60.67021571968405
1871.0994,56.853844509437465
1872.7453,62.77352868986918
1874.3905,59.87939084745881
1876.0349,64.67155294095113
1877.6786,58.80013633029745
1879.3215,71.56526172873401
1880.9637,64.91704926149578
1882.6051,66.40561833816514
1884.2458,65.13108771915427
1885.8858,66.84357550081961
1887.525,74.84319912820649
1889.1634,68.63007537792515
1890.8011,75.55432027815391
1892.4381,57.46604917077099
1894.0743,60.81537664211152
1895.7098,72.4024167038504
1897.3446,66.37728275950923
1898.9786,61.790087488585186
1900.6118,70.49094290680307
1902.2443,65.57996041198703
1903.8761,67.25725069705175
1905.5071,60.62292379911344
1907.1374,63.57708908271559
1908.7669,67.76985530617287
1910.3957,67.15133059202924
1912.0237,62.07162238513013
1913.651,57.83083745880822
1915.2776,62.72908196567988
1916.9034,64.0164614800533
1918.5285,61.543080948946
1920.1528,62.559044679211354
1921.7764,64.21445636227202
1923.3992,60.2094190639599
1925.0213,60.194035207962884
1926.6427,56.71840661587481
1928.2633,48.982634507349246
1929.8832,62.58681953485569
1931.5023,64.98106186103769
1933.1207,61.26546102267076
1934.7383,48.84011590672026
1936.3552,58.05512478749722
1937.9714,65.5105854509111
1939.5868,58.65659510232024
1941.2015,51.0932502919772
1942.8154,57.3706469835692
1944.4286,55.73888062985094
1946.041,48.29804610987088
1947.6528,56.54823774528853
1949.2637,56.3895493747836
1950.8739,56.27207427155349
1952.4834,53.14590514490055
1954.0921,55.81113414140691
1955.7001,56.76785287619583
1957.3074,55.11615240627975
1958.9139,55.6561232209927
1960.5197,53.73785525850735
1962.1247,59.91143790043543
1963.729,51.026959991010415
1965.3325,46.88450977535172
1966.9353,55.53417498830936
1968.5374,56.67604289588843
1970.1387,46.36020020875276
1971.7393,46.586733070805906
1973.3392,44.705727162349945
1974.9383,50.467267697819466
1976.5366,45.87143944459223
1978.1342,43.51832666537348
1979.7311,42.108013164154215
1981.3273,47.89058230974257
1982.9227,48.166117049866614
1984.5173,47.88469985334888
1986.1112,50.296412707350726
1987.7044,47.60133712018694
1989.2968,47.34955409720811
1990.8885,49.841144167751736
1992.4795,51.32618738765996
1994.0697,50.55476331436347
1995.6592,39.97695099203145
1997.2479,48.842828959285214
1998.8359,47.70247535497725
2000.4232,48.95596782953169
2002.0097,47.25338355634807
2003.5955,49.694799219266656
2005.1805,51.5302910295938
2006.7648,52.20993470168827
2008.3484,40.633805434606074
2009.9312,52.501977905304216
2011.5133,47.864526384401756
2013.0946,46.37152461749838
2014.6752,43.87304587154864
2016.2551,50.56916294979226
2017.8342,52.60994821673859
2019.4126,44.795473531205744
2020.9902,42.52581022591255
2022.5672,40.25102918562317
2024.1433,45.421200869843915
2025.7188,47.63639533557057
2027.2935,48.546682185587315
2028.8674,41.35213054631453
2030.4406,43.30280905870592
2032.0131,40.09878595019427
2033.5849,38.19012901518437
2035.1559,42.626905647093565
2036.7261,44.35918285743776
2038.2957,48.48702723146397
2039.8645,43.86050491082756
2041.4325,45.12968155231357
2042.9998,44.99462237410228
2044.5664,44.10539214307687
2046.1323,44.912055176174704
2047.6974,47.11467534927914
2049.2617,43.313316089153545
2050.8254,46.25804035141448
2052.3883,53.79891065854582
2053.9504,52.48598907045101
2055.5118,39.469337109044375
2057.0725,49.04901577138088
2058.6325,45.425085659822116
2060.1917,43.34760688623999
2061.7502,44.61663910825553
2063.3079,45.132241550014044
2064.8649,47.39447298949466
2066.4212,47.35339175335423
2067.9767,52.25905569430523
2069.5315,41.56152219152625
2071.0856,44.81084810160547
2072.6389,48.40708986551613
2074.1915,42.25030347612329
2075.7433,44.64054444222154
2077.2945,49.97786785010226
2078.8448,39.96232833965189
2080.3945,48.443980050978155
2081.9434,46.872876724565515
2083.4916,44.349071616459014
2085.039,48.272617513974865
2086.5857,45.39356676093854
2088.1317,41.16197121844948
2089.677,41.27788229367138
2091.2215,42.84135098214858
2092.7652,44.40242786664652
2094.3083,40.06116310151748
2095.8506,43.96760639708958
2097.3921,56.77180706307928
2098.933,50.87381396952725
2100.4731,40.92367541875592
2102.0124,52.771439204350145
2103.5511,50.06715271065758
2105.089,49.01086279431206
2106.6261,46.5026158112758
2108.1626,51.042457627402655
2109.6983,55.030433643520496
2111.2332,49.61658875003286
2112.7675,52.650967287039066
2114.301,50.38361309847255
2115.8337,56.814569501757546
2117.3657,51.193879310482316
2118.897,54.671584770089396
2120.4276,52.09772761408277
2121.9575,48.72234902925078
2123.4866,45.09548968140439
2125.0149,46.01718974913149
2126.5426,46.98748896006515
2128.0695,46.95642658166639
2129.5956,53.72404141152168
2131.1211,50.340371777653104
2132.6458,51.30545547084262
2134.1698,49.96932977846831
2135.693,55.232031474854296
2137.2155,49.193596834631364
2138.7373,51.70406158011042
2140.2584,47.163460941666585
2141.7787,46.621829632634444
2143.2983,49.87920189471424
2144.8171,45.78561150338834
2146.3353,52.79109173534721
2147.8527,49.89567540942528
2149.3693,46.79939481654645
2150.8853,50.50228174867806
2152.4005,42.25436752979368
2153.9149,46.955682978844095
2155.4287,52.15625849223659
2156.9417,55.90612399682169
2158.454,49.455308897887505
2159.9655,54.35384204166144
2161.4764,47.10175177981756
2162.9865,47.79906592049173
2164.4958,46.2458118008027
2166.0045,50.04201627987828
2167.5124,51.73770575438823
2169.0195,42.73290612058247
2170.526,48.27764275733358
2172.0317,50.921940616185566
2173.5367,44.315824165906065
2175.0409,43.659317366043524
2176.5445,47.552443732988195
2178.0473,45.195226346537595
2179.5494,43.337687810964894
2181.0507,44.629850278591164
2182.5513,45.57173546836077
2184.0512,48.313364652919574
2185.5504,45.60475864919641
2187.0488,44.04593779098616
2188.5465,45.23692195603644
2190.0435,42.9777305816358
2191.5397,42.3683826527037
2193.0353,43.35889672438259
2194.5301,45.89929092813105
2196.0241,39.839582961819076
2197.5175,40.97979006432371
2199.0101,43.41992907612621
2200.502,39.96001642791009
2201.9931,38.15006811615996
2203.4835,38.34009973776011
2204.9733,40.78012650809427
2206.4622,41.47016325914552
2207.9505,42.16022441509563
2209.438,38.85032398542478
2210.9248,34.89047555801096
2212.4109,36.38069233222927
2213.8962,30.720987158550088
2215.3809,33.71137252363735
2216.8648,39.00186060694489
2218.3479,34.99246325081299
2219.8304,35.183191907563526
2221.3121,36.47405767959384
2222.7931,37.0650713174694
2224.2733,39.65624320701522
2225.7529,31.547583363405636
2227.2317,35.83910140525268
2228.7098,28.930806635692477
2230.1872,32.32270799947065
2231.6638,37.66481415202446
2233.1397,29.407133425564552
2234.6149,32.59967377565323
2236.0894,34.89244286378215
2237.5632,36.43544802544602
2239.0362,29.578696247215476
2240.5085,30.422194151306883
2241.9801,29.16594806414969
2243.4509,28.109964007951532
2244.921,27.204247713260656
2246.3904,30.298804629525932
2247.8591,31.593639934153828
2249.3271,28.58875850156261
2250.7943,27.784164890234422
2252.2608,27.57986337276361
2253.7266,31.325857943903316
2255.1917,32.37215232260803
2256.656,25.61874991457404
2258.1197,22.16565380177593
2259.5826,26.91286681000122
2261.0447,30.060391543380774
2262.5062,27.85823033691713
2263.9669,28.056385225008967
2265.4269,31.65485796347275
2266.8862,25.15365002756141
2268.3448,27.702762575979477
2269.8026,22.25219651589532
2271.2598,22.35195247744963
2272.7162,27.70203086826143
2274.1719,27.002431872430293
2275.6268,31.653155397035448
2277.0811,25.754201079132088
2278.5346,22.205568239243973
2279.9874,23.757255940352934
2281.4395,30.109263023385267
2282.8908,29.761588091694932
2284.3414,23.814229447543312
2285.7914,25.267185095576053
2287.2406,26.220452802296734
2288.689,24.52403008153692
2290.1368,30.727914184923804
2291.5838,25.732102118844807
2293.0302,21.686590582407973
2294.4758,24.191376017400614
2295.9206,22.296454648744486
2297.3648,21.201822459447442
2298.8082,25.657475209553297
2300.251,24.963408447087602
2301.693,22.56961746350123
2303.1343,20.476097300611173
2304.5748,26.682842774538244
2306.0147,21.339848496642503
2307.4538,19.44710881145545
2308.8922,25.00461785011032
2310.3299,24.362369549269374
2311.7669,18.87035759554834
2313.2031,19.62857543193968
2314.6387,18.98701631273218
2316.0735,19.79567329592919
2317.5076,19.704539249663753
2318.941,25.26360684411236
2320.3737,23.72286855240617
2321.8056,17.5323165950403
2323.2369,14.491942955281473
2324.6674,25.101739441073022
2326.0972,23.311697715439152
2327.5263,23.47180919038675
2328.9547,24.98206504480575
2330.3823,22.592456222868293
2331.8092,28.90297341892557
2333.2355,19.363607101404597
2334.661,18.524347449702702
2336.0858,20.285184449581152
2337.5098,18.346107901558014
2338.9332,20.907107403299392
2340.3558,20.168172369010648
2341.7778,14.929292003826049
2343.199,22.39045531119848
2344.6195,19.50165114528798
2346.0393,20.1628681363502
2347.4583,20.77409471962443
2348.8767,11.585319128721181
2350.2943,16.696529389510175
2351.7113,13.607713412008053
2353.1275,14.718858939266369
2354.543,16.27995357825941
2355.9578,15.140984788773153
2357.3718,9.551939867794033
2358.7852,16.512805960898845
2360.1978,11.023570118144988
2361.6098,15.234219224462066
2363.021,18.894740054543973
2364.4315,19.905119230742542
2365.8413,14.565343186462258
2367.2504,19.575398156056508
2368.6587,20.08527022822534
2370.0664,13.394945295914823
2371.4733,13.8044090512185
2372.8795,18.463647052280635
2374.285,16.722644719201554
2375.6899,14.581387287445153
2377.0939,9.28985982524901
2378.4973,13.898047255036943
2379.9,13.105934406334569
2381.3019,18.16350596968698
2382.7032,13.670746504580052
2384.1037,11.927640388864688
2385.5035,11.234171863684338
2386.9027,17.640325050906313
2388.3011,12.14608396005633
2389.6987,13.401432424257024
2391.0957,11.306354155170169
2392.492,14.810832730443508
2393.8876,13.014851614661126
2395.2824,15.618394124299044
2396.6765,11.821443445684736
2398.07,7.223982608961819
2399.4627,6.475994526059566
2400.8547,1.1274620366675094
2402.246,8.32836791571529
2403.6366,5.128694926858003
2405.0265,6.078425750467176
2406.4156,7.577543015627498
2407.8041,6.376029290639423
2409.1918,6.3738670680282326
2410.5789,7.021038776558839
2411.9652,-1.2824732187423535
2413.3508,4.263313376940772
2414.7358,10.458393670331702
2416.12,6.602762725520876
2417.5035,4.246415502014997
2418.8863,5.189346893293163
2420.2684,8.381551750370647
2421.6497,6.673024872369126
2423.0304,6.0637609745949135
2424.4104,3.903754705624266
2425.7896,6.693000653395899
2427.1682,6.531493366811134
2428.546,2.719227327841395
2429.9232,7.756196953143473
2431.2996,4.042396632181777
2432.6753,4.327820676859176
2434.0503,3.66246335865452
2435.4246,5.046318905768601
2436.7982,3.5793815097778463
2438.1711,5.961645311795536
2439.5433,11.093104417141177
2440.9148,5.123752871517951
2442.2856,3.25358460969818
2443.6557,8.13259351521657
2445.025,3.7607734390721816
2446.3937,7.638118150938254
2447.7617,6.314621382880375
2449.1289,3.140276790583158
2450.4955,3.965077966584971
2451.8613,10.089018472021479
2453.2265,1.4120918283773847
2454.5909,6.434291456247223
2455.9546,5.155610762104743
2457.3177,6.026043088080712
2458.68,5.445581724750241
2460.0416,6.864219902428118
2461.4025,5.281950796973433
2462.7627,2.6987675156030946
2464.1222,6.464663112714561
2465.4811,1.8296306157178606
2466.8392,3.143662987376473
2468.1966,10.856753172157596
2469.5533,2.718894083091868
2470.9093,-0.5699214753574893
2472.2645,4.190299274083856
2473.6191,3.5995548022056596
2474.973,10.907843537894735
2476.3262,4.465163874042361
2477.6787,7.421514094461571
2479.0305,4.726892438313712
2480.3816,1.431297070545014
2481.7319,4.784726108833041
2483.0816,5.987177656542343
2484.4306,3.2386497691904026
2485.7789,1.4891404424228654
2487.1264,7.338647639499129
2488.4733,2.237169308787088
2489.8195,6.884703325268362
2491.165,3.581247541552898
2492.5097,4.22679974140371
2493.8538,2.9713576727713757
2495.1972,3.4149190413384645
2496.5398,4.157481523074011
2497.8818,3.599042759797868
2499.2231,6.839600351755195
2500.5637,4.479151863200627
2501.9035,4.017694789993101
2503.2427,5.55522658320001
2504.5812,3.141744653712067
2505.919,4.177246356867698
2507.256,5.061729016588117
2508.5924,5.39518991502203
2509.9281,4.827626283701079
2511.2631,3.559035300204954
2512.5974,4.639414093837161
2513.9309,7.968759758310966
2515.2638,4.847069340945609
2516.596,4.72433980937268
2517.9275,6.050568082753443
2519.2583,5.725751033005707
2520.5884,1.3498854715417394
2521.9178,3.3229681525162675
2523.2465,6.844995816585339
2524.5745,0.465965171175327
2525.9018,6.78587285526271
2527.2284,6.45471550316438
2528.5543,1.9224896813386465
2529.8796,1.689191891696538
2531.2041,3.5048186169242683
2532.5279,10.019366322816126
2533.851,5.182831440118349
2535.1735,0.7452102993835013
2536.4952,6.906499179336038
2537.8163,5.4166943512483385
2539.1366,2.925792017327808
2540.4562,1.1337883256150008
2541.7752,6.840679394892618
2543.0935,4.096461332605543
2544.411,6.851130177791731
2545.7279,5.554681928524758
2547.0441,3.5571125143667928
2548.3596,4.658417809333457
2549.6744,5.458593651869222
2550.9885,1.9076358338345187
2552.3019,4.255540092503878
2553.6146,7.902302146075726
2554.9266,3.147917670193067
2556.2379,4.392382261476087
2557.5485,7.885691485065877
2558.8585,9.427840862179607
2560.1677,4.7188258351776255
2561.4762,5.808641752141881
2562.7841,3.4472839139661176
2564.0913,6.884747563457637
2565.3977,3.821027908951123
2566.7035,5.106120089933739
2568.0086,7.590019207682417
2569.313,10.922720312412906
2570.6167,8.854218378441004
2571.9197,6.634508270855264
2573.222,7.163584766202092
2574.5236,1.3914425746828556
2575.8246,5.268076334863196
2577.1248,4.693480671394269
2578.4244,4.467650156246634
2579.7232,5.540579314455925
2581.0214,7.91226262638142
2582.3189,7.632694516976727
2583.6157,6.2518693320728005
2584.9118,7.31978134117378
2586.2072,4.7864247512651446
2587.5019,3.4517936961345015
2588.7959,10.765882261705258
2590.0893,10.078684499383058
2591.3819,8.740194352914784
2592.6739,11.700405665260632
2593.9652,4.409312191978984
2595.2557,11.86690757162421
2596.5456,7.823185398657557
2597.8348,8.628139148871327
2599.1234,9.431762219826027
2600.4112,8.434047922800744
2601.6983,7.834989474757066
2602.9848,13.134580008316107
2604.2705,7.1328125777490925
2605.5556,10.179680105981618
2606.84,10.07517544461112
2608.1237,9.169291343438118
2609.4067,9.312020451511529
2610.689,4.353355326187369
2611.9707,11.443288431701433
2613.2516,11.131812188756143
2614.5319,9.718918903621102
2615.8115,5.304600771247749
2617.0903,9.238849889398452
2618.3685,9.921658302789723
2619.6461,9.303017963749468
2620.9229,11.282920725389147
2622.199,7.911358347790085
2623.4745,6.688322478204469
2624.7493,4.6638046847710655
2626.0234,4.137796468745535
2627.2968,9.360289284745562
2628.5695,0.9312745460109113
2629.8415,10.000743572178507
2631.1128,10.218687673572617
2632.3835,11.48509806051014
2633.6535,6.549965841121079
2634.9228,9.163282008684604
2636.1914,6.875037490980276
2637.4593,8.085223124154936
2638.7265,9.943829675605087
2639.9931,9.350847831875086
2641.259,3.0062681800709896
2642.5242,7.210081213790431
2643.7887,3.8622773965684303
2645.0525,5.562847119839276
2646.3156,7.611780736414545
2647.5781,7.809068543477338
2648.8398,3.6547007620930145
2650.1009,12.1486675352363
2651.3613,4.540958969334923
2652.6211,5.88156504932995
2653.8801,11.670475714752925
2655.1385,5.9076808463198205
2656.3961,8.09317020804194
2657.6531,6.426933504853778
2658.9094,8.908960360758229
2660.1651,9.589240335488824
2661.42,9.617762899689524
2662.6743,5.394517428111925
2663.9279,7.719493199330088
2665.1808,7.342679437972976
2666.433,11.31406529147472
2667.6846,7.833639833842739
2668.9354,2.5013920259437725
2670.1856,6.1673107503082605
2671.4351,9.581384864452701
2672.6839,9.24360316422053
2673.9321,10.70395434964145
2675.1795,7.9624270283091505
2676.4263,16.71900970077793
2677.6724,8.323690787977824
2678.9179,10.2764585436488
2680.1626,11.227301138294067
2681.4067,11.32620663965227
2682.6501,11.873163003189177
2683.8928,8.568158071108414
2685.1348,8.561179566882004
2686.3761,10.652215128300412
2687.6168,11.841252307542419
2688.8568,10.078278550264542
2690.0961,9.863281183710995
2691.3348,7.146247434343181
2692.5727,13.12716442998979
2693.81,8.356019227017029
2695.0466,6.3327987505196575
2696.2826,10.557489842032282
2697.5178,6.580079279761506
2698.7524,8.85055373633918
2699.9863,10.968899818596427
2701.2195,4.135104044858906
2702.452,8.199152823763328
2703.6839,11.2610325225954
2704.9151,10.620729426649262
2706.1456,4.9782297086087794
2707.3755,9.98351943495058
2708.6046,8.08658462236906
2709.8331,9.637411187723472
2711.0609,9.785984967007266
2712.2881,11.982291699839848
2713.5145,9.576317027980778
2714.7403,13.068046473366678
2715.9654,8.407465462171075
2717.1899,15.494559289887007
2718.4136,11.329313167932938
2719.6367,13.561712152781823
2720.8591,17.091741187613536
2722.0809,12.219385079990886
2723.3019,15.894628466559254
2724.5223,19.91745586177022
2725.7421,16.137851621129045
2726.9611,18.805799900966534
2728.1795,13.97128469623506
2729.3972,14.284289813828963
2730.6142,11.894798920929802
2731.8306,12.50279554187631
2733.0462,11.80826308205927
2734.2612,7.761184821841624
2735.4756,11.411543923503672
2736.6892,11.409323471713932
2737.9022,8.104506437025492
2739.1145,8.247075675898245
2740.3262,8.08701396374704
2741.5372,9.324303993515983
2742.7475,9.108928377279156
2743.9571,12.690869633867607
2745.1661,7.020110191023107
2746.3744,8.546632349578772
2747.582,4.37041834016668
2748.7889,7.541450307952701
2749.9952,4.859710354398544
2751.2008,7.625180505551484
2752.4057,2.3878427388617354
2753.61,3.0476789555277293
2754.8136,4.004671032869425
2756.0165,4.558800817730045
2757.2188,5.510050116906143
2758.4204,3.608400691606306
2759.6213,6.703834247938701
2760.8215,4.1963324559274895
2762.0211,8.48587691855856
2763.22,5.922449196854473
2764.4182,3.6060307669791882
2765.6158,5.436603045872161
2766.8127,2.164147414412568
2768.009,-0.661354800886329
2769.2045,2.7100777048473503
2770.3994,0.9784328434199239
2771.5936,1.5936984995370125
2772.7872,1.4558625481199385
2773.9801,1.5649128481531136
2775.1723,4.570837244062304
2776.3639,3.5236235646242164
2777.5548,3.4232595929072147
2778.745,4.46973307674341
2779.9346,1.9630317297325064
2781.1235,5.303143220776846
2782.3117,-3.409944800851477
2783.4992,1.6237552610881778
2784.6861,3.454265068185066
2785.8723,1.5816062657908532
2787.0579,3.7058004647145992
2788.2428,5.476869259949268
2789.427,-2.0051657905701887
2790.6106,0.5097168163225945
2791.7935,-1.6784413845998216
2792.9757,-0.46959886366205694
2794.1573,3.2863026764407266
2795.3382,4.989326224305884
2796.5184,1.0895347356678542
2797.698,-0.7630088836322102
2798.8769,3.2817582613515697
2800.0551,2.8239066880238255
2801.2327,1.463506880971707
2802.4096,2.4006292965432863
2803.5859,1.5853443764516015
2804.7615,3.4177225384034386
2805.9364,3.197834184252102
2807.1106,2.175749681673736
2808.2842,4.251539366366131
2809.4572,4.825273552269664
2810.6294,5.547022510809299
2811.801,7.566856465157329
2812.972,10.034845583015866
2814.1423,8.651059956418464
2815.3119,10.765569577050243
2816.4808,10.928444350085783
2817.6491,15.039754073043937
2818.8167,14.949568434159147
2819.9837,22.607956971268337
2821.15,24.21498907271274
2822.3157,24.920733900754115
2823.4807,30.725260375504334
2824.645,36.328637167867996
2825.8086,42.180932641497066
2826.9716,46.38221479675718
2828.134,54.33255121220469
2829.2957,55.08200900257371
2830.4567,65.58065473927303
2831.617,66.17855444289135
2832.7767,69.67577347821081
2833.9358,69.27237654822807
2835.0941,69.21842765918207
2836.2519,68.91399012458811
2837.4089,65.8591265657771
2838.5653,60.65389891494023
2839.7211,59.84836844567734
2840.8761,60.99259582504939
2842.0306,51.6366411216337
2843.1843,56.38056379408165
2844.3374,57.624422784678245
2845.4899,58.81827647190286
2846.6417,55.91218265799077
2847.7928,57.30619855699439
2848.9433,60.30038082384441
2850.0931,62.54478554040952
2851.2422,59.43946818555462
2852.3907,61.8844836126968
2853.5385,64.17988608085854
2854.6857,65.67572923021743
2855.8323,67.17206605915224
2856.9781,70.0189489092846
2858.1233,68.86642945051538
2859.2679,69.91455865255604
2860.4118,79.51338679645373
2861.555,79.26296346411014
2862.6976,77.06333744229302
2863.8395,82.51455672514055
2864.9808,81.01666853615761
2866.1214,83.41971927370352
2867.2614,86.02375452597092
2868.4007,85.72881904695534
2869.5393,88.98495673041478
2870.6773,91.69221061281908
2871.8146,94.35062284078857
2872.9513,91.86023464402155
2874.0874,90.12108630871006
2875.2227,91.2332172024439
2876.3574,96.39666579160202
2877.4915,100.86146963023121
2878.6249,96.52766530841167
2879.7577,104.09528840760893
2880.8898,100.76437354401186
2882.0212,106.88495429285656
2883.152,113.55706322173539
2884.2821,110.08073182939117
2885.4116,109.20599047899621
2886.5405,107.58286843291553
2887.6686,113.36139386145427
2888.7962,112.89159385908887
2889.923,109.67349438668194
2891.0493,109.65712027618005
2892.1748,113.94249526279498
2893.2997,112.62964198516728
2894.424,109.66858194251266
2895.5476,110.4593355077504
2896.6706,108.60192195711409
2897.7929,111.24635946224393
2898.9145,111.39266510876101
2900.0355,111.29085486982281
2901.1559,114.29094360466024
2902.2756,110.69294505959566
2903.3946,107.94687183804207
2904.513,110.25273543648308
2905.6308,109.66054627193351
2906.7479,114.52031365888101
2907.8643,106.08204581520778
2908.9801,109.34574981359287
2910.0953,112.21143166589496
2911.2098,108.67909629051522
2912.3236,107.64874748374052
2913.4368,113.47038795506683
2914.5494,106.19401933750274
2915.6613,107.31964212935293
2916.7725,102.69725576698198
2917.8831,104.37685861355799
2918.9931,101.8084480052766
2920.1024,100.14202023456485
2921.211,98.92757057576533
2922.319,96.96509330180047
2923.4264,98.60458169631704
2924.5331,94.89602807331097
2925.6391,91.93942376073228
2926.7445,97.08475913757081
2927.8493,95.48202366342221
2928.9534,95.98120582703442
2930.0569,94.58229316233532
2931.1597,88.63527224344067
2932.2619,100.04012869864334
2933.3634,96.89684726988344
2934.4643,100.95541169869995
2935.5645,104.0658047576632
2936.6641,96.72800820978969
2937.763,99.84200277743774
2938.8613,99.4577682156856
2939.959,102.92528328119162
2941.056,98.44452573603641
2942.1523,93.21547231304783
2943.248,89.03809876060842
2944.3431,87.26237989494618
2945.4375,75.58828964190805
2946.5313,72.51580105471723
2947.6244,66.8948864307141
2948.7169,62.22551734208098
2949.8087,58.75766469205137
2950.8999,53.59129876160369
2951.9904,54.12638924413976
2953.0803,46.912905297148356
2954.1696,44.750815536854425
2955.2582,36.4400881103539
2956.3462,40.78069071723456
2957.4335,35.47259069268338
2958.5202,35.515754964080394
2959.6062,37.86015010407978
2960.6916,38.455742330178175
2961.7764,37.10249748127073
2962.8605,41.00038101169521
2963.9439,37.49935800476448
2965.0267,35.649393133787605
2966.1089,35.200450697080086
2967.1905,34.35249463646353
2968.2714,30.405488541755076
2969.3516,33.20939565924695
2970.4312,32.61417893117655
2971.5102,33.36980096768728
2972.5885,32.87622405278087
2973.6662,36.583410136760996
2974.7432,37.39132084116912
2975.8196,35.199917421712634
2976.8954,36.75916076018576
2977.9705,35.61901138638357
2979.045,37.82942946250953
2980.1188,35.0903747945771
2981.192,34.55180681030546
2982.2645,34.763684586510045
2983.3364,34.57596685448826
2984.4077,34.23861199790066
2985.4783,29.201578054648166
2986.5483,25.61482272024557
2987.6177,28.578303398191977
2988.6864,28.39197723583822
2989.7545,21.455801094752147
2990.8219,22.719731552581848
2991.8887,21.5837249724174
2992.9548,26.997737490151536
2994.0204,17.56172502583985
2995.0852,12.675643229560514
2996.1495,13.689447575774487
2997.2131,12.003093412186331
2998.276,10.616535949606153
2999.3383,4.9297302788131105
3000.4,7.742631384421003
3001.4611,4.6551942017463475
3002.5215,3.417373588679375
3003.5812,6.229124356558373
3004.6404,3.2904012825479327
3005.6989,6.50115908152145
3006.7567,2.1613524354483147
3007.8139,2.520935961286341
3008.8705,3.879864254379811
3009.9264,1.5880918848636867
3010.9818,3.345573384074271
3012.0364,-0.04773673253303201
3013.0905,-1.2418839829585195
3014.1439,-1.7869134083125502
3015.1966,1.1171423567154903
3016.2487,0.17026852870118603
3017.3002,1.1224503130487165
3018.3511,0.6736729134596118
3019.4013,1.9739215224109472
3020.4509,-0.7268186743569274
3021.4998,0.321437489157141
3022.5481,5.268682439872826
3023.5958,3.514908601495499
3024.6428,2.8601083450436846
3025.6892,0.7542740063868578
3026.735,2.6973978927934255
3027.7802,2.0894723039890692
3028.8247,-0.31951048727446363
3029.8685,0.32044177085986547
3030.9118,0.4593245221588518
3031.9544,-0.7528667928151123
3032.9963,2.7338632619071177
3034.0376,0.11951764343395865
3035.0783,2.3040992815352013
3036.1184,5.187611104785475
3037.1578,4.120056018718422
3038.1966,4.751436876991626
3039.2348,3.231756492062104
3040.2723,1.9610176288725256
3041.3092,5.339223020048024
3042.3455,2.316375378603567
3043.3811,3.6424773641619197
3044.4161,3.9175316131821702
3045.4505,3.991540725698563
3046.4842,-0.28549273742994785
3047.5173,4.536433744740201
3048.5498,1.0573255452250194
3049.5816,3.377187991676159
3050.6128,3.296026401172057
3051.6434,3.36384605701927
3052.6734,3.7806522095641313
3053.7027,3.796450075514514
3054.7314,10.811244833771802
3055.7594,4.47504162527289
3056.7868,4.937845482842228
3057.8136,5.899661394553874
3058.8398,5.660494299103458
3059.8653,5.7203490761900255
3060.8902,5.479230548907683
3061.9145,8.687143483147068
3062.9381,8.444092590006509
3063.9612,7.00008249371292
3064.9835,10.105117734052282
3066.0053,7.659202780809778
3067.0264,10.962342002719424
3068.0469,9.514539691923225
3069.0668,9.16580003093981
3070.086,12.466127107142395
3071.1046,8.515524916246221
3072.1226,8.513997329305251
3073.1399,8.911548132218222
3074.1567,7.158181025743904
3075.1727,8.603899621525606
3076.1882,7.898707459624845
3077.203,9.542607994064134
3078.2173,8.18560459987895
3079.2308,7.72770055667867
3080.2438,6.618899062216652
3081.2561,4.559203236969271
3082.2678,6.148616135223907
3083.2789,4.13714076567592
3084.2893,5.174780075534528
3085.2991,4.41153697063756
3086.3083,5.847414305075066
3087.3169,3.0824148888217096
3088.3248,6.866541473378021
3089.3321,0.4497967794203994
3090.3388,5.432183458959855
3091.3449,3.913704159509429
3092.3503,4.2943614742603415
3093.3551,5.774157957266784
3094.3593,5.153096119639333
3095.3629,1.081178414746983
3096.3658,4.858407244427795
3097.3681,0.5847849997080381
3098.3698,7.560314023029935
3099.3708,0.6849966509878556
3100.3713,5.708835144573033
3101.3711,5.9818317579267415
3102.3702,4.603988688101904
3103.3688,2.6253080723331337
3104.3667,2.2457920018151825
3105.364,3.015442541489719
3106.3607,5.334261733840524
3107.3568,3.90225159119694
3108.3522,6.519414072545715
3109.347,4.085751097851091
3110.3412,2.8012645218831764
3111.3348,3.365956158554596
3112.3277,2.5298277937653104
3113.32,6.7428811797557415
3114.3117,0.6551180434680326
3115.3028,3.6165400444155154
3116.2932,3.9771488355603672
3117.2831,3.9369460336993747
3118.2723,3.4959332158578498
3119.2608,2.454111919691652
3120.2488,2.2614836478973217
3121.2361,0.4180498786302955
3122.2229,2.27381206743118
3123.209,2.67877166566009
3124.1944,6.282930101939023
3125.1793,1.5862887781022863
3126.1635,5.038849033154875
3127.1471,4.690612190238916
3128.1301,7.041579522108055
3129.1125,4.891752254609823
3130.0942,2.141131543175959
3131.0753,-0.8102815056793204
3132.0558,3.43751419314691
3133.0357,1.5845278194698018
3134.015,2.7307685187293664
3134.9936,4.0262454205203575
3135.9716,3.2209676271298378
3136.949,2.864944200582432
3137.9258,4.808184170693096
3138.902,2.9506965386273514
3139.8775,4.4424902574688865
3140.8524,2.233574250794451
3141.8267,4.023957397755863
3142.8004,5.013648555169228
3143.7735,4.852656539611061
3144.7459,3.3909901175214117
3145.7178,6.578658006813784
3146.689,3.765668891491787
3147.6596,2.0520313897724503
3148.6295,3.887754082216123
3149.5989,2.2228455288628464
3150.5676,5.757314250875119
3151.5357,4.7911687471869975
3152.5032,2.124417459159398
3153.4701,7.907068780241545
3154.4364,2.389131082638512
3155.402,7.520612659484687
3156.367,4.451521780023157
3157.3315,5.081866638290888
3158.2952,7.061655383809631
3159.2584,1.740896115282471
3160.221,4.769596860795954
3161.1829,3.5477656310276764
3162.1442,3.0754103889592557
3163.105,3.6525390620946894
3164.065,6.529159547183857
3165.0245,3.355279704451263
3165.9834,6.630907328829821
3166.9416,5.406050181699644
3167.8993,4.380715958131784
3168.8563,5.354912299136778
3169.8127,5.428646801918031
3170.7684,5.601927010129806
3171.7236,6.674760413139921
3172.6782,5.19715444429691
3173.6321,3.619116470201721
3174.5854,4.690653805483755
3175.5381,5.411773728581268
3176.4902,3.3324834710259754
3177.4417,4.0027902102318755
3178.3926,3.8227010902881347
3179.3428,7.592223215256018
3180.2924,4.2113636509697905
3181.2415,3.880129387341496
3182.1899,5.948527372169545
3183.1377,5.416564514451062
3184.0848,3.3342476636979104
3185.0314,5.4015836152563175
3185.9773,7.71857913113004
3186.9227,4.835240919307013
3187.8674,6.851575610589393
3188.8115,3.917589787426916
3189.755,8.133289963753581
3190.6979,6.0486826143274826
3191.6402,3.3637741325738375
3192.5818,6.2285708514310265
3193.5229,5.993079070199709
3194.4633,8.307305025894843
3195.4031,5.271254895600597
3196.3423,6.134934773328093
3197.2809,7.1983507003759115
3198.2189,5.2115086566932955
3199.1563,8.87441455024598
3200.0931,6.2370742368846255
3201.0292,5.249493483715744
3201.9648,5.311677995475105
3202.8997,4.773633424403551
3203.834,4.535365369625145
3204.7677,5.09687938252762
3205.7008,5.658180969145059
3206.6333,5.519275584542756
3207.5652,7.780168627204201
3208.4964,7.940865440420129
3209.4271,4.65137128967959
3210.3571,6.4116913610629815
3211.2865,4.72183079413699
3212.2154,6.631794664351398
3213.1436,6.391587999937691
3214.0712,6.8512157628094075
3214.9982,7.6106828509642135
3215.9246,7.969994093887617
3216.8503,5.279154244958295
3217.7755,6.038167977854994
3218.7001,7.497039913464917
3219.624,8.205774612293597
3220.5473,7.264376559876167
3221.4701,8.322850159690015
3222.3922,6.581199742568764
3223.3137,8.039429556117536
3224.2346,5.5975437821294545
3225.1549,3.855546522003353
3226.0746,7.763441821162621
3226.9937,6.171233686475205
3227.9121,9.628926047174629
3228.83,7.536522770782081
3229.7473,6.494027628529496
3230.6639,7.8014443162835825
3231.5799,8.358776464970784
3232.4954,5.216027627503099
3233.4102,9.723201273204772
3234.3244,7.580300819239767
3235.238,7.687329585540034
3236.151,5.044290816234513
3237.0634,5.851187678578841
3237.9752,6.808023289385737
3238.8864,7.114800706956043
3239.797,7.621522921510378
3240.7069,9.078192852121354
3241.6163,9.88481334164637
3242.5251,5.84138714216088
3243.4332,8.547916906892224
3244.3408,5.054405230653874
3245.2477,7.710854622780143
3246.154,7.167267542061282
3247.0598,7.323646370179006
3247.9649,8.679993417142352
3248.8694,7.436310919723888
3249.7733,5.5926010278962615
3250.6766,6.548865817269017
3251.5793,8.25510730752569
3252.4814,8.21132745286116
3253.3829,8.667528124919238
3254.2838,9.42371111323045
3255.1841,8.379878120650051
3256.0838,12.436030755796182
3256.9829,7.892170543488206
3257.8814,9.648298884185174
3258.7792,8.004417099424435
3259.6765,9.46052641426035
3260.5731,5.81662797370311
3261.4692,6.37272282815764
3262.3647,5.828811969862587
3263.2595,9.73489632732937
3264.1538,7.140976770781291
3265.0474,10.197054073092687
3265.9404,8.403128935728128
3266.8329,8.959201958181644
3267.7247,7.065273655915977
3268.616,8.271344454801845
3269.5066,8.377414710057236
3270.3966,10.633484694186688
3271.286,8.239554595920593
