RamanShift,CorrectedData
30.1047,6317.765695688966
32.3739,5906.65889994475
34.6426,5500.602041022878
36.9109,5088.494996679102
39.1787,4686.337589663155
41.4461,4280.729591839817
43.7131,3875.5707282104936
45.9796,3470.8606809692906
48.2456,3068.099093554602
50.5112,2661.485574696214
52.7764,2260.66970244292
55.0411,1861.4510282286578
57.3054,1462.1290808806664
59.5692,1069.5533706116735
61.8326,673.8233930131156
64.0955,279.3386329808958
66.3579,-106.05143132731695
68.6199,-487.24732454723994
70.8815,-837.0985118607916
73.1426,-1091.2995908491189
75.4032,-1106.0367964792363
77.6634,-512.4854616352472
79.9231,1581.3401301063404
82.1824,6899.130814898781
84.4412,18412.92741308193
86.6995,38437.42067600432
88.9574,49678.951170885244
91.2148,53588.40908056976
93.4717,54406.58409111344
95.7282,54553.76535268772
97.9842,54360.841471398264
100.2398,53862.800507813015
102.4949,53374.57997889156
104.7495,52880.516862965465
107.0036,52201.897604620506
109.2573,51996.60811963727
111.5105,51235.53380177741
113.7632,50819.25952483648
116.0154,50443.46965025471
118.2672,50167.04803127973
120.5185,49724.3780167245
122.7693,49252.542453731476
125.0197,48503.62369219934
127.2696,48639.053589501375
129.519,48088.5135179746
131.7679,47876.33436356551
134.0163,46852.99653133549
136.2642,46660.72994758257
138.5117,46582.81407007483
140.7587,45977.27788997305
143.0052,45545.699932609874
145.2512,44798.50826354518
147.4967,44789.03049288184
149.7417,44231.64378273765
151.9863,43810.324847340096
154.2304,43141.99995860025
156.4739,42927.49495032594
158.717,42763.63522490497
160.9596,42141.295755450235
163.2017,41403.951087438254
165.4433,41302.925344932606
167.6844,40657.04223795736
169.925,40372.725063507336
172.1651,39770.19671200694
174.4047,39441.77967015333
176.6439,39020.496026941706
178.8825,38518.86747694945
181.1206,38336.96532454902
183.3582,37898.310488924166
185.5954,37335.97350588902
187.832,37012.3245322746
190.0681,36383.93335155221
192.3037,36360.66937706992
194.5388,36357.301658336524
196.7734,35117.748881254076
199.0075,35517.27936815164
201.2411,34852.31109018083
203.4742,34925.86166332048
205.7068,34489.29835502629
207.9389,34096.63808349539
210.1704,33672.14742203192
212.4015,33672.69260297369
214.632,32875.68952193702
216.862,33004.003737811305
219.0915,32477.350480729085
221.3205,32056.64465078286
223.549,32068.05082329163
225.777,31708.18325300796
228.0044,31564.00587400389
230.2314,31132.482303269688
232.4578,30806.77584215555
234.6837,30530.349480686855
236.909,30728.065900821264
239.1339,29582.037479212948
241.3582,29604.626285235463
243.582,29206.944092441994
245.8053,28822.702378339458
248.0281,28516.362328365336
250.2503,28274.384839730086
252.472,27652.580524480567
254.6932,27508.10971191978
256.9139,27080.832454824973
259.134,27219.70853089229
261.3536,26335.247447009562
263.5727,26395.108437867544
265.7912,25879.80047480455
268.0092,25630.03226520784
270.2267,25361.812257666636
272.4436,24823.648644469875
274.6601,24709.29936428839
276.8759,24507.4221075565
279.0913,24062.024317615615
281.3061,23806.96319273288
283.5204,23538.94569055522
285.7341,23208.47853065998
287.9473,23175.768197235033
290.16,22712.92094238349
292.3721,22602.09278645079
294.5837,22121.689522653214
296.7947,21723.016718186103
299.0052,21798.429719027983
301.2152,21312.58365392719
303.4246,21196.883433647832
305.6334,20840.83375582818
307.8418,20190.58910613769
310.0495,19928.15376183756
312.2568,19584.03179828314
314.4635,19282.927091548197
316.6696,19144.543321866244
318.8752,19014.833976641552
321.0802,18171.702351832922
323.2847,18161.801553250873
325.4887,17928.934504988938
327.692,17515.053949522633
329.8949,17373.76245003817
332.0972,16957.162394571213
334.2989,16791.15599741981
336.5001,16656.245303310425
338.7007,15958.582189057946
340.9008,15927.668364914847
343.1003,15740.455381547785
345.2992,15625.244630346788
347.4976,15154.18734529733
349.6955,14997.634604132472
351.8927,14625.187333043468
354.0895,14571.196308245177
356.2856,14336.262159700666
358.4812,14285.085371661058
360.6763,13748.516285014884
362.8707,13746.705097799822
365.0646,13377.90187056845
367.258,13174.256526406287
369.4508,12783.668854619857
371.643,12871.488512773147
373.8346,12531.215030593477
376.0257,12278.847809093284
378.2162,12008.486123972863
380.4062,11548.429128144082
382.5956,11505.92585443394
384.7844,11289.175220185207
386.9726,11196.976027681398
389.1603,10989.576966314315
391.3474,10463.876613506036
393.5339,10574.723436782915
395.7199,10022.665799032577
397.9052,9902.601957395396
400.09,9842.180068785128
402.2743,9783.44819108952
404.4579,9414.054283774545
406.641,9235.396208471742
408.8235,9230.371732672094
411.0054,9112.428531512749
413.1868,9029.36418782713
415.3675,8846.226193324394
417.5477,8707.261949420106
419.7273,8495.618769067602
421.9064,8299.393878147624
424.0848,8163.3344175847305
426.2627,8067.187445309566
428.4399,7601.149937619433
430.6166,7209.318790139783
432.7928,7248.490822484564
434.9683,6834.962782174574
437.1432,6664.481344245745
439.3176,6664.843115384421
441.4914,6159.744635632131
443.6645,6069.482378382061
445.8371,5946.352755429936
448.0091,5645.85211787669
450.1806,5426.026757359818
452.3514,5312.122909058315
454.5216,5040.736753890946
456.6913,4992.914419655244
458.8603,4913.701983741419
461.0288,4632.995473610543
463.1967,4704.3908675866915
465.3639,4573.884097663999
467.5306,4125.271048792711
469.6967,4215.197560184242
471.8622,4221.059429797337
474.0271,4020.3524134387553
476.1914,3889.322224704716
478.3551,3801.6645369879334
480.5182,3899.924984787962
482.6807,3540.5991645877
484.8426,3509.432633870856
487.0039,3673.5709147151647
489.1647,3637.9094941040457
491.3248,3342.3438222852346
493.4843,3563.1193131273685
495.6432,3476.6313470757304
497.8015,3024.5752689444125
499.9592,3153.9963887812264
502.1163,3053.239986388253
504.2728,2859.8513100276396
506.4287,2800.7755774291145
508.5839,2458.307977723918
510.7386,2420.7936720355283
512.8927,2363.3777969043804
515.0461,2197.255464662936
517.199,2260.5717640099756
519.3512,2058.921761671765
521.5029,1958.8005017688847
523.6539,1950.1030078327385
525.8043,1740.774283806757
527.9541,1816.2093141333535
530.1033,1717.3530658472373
532.2519,1584.45048782105
534.3999,1629.1965117539512
536.5472,1759.18605350062
538.694,1507.1640126237835
540.8401,1726.3252710943416
542.9856,1711.4646958116282
545.1305,1750.4771364117114
547.2748,1542.1574254160514
549.4185,1433.8003778412967
551.5615,1478.8507932825596
553.704,1346.9534569969546
555.8458,1202.3031394531208
557.987,1204.8445976501825
560.1276,1267.3225765642565
562.2675,1128.5318091230147
564.4069,1113.067015580964
566.5456,1218.1729049072746
568.6837,1024.4941749404825
570.8212,980.9755113374704
572.958,659.31158951018
575.0942,753.7970750608147
577.2299,556.9200470688302
579.3648,527.1185770756638
581.4992,422.9251729915486
583.6329,408.66707681206026
585.766,427.0173055103005
587.8985,511.74479347520537
590.0304,217.3142091927657
592.1616,350.39021603160654
594.2922,232.18530639137316
596.4222,116.20847227342165
598.5515,136.2163861478839
600.6802,80.81455956221907
602.8083,-110.34285673785052
604.9358,-94.90251934406115
607.0626,-23.35998252304853
609.1888,-188.3598524652989
611.3144,-90.9465019951167
613.4393,-226.4124222218743
615.5636,-239.14919569943595
617.6873,-169.4961431216434
619.8103,-258.94019608185044
621.9327,-227.9665929070179
624.0544,-204.357985111601
626.1756,-264.944746823865
628.2961,-275.10521063584747
630.4159,-324.26506234161934
632.5351,-319.39723943428544
634.6537,-166.92143999894324
636.7716,-327.40417134237214
638.8889,-279.81027322616865
641.0056,-234.20131464422593
643.1216,-233.1360692858725
645.237,-150.02097116929508
647.3518,-221.11012528341234
649.4659,-186.15763511692057
651.5793,-165.9676019473918
653.6922,-163.79412519079779
655.8043,-275.44130260336533
657.9159,-95.9632303033577
660.0268,-361.0640016545876
662.137,-215.0977090612505
664.2466,-144.0684413168201
666.3556,-184.8302850638065
668.4639,-146.9373255039609
670.5716,-144.89364599074906
672.6786,-92.95332840822084
674.785,-160.07045319148165
676.8907,-118.29909984604456
678.9958,-52.69334627666831
681.1002,-23.807269205135526
683.204,-122.3449448262545
685.3072,-126.71044909674674
687.4097,-122.05785674984509
689.5115,-78.69124125163944
691.6127,25.08532515240222
693.7132,-38.43222899628017
695.8131,-20.197975407063495
697.9123,91.48401459502202
700.0109,104.40966988695436
702.1089,7.524918430885009
704.2061,107.57568714491208
706.3028,130.35790287191048
708.3987,175.86749137900188
710.4941,211.80037712978083
712.5887,323.85248282918474
714.6827,379.96972906421433
716.7761,500.4980331833576
718.8688,636.9833087354418
720.9608,619.3214642643579
723.0522,719.45840194419
725.1429,653.4400177558346
727.233,766.9622004856719
729.3224,558.0208323856859
731.4112,639.611788038259
733.4993,621.030936445597
735.5867,569.424140213785
737.6735,574.187255738645
739.7596,522.7661337217651
741.845,529.7566191228907
743.9298,659.8045516740967
746.014,600.5557658099424
748.0974,598.3560893669419
750.1802,722.6513441760835
752.2624,587.0373460848714
754.3439,639.1599037143096
756.4247,664.9648198151117
758.5048,654.9978907464101
760.5843,782.804906217687
762.6631,911.8316493884777
764.7413,1066.1238955902954
766.8188,1248.9274110363403
768.8956,1380.9379512786472
770.9718,1503.6512593799926
773.0473,1414.4130645937767
775.1221,1340.2190811369
777.1962,1288.9650090821597
779.2697,1165.2965351001476
781.3426,1247.809332971854
783.4147,1413.9490648253122
785.4862,1505.7113803105021
787.557,1472.6919149379319
789.6271,1533.8862891610042
791.6966,1367.2401087062026
793.7654,1173.7989639612133
795.8335,1190.1584316412918
797.901,1214.5640767237492
799.9678,1145.2114522843112
802.0339,1148.8960992530192
804.0993,1255.5135471078538
806.1641,1195.3093138378608
808.2282,1192.6789048769642
810.2916,1183.6178137060415
812.3544,1391.5715218791665
814.4164,1158.685499114319
816.4778,1281.6052012137807
818.5385,1328.4760723930085
820.5986,1426.0435440514339
822.658,1536.4530343037404
824.7166,1604.3499470042225
826.7747,1662.1296706426947
828.832,1856.287577665491
830.8886,1978.2190238976473
832.9446,2085.8193466013327
834.9999,1790.0338632565254
837.0545,2043.2578704850166
839.1085,2150.386647008301
841.1618,2126.8154511152825
843.2143,1893.289519591075
845.2662,1891.2040679526035
847.3175,2034.8542927839298
849.368,1683.485371757095
851.4179,2052.9424621956205
853.467,1851.7207045882096
855.5155,2025.3152188941822
857.5633,1793.6711065556374
859.6105,1657.183448761556
861.6569,1949.4973087642647
863.7027,1580.2577332442233
865.7478,1838.9597493869296
867.7922,1797.8483685753454
869.8359,2079.3185838028076
871.8789,1722.7653700842275
873.9212,2039.1836816413415
875.9629,2225.818455468281
878.0039,2303.3646081673505
880.0441,2256.967034082729
882.0837,2376.4706045249986
884.1226,2401.1201682350948
886.1609,2409.160550189299
888.1984,2230.086551352695
890.2352,2729.292948598755
892.2714,2335.5744965000995
894.3069,2603.675922336435
896.3416,2423.741930031749
898.3757,2402.217197473263
900.4091,1959.196378310815
902.4418,2670.174102172081
904.4739,2394.594979092748
906.5052,2529.803592406781
908.5358,2375.944501502272
910.5658,2273.7122404692636
912.595,2246.85131963843
914.6236,1713.0062266032837
916.6515,2612.7214264888826
918.6786,1811.541367290214
920.7051,2117.660470875031
922.7309,2171.123140995718
924.756,2356.373760228096
926.7804,2191.6066894367978
928.8041,1659.6162659227193
930.8272,2144.3968050707263
932.8495,2142.64260566952
934.8711,1786.797945063874
936.892,1640.0070791721737
938.9123,1809.264246044855
940.9318,1607.2136673323039
942.9506,1628.3495465923043
944.9688,1690.61607131052
946.9862,1202.1074126891908
949.003,1401.3177250243607
951.019,1011.8911505910291
953.0344,1154.9718176510578
955.0491,1189.6038443474608
957.063,1456.8313372735065
959.0763,1620.198391126447
961.0888,1377.5990860352176
963.1007,1702.0774859268058
965.1119,1788.4776409522092
967.1223,1589.6935842416715
969.1321,1925.7693310407121
971.1412,1686.148880697896
973.1495,1573.1262133041819
975.1572,1814.3452920890777
977.1641,1790.2000645508451
979.1704,1710.184460044322
981.1759,1803.9423900223774
983.1808,1729.3677488360336
985.1849,1836.7544127969595
987.1884,1888.096240923136
989.1911,2257.887073865051
991.1932,1930.5207333922226
993.1945,2078.741018695335
995.1951,2144.641709659867
997.1951,1978.2665653839358
999.1943,1890.3593235192238
1001.1928,1790.4637019347792
1003.1906,1900.3733995960865
1005.1877,1735.1320975640192
1007.1841,1640.7334578957234
1009.1798,1655.6211252970825
1011.1748,1552.188728066627
1013.1691,1447.9798779466873
1015.1627,1005.5381711577575
1017.1556,842.857189440525
1019.1477,912.7805044803172
1021.1392,681.451679533915
1023.1299,433.96426873031305
1025.12,640.3618193840084
1027.1093,501.9378744699061
1029.0979,595.2359705593117
1031.0859,660.7496392040994
1033.0731,458.4224060038614
1035.0596,493.2977899506732
1037.0454,351.66930545238574
1039.0304,179.68046198394586
1041.0148,-6.725234496436315
1042.9985,-80.65427982727851
1044.9814,26.886830220144475
1046.9636,-121.85839931886585
1048.9452,-144.49646367788228
1050.926,-29.332640725122474
1052.9061,-109.47076480914257
1054.8855,-39.01466998514661
1056.8642,-96.06709669542033
1058.8421,28.769215007931052
1060.8194,18.342484783053806
1062.7959,45.25093200045376
1064.7717,98.9427758472084
1066.7469,132.81623505790776
1068.7213,174.01952737770625
1070.695,162.3008692236108
1072.6679,53.208475272447686
1074.6402,125.34055857802741
1076.6117,171.49533166212495
1078.5826,159.77100579309626
1080.5527,114.11579052436718
1082.5221,164.0278938116753
1084.4908,277.55552246962907
1086.4587,370.44688167258573
1088.426,537.5501738193343
1090.3925,432.01359760423657
1092.3584,474.58534634618263
1094.3235,295.36360904393223
1096.2879,244.04656995044206
1098.2515,291.08241036502295
1100.2145,398.5193091465917
1102.1767,479.6554422432455
1104.1382,650.6889816178591
1106.099,817.2680944368112
1108.0591,936.2909413596062
1110.0185,1052.8056748730596
1111.9771,1158.4104381011202
1113.9351,916.0033636397129
1115.8923,709.7325725006594
1117.8488,515.3461765357642
1119.8045,300.94228049951926
1121.7596,265.1189839929939
1123.7139,193.97438360784145
1125.6675,157.45657328453672
1127.6204,297.1136450238482
1129.5726,304.04368925197923
1131.524,330.44479342400155
1133.4748,302.01504195458983
1135.4248,198.90251595397422
1137.3741,175.20529351226287
1139.3226,168.92145073054417
1141.2705,205.19906195787917
1143.2176,44.73619985409459
1145.164,100.58093502707197
1147.1097,73.98133763733495
1149.0546,88.18547683961515
1150.9989,96.84142104883358
1152.9424,58.59723779808701
1154.8852,-51.99900634793448
1156.8272,-70.64924541050277
1158.7686,-17.054893940839975
1160.7092,-82.01666070419742
1162.6491,-141.48508408742055
1164.5883,22.390116869057238
1166.5267,72.91063656075858
1168.4644,264.2279457059194
1170.4014,370.9935142937029
1172.3377,661.0588096709762
1174.2732,889.4252954747062
1176.2081,1087.094428731296
1178.1421,1369.5176575729201
1180.0755,1639.5464192607906
1182.0082,1646.1321373609826
1183.9401,1737.076219044131
1185.8713,1671.7300550195796
1187.8017,1496.7450186259448
1189.7315,1359.5224664845882
1191.6605,1012.8637402494351
1193.5888,821.520167979179
1195.5163,807.0930676039352
1197.4432,666.0837488386023
1199.3693,674.4435133271836
1201.2947,626.0736560528385
1203.2193,562.8754652543248
1205.1432,611.950222909687
1207.0664,574.7992053682319
1208.9889,554.6736828597786
1210.9106,581.8249198661833
1212.8316,563.1041753225763
1214.7519,627.1127023458757
1216.6715,603.0017484219461
1218.5903,632.8225547655566
1220.5084,653.3763565614718
1222.4257,758.6643826662475
1224.3424,659.6878554026625
1226.2583,713.4979895068827
1228.1735,831.595993118186
1230.0879,804.0830672408956
1232.0016,918.4604045633823
1233.9146,953.7791897331845
1235.8269,848.8405982132499
1237.7384,893.245795928764
1239.6492,723.545940316515
1241.5592,715.49217988085
1243.4686,630.7356558906649
1245.3772,682.8775024599527
1247.285,676.8188473953742
1249.1922,660.6608116748212
1251.0986,736.3045095080015
1253.0042,638.6510484980463
1254.9092,710.00152888503
1256.8134,830.9070445225298
1258.7169,983.1186821641095
1260.6196,1113.0375202542818
1262.5216,1327.7646274064136
1264.4229,1445.601061103509
1266.3234,1605.297865550936
1268.2232,1698.0560704980962
1270.1223,1721.5766896414243
1272.0207,1725.160719696807
1273.9183,1722.0591401643615
1275.8151,1678.3229132926208
1277.7113,1666.7029841095537
1279.6067,1601.150280859918
1281.5014,1565.9157151214386
1283.3953,1646.250182460346
1285.2885,1841.704562783736
1287.181,1932.4797195362153
1289.0727,2156.87649774535
1290.9637,2252.6457231139284
1292.854,2457.038199775954
1294.7435,2476.3547093390152
1296.6323,2580.046008840327
1298.5204,2674.712830553566
1300.4077,2800.8058809519825
1302.2943,2860.5258397616963
1304.1802,2847.623358700803
1306.0653,2671.849060882152
1307.9497,2496.903540942367
1309.8333,2360.7373667995926
1311.7162,2311.3510814029687
1313.5984,2326.795204094258
1315.4798,2298.520231101731
1317.3605,2329.7766353857332
1319.2405,2453.4148669213973
1321.1197,2419.285352386123
1322.9982,2257.9884939231924
1324.876,2245.0746694830377
1326.753,2144.244234436239
1328.6293,2176.297521702618
1330.5048,2193.6848427595723
1332.3796,2143.006487321534
1334.2537,2157.412723166093
1336.127,2150.453796640799
1337.9996,2149.5299325190754
1339.8714,2172.4913340698185
1341.7426,2162.888183066654
1343.6129,2180.320639558311
1345.4826,2147.788841964637
1347.3515,2230.1429069023034
1349.2196,2249.9829295100935
1351.087,2330.3089826253963
1352.9537,2333.421116585785
1354.8197,2515.169358425759
1356.6849,2691.4037118456254
1358.5493,2725.874155394009
1360.4131,2837.230640705511
1362.276,2873.4730921560295
1364.1383,2817.05140574916
1365.9998,2623.965448753788
1367.8606,2359.515060268299
1369.7206,2160.000053151445
1371.5799,1959.7202166668249
1373.4384,1834.9253184780646
1375.2962,1719.6151066515959
1377.1533,1405.0893109046083
1379.0096,1189.9976437581317
1380.8652,964.2398036823179
1382.7201,786.7154772473514
1384.5742,558.3243413810342
1386.4275,425.2660651440383
1388.2802,334.0403120138144
1390.132,264.3967412151869
1391.9832,231.5850086325554
1393.8336,121.20476750638773
1395.6832,80.90566876132652
1397.5322,59.08736210998177
1399.3803,44.59949645591769
1401.2278,13.991720111829636
1403.0745,-0.9363190555486653
1404.9204,-81.4349733194249
1406.7656,-8.304585599173151
1408.6101,-15.344685278807447
1410.4538,-13.654718779536779
1412.2968,-0.4839792291568301
1414.139,-7.231623344850959
1415.9805,143.35319699112733
1417.8213,199.3714021404303
1419.6613,278.8239110311879
1421.5006,448.2116405978377
1423.3391,599.0855049865604
1425.1769,824.5464138614625
1427.0139,1169.745270895779
1428.8502,1679.3829715172978
1430.6858,2092.1603994563775
1432.5206,2373.1284216495405
1434.3547,2606.787884111738
1436.188,2612.8896091266397
1438.0206,2592.634392910055
1439.8524,2454.8730055488995
1441.6835,2449.756191203749
1443.5139,2380.8846694864733
1445.3435,2292.809135511383
1447.1724,2302.330260583927
1449.0005,2315.2486930814957
1450.8279,2233.7150583581715
1452.6545,2219.179958615561
1454.4804,2307.243973718134
1456.3056,2332.1076613385667
1458.13,2315.471556077082
1459.9536,2218.686169212844
1461.7766,1960.7019888703107
1463.5987,1723.9694809871144
1465.4202,1462.0390918938792
1467.2409,1210.911250681529
1469.0608,1014.1363718206048
1470.88,874.8648576725318
1472.6984,720.3971004573905
1474.5161,541.1834836466332
1476.3331,428.2243835077534
1478.1493,430.82017089641886
1479.9648,372.4712123860736
1481.7795,296.4778702419535
1483.5935,313.79050300460585
1485.4067,285.80946624980425
1487.2192,275.83511241543965
1489.031,295.3177910813065
1490.842,274.3578490688633
1492.6522,268.7556302464109
1494.4618,239.8114757386611
1496.2705,290.0257239827988
1498.0785,285.1987110178925
1499.8858,277.28076998275355
1501.6924,291.52223116421374
1503.4981,276.673422076321
1505.3032,299.7346673179054
1507.1075,293.8562887210901
1508.911,313.2386051206486
1510.7138,290.43193241280096
1512.5159,287.98658336137305
1514.3172,289.452867825883
1516.1178,218.83109278600023
1517.9176,259.67156232687194
1519.7166,237.17457834533707
1521.515,206.69044014155224
1523.3126,196.3194446439411
1525.1094,193.36188671402488
1526.9055,162.21805925014633
1528.7008,151.9382532170348
1530.4954,86.37275795721871
1532.2893,120.07186129387992
1534.0824,82.53585018647209
1535.8747,115.86501039373252
1537.6663,143.05962684906626
1539.4572,136.5199833272236
1541.2473,141.24636217238367
1543.0367,115.88904436352459
1544.8253,112.29830946717266
1546.6132,166.12443589096438
1548.4003,118.56770091957515
1550.1867,214.72838017645336
1551.9723,214.85674809937336
1553.7572,276.6030769788558
1555.5414,273.9176369568413
1557.3247,376.6506954092547
1559.1074,432.1025169728491
1560.8893,531.5733625178691
1562.6705,621.8634885935389
1564.4509,711.9731464333709
1566.2305,783.2025810522246
1568.0094,890.752030345262
1569.7876,893.2217243756277
1571.565,961.0618842989425
1573.3417,971.2227223386326
1575.1176,985.554441107517
1576.8928,1019.757233506185
1578.6672,928.0812825797038
1580.4409,881.7267611755851
1582.2138,843.5438328605233
1583.986,797.0326523839722
1585.7575,817.1933660599389
1587.5282,792.0261122321317
1589.2981,814.7810210723183
1591.0673,803.6082148320274
1592.8358,896.2578076149694
1594.6035,945.4299054888033
1596.3704,914.6746055586045
1598.1366,952.3419954751771
1599.9021,992.2821537425953
1601.6668,1052.6951493415145
1603.4308,1138.2310413297673
1605.194,1273.8398782382537
1606.9564,1375.7716972155504
1608.7182,1506.0265226718511
1610.4791,1710.0543652596316
1612.2394,1898.605220571102
1613.9988,2026.1290670979506
1615.7576,2212.425864345816
1617.5156,2421.2955515590547
1619.2728,2569.0380458577456
1621.0293,2686.6032401490374
1622.785,2644.4910016497124
1624.54,2539.0011707105077
1626.2942,2415.4835612372663
1628.0477,2123.287961745813
1629.8005,1947.4141365971482
1631.5525,1816.4618289193895
1633.3037,1648.5807623665496
1635.0542,1603.1206424280135
1636.804,1529.7311581073845
1638.553,1471.3619823770532
1640.3013,1436.91277291211
1642.0488,1420.583172674029
1643.7955,1496.7728102551737
1645.5416,1552.4313000420661
1647.2868,1650.8582414535176
1649.0313,1696.9532183840292
1650.7751,1861.1657982195356
1652.5181,1999.9955313764476
1654.2604,2130.741949659525
1656.0019,2330.4545648735893
1657.7427,2540.182867516047
1659.4828,2798.076324779766
1661.222,2909.7843784558045
1662.9606,2981.3564423544485
1664.6984,2838.3919011881626
1666.4354,2559.3401098558497
1668.1717,2171.3503948724974
1669.9072,1770.2220571597045
1671.642,1453.1543759255874
1673.3761,1209.846612676034
1675.1094,1013.3480143854085
1676.8419,836.7078159296125
1678.5737,660.2252420510758
1680.3048,569.14950912516
1682.0351,503.4798269249841
1683.7646,446.91539953217034
1685.4934,425.9554259935703
1687.2215,350.3991008868761
1688.9488,305.99561453023125
1690.6754,277.7441537377981
1692.4012,272.64390226378055
1694.1263,228.89404108494455
1695.8506,231.14374845163366
1697.5742,221.94220032525118
1699.297,178.78857035577312
1701.0191,137.1320299737563
1702.7404,139.07174882187792
1704.461,82.40689517149258
1706.1808,73.18663590325014
1707.8999,104.11013707373422
1709.6182,66.62656400767082
1711.3358,78.98508098869752
1713.0527,74.1848516341961
1714.7688,51.72503877168674
1716.4841,15.754804486854482
1718.1987,73.37331034813724
1719.9126,57.679717766437534
1721.6257,47.773187418937596
1723.338,23.452879406024294
1725.0496,-15.78204664963414
1726.7605,11.367568640114769
1728.4706,19.151042326056995
1730.18,-48.482308654691224
1731.8886,-13.483167556525586
1733.5964,-1.0517332955860184
1735.3036,-10.838070091176633
1737.0099,12.957768344200304
1738.7156,15.885836570354513
1740.4204,-35.203810982467985
1742.1246,-0.26112004288188473
1743.8279,-11.985684653436692
1745.5306,25.622903751902413
1747.2325,-0.634826523850279
1748.9336,-8.85834743389023
1750.634,-20.397124589513624
1752.3336,-0.4005351071264158
1754.0325,16.382247664139868
1755.7307,34.85205437649893
1757.4281,43.20971551835464
1759.1247,79.95606122958998
1760.8206,84.59192121799788
1762.5158,90.31812439180976
1764.2102,96.2854988133513
1765.9039,74.14487164176717
1767.5968,93.94706907334876
1769.289,97.54291656294481
1770.9804,64.18323862593024
1772.6711,107.5188588022611
1774.361,99.00059999007317
1776.0502,128.72928401230456
1777.7386,112.00573170191274
1779.4263,129.48076260456764
1781.1132,137.90519514589687
1782.7994,124.92984645672914
1784.4849,143.40553228884164
1786.1696,142.383067144714
1787.8535,142.81326409277426
1789.5367,162.24693477762594
1791.2192,186.98488941574033
1792.9009,149.52793660113457
1794.5818,186.77688305797165
1796.2621,176.0825340151514
1797.9415,183.79569283381534
1799.6202,202.4171611142865
1801.2982,190.09773861893518
1802.9755,226.638223085969
1804.6519,216.7394103526167
1806.3277,178.1520939897291
1808.0027,183.37706540077124
1809.6769,218.66511420768984
1811.3504,201.21702819866914
1813.0231,227.03359297525276
1814.6951,253.56559212681896
1816.3664,281.9138069724213
1818.0369,288.12901629546286
1819.7067,289.6119960602082
1821.3757,244.41351934964405
1823.044,289.5343563506467
1824.7115,291.97527480595636
1826.3783,275.9870395629878
1828.0443,267.1204125494005
1829.7096,281.9261529329997
1831.3741,294.50501721038563
1833.0379,289.50775905891715
1834.701,318.2851292109044
1836.3633,319.2378755035843
1838.0248,331.5667425913434
1839.6856,341.8724719361999
1841.3457,346.4058016845047
1843.005,369.0174665638897
1844.6636,371.8581978379316
1846.3214,376.2287230800375
1847.9785,381.77976614504587
1849.6349,413.7620471254995
1851.2904,416.2262822961693
1852.9453,406.3731837942032
1854.5994,408.0534595944973
1856.2528,435.7178136082093
1857.9054,462.41694566596925
1859.5572,470.6515512412334
1861.2083,478.3723211833021
1862.8587,520.7799416349571
1864.5084,506.57509395526176
1866.1572,498.85845429548135
1867.8054,457.8306937411362
1869.4528,469.4924783891711
1871.0994,506.1944697582294
1872.7453,477.93732467204245
1874.3905,478.5216948924044
1876.0349,495.69822740174277
1877.6786,510.01756439728524
1879.3215,538.1303431192755
1880.9637,543.0871957077907
1882.6051,556.4887489216071
1884.2458,534.6856240886318
1885.8858,529.7284369718855
1887.525,548.3677979875447
1889.1634,526.7043122544874
1890.8011,523.0885794079313
1892.4381,524.2211938160453
1894.0743,544.0527446161304
1895.7098,533.5838157032704
1897.3446,570.6149855320309
1898.9786,564.5468272211419
1900.6118,565.0299081831781
1902.2443,555.3147901852517
1903.8761,546.0020293441812
1905.5071,513.4421762236398
1907.1374,512.2857759272902
1908.7669,556.3333684243826
1910.3957,524.4854885613149
1912.0237,514.8426656211614
1913.651,500.5554236421376
1915.2776,510.8242815140402
1916.9034,504.3497531211051
1918.5285,473.3323472393349
1920.1528,442.2225676012422
1921.7764,488.52091320601903
1923.3992,489.3778786306375
1925.0213,400.2939535668611
1926.6427,410.61962281268825
1928.2633,441.0553671631751
1929.8832,463.4516633071853
1931.5023,425.00898352303193
1933.1207,426.2277954545134
1934.7383,405.9585624953452
1936.3552,411.70174377696276
1937.9714,423.70779437122656
1939.5868,414.1271652329833
1941.2015,366.06030308001027
1942.8154,366.4076504888126
1944.4286,358.6196463753058
1946.041,339.84672599133046
1947.6528,337.53932100253405
1949.2637,355.49785967610114
1950.8739,344.6227669038253
1952.4834,359.66446402252404
1954.0921,349.9733689227869
1955.7001,322.4998958985616
1957.3074,335.6944557440693
1958.9139,331.6074560285397
1960.5197,334.73930096425465
1962.1247,320.74039144743074
1963.729,297.21112502689357
1965.3325,274.85189604407424
1966.9353,279.4130958682963
1968.5374,302.9951131203634
1970.1387,274.19833362695863
1971.7393,273.9231401848083
1973.3392,284.26991284866745
1974.9383,244.38902893405248
1976.5366,220.33086291379186
1978.1342,258.6957868168265
1979.7311,238.08417046879185
1981.3273,248.34638110837477
1982.9227,247.18278359342185
1984.5173,238.29374029832434
1986.1112,204.92961112564444
1987.7044,249.49075359501694
1989.2968,233.4775231767817
1990.8885,222.09027284637705
1992.4795,226.7293532444637
1994.0697,222.89511279080943
1995.6592,211.03789763788336
1997.2479,222.2580517092083
1998.8359,202.6059168179272
2000.4232,223.5818325546079
2002.0097,209.68613648375867
2003.5955,189.1691639340679
2005.1805,222.53124813736213
2006.7648,201.7227204337796
2008.3484,214.04390993815105
2009.9312,236.09514374807623
2011.5133,227.57674682072684
2013.0946,216.03904175232492
2014.6752,203.03234886332575
2016.2551,234.70698631379855
2017.8342,205.16327023349004
2019.4126,194.65151440507634
2020.9902,176.47203055960927
2022.5672,201.6251284816317
2024.1433,196.06111619097464
2025.7188,210.58029969122072
2027.2935,183.48298302534022
2028.8674,180.46946813051818
2030.4406,168.49005510910774
2032.0131,180.145042258765
2033.5849,173.8847261922474
2035.1559,162.55940172086775
2036.7261,162.96936191708846
2038.2957,175.31489822778894
2039.8645,178.49630047015762
2041.4325,201.81385670823693
2042.9998,181.2178532211119
2044.5664,189.35857426972962
2046.1323,186.1363023028607
2047.6974,172.90131787569135
2049.2617,167.3538996820498
2050.8254,193.04432468675532
2052.3883,191.37286818109624
2053.9504,198.88980352591807
2055.5118,192.19540216834775
2057.0725,197.18993356661395
2058.6325,204.92366525700345
2060.1917,198.89686280389924
2061.7502,200.15978972245557
2063.3079,184.26270753886183
2064.8649,177.00587577770966
2066.4212,185.53955212097208
2067.9767,181.1139924805666
2069.5315,159.5794509130228
2071.0856,137.6361796637293
2072.6389,138.13442938228945
2074.1915,156.37444934194355
2075.7433,115.00648743459351
2077.2945,114.2807899884001
2078.8448,127.44760218146166
2080.3945,126.05716804908025
2081.9434,145.8597303520819
2083.4916,143.3555305907239
2085.039,131.64480880667088
2086.5857,119.42780360803135
2088.1317,152.35475228646555
2089.677,129.67589093936294
2091.2215,122.39145414056748
2092.7652,156.65167516716883
2094.3083,125.45678607235095
2095.8506,138.107017342787
2097.3921,172.95259821058062
2098.933,163.49375652677463
2100.4731,151.13071841288638
2102.0124,159.3637083554986
2103.5511,178.14294932989014
2105.089,157.71866271770796
2106.6261,149.74106811917227
2108.1626,154.3103835573238
2109.6983,180.77682555779393
2111.2332,171.34060910311382
2112.7675,152.80194736804333
2114.301,158.4610518139434
2115.8337,164.3681323741548
2117.3657,177.37339739740491
2118.897,179.57705358874864
2120.4276,165.07930587950977
2121.9575,165.08035740524429
2123.4866,189.43040965071668
2125.0149,197.97966244989493
2126.5426,160.57831374244324
2128.0695,162.82655948823412
2129.5956,167.47459404136316
2131.1211,173.27261012766576
2132.6458,173.52079879823123
2134.1698,186.86934937142814
2135.693,193.71844943042015
2137.2155,193.21828468968124
2138.7373,190.8190389265019
2140.2584,177.02089398598946
2141.7787,178.67402980506267
2143.2983,160.4786245504356
2144.8171,178.93485460208285
2146.3353,166.94289473519166
2147.8527,145.15291793560755
2149.3693,163.2150955197485
2150.8853,167.67959735251225
2152.4005,139.14659166664387
2153.9149,162.9162450181002
2155.4287,133.18872257137537
2156.9417,185.06418786180802
2158.454,191.24280309285132
2159.9655,168.62472861731658
2161.4764,176.21012287559552
2162.9865,181.39914262183174
2164.4958,150.94194284807054
2166.0045,164.78867673236527
2167.5124,172.23949594335318
2169.0195,171.54455050179058
2170.526,186.30398870603676
2172.0317,199.91795713900956
2173.5367,195.5366005205933
2175.0409,185.66006157148968
2176.5445,203.03848105703673
2178.0473,189.92199788597827
2179.5494,160.71074893667355
2181.0507,155.55486918826864
2182.5513,170.40449201280444
2184.0512,192.30974922677524
2185.5504,201.52077094263313
2187.0488,155.48768534973715
2188.5465,147.4106186222425
2190.0435,155.23969537943412
2191.5397,143.32503876649025
2193.0353,149.7167703761952
2194.5301,153.16501036808222
2196.0241,123.81987740452223
2197.5175,130.48148861623304
2199.0101,139.84995989573872
2200.502,130.27540583074733
2201.9931,131.95793961047184
2203.4835,112.14767312137519
2204.9733,93.1447169303392
2206.4622,138.24918048277686
2207.9505,119.36117229265255
2209.438,92.98079949144358
2210.9248,115.30816801701621
2212.4109,97.6933828774263
2213.8962,84.13654792765828
2215.3809,108.73776604576506
2216.8648,104.89713926843342
2218.3479,116.61476854497687
2219.8304,101.64075377574136
2221.3121,97.17519369492948
2222.7931,93.76818602033836
2224.2733,80.06982749801773
2225.7529,89.58021393633771
2227.2317,89.29944034297387
2228.7098,92.57760082980167
2230.1872,81.81478861569849
2231.6638,86.26109599377105
2233.1397,81.56661443897974
2234.6149,62.8814345636747
2236.0894,69.40564616454412
2237.5632,86.8893384094672
2239.0362,79.03259977226571
2240.5085,69.68551785786894
2241.9801,53.14817948088603
2243.4509,75.47067075907034
2244.921,64.85307727869895
2246.3904,54.145483871348915
2247.8591,52.44797472006303
2249.3271,56.410633466434774
2250.7943,59.23354322758314
2252.2608,47.416786556515945
2253.7266,50.410445413910566
2255.1917,63.264601286280595
2256.656,71.37933515603254
2258.1197,56.90472737292839
2259.5826,37.79085757294342
2261.0447,58.43780482300281
2262.5062,18.095647812127936
2263.9669,50.51446464496621
2265.4269,61.894333245209054
2266.8862,55.13533103140617
2268.3448,58.487534803163726
2269.8026,65.20102080873767
2271.2598,67.77586471151517
2272.7162,71.46214152287575
2274.1719,72.60992557643749
2275.6268,84.61929049120317
2277.0811,83.24030916007541
2278.5346,74.52305362976404
2279.9874,74.96759511458458
2281.4395,86.07400408361991
2282.8908,69.59235025627913
2284.3414,79.8227024912403
2285.7914,61.56512895126343
2287.2406,78.61969700088684
2288.689,87.13647338899409
2290.1368,81.06552407827166
2291.5838,86.70691416005229
2293.0302,63.2107079150137
2294.4758,67.32696875676538
2295.9206,75.70575946681038
2297.3648,80.6971421533899
2298.8082,90.00117816768852
2300.251,87.76792805391233
2301.693,50.1474514562633
2303.1343,81.63980714126228
2304.5748,72.29505337395494
2306.0147,64.96324760299194
2307.4538,83.6944465540746
2308.8922,85.18870630327092
2310.3299,77.84608208970258
2311.7669,87.81662830060304
2313.2031,84.95039854474908
2314.6387,79.44744555274247
2316.0735,79.35782120568183
2317.5076,82.9815765901958
2318.941,74.71876199934104
2320.3737,67.51942689636144
2321.8056,102.98361999732151
2323.2369,66.81138934309365
2324.6674,67.2527819447132
2326.0972,67.3078441450998
2327.5263,68.17662161464705
2328.9547,74.65915935067551
2330.3823,74.25550166872836
2331.8092,91.56569213775947
2333.2355,70.68977358416578
2334.661,80.02778791869423
2336.0858,83.42977634518866
2337.5098,85.84577926721977
2338.9332,88.57583625405641
2340.3558,66.06998601650957
2341.7778,98.22826637962953
2343.199,89.90071450776668
2344.6195,81.23736658299458
2346.0393,103.38825788838312
2347.4583,100.55342289463624
2348.8767,91.6328950385805
2350.2943,86.47670675150857
2351.7113,95.88488954838976
2353.1275,89.55747407943363
2354.543,98.4944900359942
2355.9578,104.79596621384735
2357.3718,85.51193042382965
2358.7852,93.59240942882388
2360.1978,86.43742913659116
2361.6098,78.2470145189709
2363.021,82.7211896834333
2364.4315,94.40997795498379
2365.8413,77.61340183141192
2367.2504,72.08148286641881
2368.6587,68.76424183758172
2370.0664,74.51169880166935
2371.4733,75.9238731278001
2372.8795,80.85078343997384
2374.285,60.392447602954235
2375.6899,62.19888267299666
2377.0939,57.57010510244072
2378.4973,76.70613072164633
2379.9,58.40697478526454
2381.3019,74.57265178088937
2382.7032,70.35317561205011
2384.1037,57.298559436551386
2385.5035,59.208815708667316
2386.9027,52.23395630968935
2388.3011,46.82399252882533
2389.6987,73.32893513294357
2391.0957,51.34879442067677
2392.492,51.233579957369784
2393.8876,22.183300794880324
2395.2824,27.897965472731357
2396.6765,38.277582308615365
2398.07,37.82215934124861
2399.4627,50.381704226572765
2400.8547,42.85622424231133
2402.246,21.895726162371375
2403.6366,36.25021633209917
2405.0265,19.869700877886316
2406.4156,26.404185563621468
2407.8041,28.103675954499977
2409.1918,11.218177351676786
2410.5789,36.14769477527079
2411.9652,10.392233133221907
2413.3508,24.951796971994554
2414.7358,20.97639073413393
2416.12,17.066018612666994
2417.5035,10.320684590860765
2418.8863,19.640392481320305
2420.2684,21.525145993445676
2421.6497,1.9249486402354705
2423.0304,1.6898037194396238
2424.4104,13.76971450955898
2425.7896,14.664684272199338
2427.1682,23.074716131273362
2428.546,22.99981306404561
2429.9232,13.389977817035742
2431.2996,6.395212906766574
2432.6753,14.865520715864022
2434.0503,26.450903563004886
2435.4246,9.151363618211235
2436.7982,9.0669027870008
2438.1711,15.097522883378588
2439.5433,16.843225630681445
2440.9148,7.804012601269733
2442.2856,9.229885199072214
2443.6557,-4.329155250021358
2445.025,9.076892487580608
2446.3937,-1.2019271062717962
2447.7617,7.434430359505313
2449.1289,9.1360212832451
2450.4955,21.602901988938356
2451.8613,25.93512870921586
2453.2265,15.532757460679932
2454.5909,21.395844000584475
2455.9546,16.824443930856432
2457.3177,10.268612639466028
2458.68,17.178405346139243
2460.0416,41.603877167916835
2461.4025,35.34508305005693
2462.7627,40.402077521779574
2464.1222,31.22491475885863
2465.4811,31.113648533048945
2466.8392,39.46833230385573
2468.1966,32.88901921965271
2469.5533,41.87576203412891
2470.9093,34.828613172085625
2472.2645,36.59762463956804
2473.6191,53.98284809433653
2474.973,41.58433482817691
2476.3262,44.95213559304739
2477.6787,39.08630072506412
2479.0305,34.73688011082231
2480.3816,43.95392324605518
2481.7319,26.137479279129366
2483.0816,30.287596918873987
2484.4306,33.25432461274522
2485.7789,32.63771050532205
2487.1264,24.437802408641346
2488.4733,24.85464780836446
2489.8195,23.88829394577624
2491.165,30.538787813614817
2492.5097,39.90617616573718
2493.8538,24.040505450615
2495.1972,11.541821717660696
2496.5398,18.710170775883853
2497.8818,31.245598318876546
2499.2231,7.2481498531292345
2500.5637,9.317870572677748
2501.9035,12.304805599078463
2503.2427,4.458999960711935
2504.5812,30.13049856291127
2505.919,32.71934626642087
2507.256,19.175587630682458
2508.5924,12.399266887945487
2509.9281,17.190428078704826
2511.2631,22.149115119463204
2512.5974,20.62537175482248
2513.9309,26.069241507893366
2515.2638,9.230767695535178
2516.596,27.509993373914313
2517.9275,14.706961506891275
2519.2583,37.87171478322807
2520.5884,17.804295744616866
2521.9178,15.154746554035682
2523.2465,15.173109196418864
2524.5745,11.05942550515465
2525.9018,16.913737161899917
2527.2284,10.986085737720714
2528.5543,21.326512634547726
2529.8796,19.285059144452134
2531.2041,23.51176634624244
2532.5279,34.05667512587479
2533.851,26.16982613419077
2535.1735,26.351259681465763
2536.4952,29.951015816280687
2537.8163,36.26913432370293
2539.1366,33.95565468929226
2540.4562,40.91061603591879
2541.7752,36.38405714689361
2543.0935,45.976016396425166
2544.411,43.18653179488001
2545.7279,46.71564089286767
2547.0441,48.11338080913174
2548.3596,72.32978819526261
2549.6744,59.364899221713586
2550.9885,53.81874933564177
2552.3019,55.69137339056033
2553.6146,61.5828057017975
2554.9266,67.24308002776615
2556.2379,60.322229511049045
2557.5485,82.12028662179682
2558.8585,66.53728322693087
2560.1677,68.52325037217497
2561.4762,63.62821843787606
2562.7841,71.55221711914965
2564.0913,77.74527547482921
2565.3977,76.75742184822775
2566.7035,84.58868380520789
2568.0086,88.68908814405995
2569.313,96.10866081718723
2570.6167,84.79742689010573
2571.9197,82.20541046724384
2573.222,100.43263480505902
2574.5236,94.87912233795214
2575.8246,95.99489449599878
2577.1248,102.57997176048457
2578.4244,99.33437365274904
2579.7232,104.95811866833265
2581.0214,101.60122430943375
2582.3189,118.36370702867043
2583.6157,103.6455822626508
2584.9118,112.69686426434782
2586.2072,114.66756625027892
2587.5019,122.95770030999574
2588.7959,121.11727738637228
2590.0893,127.44630719270981
2591.3819,128.34479823113588
2592.6739,125.36275772931594
2593.9652,130.00019163146862
2595.2557,129.25710462818643
2596.5456,119.1335001100606
2597.8348,121.87938017511306
2599.1234,126.8947457300319
2600.4112,116.47959646271465
2601.6983,116.583930792111
2602.9848,132.40774597237214
2604.2705,126.00103809181292
2605.5556,123.56380191467088
2606.84,131.8960309451736
2608.1237,130.99771745191129
2609.4067,124.0688523845156
2610.689,126.45942538264035
2611.9707,115.46942484525198
2613.2516,111.64883790672138
2614.5319,123.34765054672789
2615.8115,118.1658476284606
2617.0903,119.9034127816335
2618.3685,111.31032845430173
2619.6461,116.98657589548725
2620.9229,127.63213524111143
2622.199,117.49698545722981
2623.4745,122.83110423357766
2624.7493,123.88446808492358
2626.0234,112.9070522977238
2627.2968,103.19883091959287
2628.5695,111.15977686907468
2629.8415,119.18986203272698
2631.1128,125.93905718550968
2632.3835,109.80733191048466
2633.6535,100.24465453132598
2634.9228,111.2009922736338
2636.1914,110.02631136056334
2637.4593,108.57057690326042
2638.7265,108.88375291260786
2639.9931,102.5658023137837
2641.259,100.7666869431298
2642.5242,104.03636761133157
2643.7887,96.52480412140835
2645.0525,119.63195523601689
2646.3156,105.55777875256649
2647.5781,114.30223127214731
2648.8398,97.36526834027245
2650.1009,98.84684435943359
2651.3613,100.2469127584709
2652.6211,107.31542597775638
2653.8801,106.50233545519313
2655.1385,105.15759155553178
2656.3961,105.28114357849972
2657.6531,108.37293977224908
2658.9094,111.13292733211983
2660.1651,106.21105236972357
2661.42,112.10725988534296
2662.6743,115.5714938171509
2663.9279,122.153696982248
2665.1808,128.70381104202124
2666.433,114.6717764363218
2667.6846,124.40753231796316
2668.9354,118.71101669304267
2670.1856,113.4821663235823
2671.4351,122.12091678449701
2672.6839,142.27720251588016
2673.9321,140.45095673661763
2675.1795,121.29211124282347
2676.4263,129.85059642610304
2677.6724,130.57634146514238
2678.9179,127.71927424012188
2680.1626,132.22932132545952
2681.4067,150.85640801838167
2682.6501,146.1504582938221
2683.8928,137.7113946181505
2685.1348,136.58913799623429
2686.3761,119.08360805582765
2687.6168,132.7447230587943
2688.8568,129.72240007616347
2690.0961,132.6665548515175
2691.3348,123.82710183121571
2692.5727,121.50395413495289
2693.81,115.4470236441548
2695.0466,121.05622102520806
2696.2826,127.53145579003012
2697.5178,134.4226362399777
2698.7524,130.07966940109395
2699.9863,131.0524609551976
2701.2195,113.34091528331214
2702.452,125.69493545593627
2703.6839,128.86442341016004
2704.9151,129.04927982612662
2706.1456,120.49940409533474
2707.3755,141.41469431879045
2708.6046,135.64504739250742
2709.8331,148.29035879835328
2711.0609,149.60052266174444
2712.2881,156.62543162519546
2713.5145,155.7149768352176
2714.7403,168.21904787206813
2715.9654,175.3875327588562
2717.1899,178.42031783650123
2718.4136,191.81728769204733
2719.6367,200.12832512833734
2720.8591,193.40331103004087
2722.0809,199.34212428054684
2723.3019,213.24464182921065
2724.5223,214.4107386319672
2725.7421,226.8902875123058
2726.9611,211.4831591496079
2728.1795,216.58922195435525
2729.3972,217.00834222219805
2730.6142,195.2903840828949
2731.8306,189.98520949612316
2733.0462,181.9426784686559
2734.2612,154.96264910741547
2735.4756,141.69497769989744
2736.6892,137.53951898397167
2737.9022,131.7461262805598
2739.1145,114.86465153518861
2740.3262,112.7949453759245
2741.5372,90.7368572821872
2742.7475,78.24023560544788
2743.9571,79.20492778980906
2745.1661,67.78078049697115
2746.3744,68.51763959658638
2747.582,53.71535028049993
2748.7889,56.87375705538102
2749.9952,42.79270389074691
2751.2008,36.77203418737781
2752.4057,39.96159091812774
2753.61,32.26121668813175
2754.8136,31.820753702909542
2756.0165,43.14004384536952
2757.2188,32.3189286802135
2758.4204,26.65724934074342
2759.6213,23.65484663707275
2760.8215,26.711561112744448
2762.0211,19.177233074753076
2763.22,15.501702562978835
2764.4182,23.28480942552983
2765.6158,15.976393355496612
2766.8127,19.37629381312331
2768.009,14.98435009888999
2769.2045,8.90040131951514
2770.3994,7.224286431872997
2771.5936,0.6058443038348287
2772.7872,-2.755086268970217
2773.9801,-8.058666496969863
2775.1723,0.09496993271932297
2776.3639,-14.29423016094097
2777.5548,-15.526319959938292
2778.745,-15.151209846902248
2779.9346,-10.01865509652589
2781.1235,-7.728259622917676
2782.3117,-9.17952725382247
2783.4992,-13.471884611670475
2784.6861,-3.8546666154161358
2785.8723,3.222926400112101
2787.0579,-0.4382673917950797
2788.2428,-10.68740985007662
2789.427,-6.0736584553799275
2790.6106,3.353936078870902
2791.7935,1.696383715098591
2792.9757,12.20469438218629
2794.1573,13.879877992054162
2795.3382,32.52294433457564
2796.5184,36.53490306082631
2797.698,28.566763496652356
2798.8769,49.619534602551994
2800.0551,53.84422505335647
2801.2327,60.44184302770168
2802.4096,77.16339616578261
2803.5859,87.4098915033776
2804.7615,100.43233530463067
2805.9364,103.53173295958845
2807.1106,132.75908885397257
2808.2842,148.16540633819068
2809.4572,160.90168743505706
2810.6294,186.71893268573376
2811.801,230.81814102236535
2812.972,253.15030950990854
2814.1423,289.8664329051344
2815.3119,310.4675034333136
2816.4808,342.95451042105174
2817.6491,381.57844009028076
2818.8167,410.6402752333886
2819.9837,452.84099482697934
2821.15,488.53157374125476
2822.3157,527.4629823180078
2823.4807,572.7861860137166
2824.645,603.8021450102297
2825.8086,641.5118137615345
2826.9716,668.9161406835985
2828.134,727.566067777271
2829.2957,743.8625303542408
2830.4567,777.9564564505365
2831.617,775.548766663562
2832.7767,780.1903738111562
2833.9358,773.9321829556723
2835.0941,775.2750913575599
2836.2519,752.0199885379486
2837.4089,754.6177562652172
2838.5653,749.9692687875452
2839.7211,747.125392806935
2840.8761,745.4869875256966
2842.0306,742.9549046748868
2843.1843,765.2299885306941
2844.3374,806.9130759397569
2845.4899,844.0549960964165
2846.6417,894.7565701258825
2847.7928,942.8186107128154
2848.9433,995.2419215943103
2850.0931,1039.9272970792767
2851.2422,1099.2255215242037
2852.3907,1145.8373688863105
2853.5385,1184.2136021305594
2854.6857,1237.7549727635403
2855.8323,1271.7622204497072
2856.9781,1304.4360724759654
2858.1233,1340.7272434115985
2859.2679,1377.0864347815293
2860.4118,1423.5143347034095
2861.555,1456.9116175240276
2862.6976,1477.6789433550289
2863.8395,1485.0669577389433
2864.9808,1520.9762914415128
2866.1214,1538.1575603778101
2867.2614,1561.8113652531454
2868.4007,1539.5382913912529
2869.5393,1555.9389084977543
2870.6773,1568.663770882889
2871.8146,1572.7134172975066
2872.9513,1579.9883708058221
2874.0874,1567.289138744915
2875.2227,1554.366212651982
2876.3574,1536.0700683913294
2877.4915,1527.8011662836016
2878.6249,1492.309951288743
2879.7577,1495.746853088686
2880.8898,1454.7122864422645
2882.0212,1453.4066511508447
2883.152,1447.1803324686684
2884.2821,1429.8837011159137
2885.4116,1424.2171133409545
2886.5405,1424.8809110933287
2887.6686,1435.7254220804036
2888.7962,1446.5009597607382
2889.923,1437.0578232356377
2891.0493,1451.9962971413984
2892.1748,1470.5166517437374
2893.2997,1458.1191427884112
2894.424,1479.7040113160078
2895.5476,1485.7214837859244
2896.6706,1517.9217718605187
2897.7929,1504.855072344932
2898.9145,1536.471566865092
2900.0355,1558.7214219983744
2901.1559,1593.5547889574395
2902.2756,1623.7718033677356
2903.3946,1629.7725849191609
2904.513,1644.8572370638985
2905.6308,1668.1758469564031
2906.7479,1674.77848530256
2907.8643,1700.3652061264952
2908.9801,1720.5360467045514
2910.0953,1725.6910273094206
2911.2098,1711.1301510084336
2912.3236,1702.6534036120122
2913.4368,1711.1107538192764
2914.5494,1700.3021533028143
2915.6613,1664.4275366241056
2916.7725,1667.1368213416085
2917.8831,1637.279908369507
2918.9931,1618.856681950617
2920.1024,1590.8170099549563
2921.211,1578.760744063976
2922.319,1562.737720050959
2923.4264,1554.3977579015796
2924.5331,1545.7906619741368
2925.6391,1531.516221082954
2926.7445,1547.5742085844454
2927.8493,1532.3643825198671
2928.9534,1524.936485454731
2930.0569,1521.4902446309068
2931.1597,1532.975372040901
2932.2619,1547.4415644623157
2933.3634,1529.7385033430012
2934.4643,1536.8658546563925
2935.5645,1519.7232690785395
2936.6641,1488.9103819168338
2937.763,1480.5768132814355
2938.8613,1445.6721683934
2939.959,1415.1960376680167
2941.056,1360.9479970638527
2942.1523,1292.9276083875156
2943.248,1250.6844198361337
2944.3431,1180.7679666775591
2945.4375,1099.8277716728012
2946.5313,1022.4133457751894
2947.6244,948.4241889397762
2948.7169,885.8097908974813
2949.8087,797.1196318949824
2950.8999,731.05318332086
2951.9904,682.6099085924981
2953.0803,631.139263816749
2954.1696,584.7906982743668
2955.2582,548.6136549347125
2956.3462,506.8075709192425
2957.4335,483.82187786327586
2958.5202,458.5560023340572
2959.6062,446.0093660606125
2960.6916,429.7813861864073
2961.7764,418.7714753948145
2962.8605,399.82904207139336
2963.9439,393.5034904139885
2965.0267,381.84422062215594
2966.1089,384.70062896041713
2967.1905,391.672107874851
2968.2714,394.2080459645322
2969.3516,394.25782791181314
2970.4312,403.37083445696703
2971.5102,395.7464423976894
2972.5885,409.8340244979678
2973.6662,408.8829495643258
2974.7432,413.2925823049475
2975.8196,407.51228333918766
2976.8954,400.24140915347584
2977.9705,408.0793121591189
2979.045,395.0253407650107
2980.1188,379.778839299252
2981.192,361.4891481396901
2982.2645,364.3556038663846
2983.3364,340.67753944450396
2984.4077,323.9042841956609
2985.4783,299.5851640346931
2986.5483,279.51950163739514
2987.6177,261.1566166837106
2988.6864,248.49582605838782
2989.7545,231.63644403461035
2990.8219,197.92778240060272
2991.8887,178.26915062822638
2992.9548,156.90985621006507
2994.0204,143.29920485601087
2995.0852,113.53650070685842
2996.1495,103.62104647040996
2997.2131,86.45214371910379
2998.276,70.62909298916793
2999.3383,55.901193952308745
3000.4,50.36774557394233
3001.4611,32.37804626047307
3002.5215,29.181393914628188
3003.5812,20.377086115355155
3004.6404,13.314420149788361
3005.6989,15.842693101290934
3006.7567,1.7112019200828854
3007.8139,-5.680756602043061
3008.8705,-3.5838856904057366
3009.9264,-2.448831819565271
3010.9818,6.073794338935954
3012.0364,-6.316593422614915
3013.0905,-6.32058137266813
3014.1439,-10.788692676906066
3015.1966,-5.321387358402944
3016.2487,-9.769017661193516
3017.3002,-11.981882668653043
3018.3511,2.289816128329221
3019.4013,-8.054003062128004
3020.4509,4.93657794519595
3021.4998,5.011557795012095
3022.5481,1.1709350826663467
3023.5958,6.114708353388778
3024.6428,10.642876140700992
3025.6892,16.80543691697767
3026.735,21.252389048164787
3027.7802,19.9337307321548
3028.8247,21.29945995431649
3029.8685,27.949574500682047
3030.9118,31.984071944289894
3031.9544,42.802949578682615
3032.9963,44.00620437756311
3034.0376,46.19383288660583
3035.0783,54.3158312114241
3036.1184,58.07219499569317
3037.1578,67.26291933993025
3038.1966,65.73799876393127
3039.2348,69.94742711486333
3040.2723,77.79119758251397
3041.3092,76.71930265719641
3042.3455,81.03173405131281
3043.3811,77.12848271007272
3044.4161,82.35953876836845
3045.4505,70.72489158980784
3046.4842,78.47452971440396
3047.5173,77.45844097492181
3048.5498,78.77661241938063
3049.5816,77.0790303212159
3050.6128,75.51568016609747
3051.6434,73.63654666890511
3052.6734,72.69161378936212
3053.7027,69.38086475082696
3054.7314,69.30428204974146
3055.7594,68.7618474887397
3056.7868,67.50354217741278
3057.8136,65.57934653773327
3058.8398,66.83924031663878
3059.8653,71.48320260527339
3060.8902,66.31121182638901
3061.9145,72.8732456879062
3062.9381,59.71928123463283
3063.9612,45.74929478264494
3064.9835,72.36326205082628
3066.0053,60.81115830056763
3067.0264,63.0429580696275
3068.0469,64.6586352876526
3069.0668,58.85816325386111
3070.086,49.091514620884425
3071.1046,51.40866145277289
3072.1226,48.0095753226617
3073.1399,51.04422728959992
3074.1567,42.162587932540646
3075.1727,36.36462731999518
3076.1882,39.05031509884884
3077.203,35.56962055234135
3078.2173,35.07251257320928
3079.2308,21.10895969849281
3080.2438,24.07893011450807
3081.2561,20.832391796481147
3082.2678,18.06931247884944
3083.2789,9.589659687726567
3084.2893,9.243400768533434
3085.2991,9.830502970794498
3086.3083,7.400933451600736
3087.3169,11.604659269738193
3088.3248,11.991647409984182
3089.3321,8.41186474106945
3090.3388,8.465278011808664
3091.3449,-4.448146113101927
3092.3503,-2.0284410536186215
3093.3551,0.7744042072819752
3094.3593,1.3104209507491191
3095.3629,-1.8703595498118375
3096.3658,-1.517906034099724
3097.3681,2.167831443078285
3098.3698,6.73691799079586
3099.3708,-1.4105813035512256
3100.3713,-2.1746014199362094
3101.3711,0.39493675337462264
3102.3702,-1.351865947617398
3103.3688,9.635087367671417
3104.3667,8.555907094964823
3105.364,-0.6392964663643284
3106.3607,-0.6004131025020456
3107.3568,7.222673786936923
3108.3522,1.2800868004645167
3109.347,2.021948464366403
3110.3412,11.84838129212767
3111.3348,6.259507777014107
3112.3277,4.605450293808019
3113.32,7.736331154696757
3114.3117,8.052272625813373
3115.3028,2.403396895927699
3116.2932,9.0898260732871
3117.2831,6.411682242105144
3118.2723,10.219087395697386
3119.2608,1.4121634632624591
3120.2488,-1.108967728191658
3121.2361,8.255815634221449
3122.2229,9.456646441975522
3123.209,12.64365750398639
3124.1944,7.2669815346035875
3125.1793,11.576751121740301
3126.1635,12.223098780639816
3127.1471,13.056156910778043
3128.1301,9.076057789400124
3129.1125,18.63293356318991
3130.0942,18.97691628807098
3131.0753,20.608137833637784
3132.0558,20.226729879715606
3133.0357,19.682823900048618
3134.015,20.02655116611362
3134.9936,22.858042752559584
3135.9716,18.67742953376967
3136.949,21.984842155546858
3137.9258,26.230411076920007
3138.902,25.814266537069443
3139.8775,28.98653851287156
3140.8524,28.44735672306018
3141.8267,30.346850596503828
3142.8004,30.435149277597475
3143.7735,28.36238160726765
3144.7459,30.42867612208994
3145.7178,32.73416107501595
3146.689,33.02896441471091
3147.6596,30.81321376249855
3148.6295,35.63703640941304
3149.5989,35.250559338356595
3150.5676,29.10390917586136
3151.5357,37.89721219595387
3152.5032,38.88059438162176
3153.4701,34.30418133688076
3154.4364,37.36809827694077
3155.402,38.57247007396984
3156.367,38.66742122645553
3157.3315,36.853075847160596
3158.2952,41.62955766217385
3159.2584,44.64699002905331
3160.221,44.555495889061575
3161.1829,44.40519773699151
3162.1442,45.89621762208105
3163.105,44.778677149516284
3164.065,47.10269746552143
3165.0245,43.96839926853394
3165.9834,46.775902785964405
3166.9416,46.27532780553963
3167.8993,51.0667936472274
3168.8563,54.65041916824248
3169.8127,54.576322715131596
3170.7684,50.644622087937734
3171.7236,53.05543454094047
3172.6782,54.10887682197347
3173.6321,55.90506514831597
3174.5854,55.44411519615869
3175.5381,59.27614208264197
3176.4902,60.70126037046484
3177.4417,62.419584029565016
3178.3926,60.13122642286774
3179.3428,59.336300289102496
3180.2924,63.534917765686544
3181.2415,64.5271903966744
3182.1899,61.96322909077128
3183.1377,65.04314411141078
3184.0848,66.36704510239443
3185.0314,68.93504105709232
3185.9773,66.0472403052043
3186.9227,66.6037504870799
3187.8674,74.0046785825964
3188.8115,71.3501309055934
3189.755,72.74021302986412
3190.6979,70.37502981570029
3191.6402,72.45468539599165
3192.5818,74.22928319987773
3193.5229,74.94892593195112
3194.4633,75.91371555451181
3195.4031,73.52375328037047
3196.3423,78.97913956320082
3197.2809,76.979974121439
3198.2189,81.22635588372981
3199.1563,86.61838300891841
3200.0931,82.90615284358657
3201.0292,86.63976186813235
3201.9648,85.46930573389224
3202.8997,84.29487922580512
3203.834,88.866576274117
3204.7677,89.53448996612498
3205.7008,86.89871250046058
3206.6333,85.7593351804104
3207.5652,89.31644844027407
3208.4964,88.57014185675786
3209.4271,92.32050411340364
3210.3571,95.61762300805182
3211.2865,94.51158541533785
3212.2154,96.90247725372097
3213.1436,96.04038349654465
3214.0712,96.07538814812757
3214.9982,98.40757425238459
3215.9246,101.3870238924768
3216.8503,99.51381816748949
3217.7755,103.68803716263776
3218.7001,104.10975996799856
3219.624,107.57906463676846
3220.5473,104.74602818104653
3221.4701,105.86072653714123
3222.3922,105.62323459390082
3223.3137,107.38362618156624
3224.2346,111.04197407414615
3225.1549,111.99834997181297
3226.0746,109.70282446431943
3226.9937,116.05546702143477
3227.9121,109.90634601589994
3228.83,111.15552865990136
3229.7473,115.65308106656198
3230.6639,118.19906823744954
3231.5799,117.44355401760106
3232.4954,123.93660107006288
3233.4102,122.97827088344587
3234.3244,121.31862370699496
3235.238,118.20771856017238
3236.151,122.34561324925416
3237.0634,124.68236439843923
3237.9752,130.16802740847038
3238.8864,124.60265643326677
3239.797,130.53630432506733
3240.7069,124.71902269008442
3241.6163,130.30086182916727
3242.5251,131.9318707959751
3243.4332,131.61209734115835
3244.3408,130.6915878960489
3245.2477,131.92038757585757
3246.154,136.6485401888794
3247.0598,136.57608822420553
3247.9649,141.25307280444173
3248.8694,135.9795336864329
3249.7733,139.90550921449312
3250.6766,140.38103637314126
3251.5793,140.85615074784107
3252.4814,141.8808865202459
3253.3829,142.15527646344768
3254.2838,150.17935193172934
3255.1841,146.10314285782118
3256.0838,145.12667767265995
3256.9829,146.29998334615095
3257.8814,147.22308539693273
3258.7792,151.44600788064403
3259.6765,148.81877338069276
3260.5731,155.54140296602665
3261.4692,152.2139162174059
3262.3647,151.88633116017647
3263.2595,150.45866429754525
3264.1538,153.83093061385577
3265.0474,152.30314358886494
3265.9404,152.7253151640203
3266.8329,147.54745575773796
3267.7247,152.41957426118103
3268.616,149.19167809003778
3269.5066,147.513773135801
3270.3966,146.5358637980465
3271.286,145.9079530012125
