RamanShift,CorrectedData
30.1047,7028.337904046101
32.3739,6574.24167351773
34.6426,6120.395372705979
36.9109,5671.498865585052
39.1787,5216.701954925199
41.4461,4768.904386781679
43.7131,4320.755855042729
45.9796,3864.906005907542
48.2456,3422.554442367747
50.5112,2969.050728765909
52.7764,2531.294395219051
55.0411,2088.184942153684
57.3054,1641.7218446833763
59.5692,1203.3045570398444
61.8326,771.9825170375866
64.0955,331.1551504580552
66.3579,-99.62812463712226
68.6199,-524.1178934978701
70.8815,-906.3637460891478
73.1426,-1190.2600364381583
75.4032,-1208.4920639982838
77.6634,-535.6332375251436
79.9231,1836.805107061362
82.1824,7864.116984817374
84.4412,20657.99639243098
86.6995,43796.187247949114
88.9574,55672.88326283872
91.2148,58257.1777106049
93.4717,58002.7133080239
95.7282,57644.03218930021
97.9842,57228.02590861119
100.2398,56732.78544369386
102.4949,56259.90120000499
104.7495,55754.51301567352
107.0036,55248.810166229356
109.2573,54830.681369657315
111.5105,54287.91479145408
113.7632,53818.94804880954
116.0154,53373.21821603446
118.2672,52960.2618292501
120.5185,52489.264890845574
122.7693,52014.96287360734
125.0197,51473.140725429264
127.2696,51166.03287405553
129.519,50649.673232498935
131.7679,50269.19520211197
134.0163,49646.631677750396
136.2642,49250.11505157802
138.5117,48866.727219292334
140.7587,48377.149584089704
143.0052,47903.613060499236
145.2512,47372.8980792785
147.4967,47029.534592148964
149.7417,46549.352077103154
151.9863,46089.029541838194
154.2304,45588.79552855773
156.4739,45179.17811857512
158.717,44810.304937315756
160.9596,44309.35315841325
163.2017,43779.249507398185
165.4433,43423.77026670761
167.6844,42914.441280986066
169.925,42523.38796064044
172.1651,42040.53528693316
174.4047,41621.40781589283
176.6439,41178.32968314267
178.8825,40716.92460809182
181.1206,40352.015898366146
183.3582,39915.376454422265
185.5954,39450.528773196645
187.832,39027.594952471976
190.0681,38543.446695525694
192.3037,38233.15531535933
194.5388,37913.34173953992
196.7734,37265.32651330301
199.0075,37081.9798027507
201.2411,36565.421401331856
203.4742,36285.72073167557
205.7068,35848.346850756716
207.9389,35421.21845269299
210.1704,35013.203873118655
212.4015,34716.67109345576
214.632,34205.23774499437
216.862,33937.32111185782
219.0915,33480.088136117105
221.3205,33082.35542047004
223.549,32800.03923281352
225.777,32394.655510220895
228.0044,32075.369861765153
230.2314,31638.297572572752
232.4578,31263.70360701644
234.6837,30904.652613086022
236.909,30729.008926134295
239.1339,30039.436572467523
241.3582,29791.849271101943
243.582,29396.460440659444
245.8053,29005.78320184339
248.0281,28655.380381392577
250.2503,28329.86451598793
252.472,27869.147855756615
254.6932,27576.99236752717
256.9139,27163.259739436668
259.134,26986.611383852294
261.3536,26441.258441508602
263.5727,26192.961783274077
265.7912,25798.032015604644
268.0092,25490.879483026634
270.2267,25154.16427208604
272.4436,24733.246214420098
274.6601,24469.934890124394
276.8759,24165.389631962105
279.0913,23763.06952799703
281.3061,23449.833424639117
283.5204,23119.639930667618
285.7341,22787.397420363493
287.9473,22530.0140368113
290.16,22150.39769522164
292.3721,21859.85608550501
294.5837,21480.14667606794
296.7947,21114.62671671844
299.0052,20955.103242463105
301.2152,20577.633077162252
303.4246,20313.522835125237
305.6334,19968.728924885072
307.8418,19545.557551839614
310.0495,19228.814721699455
312.2568,18915.206244719673
314.4635,18614.887738867197
316.6696,18363.914632956905
318.8752,18094.692169654845
321.0802,17615.92540798791
323.2847,17425.06922603611
325.4887,17123.428325720233
327.692,16801.807234710403
329.8949,16554.16030944247
332.0972,16223.741738334233
334.2989,15967.455544261888
336.5001,15753.805587864248
338.7007,15335.44557010557
340.9008,15129.729034412085
343.1003,14864.35937085557
345.2992,14649.939818210565
347.4976,14297.67346660806
349.6955,14070.913259679655
351.8927,13763.46199808026
354.0895,13554.722341755667
356.2856,13287.696813017064
358.4812,13085.737798628492
360.6763,12741.347552477018
362.8707,12593.028197592379
365.0646,12270.53172959086
367.258,12044.510018158464
369.4508,11744.464810275924
371.643,11605.647732478894
373.8346,11333.660293858404
376.0257,11089.153887449
378.2162,10831.979792948652
380.4062,10544.539179163803
382.5956,10383.783106581162
384.7844,10151.812530242067
386.9726,9956.47830135002
389.1603,9737.531169590482
391.3474,9415.52178508415
393.5339,9311.000700576464
395.7199,8997.268374657666
397.9052,8808.825172808007
400.09,8642.67137053507
402.2743,8503.607155258214
404.4579,8230.082627970114
406.641,8036.997804627412
408.8235,7897.302618885951
411.0054,7700.446924031661
413.1868,7512.430494377506
415.3675,7318.753027231993
417.5477,7142.314144779353
419.7273,6965.313396016332
421.9064,6762.500258516564
424.0848,6616.774140200578
426.2627,6467.4843813638945
428.4399,6195.880256134318
430.6166,5956.160973964797
432.7928,5858.525682349529
434.9683,5608.423469221103
437.1432,5439.703363926936
439.3176,5330.414339730181
441.4914,5075.3553154970505
443.6645,4946.525156789634
445.8371,4804.722678416496
448.0091,4596.546645720984
450.1806,4446.495775999283
452.3514,4295.318740582188
454.5216,4124.4141663355185
456.6913,4022.0306371719635
458.8603,3887.6666957600683
461.0288,3712.42084454812
463.1967,3646.4415471077227
465.3639,3503.2272298863318
467.5306,3265.8762828669715
469.6967,3194.3370610004276
471.8622,3097.4578865787553
474.0271,2945.2870499506535
476.1914,2847.4228104902722
478.3551,2742.96339811894
480.5182,2692.0570142837823
482.6807,2506.501833002323
484.8426,2412.0460013715638
487.0039,2398.9876414235114
489.1647,2293.3748510697333
491.3248,2130.7557042319168
493.4843,2123.1282518980515
495.6432,2025.6405237486106
497.8015,1818.4905282328255
499.9592,1777.8262535435424
502.1163,1668.0456696887122
504.2728,1580.3467288980682
506.4287,1502.677366720869
508.5839,1362.0855029029553
510.7386,1300.7690421633597
512.8927,1223.2758756002804
515.0461,1131.6038813042396
517.199,1115.9009251330572
519.3512,1020.2648616286097
521.5029,929.0935341737495
523.6539,898.9847759487748
525.8043,752.8864108430134
527.9541,750.7962537560379
530.1033,684.062112058542
532.2519,622.331785613329
534.3999,601.3030674426118
536.5472,586.3237443452963
538.694,457.6415971073002
540.8401,491.254400651349
542.9856,445.25535806056723
545.1305,425.1327647866128
547.2748,339.9704681801086
549.4185,300.4480685152739
551.5615,300.34176976138406
553.704,247.2247744114211
555.8458,162.46728454410186
557.987,166.28703246262012
560.1276,178.9001274219845
562.2675,134.1210174697626
564.4069,143.01236344117933
566.5456,174.88548630252626
568.6837,101.50027832652995
570.8212,88.3148846798722
572.958,0.4864365414905478
575.0942,28.82118282452575
577.2299,-42.524632417400426
579.3648,-53.04505305434577
581.4992,-58.58369813529134
583.6329,-66.68365678918053
585.766,-80.93743289386475
587.8985,-35.286864157547825
590.0304,-164.67297972359665
592.1616,-68.78645621959731
594.2922,-115.6663251901773
596.4222,-183.20093100318627
598.5515,-146.9774625199425
600.6802,-114.43127842448303
602.8083,-203.24626909601648
604.9358,-190.15518174538738
607.0626,-100.58873315324308
609.1888,-281.7757404500153
611.3144,-108.69401588473556
613.4393,-153.9185567668028
615.5636,-255.12327455247578
617.6873,-90.08054305166297
619.8103,-283.5601873928099
621.9327,-67.73203180349083
624.0544,-54.36306774504192
626.1756,-113.6702860014193
628.2961,-118.67067681293702
630.4159,-181.93122928312368
632.5351,-267.0189313288356
634.6537,87.25104662602826
636.7716,-243.53379832334758
638.8889,-61.385969954237225
641.0056,-31.715539141310728
643.1216,37.5674238546635
645.237,138.8028490900615
647.3518,-94.46933375433582
649.4659,57.94080361426313
651.5793,107.27319043335592
653.6922,204.0177553610847
655.8043,-169.38557401712023
657.9159,331.90312784407433
660.0268,-507.92621181610593
662.137,146.51633092250268
664.2466,243.0757541628991
666.3556,55.74705454292416
668.4639,310.12522626967984
670.5716,61.15526299281919
672.6786,340.93215526077256
674.785,89.20089301041298
676.8907,166.40646276938787
678.9958,423.6438501733501
681.1002,501.4580391939817
683.204,191.19400956653408
685.3072,36.69673601177783
687.4097,278.41119133854954
689.5115,156.98234798872
691.6127,570.555175620073
693.7132,327.82464232062193
695.8131,381.83571047286387
697.9123,534.9333391811306
700.0109,637.0624837313735
702.1089,269.7680940602877
704.2061,481.89511373393907
706.3028,617.1884836207391
708.3987,755.0931397702007
710.4941,612.9040120599966
712.5887,908.8160228168708
714.6827,736.6740882385493
716.7761,1097.673115434649
718.8688,1304.008004148025
720.9608,1072.4736431448619
723.0522,1169.7649081512936
725.1429,1018.1266641687398
727.233,1819.4037645010103
729.3224,716.5910522706617
731.4112,1237.8333524062182
733.4993,1257.4754826702556
735.5867,1288.4122484470863
737.6735,1039.088442546279
739.7596,799.8988448933087
741.845,825.1382250227834
743.9298,1374.7013444703625
746.014,961.132956520356
748.0974,709.677800710102
750.1802,1458.7806069656217
752.2624,714.1860981161881
754.3439,945.1389824032885
756.4247,1243.083960926575
758.5048,1013.115725334399
760.5843,1253.9289548442684
762.6631,1608.3183185425733
764.7413,1641.5784729764127
766.8188,1909.2040586096919
768.8956,2355.7896994905896
770.9718,2433.6300005753365
773.0473,2349.169543262309
775.1221,1978.2028846135872
777.1962,2048.974558199581
779.2697,1568.0790778086885
781.3426,2027.0109367396071
783.4147,2217.6146126102467
785.4862,2224.834562768425
787.557,1847.215222385872
789.6271,2344.001004386002
791.6966,1826.9363032201218
793.7654,1265.8154898995126
795.8335,1344.2829171661215
797.901,1487.832925103794
799.9678,1200.0098403535594
802.0339,1137.057974678166
804.0993,1280.6216278402353
806.1641,1168.8450882318866
808.2282,1120.3726314390442
810.2916,1074.3485213591994
812.3544,1507.3170106861944
814.4164,953.7223413703614
816.4778,1149.5587402889068
818.5385,1274.8204247818285
820.5986,1358.101600693568
822.658,1625.0464611203643
824.7166,1861.3491855774992
826.7747,1623.1039373298772
828.832,2133.504861028923
830.8886,2630.3460850950505
832.9446,2767.8217166136237
834.9999,1888.975836366597
837.0545,2305.2024974576852
839.1085,2511.395734100901
841.1618,2320.8495574582266
843.2143,1689.2079535777375
845.2662,1773.7648852990096
847.3175,2061.7642985696
849.368,1393.2501215994125
851.4179,2025.866261980751
853.467,1660.9566133734697
855.5155,1987.8650491787848
857.5633,1597.485426188381
859.6105,1428.4615813153796
861.6569,1788.1873354980416
863.7027,1332.6064953900495
865.7478,1607.8128497632206
867.7922,1549.4501740633496
869.8359,1946.9122276581184
871.8789,1402.4427544207429
873.9212,1864.1854787552948
875.9629,1988.884111041487
878.0039,2039.2823430172066
880.0441,1981.9738465315386
882.0837,2100.502273040751
884.1226,2191.5612541814335
886.1609,2306.094400585149
888.1984,2229.1453009679317
890.2352,2748.2575209849165
892.2714,2288.574603999805
894.3069,2588.84006589371
896.3416,2350.7473996620247
898.3757,2308.790072411757
900.4091,1757.9615277424455
902.4418,2639.8551861657543
904.4739,2242.1144506137425
906.5052,2496.5326976199503
908.5358,2288.9032812967853
910.5658,2147.7195307913353
912.595,2193.4747523616898
914.6236,1606.8622307887417
916.6515,2498.6752289187134
918.6786,1596.306993529186
920.7051,1903.1507464110473
922.7309,1956.9996933921211
924.756,2202.8970212687855
926.7804,1977.6858972674163
928.8041,1567.15946658545
930.8272,2063.560854643474
932.8495,2006.5331711904873
934.8711,1734.4695053399046
936.892,1592.7129261397931
938.9123,1782.9064852935408
940.9318,1678.5932185773927
942.9506,1710.8661439385542
944.9688,1766.8182625383415
946.9862,1225.0425584294353
949.003,1389.681997996362
951.019,937.0295353732508
953.0344,1153.2781107974151
955.0491,1185.6706551358875
957.063,1430.2000877229511
959.0763,1614.8593160362216
961.0888,1446.0912332513326
963.1007,1769.6387163953696
965.1119,1839.6946280345292
967.1223,1721.0518130386408
969.1321,1965.1530978805895
971.1412,1691.9412918227536
973.1495,1620.8091844760347
975.1572,1766.9995485319596
977.1641,1789.9551404739614
979.1704,1679.6186991155628
981.1759,1789.9829453707207
983.1808,1677.3405833572033
985.1849,1748.0342992929945
987.1884,1880.5567626226548
989.1911,2141.5506253104686
991.1932,1881.1085205151467
993.1945,1956.3230599799426
995.1951,1999.3868366370225
997.1951,1850.3424238553562
999.1943,1813.1323750100564
1001.1928,1730.6492249728544
1003.1906,1791.8354904841835
1005.1877,1725.7836709780167
1007.1841,1658.8362479700081
1009.1798,1647.6856857180028
1011.1748,1585.624431891505
1013.1691,1493.194917683155
1015.1627,1072.8395584293685
1017.1556,849.2507545346598
1019.1477,903.7208956751565
1021.1392,619.7923630345394
1023.1299,516.0575287592874
1025.12,542.6587587980248
1027.1093,473.0384139387679
1029.0979,535.5388495430016
1031.0859,611.2524162418267
1033.0731,455.5714593109806
1035.0596,487.5883179137236
1037.0454,313.495326657634
1039.0304,205.68481527444965
1041.0148,23.699110360983468
1042.9985,-32.91946354279207
1044.9814,50.2214178661161
1046.9636,-153.53559224386845
1048.9452,-235.04784120650584
1050.926,-121.12114253499749
1052.9061,-115.25896161459241
1054.8855,-64.51355383038026
1056.8642,-48.53602313043666
1058.8421,33.473171027580975
1060.8194,88.46405406081612
1062.7959,89.13665105168911
1064.7717,160.2409861980268
1066.7469,213.32708280631778
1068.7213,297.1949625806519
1070.695,300.49464509187237
1072.6679,219.9761469388759
1074.6402,352.4894817156164
1076.6117,304.5846608162974
1078.5826,315.71169211027154
1080.5527,223.5205804210491
1082.5221,217.46132741509064
1084.4908,217.98393252366077
1086.4587,239.73839300341206
1088.426,327.5747039311609
1090.3925,271.592857986383
1092.3584,389.892844572787
1094.3235,212.37465037818765
1096.2879,300.68825819147605
1098.2515,364.33364867781347
1100.2145,546.9107994954975
1102.1767,636.9196846595005
1104.1382,780.8102727157457
1106.099,992.4325258409517
1108.0591,1100.8363984037424
1110.0185,1175.2718348484923
1111.9771,1345.338768611211
1113.9351,1157.9371213752456
1115.8923,1032.366801370561
1117.8488,875.9277052477555
1119.8045,571.7197193337561
1121.7596,567.9427211961811
1123.7139,457.09658268550265
1125.6675,425.5811699727492
1127.6204,582.9963446580296
1129.5726,479.54196408564167
1131.524,479.21787976995256
1133.4748,475.0739384299086
1135.4248,337.2099819923242
1137.3741,292.1758476332834
1139.3226,211.32136915677984
1141.2705,240.84637744508655
1143.2176,86.00070126729406
1145.164,99.33416698404471
1147.1097,59.24660009595391
1149.0546,83.28782511033205
1150.9989,63.557665942033054
1152.9424,54.85594567308726
1154.8852,-72.66751325008227
1156.8272,-59.86288892957964
1158.7686,35.62036648090725
1160.7092,-7.116601142071886
1162.6491,-70.8726462781633
1164.5883,98.10344768781943
1166.5267,118.9136053887778
1168.4644,327.85975047659304
1170.4014,463.7938054140468
1172.3377,727.0676893853233
1174.2732,951.9833169367193
1176.2081,1298.192595343804
1178.1421,1645.8474223623853
1180.0755,2010.5496827663155
1182.0082,2160.7012448710448
1183.9401,2305.0039568865177
1185.8713,2244.509645415681
1187.8017,2099.520114011473
1189.7315,1904.487143781742
1191.6605,1440.1624948391473
1193.5888,1181.297908251494
1195.5163,1080.395110684949
1197.4432,1018.8558169927564
1199.3693,932.8317312242216
1201.2947,848.0245472401075
1203.2193,767.235949572867
1205.1432,832.9676142747339
1207.0664,799.7212097256124
1208.9889,847.898395975717
1210.9106,760.9508250780709
1212.8316,694.6801406067098
1214.7519,791.4379785262136
1216.6715,750.0759678543545
1218.5903,879.5457296945533
1220.5084,863.1488776494662
1222.4257,1025.0870165262968
1224.3424,930.6117425008051
1226.2583,1006.5746414978566
1228.1735,1145.9772901362157
1230.0879,1190.2712549689313
1232.0016,1353.9080910892953
1233.9146,1373.339341687919
1235.8269,1341.216536416352
1237.7384,1420.6911911927673
1239.6492,1213.5148085231776
1241.5592,1274.1388767067401
1243.4686,1210.4148719074437
1245.3772,1288.8942575479232
1247.285,1335.928484946664
1249.1922,1465.968992533206
1251.0986,1516.8672053778428
1253.0042,1597.7745338911918
1254.9092,1653.7923733151692
1256.8134,1684.2721029139939
1258.7169,1903.8650854139778
1260.6196,2018.0726666987175
1262.5216,2249.746173613181
1264.4229,2376.236912821594
1266.3234,2606.5961684907743
1268.2232,2717.0752010251745
1270.1223,2794.2252447633
1272.0207,2760.297506872954
1273.9183,2730.093166579689
1275.8151,2760.2133755060713
1277.7113,2717.1592579737844
1279.6067,2699.9319107023766
1281.5014,2767.682403239829
1283.3953,3038.5617781348265
1285.2885,3313.671050259225
1287.181,3633.4112040993095
1289.0727,4039.933191004653
1290.9637,4267.587925990752
1292.854,4524.326283673785
1294.7435,4521.599095994061
1296.6323,4537.007149648671
1298.5204,4522.051186118708
1300.4077,4505.381901515208
1302.2943,4461.04994672873
1304.1802,4292.855927596011
1306.0653,4001.9504053433266
1307.9497,3711.7838982684007
1309.8333,3527.606884649482
1311.7162,3320.519805646989
1313.5984,3266.5230671452955
1315.4798,3198.617041823567
1317.3605,3123.452069695777
1319.2405,3231.628458789739
1321.1197,3078.8964858987965
1322.9982,2870.556395500018
1324.876,2827.1084012815336
1326.753,2619.152688225917
1328.6293,2563.7894130446875
1330.5048,2523.818706257851
1332.3796,2403.3906727475587
1334.2537,2372.4553921577863
1336.127,2346.362920098629
1337.9996,2326.2632884556297
1339.8714,2394.0565056507367
1341.7426,2333.5925568432685
1343.6129,2344.5714032519973
1345.4826,2444.642982759793
1347.3515,2532.807209803832
1349.2196,2506.413974374889
1351.087,2589.0131411356706
1352.9537,2616.354549684769
1354.8197,2726.5380137306493
1356.6849,2915.5633208182444
1358.5493,3065.380231227129
1360.4131,3154.7884760812594
1362.276,3248.437755850806
1364.1383,3227.3777394580975
1365.9998,3099.00806334108
1367.8606,2850.678331663945
1369.7206,2579.8381176008006
1371.5799,2312.736965818989
1373.4384,2108.724395187459
1375.2962,1987.2999014478337
1377.1533,1741.3129592545083
1379.0096,1402.9630233888893
1380.8652,1196.149531219271
1382.7201,933.1719060843388
1384.5742,674.8795593612922
1386.4275,555.7218930955896
1388.2802,424.24830258392103
1390.132,355.95817756575707
1391.9832,289.050903538111
1393.8336,167.27586243840778
1395.6832,155.88243331358535
1397.5322,88.4699935378303
1399.3803,56.487918926530256
1401.2278,-29.364415589599957
1403.0745,35.362364355270984
1404.9204,-54.88207352251993
1406.7656,34.55193813974256
1408.6101,-31.035385023325944
1410.4538,-42.7438277226247
1412.2968,55.577135374431236
1414.139,16.778456611256843
1415.9805,143.01108777552508
1417.8213,143.0259804871239
1419.6613,253.97408493585317
1421.5006,393.7063498812495
1423.3391,594.7737215431152
1425.1769,831.9771422041995
1427.0139,1189.8175481995204
1428.8502,1643.8958675443355
1430.6858,2031.8630163557136
1432.5206,2329.6698943117954
1434.3547,2568.317380772103
1436.188,2639.406331799455
1438.0206,2621.5875777735237
1439.8524,2504.9119226799303
1441.6835,2430.8301442884513
1443.5139,2366.8929953197257
1445.3435,2255.8512041861177
1447.1724,2352.5054756310637
1449.0005,2337.7564918395146
1450.8279,2292.5049114713693
1452.6545,2341.6013698089664
1454.4804,2414.2964792096172
1456.3056,2394.1908286146245
1458.13,2342.734982822334
1459.9536,2291.6294826891826
1461.7766,2095.6248456443027
1463.5987,1838.621566200538
1465.4202,1602.270117914497
1467.2409,1267.4709559566036
1469.0608,1154.3745194745752
1470.88,965.5812349414446
1472.6984,812.1415172864909
1474.5161,567.7057717831922
1476.3331,489.77439558363767
1478.1493,426.9977801628338
1479.9648,400.77631209806714
1481.7795,340.460373696631
1483.5935,415.3003432580772
1485.4067,326.09659567734707
1487.2192,336.94950169639196
1489.031,333.15942879620707
1490.842,324.4767410882887
1492.6522,327.5017993525689
1494.4618,308.88496112421126
1496.2705,351.8265806633608
1498.0785,332.7770091413331
1499.8858,334.7865942111712
1501.6924,327.4556801981489
1503.4981,360.0346080796953
1505.3032,324.3737155586932
1507.1075,329.4733367377048
1508.911,332.8838024755423
1510.7138,301.15544033630795
1512.5159,257.1885745552863
1514.3172,223.9335263562025
1516.1178,198.94061439090365
1517.9176,235.91015507193515
1519.7166,184.1924628224515
1521.515,157.58784970652414
1523.3126,224.24662594630718
1525.1094,207.6191001880834
1526.9055,139.60557883567162
1528.7008,125.55636621669692
1530.4954,55.77176526275798
1532.2893,113.85207764988445
1534.0824,20.497604496398708
1535.8747,92.05864578210821
1537.6663,99.08550128187198
1539.4572,98.67846984996868
1541.2473,114.68784934986252
1543.0367,151.16393665822397
1544.8253,89.65702750486162
1546.6132,169.46741610796016
1548.4003,108.7953957891441
1550.1867,225.24125817535605
1551.9723,241.35529380560547
1553.7572,320.78779096649305
1555.5414,399.0890355310694
1557.3247,504.1593101645194
1559.1074,620.5488935411413
1560.8893,767.3080592936567
1562.6705,839.5870748493144
1564.4509,993.0361999622801
1566.2305,1050.50568599088
1568.0094,1164.695774363081
1569.7876,1196.7066960018128
1571.565,1184.4886701830583
1573.3417,1223.9919042157417
1575.1176,1244.0165935639088
1576.8928,1267.3629214517132
1578.6672,1222.2810586631422
1580.4409,1207.721163308568
1582.2138,1194.6833812755467
1583.986,1168.9178463744538
1585.7575,1294.1246804688126
1587.5282,1308.6039937329951
1589.2981,1402.4558834001364
1591.0673,1403.0304336173394
1592.8358,1510.7777145071705
1594.6035,1613.6477821618973
1596.3704,1617.0906775660187
1598.1366,1679.756425567568
1599.9021,1766.5450348436934
1601.6668,1817.5064972739601
1603.4308,1902.6907870725154
1605.194,2035.6978602784257
1606.9564,2203.62765390387
1608.7182,2373.480084604056
1610.4791,2660.1550469979047
1612.2394,2819.5024119695445
1613.9988,3047.0720238015747
1615.7576,3291.613698581572
1617.5156,3478.127221926392
1619.2728,3616.662346536774
1621.0293,3676.118790332188
1622.785,3569.296235065496
1624.54,3397.2443257283776
1626.2942,3161.912671619557
1628.0477,2849.900848065343
1629.8005,2642.3583987729144
1631.5525,2398.484838950455
1633.3037,2224.529657382558
1635.0542,2105.1423188689805
1636.804,1945.9722659641993
1638.553,1842.7689201712783
1640.3013,1862.531683533547
1642.0488,1812.9099396666643
1643.7955,1878.1030535609825
1645.5416,1934.0603720777508
1647.2868,2034.6812232971897
1649.0313,2078.6149159589404
1650.7751,2261.610738455842
1652.5181,2410.2679583945865
1654.2604,2556.2358207657708
1656.0019,2758.9635464573075
1657.7427,2945.6003307947794
1659.4828,3212.5953415141157
1661.222,3336.0977168952704
1662.9606,3383.0065630922472
1664.6984,3249.0209528980886
1666.4354,2943.2399252757823
1668.1717,2510.4624866981176
1669.9072,2050.137614205498
1671.642,1736.1642597337122
1673.3761,1437.4413547171825
1675.1094,1178.6678132286906
1676.8419,977.9925349666191
1678.5737,818.4144078426762
1680.3048,726.082309988662
1682.0351,616.1951113522118
1683.7646,510.3016746201647
1685.4934,500.2508563174124
1687.2215,421.4415078658312
1688.9488,340.9724756848191
1690.6754,285.7426019793493
1692.4012,307.15072554468134
1694.1263,290.1456823186636
1695.8506,273.2263051676382
1697.5742,257.7414240565031
1699.297,230.98986621790027
1701.0191,192.87045630706234
1702.7404,152.0320166693291
1704.461,90.32336772134659
1706.1808,88.6433283594506
1707.8999,114.69071657674249
1709.6182,86.56434947990783
1711.3358,51.36304302873941
1713.0527,90.1856123173875
1714.7688,58.2308719263965
1716.4841,44.097635534462825
1718.1987,46.7847162379785
1719.9126,46.04092669236525
1721.6257,-3.48492091479784
1723.338,10.505985143658108
1725.0496,-18.037508590728976
1726.7605,34.98344431850637
1728.4706,-14.73212949747358
1730.18,-23.885203757326963
1731.8886,-5.926605005752208
1733.5964,-55.50692117426843
1735.3036,-12.176680987626241
1737.0099,7.664141343553638
1738.7156,-6.234306746300717
1740.4204,-21.22187789939926
1742.1246,7.851637522779129
1743.8279,-12.813338834703245
1745.5306,14.783614594713072
1747.2325,-5.7069526171835605
1748.9336,-10.53449104642823
1750.634,4.951605743386608
1752.3336,-5.89795057176525
1754.0325,-16.732448365428354
1755.7307,13.498882909378153
1757.4281,50.846980956785046
1759.1247,56.31278334593662
1760.8206,81.04722713750562
1762.5158,97.85124882905438
1764.2102,79.07578410767383
1765.9039,44.071767681965866
1767.5968,41.690133469770444
1769.289,66.68181494820783
1770.9804,54.49774517751575
1772.6711,126.78885655110753
1774.361,110.15608091742251
1776.0502,124.65034885701243
1777.7386,145.67258984887303
1779.4263,115.9737321255052
1781.1132,170.15470246269433
1782.7994,133.66642647648587
1784.4849,161.60982808139124
1786.1696,129.8858298552641
1787.8535,202.5953527598558
1789.5367,192.28931645806915
1791.2192,216.16863858685247
1792.9009,152.88423486027204
1794.5818,218.5370188307097
1796.2621,215.47790252171035
1797.9415,215.2577957714584
1799.6202,220.62760626336603
1801.2982,215.73823952826388
1802.9755,224.14059889071723
1804.6519,226.98558551791575
1806.3277,230.87409833566016
1808.0027,180.60703399989143
1809.6769,249.63528685781785
1811.3504,239.65974945058406
1813.0231,232.73131182298675
1814.6951,269.60086162323205
1816.3664,291.869284172215
1818.0369,295.98746209482306
1819.7067,283.1562750972571
1821.3757,334.0765999258492
1823.044,322.14931049537336
1824.7115,327.62527737984055
1826.3783,314.45536793178326
1828.0443,319.74044622748806
1829.7096,328.3313731986873
1831.3741,361.3290065797155
1833.0379,347.08420082160046
1834.701,318.3978067620883
1836.3633,347.1706717680827
1838.0248,366.95364002251154
1839.6856,376.7475522366076
1841.3457,376.15324545207477
1843.005,407.32155294314
1844.6636,432.35330422249353
1846.3214,401.14932472962573
1847.9785,429.96043558049496
1849.6349,450.63745387957533
1851.2904,439.6811924317444
1852.9453,439.24245953550235
1854.5994,469.07205909254117
1856.2528,490.4707906121257
1857.9054,488.6894489128117
1859.5572,526.9788239084428
1861.2083,540.439700625986
1862.8587,553.9228588226142
1864.5084,568.5790728511129
1866.1572,565.7591115250416
1867.8054,519.8137379721738
1869.4528,523.4937096627018
1871.0994,512.3997788686829
1872.7453,544.5326926272446
1874.3905,550.0931928515256
1876.0349,558.5820160093335
1877.6786,580.2998930675476
1879.3215,604.2975494072398
1880.9637,597.0257046064908
1882.6051,629.4850722004066
1884.2458,624.0263597538487
1885.8858,614.0502685368228
1887.525,624.7074935790861
1889.1634,546.898723769882
1890.8011,548.8746417514085
1892.4381,591.1859246968725
1894.0743,598.6832442907416
1895.7098,618.7172663056408
1897.3446,613.28865052736
1898.9786,634.7480505545263
1900.6118,630.0461138528863
1902.2443,592.1334815407081
1903.8761,621.1607884358054
1905.5071,574.3286634346605
1907.1374,591.3877292221514
1908.7669,587.8386027398774
1910.3957,622.7318950155659
1912.0237,566.6682111985629
1913.651,570.6481502109073
1915.2776,571.5723053079673
1916.9034,585.191264038629
1918.5285,554.1556082360621
1920.1528,494.01591388151974
1921.7764,544.5227514147064
1923.3992,548.4266863351695
1925.0213,478.12827869723696
1926.6427,484.2280830709824
1928.2633,454.1266492452014
1929.8832,497.3745221664158
1931.5023,448.47224223988815
1933.1207,471.7703448971424
1934.7383,506.56936108498667
1936.3552,472.86981703253514
1937.9714,455.5222339032043
1939.5868,457.5771281317284
1941.2015,422.7350115976278
1942.8154,448.5463916046501
1944.4286,414.86177122920344
1946.041,387.6816490622423
1947.6528,364.2065195461055
1949.2637,372.73687324632556
1950.8739,375.9731970863777
1952.4834,392.6159742623695
1954.0921,391.1156842106884
1955.7001,365.67280244156063
1957.3074,390.1378005540646
1958.9139,357.66114649055635
1960.5197,374.2433042920147
1962.1247,351.8847344228052
1963.729,325.13589360487094
1965.3325,317.24723504131725
1966.9353,339.4192086838975
1968.5374,319.35226131189484
1970.1387,320.84683631040025
1971.7393,305.0533738709855
1973.3392,314.87231097675794
1974.9383,278.4040815602966
1976.5366,245.94911640546889
1978.1342,300.2578435120922
1979.7311,277.18068842050525
1981.3273,282.91807366847024
1982.9227,269.62041902194323
1984.5173,292.6881414177078
1986.1112,241.47165509634578
1987.7044,255.0213713715566
1989.2968,280.48769914233526
1990.8885,277.37104475745946
1992.4795,288.22181176083905
1994.0697,269.34040092267605
1995.6592,269.6772101309507
1997.2479,242.53263458025322
1998.8359,256.75706676839945
2000.4232,250.2008967678812
2002.0097,263.56451208362705
2003.5955,224.74829771856093
2005.1805,226.20263603996682
2006.7648,258.32790716764794
2008.3484,228.67448895938833
2009.9312,253.59275668969894
2011.5133,269.98308334634567
2013.0946,279.5458393811732
2014.6752,254.2313925461931
2016.2551,251.39010779796627
2017.8342,200.62234755074678
2019.4126,240.82847170489003
2020.9902,211.65883815452435
2022.5672,236.81380238549536
2024.1433,233.49371776707085
2025.7188,222.59893530037516
2027.2935,201.82980365160256
2028.8674,216.7866692609623
2030.4406,211.01987655036828
2032.0131,216.97976777387703
2033.5849,189.36668307534092
2035.1559,204.0309604288159
2036.7261,231.17293591469752
2038.2957,203.0429435730748
2039.8645,225.04131513230823
2041.4325,234.66838029034443
2042.9998,201.7744664947204
2044.5664,219.10989884629817
2046.1323,229.62500042820102
2047.6974,227.92009213246456
2049.2617,235.24549255487182
2050.8254,219.90151801201864
2052.3883,216.73848246804664
2053.9504,225.05669768808002
2055.5118,210.70647326986546
2057.0725,204.38811656057806
2058.6325,218.00193280033272
2060.1917,211.8482251853693
2061.7502,245.27729473191175
2063.3079,213.83944033770058
2064.8649,204.83495844771642
2066.4212,218.16414336854723
2067.9767,215.57728735843375
2069.5315,206.07468049397903
2071.0856,189.80661069601956
2072.6389,179.3733638246522
2074.1915,149.8752238419056
2075.7433,131.26247291607797
2077.2945,152.385391716718
2078.8448,145.69425960075932
2080.3945,151.1393544012808
2081.9434,155.97095249442282
2083.4916,136.48932874493767
2085.039,142.24475645787243
2086.5857,161.93750757338694
2088.1317,158.46785260919842
2089.677,171.83606046365458
2091.2215,155.34239845043066
2092.7652,156.18713216484502
2094.3083,155.87052564879286
2095.8506,165.14284138230687
2097.3921,197.60434028670988
2098.933,186.90528163190447
2100.4731,170.99592271175607
2102.0124,183.6765189510761
2103.5511,160.6473240647283
2105.089,189.6085899308182
2106.6261,209.21056682098424
2108.1626,208.70350311078437
2109.6983,195.53764508368113
2111.2332,231.36323693610393
2112.7675,221.0805209091077
2114.301,183.6897369301205
2115.8337,198.89112271576596
2117.3657,194.1349141457722
2118.897,208.72134511096556
2120.4276,196.55064756082902
2121.9575,192.9230513576358
2123.4866,198.33878439815362
2125.0149,204.84807264992105
2126.5426,186.05114009708996
2128.0695,174.14820867533308
2129.5956,219.63949845981733
2131.1211,214.1252277842368
2132.6458,199.0556127858972
2134.1698,199.1308674608581
2135.693,210.25120381462693
2137.2155,218.6168318614009
2138.7373,209.4279595128737
2140.2584,214.3847924945776
2141.7787,197.23753443775786
2143.2983,201.78638682981364
2144.8171,195.78154918577275
2146.3353,180.77321900280185
2147.8527,180.71159182025258
2149.3693,220.6468613697516
2150.8853,194.32921957581675
2152.4005,179.6088561564975
2153.9149,188.83595888655236
2155.4287,176.66071374466173
2156.9417,200.2833048211478
2158.454,207.30391443973986
2159.9655,198.07272292133348
2161.4764,194.83990851378894
2162.9865,180.50564748423676
2164.4958,184.47011415141333
2166.0045,201.4334810290011
2167.5124,201.39591878598458
2169.0195,196.00759607702093
2170.526,212.21867954281424
2172.0317,212.6793338639891
2173.5367,206.98972159899768
2175.0409,185.00000317949616
2176.5445,203.8103369672508
2178.0473,216.0208794740356
2179.5494,184.98178517352153
2181.0507,178.44320637917463
2182.5513,195.35529355464405
2184.0512,207.81819537915544
2185.5504,187.58205857838948
2187.0488,149.49702779985182
2188.5465,183.56324581522858
2190.0435,192.5808539012387
2191.5397,179.2499914989703
2193.0353,181.57079612371126
2194.5301,157.29340349824997
2196.0241,166.56794752966925
2197.5175,164.44456055211958
2199.0101,152.57337323407592
2200.502,138.15451459956876
2201.9931,117.08811214689104
2203.4835,128.87429199279995
2204.9733,132.06317908317033
2206.4622,135.95489707514116
2207.9505,140.79956830522406
2209.438,111.297313750385
2210.9248,120.99825297959615
2212.4109,115.60250444884878
2213.8962,107.51018540415498
2215.3809,94.67141193550924
2216.8648,116.13629905780545
2218.3479,113.50496083922917
2219.8304,99.07751018660656
2221.3121,88.50405887171382
2222.7931,102.23471767555839
2224.2733,85.61959649410801
2225.7529,79.05880420098129
2227.2317,93.50244881360686
2228.7098,92.30063755882111
2230.1872,100.80347672844073
2231.6638,103.861071691279
2233.1397,99.72352680812219
2234.6149,88.19094540114838
2236.0894,62.013429795305456
2237.5632,89.54108143363283
2239.0362,81.52400113903514
2240.5085,87.56228883901167
2241.9801,75.2060436458205
2243.4509,39.85536379609766
2244.921,55.410346774428035
2246.3904,70.67108966684827
2247.8591,45.33768900528594
2249.3271,40.41024061495409
2250.7943,49.33883986769524
2252.2608,48.07358173124703
2253.7266,40.36456067996642
2255.1917,69.96187070748329
2256.656,38.41560540378396
2258.1197,63.575857659238864
2259.5826,52.79271998006516
2261.0447,63.06628423672373
2262.5062,36.29664177175164
2263.9669,50.63388329702593
2265.4269,83.92809916145961
2266.8862,65.12937920762397
2268.3448,66.68781243881949
2269.8026,72.10348720705406
2271.2598,75.27649119746093
2272.7162,70.85691137414324
2274.1719,79.84483394843755
2275.6268,71.6403444231155
2277.0811,80.89352750250237
2278.5346,81.20446717452069
2279.9874,83.37324661816092
2281.4395,95.89994820037646
2282.8908,76.7346534543858
2284.3414,91.92744295441662
2285.7914,81.92839650734732
2287.2406,87.587593000786
2288.689,74.7051105030614
2290.1368,86.33102620662248
2291.5838,93.4654165568736
2293.0302,79.15835713591514
2294.4758,89.90992259119503
2295.9206,89.22018677858341
2297.3648,75.03922265484107
2298.8082,104.31710228452994
2300.251,107.75389698181789
2301.693,101.94967701770202
2303.1343,92.45451158563628
2304.5748,82.96846885958166
2306.0147,76.59161608896193
2307.4538,71.37401969351777
2308.8922,78.31574532707509
2310.3299,90.06685792972439
2311.7669,95.27742165840209
2313.2031,82.59749976938383
2314.6387,60.22715456617425
2316.0735,66.31644752630473
2317.5076,84.11543952503598
2318.941,85.02419077446939
2320.3737,85.14276064554087
2321.8056,92.72120765895397
2323.2369,94.35958948399002
2324.6674,83.35796286271852
2326.0972,83.71638359362169
2327.5263,75.63490664160418
2328.9547,76.76358613441789
2330.3823,89.40247544346221
2331.8092,93.35162717249386
2333.2355,99.41109303123903
2334.661,105.08092379590471
2336.0858,80.51116924858798
2337.5098,90.55187812057102
2338.9332,93.80309833802676
2340.3558,88.21487692161463
2341.7778,100.08725995397526
2343.199,81.87029263560362
2344.6195,87.71401916614741
2346.0393,85.91848292653867
2347.4583,103.13372642057584
2348.8767,94.85979129287807
2350.2943,92.44671815673064
2351.7113,120.4945466768304
2353.1275,110.25331559341703
2354.543,94.07306244178562
2355.9578,117.65382365470032
2357.3718,84.64563472419832
2358.7852,85.24852996578193
2360.1978,66.76254284850074
2361.6098,92.1377059889237
2363.021,91.92405133599368
2364.4315,95.52160991728215
2365.8413,74.8804118411208
2367.2504,81.3004862606249
2368.6587,87.93186158011122
2370.0664,95.52456539089144
2371.4733,70.62862440496156
2372.8795,82.09406437907182
2374.285,88.7209103636851
2375.6899,64.40918658832925
2377.0939,62.208916395325105
2378.4973,44.02012248290157
2379.9,58.642826927203714
2381.3019,27.927051364174076
2382.7032,53.572816843333385
2384.1037,75.28014413492838
2385.5035,64.14905347348304
2386.9027,75.82956434071548
2388.3011,76.8216955768603
2389.6987,73.12546526385722
2391.0957,67.34089071543076
2392.492,54.467988514051285
2393.8876,52.25677456878384
2395.2824,27.357264244014914
2396.6765,47.369472381565174
2398.07,49.193413549681736
2399.4627,57.929101842923046
2400.8547,44.126550863911234
2402.246,20.785773635978785
2403.6366,28.20678274119973
2405.0265,52.88959055378973
2406.4156,18.534209165898574
2407.8041,30.190650140786147
2409.1918,6.758924856372687
2410.5789,15.889044388673938
2411.9652,20.581019746119182
2413.3508,28.18486177824616
2414.7358,19.900581128786598
2416.12,15.02818815962246
2417.5035,40.917693033632986
2418.8863,21.31910576341579
2420.2684,6.832435952393098
2421.6497,4.957692990798478
2423.0304,0.7948862005391675
2424.4104,15.644024853951578
2425.7896,8.805118215424045
2427.1682,11.178175392910362
2428.546,-3.736794593686227
2429.9232,21.86021716375717
2431.2996,20.269256903943187
2432.6753,34.49037064697268
2434.0503,9.373604210255507
2435.4246,5.1190030663028665
2436.7982,21.37661259388642
2438.1711,13.546478120595111
2439.5433,20.828644760248608
2440.9148,3.9231574912073484
2442.2856,7.230061083545934
2443.6557,8.599400268111822
2445.025,6.83121970345519
2446.3937,-0.12443603786960011
2447.7617,-0.8175224516171511
2449.1289,13.402006209569663
2450.4955,-0.0657961399033411
2451.8613,22.929124280351516
2453.2265,4.886821908024103
2454.5909,22.107350951514945
2455.9546,27.990765570356416
2457.3177,28.18711970300683
2458.68,20.19646700801968
2460.0416,38.818860862078054
2461.4025,33.15435443990236
2462.7627,34.45300052802668
2464.1222,37.26485158144351
2465.4811,42.789959710619314
2466.8392,29.97837665337238
2468.1966,28.080153719623013
2469.5533,36.94534191950925
2470.9093,37.37399198236744
2472.2645,38.61615426808294
2473.6191,43.6718787628015
2474.973,34.39121506650872
2476.3262,45.7742123424714
2477.6787,48.070919410048646
2479.0305,22.781384630858156
2480.3816,43.355655885808574
2481.7319,29.54378082799667
2483.0816,35.04580667696382
2484.4306,26.91178035681196
2485.7789,13.141748441187246
2487.1264,16.785757234619723
2488.4733,23.94385291022263
2489.8195,21.066081473252325
2491.165,24.502488689526672
2492.5097,7.003120114205558
2493.8538,20.118021057422993
2495.1972,16.997236759284533
2496.5398,5.0908122587161415
2497.8818,2.398792424673047
2499.2231,9.87122207520406
2500.5637,7.408146004372156
2501.9035,13.459608907529855
2503.2427,13.375655405946418
2504.5812,5.906329986297351
2505.919,20.351677001504868
2507.256,26.411740745428688
2508.5924,5.936565308415084
2509.9281,26.926194516692703
2511.2631,4.330672137130023
2512.5974,16.000041667334244
2513.9309,12.784346561611528
2515.2638,-0.5663698857333657
2516.596,25.847935491762655
2517.9275,25.37731151859498
2519.2583,6.471806760781874
2520.5884,8.08146953057485
2521.9178,3.0563480755058663
2523.2465,14.696490562294457
2524.5745,12.00194512709868
2525.9018,6.822759759115343
2527.2284,17.008982327522972
2528.5543,11.560660633272164
2529.8796,15.227842307225728
2531.2041,14.61057486464233
2532.5279,13.458905668502666
2533.851,19.22288193568511
2535.1735,14.802550748480371
2536.4952,38.09795899695155
2537.8163,24.159153423138378
2539.1366,25.136180388101366
2540.4562,15.179086011312847
2541.7752,31.787916160884834
2543.0935,34.21271655313922
2544.411,38.00353258652103
2545.7279,41.81040931734924
2547.0441,55.583391421908345
2548.3596,54.1225231583785
2549.6744,51.277848229106894
2550.9885,51.849409795216616
2552.3019,50.937250505053726
2553.6146,58.79141248847054
2554.9266,57.21193736594887
2556.2379,51.39886617005823
2557.5485,65.80223936124594
2558.8585,62.27209688597304
2560.1677,69.50847803268016
2561.4762,76.51142146708798
2562.7841,76.08096515983198
2564.0913,69.91714631643526
2565.3977,90.72000138161229
2566.7035,77.63956610090509
2568.0086,88.8258753126579
2569.313,89.87896307881965
2570.6167,82.9988625730798
2571.9197,95.88560607034196
2573.222,96.48922501552079
2574.5236,97.65974989467577
2575.8246,108.14721022897584
2577.1248,103.1516345629916
2578.4244,93.02305035982454
2579.7232,112.71148405105941
2581.0214,111.9169611380521
2582.3189,130.3895059950437
2583.6157,124.27914187710894
2584.9118,121.63589073542744
2586.2072,110.65977327839028
2587.5019,111.60080899803097
2588.7959,126.15901627978519
2590.0893,137.9844123930825
2591.3819,128.47701334576232
2592.6739,125.93683376582248
2593.9652,135.96388699648924
2595.2557,129.2581851216246
2596.5456,123.66973886545156
2597.8348,150.04855765961338
2599.1234,135.34464969905548
2600.4112,135.70802167823922
2601.6983,133.4386789381806
2602.9848,136.23662546281776
2604.2705,118.85186390169838
2605.5556,136.53439554200804
2606.84,130.53422048241237
2608.1237,125.45133745623252
2609.4067,126.68574389145124
2610.689,112.98743596153781
2611.9707,120.95640857310627
2613.2516,115.5926555028991
2614.5319,117.09616931809705
2615.8115,114.96694142995466
2617.0903,121.95496207876704
2618.3685,91.61022035516089
2619.6461,105.48270413021191
2620.9229,101.12240035889545
2622.199,111.67929494136024
2623.4745,112.25337276653454
2624.7493,106.64461760655149
2626.0234,101.35301211101296
2627.2968,122.57853786307487
2628.5695,108.82117543236791
2629.8415,101.1309041627369
2631.1128,101.50770230981743
2632.3835,103.30154711793693
2633.6535,103.01241481634816
2634.9228,102.1402806012893
2636.1914,101.68511863887579
2637.4593,91.59690207381982
2638.7265,100.17560303398523
2639.9931,98.82119273126636
2641.259,110.43364137580511
2642.5242,95.76291818953086
2643.7887,90.10899129003883
2645.0525,102.97182783729477
2646.3156,90.50139409017766
2647.5781,101.99765527784803
2648.8398,90.76057572445552
2650.1009,80.44011873417458
2651.3613,101.13624670357194
2652.6211,93.79892122481579
2653.8801,95.87810287870934
2655.1385,90.47375130807177
2656.3961,90.68582519693882
2657.6531,114.1142823246114
2658.9094,106.20907956353267
2660.1651,103.82017264500337
2661.42,107.19751623823618
2662.6743,111.49106397424248
2663.9279,113.60076841205864
2665.1808,118.27658099581095
2666.433,110.36845203361736
2667.6846,130.67633065083055
2668.9354,121.70016486911868
2670.1856,112.73990140338856
2671.4351,120.9954857515454
2672.6839,125.21686228409817
2673.9321,130.05397416159872
2675.1795,123.10676329243256
2676.4263,127.62517028444472
2677.6724,135.20913451441538
2678.9179,138.50859408287124
2680.1626,134.77348573824952
2681.4067,141.55374484390018
2682.6501,140.4993054154413
2683.8928,128.6101000529527
2685.1348,133.1860599515228
2686.3761,134.42711502013822
2687.6168,135.2831938359268
2688.8568,126.40422363174685
2690.0961,123.29013028762552
2691.3348,118.99083841954803
2692.5727,122.8062714106004
2693.81,119.63635145396051
2695.0466,118.13099951474487
2696.2826,112.69013536170792
2697.5178,124.86367758229562
2698.7524,123.10154363705192
2699.9863,114.40364973788519
2701.2195,117.41991086568919
2702.452,121.75024085732093
2703.6839,122.74455237543975
2704.9151,128.75275686520308
2706.1456,118.52476454432463
2707.3755,137.61048434299119
2708.6046,141.9098240061428
2709.8331,156.622689902616
2711.0609,150.44898698214843
2712.2881,152.63861862825252
2713.5145,152.1914867199514
2714.7403,177.05749160988285
2715.9654,162.6365321287699
2717.1899,166.87850533676146
2718.4136,176.3333066676421
2719.6367,185.55082988641334
2720.8591,198.7809669947435
2722.0809,203.52360813879318
2723.3019,207.92864147691307
2724.5223,216.89595313221935
2725.7421,230.07542714854253
2726.9611,229.36694540075473
2728.1795,220.72038746297426
2729.3972,212.13563061565196
2730.6142,199.61254993203647
2731.8306,197.60101836402077
2733.0462,181.10090686737294
2734.2612,165.7620844218518
2735.4756,152.9344181962083
2736.6892,141.91777370157251
2737.9022,127.21201491973125
2739.1145,111.56700441329417
2740.3262,98.73260347275186
2741.5372,95.25867227292474
2742.7475,90.0950700013077
2743.9571,86.44165489281022
2745.1661,76.44828428139226
2746.3744,66.41481463659738
2747.582,60.091101663488644
2748.7889,62.12700040298182
2749.9952,54.72236529508291
2751.2008,49.0270501585278
2752.4057,30.540908264828886
2753.61,42.0137923952293
2754.8136,18.395555025565045
2756.0165,34.58604821153426
2757.2188,35.43512382487984
2758.4204,20.74263339148547
2759.6213,20.05842808288321
2760.8215,17.982358863180934
2762.0211,25.914276495903096
2763.22,25.004031564751585
2764.4182,21.851474394287152
2765.6158,24.95645505903144
2766.8127,5.518823414991402
2768.009,8.638429068611003
2769.2045,13.865121571145437
2770.3994,9.948750387467044
2771.5936,5.689164843797016
2772.7872,-2.7137858331295774
2773.9801,-4.160252473467608
2775.1723,-9.550358796653654
2776.3639,2.5658130388001155
2777.5548,-6.2117237175359605
2778.745,-6.532955841746798
2779.9346,2.452191945201548
2781.1235,-11.106139813429763
2782.3117,-8.207810598900096
2783.4992,-12.702568942132757
2784.6861,-11.44008137802416
2785.8723,-8.719887542806646
2787.0579,-4.391412786301771
2788.2428,-12.353995346654528
2789.427,-14.706929591796552
2790.6106,-5.499386473248023
2791.7935,2.8196099796973613
2792.9757,4.601090676616195
2794.1573,0.7460864988881895
2795.3382,14.705628281883719
2796.5184,15.930746853511891
2797.698,23.822472894627026
2798.8769,32.981836926778215
2800.0551,46.35986923329119
2801.2327,45.807599767676265
2802.4096,55.82605801984732
2803.5859,78.36627302164379
2804.7615,72.8292732466457
2805.9364,104.16608638477032
2807.1106,117.67773939764265
2808.2842,135.31525820522734
2809.4572,147.57966755071243
2810.6294,179.171990824133
2811.801,194.74324993972846
2812.972,226.24446502001956
2814.1423,254.07665424009474
2815.3119,283.04083351259874
2816.4808,324.7880162094111
2817.6491,367.7692128720025
2818.8167,409.9854307939652
2819.9837,448.33767359119906
2821.15,480.1769407797508
2822.3157,514.8042273922892
2823.4807,560.5205236597151
2824.645,620.6768146648874
2825.8086,643.5740798854602
2826.9716,693.4132925923213
2828.134,744.345419620618
2829.2957,774.1214208713654
2830.4567,799.3422488021256
2831.617,827.1088481292459
2832.7767,830.1721555756528
2833.9358,820.1330995931837
2835.0941,813.4926003319531
2836.2519,808.3015697407463
2837.4089,790.4109116334221
2838.5653,768.4715217408243
2839.7211,775.1842878896882
2840.8761,774.1000902220326
2842.0306,781.5198011280349
2843.1843,800.0942852568733
2844.3374,833.2743994425293
2845.4899,860.3109925180427
2846.6417,901.6049049837088
2847.7928,956.406968736715
2848.9433,1004.2680066582016
2850.0931,1043.138832065239
2851.2422,1096.9702482322195
2852.3907,1148.5130480021462
2853.5385,1186.918013248321
2854.6857,1227.6359143589148
2855.8323,1268.0175098529196
2856.9781,1306.7135459729702
2858.1233,1358.2747562815255
2859.2679,1387.8518612739097
2860.4118,1420.9455678627007
2861.555,1468.2065690819577
2862.6976,1492.7855437562864
2863.8395,1522.9831560282257
2864.9808,1528.850055112462
2866.1214,1564.7868749938489
2867.2614,1575.6942343687394
2868.4007,1579.3227362856205
2869.5393,1581.072968036036
2870.6773,1593.5455011183028
2871.8146,1597.6408912200104
2872.9513,1604.1096780932924
2874.0874,1613.0523855138747
2875.2227,1605.3695212163868
2876.3574,1579.3615768049353
2877.4915,1549.6790278299304
2878.6249,1533.3223340481704
2879.7577,1502.791939719662
2880.8898,1503.4382737711894
2882.0212,1473.2117501016178
2883.152,1474.712767575431
2884.2821,1459.8917103249962
2885.4116,1454.9489477355544
2886.5405,1449.1848345934281
2887.6686,1450.8997111354527
2888.7962,1467.7439031066149
2889.923,1453.3677217429045
2891.0493,1478.971463602873
2892.1748,1487.3054107113958
2893.2997,1487.169830303633
2894.424,1509.8149747416928
2895.5476,1510.7910815159835
2896.6706,1521.4483730187658
2897.7929,1533.4370565343888
2898.9145,1560.4073241327185
2900.0355,1580.8093525492507
2901.1559,1606.9933029154076
2902.2756,1624.1093205545205
2903.3946,1654.0075347199863
2904.513,1674.5380584241102
2905.6308,1704.0009881391243
2906.7479,1713.99640359188
2907.8643,1742.924367469219
2908.9801,1759.0349253180207
2910.0953,1758.3781052559202
2911.2098,1743.103917810204
2912.3236,1743.362355924378
2913.4368,1741.0533951109119
2914.5494,1732.8769934486504
2915.6613,1690.683091605906
2916.7725,1688.3716129222223
2917.8831,1662.6424638303135
2918.9931,1637.245533879178
2920.1024,1607.9306959913897
2921.211,1602.8978067170683
2922.319,1581.0967065270277
2923.4264,1580.1272198631032
2924.5331,1560.1891553561636
2925.6391,1561.132305835806
2926.7445,1561.9564485297349
2927.8493,1573.2113450543343
2928.9534,1579.996741406422
2930.0569,1573.7623678507039
2931.1597,1567.907938851918
2932.2619,1578.6831531371804
2933.3634,1575.8876937545276
2934.4643,1576.6712279651647
2935.5645,1573.2834072714197
2936.6641,1550.7238674089094
2937.763,1530.2422283804162
2938.8613,1499.8880946814857
2939.959,1479.161055505241
2941.056,1434.7106850459243
2942.1523,1362.9865427061704
2943.248,1318.588173541505
2944.3431,1247.9151089775912
2945.4375,1177.0668672542083
2946.5313,1094.342954131988
2947.6244,1020.8928636008909
2948.7169,941.7660787074499
2949.8087,875.1120722892688
2950.8999,791.2303077662905
2951.9904,722.0702398073379
2953.0803,680.3313151689301
2954.1696,628.262973386886
2955.2582,591.0646471937107
2956.3462,546.2357630392796
2957.4335,523.6757414628239
2958.5202,500.68399754121697
2959.6062,469.4599411145757
2960.6916,473.90297701617715
2961.7764,442.3125053846993
2962.8605,435.2379216197919
2963.9439,434.828616697979
2965.0267,420.4339772434064
2966.1089,426.10338553193355
2967.1905,413.28621963508135
2968.2714,413.2318533633372
2969.3516,408.0396563943267
2970.4312,409.0089942733564
2971.5102,421.1392284653368
2972.5885,429.5297163450891
2973.6662,435.97981107604244
2974.7432,442.38886152632995
2975.8196,440.4062122042875
2976.8954,428.13120319436223
2977.9705,425.1131701769409
2979.045,424.0514445510985
2980.1188,414.99535346477955
2981.192,415.3942198254133
2982.2645,393.94736239047677
2983.3364,382.50409576350535
2984.4077,357.2637306085609
2985.4783,344.2755737646644
2986.5483,324.4889284982007
2987.6177,304.7030946327992
2988.6864,280.36736874720077
2989.7545,246.1810443731165
2990.8219,225.59341223858314
2991.8887,207.2537606098291
2992.9548,179.311375497148
2994.0204,162.91554083829647
2995.0852,147.11553877791835
2996.1495,126.81064983150168
2997.2131,108.5001530433799
2998.276,98.23332618978077
2999.3383,80.9594459619301
3000.4,59.42778806872093
3001.4611,56.18762740945226
3002.5215,41.1882382891456
3003.5812,24.628894450946746
3004.6404,27.458869226119305
3005.6989,18.577435699638613
3006.7567,12.983866681892096
3007.8139,6.827434797492856
3008.8705,-1.5925874587838962
3009.9264,-9.176927660436263
3010.9818,-3.4262974710151184
3012.0364,-3.7413168765639284
3013.0905,-6.522571634415158
3014.1439,-12.420610126144993
3015.1966,-8.385915572839735
3016.2487,-10.268847113691095
3017.3002,-7.2196801125940055
3018.3511,-5.938587347661382
3019.4013,1.674330527598272
3020.4509,-9.280967813837151
3021.4998,1.5454762842666696
3022.5481,11.953714195012253
3023.5958,8.893797276047735
3024.6428,3.415776765484452
3025.6892,3.0197038124964592
3026.735,9.30562953210017
3027.7802,14.823605009115909
3028.8247,14.873681235307231
3029.8685,13.705909054202834
3030.9118,25.220339160594676
3031.9544,25.16702211221616
3032.9963,39.49600821459751
3034.0376,39.10734752160056
3035.0783,35.95108969212538
3036.1184,39.27728399399962
3037.1578,45.735979335540264
3038.1966,54.577224232291655
3039.2348,56.90106674243884
3040.2723,50.90755437839516
3041.3092,58.49673408356341
3042.3455,65.16865229227176
3043.3811,65.57335485388114
3044.4161,65.96088696606603
3045.4505,62.03129317076775
3046.4842,66.68461735031894
3047.5173,62.47090276673964
3048.5498,66.44019201520348
3049.5816,63.34252706617542
3050.6128,74.72794922571893
3051.6434,59.946499166472336
3052.6734,61.198216813795284
3053.7027,68.33314149358205
3054.7314,65.00131191974504
3055.7594,54.802766122865364
3056.7868,61.58754148351079
3057.8136,72.00567483422128
3058.8398,65.40720239166194
3059.8653,69.04215965244089
3060.8902,69.26058145909508
3061.9145,60.41250196373926
3062.9381,68.74795462588304
3063.9612,64.86697230091124
3064.9835,70.71958715672952
3066.0053,59.85583071257406
3067.0264,63.62573378048535
3068.0469,68.17932657394647
3069.0668,66.11663867018262
3070.086,57.68769896462629
3071.1046,51.19253569154375
3072.1226,47.881176508324415
3073.1399,51.753648560432566
3074.1567,46.00997851452121
3075.1727,46.25019251970696
3076.1882,43.2743162650072
3077.203,39.73237497693776
3078.2173,41.92439344927163
3079.2308,25.050396078458675
3080.2438,24.31040684170432
3081.2561,22.454449465711036
3082.2678,20.33254743407724
3083.2789,17.894724005857256
3084.2893,16.14100223677991
3085.2991,20.321405003627262
3086.3083,4.735955021771645
3087.3169,8.284674803372184
3088.3248,9.317586813228502
3089.3321,11.3347134332937
3090.3388,11.63607695234532
3091.3449,3.921699545814022
3092.3503,3.8416032727698166
3093.3551,7.695810153066077
3094.3593,7.734342168139904
3095.3629,6.357221222470855
3096.3658,7.114469143194981
3097.3681,4.356107693876538
3098.3698,-3.0678414330645296
3099.3708,1.6926434112305628
3100.3713,1.1376145233568877
3101.3711,2.117124182982991
3102.3702,4.38122465840155
3103.3688,10.179968196734137
3104.3667,7.763407001290375
3105.364,5.881593173580313
3106.3607,1.1845787374798533
3107.3568,-0.17758434195053496
3108.3522,-1.6548441114961747
3109.347,-2.247146843874873
3110.3412,0.7955777200880902
3111.3348,2.1734222885640406
3112.3277,0.9864795617689879
3113.32,-2.9151577818151964
3114.3117,7.91860292642923
3115.3028,8.787883477546018
3116.2932,8.29280558339309
3117.2831,3.5334908679498085
3118.2723,2.610060872267752
3119.2608,0.22263710206391352
3120.2488,-0.8286589630452568
3121.2361,6.956291932411602
3122.2229,3.177617322208903
3123.209,4.785444670558263
3124.1944,4.429901409895933
3125.1793,8.961114924803496
3126.1635,10.529212555563788
3127.1471,3.6343215528486894
3128.1301,9.626569062038016
3129.1125,13.30608219216856
3130.0942,18.372987956011457
3131.0753,10.427413233277264
3132.0558,14.169484719946752
3133.0357,12.14932900772709
3134.015,18.067072546630868
3134.9936,15.82284166517752
3135.9716,15.766762511215916
3136.949,16.99896107436666
3137.9258,17.019563186583355
3138.902,19.828694509829802
3139.8775,19.67648053587459
3140.8524,14.56304655819946
3141.8267,25.53851767352097
3142.8004,21.703018832925466
3143.7735,24.856674732113788
3144.7459,31.79960984975702
3145.7178,32.48194841595904
3146.689,30.703814342828082
3147.6596,29.315331217653124
3148.6295,28.96662232068502
3149.5989,36.907810639021704
3150.5676,26.339018870094492
3151.5357,35.06036934225705
3152.5032,34.57198412047245
3153.4701,29.22398491910036
3154.4364,34.71649310678072
3155.402,34.64962975991375
3156.367,28.57351560773492
3157.3315,31.38827103298331
3158.2952,35.444016132662966
3159.2584,41.24087068989542
3160.221,39.72895413336204
3161.1829,38.55838547933581
3162.1442,35.47928334680006
3163.105,45.491765969154585
3164.065,41.89595122500634
3165.0245,46.641956538044894
3165.9834,40.12989891300043
3166.9416,41.7098948881837
3167.8993,42.382060600606536
3168.8563,49.796511770181866
3169.8127,42.15336369300206
3170.7684,48.85273116719475
3171.7236,48.54472856935374
3172.6782,46.42946978754597
3173.6321,55.307068224391
3174.5854,49.07763681821399
3175.5381,48.69128795426957
3176.4902,53.69813352703602
3177.4417,58.64828494407902
3178.3926,55.34185307598284
3179.3428,57.278948206849066
3180.2924,59.85968006736067
3181.2415,56.83415781541157
3182.1899,65.10249001029896
3183.1377,60.36478464297858
3184.0848,61.47114905338128
3185.0314,57.42168997779035
3185.9773,65.56651353777744
3186.9227,60.20572528069752
3187.8674,64.73943009824029
3188.8115,66.6677322800385
3189.755,67.49073546833063
3190.6979,69.30854263867778
3191.6402,71.32125609173426
3192.5818,68.57897743506851
3193.5229,70.33180756303685
3194.4633,69.87984668420572
3195.4031,77.92319430382358
3196.3423,72.36194922834036
3197.2809,77.4462094849743
3198.2189,75.92607237732409
3199.1563,70.75163443452644
3200.0931,78.4229914264572
3201.0292,80.84023841547614
3201.9648,84.0034696797131
3202.8997,78.61277868889567
3203.834,83.4182580727167
3204.7677,82.21999967474139
3205.7008,86.06809450435242
3206.6333,80.01263274873241
3207.5652,87.55370373438316
3208.4964,90.54139598768018
3209.4271,92.62579715946211
3210.3571,93.60699399515363
3211.2865,90.58507231392147
3212.2154,93.11011699886254
3213.1436,95.28221202722298
3214.0712,97.00144044514784
3214.9982,93.3678843459601
3215.9246,99.83162485296852
3216.8503,102.14274215580299
3217.7755,101.35131544577732
3218.7001,102.10742289277798
3219.624,101.16114165317836
3220.5473,104.11254786227772
3221.4701,101.71171664376392
3222.3922,106.15872208019931
3223.3137,105.7536372370291
3224.2346,108.79653411811134
3225.1549,106.2374836697678
3226.0746,103.57655575035494
3226.9937,111.91381915585447
3227.9121,118.69934164648262
3228.83,112.13318986331738
3229.7473,114.5654292604434
3230.6639,122.14612417061339
3231.5799,120.22533778092594
3232.4954,114.80313205701835
3233.4102,114.02956776227461
3234.3244,120.0047045120475
3235.238,130.62860078139417
3236.151,117.70131384532463
3237.0634,125.12289967256308
3237.9752,126.14341305482048
3238.8864,126.76290753257886
3239.797,123.93143538488616
3240.7069,134.7990476231612
3241.6163,130.91579401950855
3242.5251,126.78172299804231
3243.4332,130.19688167371856
3244.3408,132.0613158936764
3245.2477,129.47507020308586
3246.154,137.13818782650407
3247.0598,135.30071069373736
3247.9649,137.6626793632102
3248.8694,140.42413304034
3249.7733,138.28510955391738
3250.6766,138.64564532849167
3251.5793,141.30577540576107
3252.4814,139.56553344096739
3253.3829,142.8249516762947
3254.2838,144.18406095827174
3255.1841,142.69289070517766
3256.0838,142.7014688934511
3256.9829,149.05982207260175
3257.8814,144.3679753651246
3258.7792,151.92595240291647
3259.6765,146.38377537419436
3260.5731,151.59146494791585
3261.4692,149.39904032920074
3262.3647,151.75651920725417
3263.2595,147.21391777729082
3264.1538,149.72125071696033
3265.0474,147.32853123177298
3265.9404,146.1857710300267
3266.8329,148.99298034673404
3267.7247,149.75016795504985
3268.616,147.60734113819916
3269.5066,141.61450568190537
3270.3966,145.72166589581843
3271.286,143.62882467344323
