RamanShift,CorrectedData
30.1047,6718.433835635076
32.3739,6268.9002611720025
34.6426,5828.11661952459
36.9109,5379.432780819496
39.1787,4934.498556902215
41.4461,4500.163705823908
43.7131,4062.07793629075
45.9796,3622.1409120072776
48.2456,3184.9022560572453
50.5112,2748.161555302992
52.7764,2308.1183647578373
55.0411,1880.2722119534833
57.3054,1445.0726013404458
59.5692,1017.469018566519
61.8326,594.2109348287707
64.0955,171.04781114957814
66.3579,-236.87089739079067
68.6199,-635.5957374225457
70.8815,-994.574889235632
73.1426,-1235.050183518578
75.4032,-1141.9035151567716
77.6634,-173.7544408842682
79.9231,2950.7888901809924
82.1824,10772.070064727934
84.4412,32135.932639937586
86.6995,58987.320065270294
88.9574,59337.97546882706
91.2148,58844.09138883571
93.4717,58364.009770144294
95.7282,57896.771969159956
97.9842,57429.468758649746
100.2398,56969.990332413
102.4949,56506.47630995437
104.7495,56045.065741078615
107.0036,55584.59711052572
109.2573,55127.758342585024
111.5105,54668.286805699914
113.7632,54211.66931703618
116.0154,53746.69214707677
118.2672,53296.29102418792
120.5185,52843.401139268986
122.7693,52384.207150256385
125.0197,51934.043186652525
127.2696,51479.39285411776
129.519,51022.639238972006
131.7679,50570.66491274126
134.0163,50117.10193672513
136.2642,49669.33186651658
138.5117,49218.98575653757
140.7587,48775.04416451676
143.0052,48327.137155992925
145.2512,47885.444308754435
147.4967,47444.694717318256
149.7417,47003.21699734694
151.9863,46559.93929005611
154.2304,46117.03926662919
156.4739,45678.19413265024
158.717,45246.08063253292
160.9596,44806.27505390897
163.2017,44368.1032319493
165.4433,43934.7905537621
167.6844,43503.51196277452
169.925,43074.341963065825
172.1651,42653.504623680135
174.4047,42225.37358291818
176.6439,41801.42205254566
178.8825,41368.872822074496
181.1206,40945.44826300244
183.3582,40521.62033313848
185.5954,40102.41058083714
187.832,39686.940149236754
190.0681,39265.12978045158
192.3037,38855.64981972647
194.5388,38439.57021965502
196.7734,38027.960544274334
199.0075,37621.089973225804
201.2411,37210.67730587126
203.4742,36808.29096536165
205.7068,36405.79900274114
207.9389,36002.66910097103
210.1704,35603.71857895462
212.4015,35204.014395568556
214.632,34812.92315365231
216.862,34432.36110400519
219.0915,34046.19414929734
221.3205,33662.18784787528
223.549,33273.007417623594
225.777,32890.817739804974
228.0044,32505.483362952073
230.2314,32129.318506689382
232.4578,31745.28706558657
234.6837,31363.00261292012
236.909,30989.5284045137
239.1339,30587.87738256096
241.3582,30226.862179360287
243.582,29827.295121331314
245.8053,29481.33823262505
248.0281,29113.703239119575
250.2503,28749.201571879552
252.472,28386.044370832657
254.6932,28026.34248841455
256.9139,27674.156493200477
259.134,27309.64667350229
261.3536,26960.023040890235
263.5727,26607.44533383818
265.7912,26263.073021219716
268.0092,25914.265305834037
270.2267,25574.181127849624
272.4436,25230.929168292292
274.6601,24882.66785244608
276.8759,24553.15535328572
279.0913,24217.299594959324
281.3061,23879.958256083417
283.5204,23551.83877310159
285.7341,23216.248343657855
287.9473,22883.39392987785
290.16,22564.98226172475
292.3721,22247.069840327815
294.5837,21924.262941166497
296.7947,21608.817617249595
299.0052,21298.13970234331
301.2152,20982.434814125685
303.4246,20677.758357293424
305.6334,20373.065526718878
307.8418,20062.261310496855
310.0495,19758.500492991574
312.2568,19456.087657944692
314.4635,19154.17719151284
316.6696,18860.3232852918
318.8752,18558.62993933564
321.0802,18269.650965095156
323.2847,17983.039988434903
325.4887,17699.150452522947
327.692,17405.685620696997
329.8949,17124.698579303265
332.0972,16846.242240631116
334.2989,16565.869345722953
336.5001,16290.582467158754
338.7007,16015.434011859834
340.9008,15745.376223841704
343.1003,15474.861186965529
345.2992,15204.690827638784
347.4976,14943.766917520348
349.6955,14677.341076222227
351.8927,14420.114773918787
354.0895,14149.93933401099
356.2856,13908.915935698693
358.4812,13656.795616682415
360.6763,13406.429275573522
362.8707,13160.417674415461
365.0646,12909.961441187399
367.258,12667.761072264373
369.4508,12428.066934921793
371.643,12188.579269757523
373.8346,11946.098193088757
376.0257,11713.72369934692
378.2162,11484.305663502433
380.4062,11257.093843388546
382.5956,11030.187881995473
384.7844,10810.037309742533
386.9726,10584.041546747183
389.1603,10370.149905026527
391.3474,10109.06159075733
393.5339,9939.175706414862
395.7199,9730.94125338387
397.9052,9526.557133657298
400.09,9316.922151918712
402.2743,9116.085017586127
404.4579,8917.344346908409
406.641,8711.04866497354
408.8235,8516.296407696143
411.0054,8314.535923880401
413.1868,8121.565477167584
415.3675,7933.183248053632
417.5477,7742.38733581885
419.7273,7553.525760411736
421.9064,7364.246464356998
424.0848,7188.447314644072
426.2627,7005.926104619917
428.4399,6829.380555747084
430.6166,6648.508319428809
432.7928,6478.356978774602
434.9683,6314.224050408884
437.1432,6145.056986172582
439.3176,5984.403174764368
441.4914,5821.859943432428
443.6645,5657.8745595809305
445.8371,5494.594232395502
448.0091,5338.9661144830025
450.1806,5192.137303504489
452.3514,5039.504843731367
454.5216,4885.715727513692
456.6913,4743.216896806494
458.8603,4602.90524470769
461.0288,4459.2276168830285
463.1967,4320.980812969232
465.3639,4179.811588010751
467.5306,4044.7666538422927
469.6967,3913.04268050041
471.8622,3785.1862975740514
474.0271,3653.544095521749
476.1914,3522.0626269502027
478.3551,3399.938407930713
480.5182,3284.0179193139993
482.6807,3167.547607951412
484.8426,3056.223887854183
487.0039,2932.693141358075
489.1647,2817.4517202366405
491.3248,2701.795946936516
493.4843,2598.722115729841
495.6432,2491.32649387086
497.8015,2382.8553226266085
499.9592,2277.1548183509076
502.1163,2178.6711735690187
504.2728,2088.0005580347206
506.4287,2003.2391197150355
508.5839,1909.0829856970304
510.7386,1811.8782630353671
512.8927,1710.321039693903
515.0461,1634.5573855176772
517.199,1542.2833532486475
519.3512,1464.6449792832136
521.5029,1382.7882845950153
523.6539,1312.4092755112652
525.8043,1235.2539445313087
527.9541,1155.368271030442
530.1033,1090.7482220314632
532.2519,1021.9897530035014
534.3999,952.9888085082785
536.5472,892.8413228876161
538.694,829.793220953492
540.8401,763.390418589508
542.9856,700.4288233813859
545.1305,641.3043352809764
547.2748,585.1128472358178
549.4185,534.450245780441
551.5615,482.0565721719613
553.704,441.71652850951796
555.8458,398.6600011470655
557.987,358.66246369036526
560.1276,311.29540713172173
562.2675,269.6267394254173
564.4069,237.5212586845737
566.5456,202.9410694511098
568.6837,172.84590342958109
570.8212,142.1434649431976
572.958,111.5897315846305
575.0942,89.48926093324553
577.2299,66.19549578696024
579.3648,48.860984945968085
581.4992,32.537615917404764
583.6329,10.926788087082969
585.766,-13.070424209960038
587.8985,-37.10305579735723
590.0304,-85.62001092519495
592.1616,-81.11982318408263
594.2922,-97.15017082075065
596.4222,-112.4079216948885
598.5515,-122.68897313604248
600.6802,-137.03809951867152
602.8083,-140.49884955443122
604.9358,-152.0134029444307
607.0626,-160.7225358063588
609.1888,-178.41550564399222
611.3144,-180.27996434296801
613.4393,-185.8517814180741
615.5636,-189.41502538728673
617.6873,-182.7519081092978
619.8103,-188.24274918676383
621.9327,-184.76604253077676
624.0544,-183.6984015074122
626.1756,-181.81459367006028
628.2961,-186.0375514251573
630.4159,-184.93839085139916
632.5351,-180.6363695123655
634.6537,-177.94889743717067
636.7716,-178.69158009760577
638.8889,-173.82824525602337
641.0056,-172.5709355459112
643.1216,-163.6299570565825
645.237,-156.41389189374604
647.3518,-143.4796874998574
649.4659,-127.93272874261311
651.5793,-123.52696712764009
653.6922,-112.4150761126657
655.8043,-104.49849512104265
657.9159,-95.22754054950201
660.0268,-86.35148485484387
662.137,-75.5195995415852
664.2466,-69.43115525063331
666.3556,-52.43542186769628
668.4639,-37.88166858414479
670.5716,-20.519164066958183
672.6786,-12.147176604259585
674.785,-0.7149742789915763
676.8907,23.67817494738847
678.9958,42.58300312058418
681.1002,60.000242049580265
683.204,64.88062311756948
685.3072,84.72487710782298
687.4097,109.88373415482056
689.5115,123.0079235458179
691.6127,151.04817346924392
693.7132,169.40521088347305
695.8131,171.72976123646367
697.9123,210.6225482821901
700.0109,228.3342940572693
702.1089,257.01571849217
704.2061,279.9175392340112
706.3028,300.340471359792
708.3987,328.3852271474025
710.4941,356.90251587134844
712.5887,384.09304352231993
714.6827,404.2075125220217
716.7761,437.3966214512475
718.8688,464.7110648487578
720.9608,486.0015328793452
723.0522,516.0187110607148
725.1429,551.8132800505919
727.233,580.4859153465368
729.3224,611.1372869280167
731.4112,645.5680589696567
733.4993,674.5788895347214
735.5867,712.3204302308222
737.6735,745.4433259197831
739.7596,775.7482143402376
741.845,813.4857257764161
743.9298,845.5564827551498
746.014,887.4610996683841
748.0974,921.2001824525651
750.1802,957.1243281695715
752.2624,991.7341246693468
754.3439,1034.180150230648
756.4247,1064.9129732148867
758.5048,1114.283151641699
760.5843,1157.7412328816645
762.6631,1195.3877531625913
764.7413,1240.6232371348524
766.8188,1280.4981974949696
768.8956,1322.8631345332396
770.9718,1371.1685357350361
773.0473,1417.5648753571222
775.1221,1461.2026139445588
777.1962,1509.2821978667853
779.2697,1550.204058881296
781.3426,1578.518613652741
783.4147,1646.0762633437917
785.4862,1698.5273933319186
787.557,1746.172372533867
789.6271,1791.7115528811482
791.6966,1843.9452688436431
793.7654,1895.9738369740808
795.8335,1950.4475553858138
797.901,2002.3667032324083
799.9678,2050.981540163004
802.0339,2109.5923058031112
804.0993,2149.799219268454
806.1641,2216.9524785788744
808.2282,2274.0522602562924
810.2916,2327.3987186531085
812.3544,2390.0419853812855
814.4164,2446.182168778796
816.4778,2493.969353283246
818.5385,2561.5535988704287
820.5986,2620.884940576507
822.658,2678.0133878221604
824.7166,2743.1389238192496
826.7747,2802.0615049995467
828.832,2862.8310603634454
830.8886,2926.647490890762
832.9446,2987.060668933016
834.9999,3055.2204375752626
837.0545,3113.9266100320383
839.1085,3181.828968965725
841.1618,3248.1772658994378
843.2143,3316.421220538017
845.2662,3381.9105201045168
847.3175,3454.794818657807
849.368,3520.673736437675
851.4179,3586.64685913601
853.467,3659.713737237973
855.5155,3727.423885362252
857.5633,3800.9267815304484
859.6105,3873.571866489947
861.6569,3945.3085429788844
863.7027,4018.6861749997115
865.7478,4088.904087101815
867.7922,4169.31156364776
869.8359,4239.257848111105
871.8789,4317.792142272323
873.9212,4360.363605519371
875.9629,4467.721354062298
878.0039,4545.114460507575
880.0441,4630.391952784463
882.0837,4706.002813371117
884.1226,4782.595978441757
886.1609,4867.570337110665
888.1984,4945.274730666148
890.2352,5026.157951720881
892.2714,5102.768743434855
894.3069,5187.705798706484
896.3416,5269.967759406529
898.3757,5357.653215528706
900.4091,5428.610704367078
902.4418,5520.938709639158
904.4739,5609.285660776433
906.5052,5698.4499320010145
908.5358,5768.329841442173
910.5658,5855.273650244701
912.595,5943.429561870129
914.6236,5961.295721227303
916.6515,6138.070213790757
918.6786,6132.8010654220925
920.7051,6264.486240602237
922.7309,6323.3236424841525
924.756,6448.21111157594
926.7804,6501.246425152451
928.8041,6375.0272960064685
930.8272,6650.7513719183335
932.8495,6749.216236918182
934.8711,6668.11940852867
936.892,6554.908336780289
938.9123,6792.280405022415
940.9318,6697.332931055331
942.9506,6733.463164756562
944.9688,6871.118289030303
946.9862,6292.945419446165
949.003,6742.591602862638
951.019,6117.75382320879
953.0344,6387.528996987792
955.0491,6382.363979525311
957.063,6783.055562271744
959.0763,6952.2004728539105
961.0888,6323.745371068071
963.1007,6965.436847188532
965.1119,7070.271428252192
967.1223,6651.895571641609
969.1321,7362.055664036641
971.1412,6634.148025598173
973.1495,6454.068902866587
975.1572,6936.614476040799
977.1641,6696.680860779052
979.1704,6709.914103373478
981.1759,6892.160183149426
983.1808,6502.365012333146
985.1849,6667.174434229302
987.1884,6994.2842271189875
989.1911,7549.440102611516
991.1932,6375.437702373441
993.1945,6826.6725925768915
995.1951,7275.340275639668
997.1951,6617.2361857128635
999.1943,6470.255684194199
1001.1928,6371.794066309078
1003.1906,6698.446562580357
1005.1877,5778.058339812989
1007.1841,5609.474497827512
1009.1798,5710.690078663865
1011.1748,5693.350068267318
1013.1691,5533.749395476203
1015.1627,3954.1829321953846
1017.1556,4532.545494992264
1019.1477,4884.531860892494
1021.1392,4208.636761596215
1023.1299,3393.6548799583325
1025.12,4032.9808567473738
1027.1093,3659.959298795322
1029.0979,3757.5347726043256
1031.0859,3759.7018080770213
1033.0731,3043.7048975406724
1035.0596,3292.3884957255723
1037.0454,3194.997026924997
1039.0304,2808.0748825083356
1041.0148,2244.3164218950405
1042.9985,2400.1159764238255
1044.9814,2664.817854990266
1046.9636,2114.266342488794
1048.9452,2182.9556971657075
1050.926,2169.6301561246655
1052.9061,2233.5339346397886
1054.8855,2325.6612262889103
1056.8642,1965.1062023145641
1058.8421,1948.963010702697
1060.8194,2031.675779788231
1062.7959,1949.4886184165298
1064.7717,2130.8956151162056
1066.7469,1992.2908389209915
1068.7213,2040.1183375557157
1070.695,1892.9721388223188
1072.6679,1535.6462501215647
1074.6402,1746.2346599244847
1076.6117,1630.181341345662
1078.5826,1692.0302500373873
1080.5527,1733.5253253501287
1082.5221,1771.9104897141078
1084.4908,2053.0796482243095
1086.4587,2199.476688256582
1088.426,2313.19547665603
1090.3925,2264.2298582729927
1092.3584,2221.1236548258894
1094.3235,1833.6206653909103
1096.2879,1704.7646668330271
1098.2515,1689.4994176810796
1100.2145,1756.2186594162122
1102.1767,1684.8661166246602
1104.1382,1914.0354963305144
1106.099,2038.8704887091735
1108.0591,2130.114764795755
1110.0185,2087.81197523664
1111.9771,2263.355749377093
1113.9351,1909.7396956843077
1115.8923,1455.757399991926
1117.8488,1140.952429036217
1119.8045,699.6183349959101
1121.7596,709.9986586402447
1123.7139,569.4369337423632
1125.6675,612.6766869754138
1127.6204,731.8614393182215
1129.5726,655.7847056228566
1131.524,750.2399934227942
1133.4748,911.2208036937009
1135.4248,869.1206299088444
1137.3741,903.1829564292857
1139.3226,871.7512589249527
1141.2705,882.5190040339075
1143.2176,712.5296496767551
1145.164,740.8766449489194
1147.1097,810.603431820542
1149.0546,849.6034448529826
1150.9989,842.7201105016065
1152.9424,758.5468467257451
1154.8852,531.8270630575498
1156.8272,428.5541614437607
1158.7686,455.82153851291514
1160.7092,255.42258660797233
1162.6491,207.50069351376442
1164.5883,353.1492444608957
1166.5267,387.46162260492565
1168.4644,547.5312075699985
1170.4014,760.8013751056278
1172.3377,1088.2654954860554
1174.2732,1294.11693137751
1176.2081,1548.29903456365
1178.1421,1740.505143886956
1180.0755,1860.8285827069485
1182.0082,1808.2626569781132
1183.9401,1746.9006540466435
1185.8713,1498.6858431761575
1187.8017,1288.4614761612684
1189.7315,1153.0707898098044
1191.6605,743.6570080449965
1193.5888,512.2633432593866
1195.5163,423.78300040898466
1197.4432,295.10917932716984
1199.3693,352.58507560954604
1201.2947,149.55388190061785
1203.2193,74.5587873190816
1205.1432,161.09297948810126
1207.0664,161.4996452852938
1208.9889,292.37196997733554
1210.9106,269.1531372159443
1212.8316,277.1863277291195
1214.7519,407.66471955335874
1216.6715,406.031487953318
1218.5903,412.029804117039
1220.5084,371.0028351722649
1222.4257,459.8437441264614
1224.3424,178.84569027708494
1226.2583,266.1518283231562
1228.1735,379.7053111752757
1230.0879,412.1492890825393
1232.0016,582.9269084969856
1233.9146,616.8313117491925
1235.8269,518.3056353404463
1237.7384,492.59300960373366
1239.6492,219.73655968901585
1241.5592,160.52940582030715
1243.4686,-52.785333975705726
1245.3772,7.285456722340314
1247.285,-123.31457833868626
1249.1922,-161.59179548475367
1251.0986,-121.00131912920915
1253.0042,-210.2466593833451
1254.9092,-97.93011755531916
1256.8134,74.99810541085026
1258.7169,260.58878689300036
1260.6196,347.8427035190107
1262.5216,608.8106293108794
1264.4229,743.693334812182
1266.3234,930.7415844784118
1268.2232,985.7561353281562
1270.1223,1010.4377350725772
1272.0207,1010.7871215653213
1273.9183,990.8050225556872
1275.8151,886.9921556851186
1277.7113,885.0992286870169
1279.6067,671.7769404248393
1281.5014,476.42598091107357
1283.3953,367.39703344043664
1285.2885,301.3407765434167
1287.181,261.9078850765218
1289.0727,414.24903088289284
1290.9637,415.06488318662014
1292.854,614.2061070692871
1294.7435,769.6733634618649
1296.6323,971.0173071532336
1298.5204,1277.9885852355728
1300.4077,1564.6378350908853
1302.2943,1848.8656813213674
1304.1802,1974.4227328828347
1306.0653,1900.1095802424825
1307.9497,1786.4767941232785
1309.8333,1719.6249262471247
1311.7162,1827.6545104711258
1313.5984,1971.0660634561718
1315.4798,2072.6100835866237
1317.3605,2288.13704953617
1319.2405,2561.9474192524503
1321.1197,2589.1416278016986
1322.9982,2557.2200846307096
1324.876,2649.1831732948704
1326.753,2611.481251777368
1328.6293,2723.4146515695465
1330.5048,2889.2336780479673
1332.3796,2774.838609355058
1334.2537,2804.0796947408962
1336.127,2787.857155707192
1337.9996,2786.07118571486
1339.8714,2711.4219503462773
1341.7426,2606.509587323115
1343.6129,2634.9342072528525
1345.4826,2578.195894677887
1347.3515,2625.5947077912933
1349.2196,2543.3806790042145
1351.087,2635.0038144718856
1352.9537,2716.064094915706
1354.8197,2834.6614747070744
1356.6849,3154.6458810567055
1358.5493,3194.9672128287384
1360.4131,3204.075337340837
1362.276,3156.970089961025
1364.1383,2963.4512740165737
1365.9998,2721.968661265062
1367.8606,2432.9719938295675
1369.7206,2275.6609866135077
1371.5799,2089.0353301906
1373.4384,1992.1446923780059
1375.2962,1920.2387201025267
1377.1533,1666.2670403695229
1379.0096,1284.1792609819604
1380.8652,1097.6249730801646
1382.7201,903.6537549626628
1384.5742,660.8151739517562
1386.4275,498.9087883331813
1388.2802,345.034149784522
1390.132,282.99080499430784
1391.9832,295.2782972007408
1393.8336,136.3961668121301
1395.6832,114.99395128400283
1397.5322,63.521186707959714
1399.3803,68.17740802565822
1401.2278,-14.637850456434535
1403.0745,7.474944886384037
1404.9204,-60.23452608905063
1406.7656,1.3834163993451511
1408.6101,-72.52094612342262
1410.4538,-74.34734595271584
1412.2968,36.455209100335196
1414.139,30.68845395457174
1415.9805,183.50412316427173
1417.8213,172.00395097685396
1419.6613,372.93966980471305
1421.5006,538.9130103402131
1423.3391,801.3756995463409
1425.1769,1138.2294589969497
1427.0139,1734.0260022521616
1428.8502,2337.117031489812
1430.6858,2961.2542315474784
1432.5206,3399.4892638915735
1434.3547,3685.9737603759786
1436.188,3756.1593188596926
1438.0206,3734.497500341964
1439.8524,3592.489828260488
1441.6835,3534.537788707992
1443.5139,3440.7928318523045
1445.3435,3372.606372515893
1447.1724,3382.4797911133137
1449.0005,3289.6644343330518
1450.8279,3270.7616150388094
1452.6545,3295.122613197669
1454.4804,3326.0986760691194
1456.3056,3318.691017961428
1458.13,3309.6008199218886
1459.9536,3153.629229810904
1461.7766,2783.3273623928617
1463.5987,2378.746300895884
1465.4202,1990.6371007148227
1467.2409,1650.5507934570742
1469.0608,1439.4383908236596
1470.88,1223.550888010148
1472.6984,1037.7892658177116
1474.5161,807.0044928120369
1476.3331,742.2975271809373
1478.1493,614.6193190421982
1479.9648,543.1208110906446
1481.7795,498.7029398749255
1483.5935,442.4666365124576
1485.4067,452.51282713365435
1487.2192,443.34243344427523
1489.031,476.95637262496166
1490.842,442.8055574229511
1492.6522,466.7908958159096
1494.4618,386.0132913534653
1496.2705,452.72364291734266
1498.0785,462.922845529145
1499.8858,411.1117896832584
1501.6924,418.8413612448676
1503.4981,478.31244196803164
1505.3032,488.97590941841554
1507.1075,515.1826363785622
1508.911,484.8334907412682
1510.7138,445.5293352475128
1512.5159,406.5710277899707
1514.3172,468.2094218060083
1516.1178,351.19536666732165
1517.9176,374.22970706349224
1519.7166,353.41328417217665
1521.515,399.29693542874884
1523.3126,384.7814947344741
1525.1094,394.16779199765733
1526.9055,346.3066532787889
1528.7008,298.49890069671164
1530.4954,224.94535290719796
1532.2893,277.74682558104905
1534.0824,222.50413213962383
1535.8747,289.11808322681463
1537.6663,271.2894872614743
1539.4572,241.31914977127235
1541.2473,291.4578735710056
1543.0367,268.3064590623035
1544.8253,181.96570373221766
1546.6132,256.3864023847491
1548.4003,230.31934800424642
1550.1867,267.9653310111862
1551.9723,307.12513952288646
1553.7572,338.149558977002
1555.5414,342.98937173995364
1557.3247,433.34535679668625
1559.1074,454.7182897022467
1560.8893,491.25894167823935
1562.6705,528.5180793990803
1564.4509,638.79646462663
1566.2305,737.8448538375415
1568.0094,893.1139971205375
1569.7876,989.604637185872
1571.565,1052.3675078126907
1573.3417,1159.953332884088
1575.1176,1199.0628257595017
1576.8928,1209.3966881988454
1578.6672,1126.6556099714035
1580.4409,1028.540268752502
1582.2138,871.5013309509304
1583.986,755.139452690084
1585.7575,695.6052813783608
1587.5282,611.1494568727467
1589.2981,580.9726120742052
1591.0673,488.47537377219487
1592.8358,504.5583629464745
1594.6035,535.2721956920468
1596.3704,518.5674830583375
1598.1366,543.1948307420789
1599.9021,564.2048392543184
1601.6668,553.3981036741825
1603.4308,648.0752134387694
1605.194,750.286752451193
1606.9564,827.8832981338383
1608.7182,926.7654204062092
1610.4791,1086.9836809089938
1612.2394,1225.338632015224
1613.9988,1444.7808152281214
1615.7576,1704.4607597975228
1617.5156,1919.5789805254717
1619.2728,2192.235975169413
1621.0293,2380.5322222910145
1622.785,2475.3181785295965
1624.54,2351.744276719175
1626.2942,2263.4109249405847
1628.0477,2012.8185077572489
1629.8005,1809.8173870984756
1631.5525,1588.6579047654122
1633.3037,1384.0403844610373
1635.0542,1228.8651340017568
1636.804,1086.282447363581
1638.553,1026.2926062338738
1640.3013,970.0958814371807
1642.0488,890.5925335351203
1643.7955,892.332813388366
1645.5416,916.5669629516742
1647.2868,1044.7952152564794
1649.0313,1098.3677941685528
1650.7751,1241.6849131057206
1652.5181,1431.8967745021473
1654.2604,1634.2035683751492
1656.0019,1999.4554704230904
1657.7427,2397.552640002308
1659.4828,2773.995216474592
1661.222,3039.2333152262217
1662.9606,3116.2670239035324
1664.6984,2993.5463997605257
1666.4354,2680.0714688885455
1668.1717,2278.792227443486
1669.9072,1777.7586447805297
1671.642,1425.8706674669593
1673.3761,1207.5282242924695
1675.1094,974.4812297880635
1676.8419,803.7795864094805
1678.5737,661.4231868676434
1680.3048,574.511915835672
1682.0351,473.84565137248137
1683.7646,420.62426579185194
1685.4934,364.1976266691345
1687.2215,342.4155973734414
1688.9488,291.7280376319213
1690.6754,262.73480374757855
1692.4012,271.88574910614625
1694.1263,260.1307244660129
1695.8506,251.76957786671483
1697.5742,255.75215474649667
1699.297,207.82829802591004
1701.0191,170.6478480679907
1702.7404,109.66064315751646
1704.461,69.21651987277801
1706.1808,85.06531369547884
1707.8999,65.85685941516931
1709.6182,81.39099097073631
1711.3358,75.1175416425267
1713.0527,66.33634389696817
1714.7688,19.997229449330916
1716.4841,24.150029351534613
1718.1987,53.894574455534894
1719.9126,28.93069537179872
1721.6257,0.3082221718450455
1723.338,27.17698463790657
1725.0496,-0.7131874508559122
1726.7605,8.237535412958096
1728.4706,0.22898986149084521
1730.18,-37.13898755548871
1731.8886,-21.86656029049118
1733.5964,-10.50352077754178
1735.3036,8.600556996252635
1737.0099,16.746203973956653
1738.7156,43.03395101264323
1740.4204,-25.18567119806903
1742.1246,-6.312132398888934
1743.8279,16.505349274306354
1745.5306,65.36761874385047
1747.2325,9.87552076702923
1748.9336,24.42989944746114
1750.634,-11.61840120998022
1752.3336,6.881462555285907
1754.0325,42.53045057166855
1755.7307,65.52952259876474
1757.4281,105.3796379708765
1759.1247,111.13175536701783
1760.8206,90.73683241241451
1762.5158,113.6458256209844
1764.2102,91.0596905992843
1765.9039,99.17938181742284
1767.5968,92.15585283491964
1769.289,83.74005621950528
1770.9804,106.68294361735752
1772.6711,168.4354658372631
1774.361,132.39857262117766
1776.0502,159.92321202670792
1777.7386,171.8103307874826
1779.4263,154.86087403791498
1781.1132,155.57578519433628
1782.7994,147.75600612446397
1784.4849,166.2024771402721
1786.1696,175.51613707618708
1787.8535,210.54792310460107
1789.5367,172.54877064275752
1791.2192,210.51961300244147
1792.9009,207.6613817699399
1794.5818,212.52500642636915
1796.2621,213.76141437623482
1797.9415,225.9715308988125
1799.6202,217.9562791357621
1801.2982,216.56657996903778
1802.9755,242.30335210104386
1804.6519,265.31751206852095
1806.3277,224.55997398517866
1808.0027,225.73164931156498
1809.6769,243.13344726262585
1811.3504,249.36627479600793
1813.0231,244.7310364380246
1814.6951,254.07863422133414
1816.3664,322.9599677312981
1818.0369,300.17593401249724
1819.7067,271.27742687990576
1821.3757,265.7653371467495
1823.044,322.5905529134816
1824.7115,306.50395962289804
1826.3783,314.25643949189543
1828.0443,322.1488716723452
1829.7096,302.0821321735639
1831.3741,334.90709378338397
1833.0379,341.0246262688215
1834.701,319.8355960478184
1836.3633,351.54086612807805
1838.0248,338.0912963189585
1839.6856,377.4377429144097
1841.3457,391.78105882747514
1843.005,389.722093196835
1844.6636,418.2116912433594
1846.3214,411.9006942906926
1847.9785,441.6899394803677
1849.6349,470.63025983492844
1851.2904,422.8724839600145
1852.9453,432.36743575497894
1854.5994,452.365934890453
1856.2528,489.1187967133974
1857.9054,480.3268320471125
1859.5572,519.840846823714
1861.2083,550.0616421720606
1862.8587,511.5400140225993
1864.5084,554.8267528051783
1866.1572,530.9226438342539
1867.8054,538.5284668760196
1869.4528,529.2949963874435
1871.0994,506.0730014402143
1872.7453,559.7632458130738
1874.3905,548.3164882240471
1876.0349,527.4834817935316
1877.6786,542.8649741587669
1879.3215,584.8117076821545
1880.9637,604.6244192974518
1882.6051,571.6038400903071
1884.2458,585.3506951001236
1885.8858,575.5157036502715
1887.525,607.549579210614
1889.1634,544.0030294958633
1890.8011,563.3267561452358
1892.4381,567.5214553579244
1894.0743,577.937817699858
1895.7098,589.5265280617605
1897.3446,597.138265554986
1898.9786,612.5237033956237
1900.6118,594.583508828393
1902.2443,546.2183429727702
1903.8761,588.128861002413
1905.5071,554.6157126287944
1907.1374,527.5795416821056
1908.7669,601.5709864463879
1910.3957,600.190679929894
1912.0237,525.4392491251692
1913.651,565.0673150228595
1915.2776,552.2254933592212
1916.9034,515.464394219849
1918.5285,529.2346221680746
1920.1528,489.18677661259426
1921.7764,494.6714516697466
1923.3992,497.88923656402585
1925.0213,458.7407155731944
1926.6427,450.47646799613904
1928.2633,451.8470685443481
1929.8832,489.55308742454326
1931.5023,463.0450903249821
1933.1207,460.5236380384031
1934.7383,470.0892867270977
1936.3552,459.19258794811685
1937.9714,458.53408855763155
1939.5868,448.01433081988034
1941.2015,403.73385241377036
1942.8154,391.3431865380717
1944.4286,381.8428623542204
1946.041,368.98340511021706
1947.6528,372.265336235645
1949.2637,396.1391734702556
1950.8739,368.1554308311588
1952.4834,372.56461837408096
1954.0921,370.86724247320126
1955.7001,355.8638057770513
1957.3074,348.95480722549655
1958.9139,343.690742199773
1960.5197,350.3721025915693
1962.1247,326.9493768556804
1963.729,317.3230499431738
1965.3325,284.493603535635
1966.9353,313.9615161414131
1968.5374,292.37726342393216
1970.1387,273.5413179070092
1971.7393,270.00414919069044
1973.3392,258.5662241396167
1974.9383,279.12800691838675
1976.5366,252.3899591059435
1978.1342,266.2025394899556
1979.7311,249.86620433420103
1981.3273,260.88140724043296
1982.9227,238.79859931175633
1984.5173,253.4682290424571
1986.1112,221.89074253884246
1987.7044,251.8665833725372
1989.2968,248.8961928962599
1990.8885,261.7800099440701
1992.4795,248.518470861065
1994.0697,229.71200937455797
1995.6592,230.861056726666
1997.2479,240.7660418623982
1998.8359,246.5273914181489
2000.4232,234.24552962265625
2002.0097,216.02087823939655
2003.5955,201.45385668938616
2005.1805,219.44488223344342
2006.7648,235.84437011785485
2008.3484,210.40273339445594
2009.9312,273.47038275665
2011.5133,220.09772679382877
2013.0946,214.7351713606804
2014.6752,216.03312011091657
2016.2551,226.19197455090216
2017.8342,199.61213402667272
2019.4126,217.84399562234103
2020.9902,193.0879544258969
2022.5672,220.69440334690444
2024.1433,199.0637333640443
2025.7188,201.3463332490519
2027.2935,201.19258978303878
2028.8674,186.30288773364737
2030.4406,189.42760985660243
2032.0131,175.96713704459944
2033.5849,170.67184829606595
2035.1559,196.39212084975406
2036.7261,190.5283302377029
2038.2957,175.63085002803928
2039.8645,195.10005188360628
2041.4325,216.4863057109451
2042.9998,191.78997946559684
2044.5664,199.61143893824556
2046.1323,201.8510480016812
2047.6974,172.65916853258386
2049.2617,204.28616038913424
2050.8254,217.53238170292025
2052.3883,248.44818856267557
2053.9504,212.93393488181755
2055.5118,214.58997208928486
2057.0725,206.4166494846795
2058.6325,217.21431422170645
2060.1917,234.58331138990525
2061.7502,229.87398390668477
2063.3079,197.5366723436182
2064.8649,220.5717149735483
2066.4212,227.47944809395267
2067.9767,195.91020579659835
2069.5315,206.41431989846387
2071.0856,173.79212025743163
2072.6389,186.9439346672425
2074.1915,155.92008918371903
2075.7433,140.17090799325433
2077.2945,175.1467137230502
2078.8448,151.84782759860354
2080.3945,126.62456909394677
2081.9434,143.07725616463813
2083.4916,123.05620549999276
2085.039,143.31173235856022
2086.5857,119.04415076833448
2088.1317,156.85377332419557
2089.677,135.4909114305874
2091.2215,163.10587492342074
2092.7652,132.1489722836959
2094.3083,156.92051036136672
2095.8506,147.07079468490156
2097.3921,171.8501292135661
2098.933,158.2088164359293
2100.4731,161.94715712205561
2102.0124,180.16545045993007
2103.5511,195.1639940180694
2105.089,210.49308356333768
2106.6261,211.55301291096293
2108.1626,186.89407377124644
2109.6983,184.16655573896332
2111.2332,212.47074653995514
2112.7675,197.05693205840453
2114.301,191.8753960537906
2115.8337,183.12642031502583
2117.3657,180.36028471226928
2118.897,204.92726728441903
2120.4276,186.6776442667733
2121.9575,180.26168984536162
2123.4866,204.37967633944572
2125.0149,203.6818742656733
2126.5426,197.5185520968962
2128.0695,184.43997626915097
2129.5956,191.4964112432981
2131.1211,203.98811963579828
2132.6458,195.01536214816042
2134.1698,202.278397442009
2135.693,199.82748222882492
2137.2155,207.61287119730696
2138.7373,216.38481703787784
2140.2584,197.99357036483707
2141.7787,219.8393796286373
2143.2983,188.57249129979937
2144.8171,186.8931496504556
2146.3353,195.1015970670178
2147.8527,168.94807406696782
2149.3693,206.932819216785
2150.8853,177.20606939346453
2152.4005,164.31805940467893
2153.9149,190.16902228604613
2155.4287,179.2591894300058
2156.9417,193.4387903273091
2158.454,195.10805267611795
2159.9655,187.21720224021192
2161.4764,192.71646283229165
2162.9865,194.05605639289206
2164.4958,175.6862029353797
2166.0045,170.30712053256593
2167.5124,201.51902550040177
2169.0195,198.52213245176335
2170.526,208.76665398433943
2172.0317,206.5528007105995
2173.5367,186.1307811553488
2175.0409,181.6008017778713
2176.5445,214.11306717614752
2178.0473,193.1177801321528
2179.5494,189.1151412867348
2181.0507,207.90534934956668
2182.5513,190.83860113917308
2184.0512,179.31509139503214
2185.5504,181.2850129482331
2187.0488,149.69855683671994
2188.5465,163.05591228558842
2190.0435,163.30726702295397
2191.5397,182.05280714637956
2193.0353,185.19271712036152
2194.5301,153.7271795888737
2196.0241,164.95637534397065
2197.5175,149.9804836404328
2199.0101,153.44968208347746
2200.502,143.21414677852317
2201.9931,143.72405229649485
2203.4835,136.8295717761821
2204.9733,139.08087691913715
2206.4622,147.12813805861788
2207.9505,143.0215241370788
2209.438,121.01120262569475
2210.9248,127.34733956543187
2212.4109,126.23009978714435
2213.8962,82.45964684821593
2215.3809,110.68614304373386
2216.8648,105.15974984419336
2218.3479,108.28062761323054
2219.8304,112.59893566288429
2221.3121,97.56483222238876
2222.7931,122.87847439499637
2224.2733,109.99001830831094
2225.7529,106.84961886116253
2227.2317,84.25742985247689
2228.7098,116.06360401268648
2230.1872,88.3682932296515
2231.6638,117.87164823060084
2233.1397,97.72381885908271
2234.6149,83.77495377993273
2236.0894,97.8752006807481
2237.5632,97.42470641137697
2239.0362,90.97361684291809
2240.5085,91.42207687222526
2241.9801,61.37023048641913
2243.4509,66.518220758403
2244.921,66.81619014737862
2246.3904,81.11428044736658
2247.8591,78.71263278423066
2249.3271,83.8613874726916
2250.7943,84.2606840403405
2252.2608,92.31066117615592
2253.7266,98.41145672651055
2255.1917,80.66320761467068
2256.656,62.616049779790956
2258.1197,70.37011835439444
2259.5826,67.67554784484491
2261.0447,64.23247205380085
2262.5062,68.74102410716841
2263.9669,71.95133648852607
2265.4269,89.7135409940447
2266.8862,68.37776870038851
2268.3448,71.09414978708446
2269.8026,90.31281374988248
2271.2598,99.43388937358759
2272.7162,71.85750453988112
2274.1719,94.78378613610312
2275.6268,95.5628603310206
2277.0811,103.24485234556232
2278.5346,87.77988644503603
2279.9874,94.66808586230309
2281.4395,115.35957295243043
2282.8908,102.20446912380521
2284.3414,82.45289463122117
2285.7914,105.55496870743173
2287.2406,100.56080976066369
2288.689,113.52053514360159
2290.1368,99.13426120331951
2291.5838,113.05210315168915
2293.0302,118.32417520924446
2294.4758,109.70059046600272
2295.9206,98.38146082874482
2297.3648,90.11689710724477
2298.8082,98.15700912746615
2300.251,117.70190581420047
2301.693,100.80169511067197
2303.1343,106.35648378308451
2304.5748,109.11637758962843
2306.0147,94.93148122493494
2307.4538,105.90189829247174
2308.8922,96.8777314463905
2310.3299,99.50908228182652
2311.7669,86.19605142513865
2313.2031,98.9887385075981
2314.6387,89.43724229851523
2316.0735,83.49166057731509
2317.5076,92.90209022905037
2318.941,96.41862730385947
2320.3737,81.84136692285938
2321.8056,87.47040324298632
2323.2369,79.55582960276388
2324.6674,80.84773846601547
2326.0972,99.0962215010104
2327.5263,84.75136956754432
2328.9547,104.26327253445106
2330.3823,97.38201942305568
2331.8092,101.75769821204722
2333.2355,107.14039590629454
2334.661,91.53019849309112
2336.0858,106.87719088833
2337.5098,97.53145709260298
2338.9332,99.09308003773731
2340.3558,121.9121416802518
2341.7778,110.98872298573588
2343.199,114.4229037006553
2344.6195,99.56476246159218
2346.0393,111.56437676090081
2347.4583,104.12182309528635
2348.8767,102.48717684581334
2350.2943,119.86051235232844
2351.7113,129.99190292981257
2353.1275,119.83142069463611
2354.543,94.32913646325596
2355.9578,105.33511985381756
2357.3718,105.44943954117662
2358.7852,91.82216314683956
2360.1978,90.55335723782446
2361.6098,105.14308746292681
2363.021,102.44141856540227
2364.4315,84.49841423708403
2365.8413,94.6641371453934
2367.2504,115.08864911276578
2368.6587,97.67201101499995
2370.0664,83.46428257701155
2371.4733,76.11552254699654
2372.8795,96.02578883851493
2374.285,72.49513860398201
2375.6899,61.27362803555479
2377.0939,53.96131260043876
2378.4973,67.15824715310191
2379.9,70.66448600840113
2381.3019,68.2300828096113
2382.7032,58.4550904933667
2384.1037,57.13956131400164
2385.5035,53.88354694130567
2386.9027,41.93709847367609
2388.3011,51.000266470680344
2389.6987,59.27310107251287
2391.0957,64.70565190936532
2392.492,62.39796801870398
2393.8876,37.85009779093252
2395.2824,35.062088992476674
2396.6765,54.733989011265294
2398.07,39.065844884610215
2399.4627,27.05770310248863
2400.8547,68.90960976422366
2402.246,38.52161069856493
2403.6366,31.74375104516548
2405.0265,30.426075558471894
2406.4156,32.918628675496166
2407.8041,33.47145452899258
2409.1918,25.184596922541004
2410.5789,36.60809932500524
2411.9652,23.84200495340565
2413.3508,43.88635665868287
2414.7358,24.091197053356154
2416.12,16.006568311086994
2417.5035,38.9825123646242
2418.8863,22.46907098665406
2420.2684,24.41628556003934
2421.6497,28.724197242953323
2423.0304,-0.6571530505893861
2424.4104,13.822275306184565
2425.7896,-0.6374704949926127
2427.1682,18.06365659938865
2428.546,7.275710011167575
2429.9232,16.24874298154873
2431.2996,21.882808678980382
2432.6753,28.32796010942684
2434.0503,28.534250060025443
2435.4246,13.801731034639033
2436.7982,15.280455251786407
2438.1711,12.82047479197172
2439.5433,19.721841582895195
2440.9148,15.934607424053866
2442.2856,9.15882391772493
2443.6557,20.044542506842845
2445.025,17.091814542754946
2446.3937,21.80069117636367
2447.7617,22.571223387652935
2449.1289,23.353461938603687
2450.4955,18.49745736548175
2451.8613,25.203259971020998
2453.2265,22.170919872981358
2454.5909,53.70048693709168
2455.9546,41.14201080737348
2457.3177,47.1955405908443
2458.68,36.0111249831034
2460.0416,42.53881220779431
2461.4025,44.22865012845068
2462.7627,50.48068618322122
2464.1222,58.594967367971094
2465.4811,49.521540173759604
2466.8392,42.210450505699555
2468.1966,41.96174377368743
2469.5533,57.77546496551895
2470.9093,56.051658649374076
2472.2645,51.09036881568181
2473.6191,65.74163889435704
2474.973,53.20551180441089
2476.3262,56.48202980743963
2477.6787,61.47123463298476
2479.0305,46.57316744576792
2480.3816,44.78786879579866
2481.7319,44.865378767355196
2483.0816,44.65573699683591
2484.4306,46.558982671989725
2485.7789,41.12515453400465
2487.1264,45.10429085848182
2488.4733,34.496429509769314
2489.8195,39.20160790117552
2491.165,38.16986310104585
2492.5097,43.05123178571148
2493.8538,41.14575024980695
2495.1972,23.953454357452756
2496.5398,23.32437956131571
2497.8818,29.408561074529644
2499.2231,41.70603387698611
2500.5637,40.71683265449201
2501.9035,22.34099167579643
2503.2427,35.77854480248061
2504.5812,34.379525672717136
2505.919,37.64396756689666
2507.256,50.37190342161466
2508.5924,36.313365797025654
2509.9281,33.268386749571164
2511.2631,41.236997972556765
2512.5974,31.3192308266066
2513.9309,49.41511625997555
2515.2638,45.0246849077289
2516.596,43.147966910780724
2517.9275,37.684991959798936
2519.2583,32.73578931397333
2520.5884,35.500387855645386
2521.9178,30.078816139799528
2523.2465,39.92110236641702
2524.5745,36.27727443469212
2525.9018,33.54735984460876
2527.2284,38.38138573338074
2528.5543,44.82937890274843
2529.8796,41.891365770642096
2531.2041,48.31737230669614
2532.5279,72.35742406163354
2533.851,56.41154610300555
2535.1735,43.479762774788014
2536.4952,52.91209785684259
2537.8163,46.60857469423445
2539.1366,41.219216102910195
2540.4562,50.09404443272979
2541.7752,58.733081621362544
2543.0935,56.986349105538466
2544.411,52.8538677346578
2545.7279,62.18565778825587
2547.0441,75.8317390173338
2548.3596,78.59213055103464
2549.6744,82.06685076018539
2550.9885,81.15591722969293
2552.3019,82.30934672379635
2553.6146,85.27715519517915
2554.9266,81.35935777343093
2556.2379,75.90596873536879
2557.5485,83.6670015442196
2558.8585,68.39246890415143
2560.1677,81.58238268266496
2561.4762,85.88675406333732
2562.7841,85.75559341392272
2564.0913,92.68891024330742
2565.3977,95.08671320282247
2566.7035,90.04901001691132
2568.0086,96.3258074591522
2569.313,95.71711140263642
2570.6167,101.17292675719727
2571.9197,103.84325747549883
2573.222,111.77810649847652
2574.5236,119.17747572863527
2575.8246,109.3913659506984
2577.1248,122.619776757615
2578.4244,112.91270664842204
2579.7232,135.67015289595793
2581.0214,128.79211164393428
2582.3189,123.1785776793622
2583.6157,132.97954450133284
2584.9118,139.44500437715305
2586.2072,134.47494824433488
2587.5019,141.61936564593998
2588.7959,149.5782447802826
2590.0893,150.75157242948399
2591.3819,150.63933387988664
2592.6739,152.3915129103175
2593.9652,165.45809179321077
2595.2557,148.2890512770855
2596.5456,154.2843704558809
2597.8348,161.6940269406473
2599.1234,152.6679967995915
2600.4112,160.40625448398123
2601.6983,165.15877291840616
2602.9848,176.8255234233934
2604.2705,172.35647566788202
2605.5556,161.65159755255718
2606.84,147.0608552545409
2608.1237,148.33421333444085
2609.4067,161.37163488225542
2610.689,161.82308150464223
2611.9707,149.03851319454225
2613.2516,147.01788832666762
2614.5319,147.2111637853459
2615.8115,160.36829498472753
2617.0903,146.5892358668516
2618.3685,145.22393877007516
2619.6461,142.2223545668635
2620.9229,149.2844326774425
2622.199,154.41012109981648
2623.4745,161.8493663391455
2624.7493,146.15211335648837
2626.0234,156.26830549441274
2627.2968,147.84788463396467
2628.5695,160.74079109350714
2629.8415,142.34696371292716
2631.1128,153.61633972470236
2632.3835,158.4488549378425
2633.6535,137.1944436251938
2634.9228,156.60303847511364
2636.1914,141.72457080401705
2637.4593,136.50897036228753
2638.7265,145.95616548306316
2639.9931,146.76608313439397
2641.259,137.58864882477155
2642.5242,140.22378659502556
2643.7887,160.12141911010167
2645.0525,148.43146763270715
2646.3156,145.8038518243368
2647.5781,149.68848986217267
2648.8398,135.08529846536294
2650.1009,139.8941928561694
2651.3613,146.0650869060023
2652.6211,139.04789308733052
2653.8801,136.49252241197178
2655.1385,148.5988845012655
2656.3961,136.56688761162718
2657.6531,146.29643851348374
2658.9094,142.43744261159372
2660.1651,153.98980384775473
2661.42,152.30342473939095
2662.6743,151.5782062640301
2663.9279,159.31404787616543
2665.1808,161.06084751451021
2666.433,154.36850152463853
2667.6846,158.28690464151668
2668.9354,177.96595005642666
2670.1856,169.4055293777817
2671.4351,172.4555324343371
2672.6839,177.86584736079408
2673.9321,174.68636056729952
2675.1795,179.81695668534303
2676.4263,182.40751859955208
2677.6724,173.30792739638514
2678.9179,175.36806233822472
2680.1626,172.28780095437583
2681.4067,177.1170190204623
2682.6501,186.95559058923118
2683.8928,176.75338794225968
2685.1348,186.76028149157105
2686.3761,167.97613988165426
2687.6168,175.4008298893973
2688.8568,168.8342166119271
2690.0961,168.67616339236338
2691.3348,171.32653188548466
2692.5727,173.78518205930777
2693.81,160.30197216858528
2695.0466,149.62675873021794
2696.2826,150.30939665808864
2697.5178,169.09973936981282
2698.7524,152.64763877991368
2699.9863,161.10294511191796
2701.2195,150.41550706287717
2702.452,163.7351717188144
2703.6839,173.96178466159813
2704.9151,167.24518983574808
2706.1456,178.83522944616493
2707.3755,177.78174402529885
2708.6046,179.78457231724815
2709.8331,190.7935512882941
2711.0609,199.508516106873
2712.2881,209.97930003348756
2713.5145,229.4557343335548
2714.7403,220.63764817269885
2715.9654,240.1748684219881
2717.1899,235.81721974611355
2718.4136,247.21452440801954
2719.6367,262.166602312479
2720.8591,257.52327089212076
2722.0809,276.134344957909
2723.3019,278.3496367455748
2724.5223,290.31895572950725
2725.7421,300.1421086005996
2726.9611,302.1188991465565
2728.1795,277.4491281536623
2729.3972,293.5325933870133
2730.6142,254.16908983721555
2731.8306,244.30840955954932
2733.0462,236.10034206760383
2734.2612,232.6946744318857
2735.4756,207.0411913618982
2736.6892,193.08967524020045
2737.9022,176.23990637893985
2739.1145,148.49166315936918
2740.3262,154.7447222003425
2741.5372,134.89885863579843
2742.7475,124.15384605222926
2743.9571,106.25945668713894
2745.1661,96.46546153649297
2746.3744,100.17163053366221
2747.582,86.07773264736466
2748.7889,61.983535844601874
2749.9952,60.68880723159987
2751.2008,53.89331329474908
2752.4057,56.84681991355387
2753.61,52.949092428586255
2754.8136,41.049895611950205
2756.0165,44.548993706261626
2757.2188,38.14615054363617
2758.4204,40.091129510700966
2759.6213,35.933693612621255
2760.8215,34.82360545365236
2762.0211,32.6106272787124
2763.22,24.794520984485416
2764.4182,24.425048141548586
2765.6158,27.101970072536005
2766.8127,23.17504785583128
2768.009,8.894042298799377
2769.2045,2.1587139770549584
2770.3994,16.418823377273384
2771.5936,1.7241309645453384
2772.7872,-12.375602960225706
2773.9801,-17.58061811337643
2775.1723,-18.79103057897214
2776.3639,-16.306780810702094
2777.5548,-15.477621539861957
2778.745,-11.453142593006987
2779.9346,-9.532779175252927
2781.1235,-24.865852074823124
2782.3117,-7.651586847476892
2783.4992,-19.588960639113793
2784.6861,-1.6768741562800642
2785.8723,1.535967588192534
2787.0579,-8.149123666555852
2788.2428,2.0691638032556057
2789.427,6.942223131152559
2790.6106,15.57144742996934
2791.7935,19.20822974311909
2792.9757,37.30396295829951
2794.1573,37.26003977112782
2795.3382,53.0778525041826
2796.5184,62.858793107443034
2797.698,72.25425300011102
2798.8769,89.91562297279984
2800.0551,103.89429309358206
2801.2327,117.44165253137476
2802.4096,148.95908941615403
2803.5859,142.2979907034803
2804.7615,165.00974185932273
2805.9364,189.84572692667166
2807.1106,226.3573282984189
2808.2842,236.19592646900082
2809.4572,278.46289966928157
2810.6294,317.85962376816565
2811.801,362.43747184993003
2812.972,390.94781382025417
2814.1423,446.99201596044395
2815.3119,485.92144064232593
2816.4808,534.187445767808
2817.6491,562.9913843795853
2818.8167,621.4846041784788
2819.9837,662.5184472353978
2821.15,700.9442494064069
2822.3157,750.1133399223881
2823.4807,798.377041004781
2824.645,839.8866673738935
2825.8086,889.8435257662632
2826.9716,923.6989145195596
2828.134,971.2041230730201
2829.2957,991.510431628891
2830.4567,1015.7691106773802
2831.617,1023.2814207935901
2832.7767,1028.748612394933
2833.9358,1036.8219256660082
2835.0941,1010.0525905039283
2836.2519,1015.1418264375886
2837.4089,999.6908428953584
2838.5653,993.5008391541896
2839.7211,991.4730044941268
2840.8761,996.1085182602071
2842.0306,1034.0585498827365
2843.1843,1060.0242588309375
2844.3374,1104.5567942334467
2845.4899,1165.707294618659
2846.6417,1256.8768874694015
2847.7928,1329.7166886114292
2848.9433,1397.5778013017284
2850.0931,1483.411315500119
2851.2422,1569.218307190644
2852.3907,1634.9998375232335
2853.5385,1696.4069519556358
2854.6857,1737.4406795955995
2855.8323,1794.102032586806
2856.9781,1831.8920056985305
2858.1233,1887.3615757590287
2859.2679,1925.4617012776362
2860.4118,1978.4433218900745
2861.555,2018.2073579774483
2862.6976,2052.90471013643
2863.8395,2078.0862587816187
2864.9808,2105.052863798566
2866.1214,2129.8053642919613
2867.2614,2136.594578315967
2868.4007,2140.6213026266914
2869.5393,2141.436312614299
2870.6773,2158.5403622627396
2871.8146,2182.7841841416025
2872.9513,2168.7684892350726
2874.0874,2173.3439666994927
2875.2227,2159.611284003523
2876.3574,2134.271086882384
2877.4915,2117.873999475185
2878.6249,2080.7706245783247
2879.7577,2070.7115438094625
2880.8898,2027.847317978552
2882.0212,2024.3284871884312
2883.152,2002.455571263467
2884.2821,2007.0290697847424
2885.4116,1990.3494623087859
2886.5405,1989.767208321835
2887.6686,1985.332747406635
2888.7962,2003.4464992482585
2889.923,2010.6588636784525
2891.0493,2011.8702204944987
2892.1748,2020.730929387092
2893.2997,2034.191329928224
2894.424,2056.9017414825794
2895.5476,2075.062463072929
2896.6706,2102.0237731530306
2897.7929,2127.3359294260144
2898.9145,2156.6491685747737
2900.0355,2180.013706008844
2901.1559,2213.7297355712703
2902.2756,2238.39742930496
2903.3946,2274.416937115525
2904.513,2296.088386524603
2905.6308,2329.7118823096644
2906.7479,2360.1375062872958
2907.8643,2388.7153169769654
2908.9801,2404.8953492967667
2910.0953,2392.5776142776413
2911.2098,2393.6620989015796
2912.3236,2383.3487662247962
2913.4368,2384.0875553668848
2914.5494,2374.3783816139544
2915.6613,2330.971136411239
2916.7725,2302.9156874601886
2917.8831,2284.061879152543
2918.9931,2255.8095328508857
2920.1024,2241.9584470771824
2921.211,2217.058397795303
2922.319,2184.459138549533
2923.4264,2179.7104007135763
2924.5331,2163.3118938165453
2925.6391,2156.313305590449
2926.7445,2158.9643021341767
2927.8493,2131.914527983487
2928.9534,2130.963606084495
2930.0569,2118.911138064173
2931.1597,2118.4567042398558
2932.2619,2114.849863739769
2933.3634,2102.94015450757
2934.4643,2104.027093338421
2935.5645,2071.760175998081
2936.6641,2047.7388772120407
2937.763,1996.662650988187
2938.8613,1960.8309308570201
2939.959,1908.5431303824134
2941.056,1830.798643519932
2942.1523,1751.8468451397098
2943.248,1659.9370918038956
2944.3431,1566.1187225561694
2945.4375,1466.5410598408407
2946.5313,1351.1534104410339
2947.6244,1259.0550664744617
2948.7169,1153.2953065473046
2949.8087,1070.8733966751934
2950.8999,974.3885913408058
2951.9904,907.5901343180851
2953.0803,832.7772596370894
2954.1696,757.6491922519756
2955.2582,721.1051487891284
2956.3462,664.7943382984411
2957.4335,631.9159626187559
2958.5202,605.6192169409724
2959.6062,569.4532901368307
2960.6916,550.8673650218782
2961.7764,557.0106187171307
2962.8605,544.5822228349293
2963.9439,527.0813434175113
2965.0267,520.8571410612908
2966.1089,512.0587710918701
2967.1905,516.8853836262795
2968.2714,512.486123660962
2969.3516,517.7601310235073
2970.4312,514.406540416644
2971.5102,522.7744813655006
2972.5885,522.3130782511412
2973.6662,526.6714502268837
2974.7432,521.2487112229182
2975.8196,520.1439699027196
2976.8954,525.9563297172776
2977.9705,506.43488891614186
2979.045,501.9287404893005
2980.1188,492.43697236239257
2981.192,478.2086674417702
2982.2645,459.7429037094166
2983.3364,438.5887543652284
2984.4077,413.5952880116739
2985.4783,379.56156886533495
2986.5483,351.68665700684016
2987.6177,320.7696087212032
2988.6864,299.80947677657264
2989.7545,262.7553107334003
2990.8219,243.95615715404415
2991.8887,206.41105997330965
2992.9548,182.21906068643966
2994.0204,152.02919872456835
2995.0852,129.04051169663853
2996.1495,105.45203569130206
2997.2131,100.81280550680538
2998.276,68.4218548868746
2999.3383,54.27821656710762
3000.4,46.680922598884536
3001.4611,24.079004490803413
3002.5215,26.321493284653343
3003.5812,1.5074197814337822
3004.6404,8.585814518929965
3005.6989,-0.04429198014645408
3006.7567,-12.533869278942234
3007.8139,-17.58388694016071
3008.8705,-17.645189313151604
3009.9264,-10.718445084234531
3010.9818,-9.55414666428851
3012.0364,-11.552679386925547
3013.0905,6.385666860166452
3014.1439,0.1607176005669544
3015.1966,-3.2777017060010394
3016.2487,-4.229765601421036
3017.3002,1.9043841166633229
3018.3511,6.874647905966754
3019.4013,10.730926205160586
3020.4509,17.423119384170377
3021.4998,28.201127705612294
3022.5481,23.36485125787226
3023.5958,31.464189847325656
3024.6428,41.39904304669915
3025.6892,51.36931011407819
3026.735,47.174889893557975
3027.7802,48.71568071554077
3028.8247,62.14158043868065
3029.8685,70.40248643447467
3030.9118,77.24829545300486
3031.9544,89.57890354032838
3032.9963,92.54420597002013
3034.0376,94.89409711986548
3035.0783,107.07847044220807
3036.1184,113.14721844045175
3037.1578,124.35023254721557
3038.1966,135.13740306364696
3039.2348,136.55861904739186
3040.2723,134.51376820472228
3041.3092,145.25273687632512
3042.3455,145.27541005774947
3043.3811,141.93167129201777
3044.4161,143.97140266939778
3045.4505,126.79448486084164
3046.4842,139.75079709758722
3047.5173,133.9402173429279
3048.5498,131.91262216264954
3049.5816,133.91788678313617
3050.6128,126.30588511164524
3051.6434,131.02648971625604
3052.6734,118.179571901989
3053.7027,119.26500166360063
3054.7314,118.03264781405142
3055.7594,112.28237797365193
3056.7868,104.71405858238666
3057.8136,110.52755495741735
3058.8398,112.272731368765
3059.8653,109.84945098117578
3060.8902,101.30757583666866
3061.9145,95.54696687876867
3062.9381,111.76748403792556
3063.9612,102.91898628911986
3064.9835,94.30133148965751
3066.0053,91.16437646765496
3067.0264,86.55797710821594
3068.0469,91.73198838480084
3069.0668,81.58626440529054
3070.086,73.22065836024672
3071.1046,63.385022624368276
3072.1226,65.42920884014802
3073.1399,59.50306801622867
3074.1567,54.7564505069613
3075.1727,51.08920607166658
3076.1882,40.40118392210104
3077.203,41.59223275912882
3078.2173,36.5622008796031
3079.2308,31.160936164454597
3080.2438,27.03828612899207
3081.2561,18.794097976915623
3082.2678,10.428218641542571
3083.2789,10.740494868249812
3084.2893,15.080773298132442
3085.2991,11.548900464880717
3086.3083,1.89472275137706
3087.3169,6.868086425015065
3088.3248,3.118837734240799
3089.3321,8.246822858819712
3090.3388,4.051887947329192
3091.3449,-1.616120934121625
3092.3503,-2.557357759942363
3093.3551,-0.22196035949451698
3094.3593,-2.9600410141359816
3095.3629,-2.071709787840689
3096.3658,-4.957047173773219
3097.3681,-3.166112968717755
3098.3698,-0.5489174485575745
3099.3708,-0.1554392597076344
3100.3713,-8.535651564898046
3101.3711,-2.0895259740204324
3102.3702,-4.81694882580797
3103.3688,-1.4677855846293255
3104.3667,0.40814640646550515
3105.364,3.8610444676040743
3106.3607,0.49110184153141745
3107.3568,2.5485117323822237
3108.3522,0.8334673393803769
3109.347,9.246161836265173
3110.3412,1.0367883884412095
3111.3348,2.6555400688516784
3112.3277,8.952609940072136
3113.32,5.278191038122884
3114.3117,10.832476309498304
3115.3028,13.615658647911232
3116.2932,10.227930838749785
3117.2831,18.519485531245607
3118.2723,18.490515272351274
3119.2608,17.441212423824652
3120.2488,17.37176916251866
3121.2361,19.682377490874558
3122.2229,25.473229237615897
3123.209,18.94451603464279
3124.1944,22.146429259123124
3125.1793,26.579160098779766
3126.1635,17.942899519871503
3127.1471,20.037838222865844
3128.1301,23.164166728801433
3129.1125,27.82207535833828
3130.0942,30.711754200495307
3131.0753,29.88339306607071
3132.0558,33.537181458745295
3133.0357,33.323308583365986
3134.015,38.69196330940815
3134.9936,38.29333417311443
3135.9716,37.72760932380777
3136.949,44.644976527878214
3137.9258,42.74562317443991
3138.902,35.429736206157315
3139.8775,39.39750213823896
3140.8524,43.59910713159593
3141.8267,44.58473695316468
3142.8004,46.954576933890166
3143.7735,48.60881195887043
3144.7459,50.24762644365768
3145.7178,53.42120431771613
3146.689,51.379729008034104
3147.6596,50.973383407387786
3148.6295,51.65234989475644
3149.5989,52.16681033938525
3150.5676,56.016946093996125
3151.5357,59.95293798964312
3152.5032,52.874966297210676
3153.4701,56.983210688054214
3154.4364,61.97785030477968
3155.402,62.509063720161095
3156.367,60.62702888719383
3157.3315,66.28192313378304
3158.2952,69.27392318156348
3159.2584,70.05320508935083
3160.221,68.56994422322165
3161.1829,65.8243152487207
3162.1442,69.26649214569306
3163.105,77.74664823574119
3164.065,67.81495614780243
3165.0245,72.67158773334793
3165.9834,69.46671416569941
3166.9416,72.25050589146275
3167.8993,77.1231326625769
3168.8563,80.83476350847562
3169.8127,80.33556668736173
3170.7684,82.82570964909033
3171.7236,80.90535904016104
3172.6782,82.82468067881638
3173.6321,84.38383957424531
3174.5854,87.98299990739022
3175.5381,87.17232501535497
3176.4902,91.45197735541359
3177.4417,96.22211851311687
3178.3926,91.13290915949582
3179.3428,88.53450900336048
3180.2924,93.47707684219174
3181.2415,94.26077058812541
3182.1899,96.58574721852659
3183.1377,96.90216276815272
3184.0848,97.76017230590381
3185.0314,100.60992993165826
3185.9773,107.00158876769294
3186.9227,100.9353009301856
3187.8674,102.21121746529812
3188.8115,106.6294884098395
3189.755,108.74026277850662
3190.6979,106.04368851970153
3191.6402,104.03991249442373
3192.5818,111.07908050323586
3193.5229,110.51133730630154
3194.4633,110.33682655299356
3195.4031,112.25569078757145
3196.3423,116.06807145092648
3197.2809,115.7741088613931
3198.2189,116.22394217662519
3199.1563,117.36770939653547
3200.0931,120.9055473587974
3201.0292,121.68759172740732
3201.9648,118.16397695730618
3202.8997,125.68483628655903
3203.834,125.75030177159141
3204.7677,133.3105042119804
3205.7008,126.26557314980005
3206.6333,132.76563679401954
3207.5652,126.86082209095241
3208.4964,140.9512546592557
3209.4271,135.58705884897836
3210.3571,135.71835760065684
3211.2865,138.14527249895693
3212.2154,136.66792377136093
3213.1436,138.63643026389846
3214.0712,139.9009094559199
3214.9982,143.76147744041126
3215.9246,141.06824891134957
3216.8503,147.47133712509705
3217.7755,144.02085392733343
3218.7001,143.71690968902507
3219.624,153.4596133409299
3220.5473,150.99907237663672
3221.4701,154.38539275513818
3222.3922,156.71867892543622
3223.3137,152.1990337926789
3224.2346,159.32655869482744
3225.1549,160.30135344785273
3226.0746,160.1735162744602
3226.9937,158.6431437943417
3227.9121,161.46033102545397
3228.83,160.7751713993222
3229.7473,170.28775673286844
3230.6639,162.44817723526296
3231.5799,164.00652141279855
3232.4954,166.5628761472861
3233.4102,173.31732668047152
3234.3244,170.06995658847183
3235.238,168.32084771423084
3236.151,176.32008019999273
3237.0634,175.3177325047933
3237.9752,177.36388132446746
3238.8864,181.95860160167277
3239.797,179.25196650542813
3240.7069,180.6940473851663
3241.6163,185.5349137978004
3242.5251,179.6746334933032
3243.4332,186.313272366298
3244.3408,180.80089451466216
3245.2477,185.03756217314006
3246.154,186.47333576846717
3247.0598,183.70827387700334
3247.9649,193.0424332103751
3248.8694,193.7258686431262
3249.7733,193.75863311937619
3250.6766,194.84077764598567
3251.5793,198.92235129222917
3252.4814,197.50340117897326
3253.3829,194.28397243786094
3254.2838,199.96410822550132
3255.1841,201.1938497556637
3256.0838,202.37323624247628
3256.9829,204.40230488812875
3257.8814,201.43109087107842
3258.7792,208.8096273257596
3259.6765,204.48794537229563
3260.5731,204.56607404271355
3261.4692,204.94404032416088
3262.3647,205.12186915812453
3263.2595,207.99958343665065
3264.1538,211.02720400056708
3265.0474,203.25474961070543
3265.9404,214.3322369176255
3266.8329,209.9096805393394
3267.7247,205.48709295053692
3268.616,209.1644845268109
3269.5066,204.49186358888335
3270.3966,208.31923636583136
3271.286,210.09660704181331
