RamanShift,CorrectedData
30.1047,6977.451575158217
32.3739,6519.961459223046
34.6426,6062.521273513359
36.9109,5612.780883055026
39.1787,5161.690092248701
41.4461,4710.14864936723
43.7131,4264.306251066557
45.9796,3821.1625469011337
48.2456,3371.317143782351
50.5112,2928.0196104099664
52.7764,2483.169481770567
55.0411,2038.6162635705432
57.3054,1597.8594366845882
59.5692,1160.4484616012332
61.8326,722.3827828304138
64.0955,288.6618332775803
66.3579,-147.46496137564372
68.6199,-556.0481783342534
70.8815,-935.3369216282804
73.1426,-1208.0247403664546
75.4032,-1182.4458396416608
77.6634,-427.4723563796292
79.9231,2147.335385127848
82.1824,8690.771331037817
84.4412,23907.17940603397
86.6995,50465.10344789229
88.9574,59326.48705531697
91.2148,58997.77332236115
93.4717,58513.054749813135
95.7282,58034.42324848348
97.9842,57563.62014405218
100.2398,57098.186181855024
102.4949,56629.9115315916
104.7495,56159.385791979614
107.0036,55702.4979954377
109.2573,55237.386612790615
111.5105,54769.689557838145
113.7632,54310.79419200622
116.0154,53836.48732902388
118.2672,53380.35523951224
120.5185,52924.68365572751
122.7693,52466.05777612239
125.0197,51999.91226990272
127.2696,51544.68128161379
129.519,51086.89843580174
131.7679,50624.79684156592
134.0163,50172.159097136704
136.2642,49711.71729449649
138.5117,49259.15302390612
140.7587,48805.44737850924
143.0052,48358.830958858
145.2512,47912.483877450046
147.4967,47460.585763194744
149.7417,47018.465765876615
151.9863,46567.15256067433
154.2304,46119.474352581914
156.4739,45672.90888092185
158.717,45236.83342382193
160.9596,44787.57480268081
163.2017,44350.059386528825
165.4433,43914.16309652058
167.6844,43478.46141031008
169.925,43045.62936640975
172.1651,42608.39156854732
174.4047,42177.12218999432
176.6439,41751.8449779383
178.8825,41317.98325779563
181.1206,40883.55993746423
183.3582,40460.84751166217
185.5954,40034.66806627193
187.832,39607.89328256754
190.0681,39191.29444147636
192.3037,38768.89242784683
194.5388,38353.25773461448
196.7734,37930.66046702593
199.0075,37520.12034679523
201.2411,37099.706716329805
203.4742,36694.93854283596
205.7068,36288.13442252291
207.9389,35881.3125846505
210.1704,35478.04089559725
212.4015,35077.83686292858
214.632,34674.8676394295
216.862,34289.2000271067
219.0915,33899.650481218145
221.3205,33507.23511412987
223.549,33122.8696992114
225.777,32730.669674759873
228.0044,32336.000147843777
230.2314,31955.575898224924
232.4578,31577.761382305136
234.6837,31190.720736930467
236.909,30801.66778316941
239.1339,30400.416030183267
241.3582,30037.478679116684
243.582,29634.21862711016
245.8053,29273.948470929412
248.0281,28907.78051099799
250.2503,28537.72675499993
252.472,28169.148921541484
254.6932,27807.958443851676
256.9139,27446.71647346805
259.134,27085.68388384857
261.3536,26728.57127398406
263.5727,26373.38897200852
265.7912,26023.29703877025
268.0092,25668.20527138369
270.2267,25322.073206730303
272.4436,24978.260125009554
274.6601,24632.475053200134
276.8759,24292.926768498175
279.0913,23949.323801775085
281.3061,23615.42444097298
283.5204,23274.3867345408
285.7341,22942.36849477327
287.9473,22601.727301221203
290.16,22279.320504011805
292.3721,21960.305227255005
294.5837,21633.63837226754
296.7947,21317.87662076315
299.0052,20995.376438119223
301.2152,20680.694076534397
303.4246,20374.635578253597
305.6334,20060.40677871481
307.8418,19749.313309609715
310.0495,19441.21060202598
312.2568,19138.403889558183
314.4635,18833.148211388798
316.6696,18530.84841531628
318.8752,18225.80916080763
321.0802,17938.88492202136
323.2847,17641.579990857943
325.4887,17353.848479829037
327.692,17067.894325030502
329.8949,16779.62128901975
332.0972,16498.58296367526
334.2989,16215.532773079321
336.5001,15933.22397632838
338.7007,15661.909670363588
340.9008,15382.792792793865
343.1003,15115.476124609078
345.2992,14839.712292971184
347.4976,14575.403773887425
349.6955,14310.352894967946
351.8927,14046.461838068877
354.0895,13779.382641942844
356.2856,13530.567204877887
358.4812,13281.217287368265
360.6763,13026.684514602588
362.8707,12779.670378957315
365.0646,12529.126242542101
367.258,12285.403339669901
369.4508,12036.202779362444
371.643,11793.525547787453
373.8346,11556.122510750647
376.0257,11320.094416122469
378.2162,11092.441896212178
380.4062,10861.515470128114
382.5956,10630.665546054232
384.7844,10407.242423559379
386.9726,10184.746295905737
389.1603,9967.52725228313
391.3474,9713.585280033956
393.5339,9537.320266825387
395.7199,9331.33200318877
397.9052,9121.62018428227
400.09,8912.434411950715
402.2743,8711.574196822803
404.4579,8506.638960402895
406.641,8301.578037079656
408.8235,8111.090676175372
411.0054,7911.8260439966325
413.1868,7712.883225739184
415.3675,7516.911227480516
417.5477,7330.50897816931
419.7273,7141.475331585185
421.9064,6953.359068202706
424.0848,6776.1088970817145
426.2627,6595.57345774844
428.4399,6417.451321968067
430.6166,6243.090995550032
432.7928,6071.490920129283
434.9683,5903.799474909909
437.1432,5739.014978381107
439.3176,5572.23568999413
441.4914,5416.209811810106
443.6645,5256.035490167873
445.8371,5094.860817244167
448.0091,4940.0338326554265
450.1806,4787.00252506954
452.3514,4637.364833754131
454.5216,4482.31865010679
456.6913,4342.811819151495
458.8603,4205.442141089057
461.0288,4066.6073726922186
463.1967,3931.9052286792576
465.3639,3793.1333831024604
467.5306,3658.1894706950625
469.6967,3527.1210882589585
471.8622,3399.0257960142117
474.0271,3271.2011189096665
476.1914,3146.1445479039467
478.3551,3024.2535412437355
480.5182,2907.925525714287
482.6807,2797.9078978583348
484.8426,2687.9480251394125
487.0039,2574.2432470420026
489.1647,2453.7408761711413
491.3248,2342.188199389413
493.4843,2246.932479022027
495.6432,2143.920953972396
497.8015,2032.6008406746114
499.9592,1931.5193341235936
502.1163,1840.4236089882615
504.2728,1746.960820622393
506.4287,1669.1281059754983
508.5839,1576.9725845275316
510.7386,1488.5413590671305
512.8927,1389.5315166132423
515.0461,1313.6401292993905
517.199,1233.1142553638783
519.3512,1156.0509399086513
521.5029,1076.5472157045588
523.6539,1008.6501039619689
525.8043,936.7566151258288
527.9541,869.1137495545772
530.1033,805.4184982391525
532.2519,745.6678434793721
534.3999,680.858759520961
536.5472,621.7882131529113
538.694,570.553164355726
540.8401,510.650566892029
542.9856,451.521674698306
545.1305,395.60264031188126
547.2748,345.4251055685163
549.4185,299.7167602335394
551.5615,262.55184327549796
553.704,221.75159949240333
555.8458,188.38465078936133
557.987,153.0174037730103
560.1276,119.01438308728393
562.2675,85.53858473227592
564.4069,57.301815754311974
566.5456,30.76502866930241
568.6837,6.788603547931416
570.8212,-17.517386881736456
572.958,-41.34293770981458
575.0942,-56.77786902776279
577.2299,-74.91158791113412
579.3648,-82.13293422463175
581.4992,-91.9799994662244
583.6329,-105.09005462585628
585.766,-126.69945181338699
587.8985,-140.19349328907992
590.0304,-184.15621558579005
592.1616,-172.07025470341614
594.2922,-179.21640692129586
596.4222,-185.72374953692633
598.5515,-191.81956947590515
600.6802,-196.22929828362248
602.8083,-192.57645122795657
604.9358,-189.93258324624185
607.0626,-194.56732543705584
609.1888,-195.49841147254483
611.3144,-186.59163129731314
613.4393,-180.8608218268564
615.5636,-183.5179559263488
617.6873,-166.5231996614093
619.8103,-168.58488575327647
621.9327,-142.9096833564763
624.0544,-125.8025774625421
626.1756,-119.06855163387809
628.2961,-107.7625881747881
630.4159,-96.53966819882771
632.5351,-83.55477174191765
634.6537,-58.362877874482365
636.7716,-52.56896483142191
638.8889,-30.278010263944452
641.0056,-9.244991297578963
643.1216,16.57511524497386
645.237,48.32733263344562
647.3518,68.80668397188128
649.4659,103.35819188107416
651.5793,131.9768782937972
653.6922,159.70776410932012
655.8043,157.34586890711944
657.9159,222.28621066966298
660.0268,155.62380580596073
662.137,268.95366850217397
664.2466,294.6708113882414
666.3556,315.620244404563
668.4639,375.84697454486013
670.5716,385.99600564672437
672.6786,448.9123377892902
674.785,442.74096719179215
676.8907,502.8768855843591
678.9958,577.2150802697579
681.1002,611.9505335220529
683.204,601.1782218432127
685.3072,617.743115615689
687.4097,695.7901792101693
689.5115,706.9143708199917
691.6127,820.7606416805647
693.7132,813.7739359582192
695.8131,837.7991896117383
697.9123,922.3813304621508
700.0109,971.0152779525524
702.1089,943.6959423022417
704.2061,1023.5182240203867
706.3028,1080.9270141792076
708.3987,1169.267193615764
710.4941,1188.1336323578944
712.5887,1318.5211887407713
714.6827,1337.724709218237
716.7761,1455.3390270589953
718.8688,1543.4589621545238
720.9608,1560.1293198429485
723.0522,1608.594890027809
725.1429,1617.1004470113912
727.233,1790.3907490100682
729.3224,1449.96053806923
731.4112,1731.7045383303994
733.4993,1791.4174594355063
735.5867,1875.5939937095318
737.6735,1770.9788155632414
739.7596,1706.916580651523
741.845,1755.6519269194978
743.9298,2086.129475243113
746.014,1891.7438289419151
748.0974,1798.7895704740877
750.1802,2260.611263380495
752.2624,1878.1034532140839
754.3439,2001.5606629217145
756.4247,2179.977396669303
758.5048,2117.1481386071537
760.5843,2282.9673510858265
762.6631,2473.229475284388
764.7413,2510.328929552292
766.8188,2691.2601075066777
768.8956,3005.1673776614116
770.9718,3058.6950816177778
773.0473,3041.5875309253897
775.1221,2809.789006546962
777.1962,2863.2437590292975
779.2697,2610.8960108213723
781.3426,2962.339955739735
783.4147,3185.369761492024
785.4862,3265.729566162503
787.557,3031.8634759818015
789.6271,3406.7155645232706
791.6966,3105.4298750416856
793.7654,2704.900416724682
795.8335,2773.6711677056082
797.901,3002.886079068776
799.9678,2824.3390741618423
802.0339,2848.374046303572
804.0993,3008.634860569342
806.1641,2970.0153535507925
808.2282,2926.159331753268
810.2916,2831.160571981949
812.3544,3219.812821780448
814.4164,2715.55980038079
816.4778,2861.4951948169037
818.5385,3009.2626649671292
820.5986,3011.1058420948175
822.658,3170.618327370743
824.7166,3342.243691854608
826.7747,2796.7754748999723
828.832,3189.5571824380168
830.8886,3696.582292432213
832.9446,3839.4942509504617
834.9999,2939.8364670948577
837.0545,3634.2023115725897
839.1085,4060.085125692538
841.1618,3948.178214421583
843.2143,3282.074842125825
845.2662,3387.9182336896047
847.3175,3764.6515811765275
849.368,2927.3180427710395
851.4179,3728.81073901106
853.467,3133.5227611613736
855.5155,3470.5971631987413
857.5633,2999.776967764672
859.6105,2793.605162794818
861.6569,3226.824706227053
863.7027,2554.428528063261
865.7478,2939.05952603709
867.7922,2918.560572337985
869.8359,3405.6745097647945
871.8789,2768.6941519307875
873.9212,3373.612278392531
875.9629,3685.7716410196444
878.0039,3767.714957945711
880.0441,3609.0849104466033
882.0837,3628.2241421210347
884.1226,3626.9252604769717
886.1609,3543.530836740101
888.1984,3241.7834058669177
890.2352,3826.9754673786374
892.2714,3126.4994883786494
894.3069,3541.1478977006627
896.3416,3300.763092913403
898.3757,3304.8374361741808
900.4091,2613.5132566326574
902.4418,3697.482850390188
904.4739,3176.7884874130177
906.5052,3437.1724006925724
908.5358,3086.9767914524346
910.5658,2811.193826544484
912.595,2837.4156419508727
914.6236,2214.134345541832
916.6515,3453.1420168134864
918.6786,2342.23071312064
920.7051,2736.592457286657
922.7309,2809.0192487126624
924.756,3073.753059433846
926.7804,2850.5858333952783
928.8041,2308.5094838045115
930.8272,2833.715895363275
932.8495,2861.8969296882206
934.8711,2382.0444200588463
936.892,2148.9501711356497
938.9123,2169.305963758721
940.9318,1816.203557278699
942.9506,1806.8846893531736
944.9688,1851.341079477781
946.9862,1325.0644290793425
949.003,1579.7964210712744
951.019,1183.2287251163725
953.0344,1390.4529950795113
955.0491,1412.260872993269
957.063,1688.1939869857451
959.0763,1877.9939510624536
961.0888,1706.502362346997
963.1007,2051.210799183056
965.1119,2120.110822849325
967.1223,2038.5439741124137
969.1321,2284.1017725378624
971.1412,2072.5257173057616
973.1495,1965.707284755248
975.1572,2203.2379305002178
977.1641,2270.7590904975077
979.1704,2180.262178671619
981.1759,2249.2385862394876
983.1808,2221.279682615437
985.1849,2465.8268147214476
987.1884,2579.7213072667073
989.1911,2949.004460302189
991.1932,2761.167548081641
993.1945,2883.401815368823
995.1951,2862.0984793158714
997.1951,2724.198728240859
999.1943,2583.343721840938
1001.1928,2481.824592571269
1003.1906,2500.982447053626
1005.1877,2391.658367091579
1007.1841,2211.2434094789205
1009.1798,2126.4786070928603
1011.1748,1891.9049706981968
1013.1691,1703.6134897949887
1015.1627,1355.495134964236
1017.1556,1043.2908597508722
1019.1477,1041.3916041448683
1021.1392,860.0882977033689
1023.1299,730.5218595695915
1025.12,845.683200285901
1027.1093,682.4632230894713
1029.0979,793.8028227606628
1031.0859,760.8928872552497
1033.0731,707.824296590974
1035.0596,660.48792317669
1037.0454,369.62463234304596
1039.0304,293.77528281583363
1041.0148,41.730729624621745
1042.9985,-6.868175138770312
1044.9814,131.71942020019924
1046.9636,-17.36563261520496
1048.9452,-131.48248315888486
1050.926,-57.290280831097334
1052.9061,-94.19686152210488
1054.8855,-124.7594887922678
1056.8642,-34.1844851753558
1058.8421,46.1730731421776
1060.8194,104.50811031572812
1062.7959,81.8655500390305
1064.7717,105.5403149607373
1066.7469,138.02732691088022
1068.7213,82.5215066640958
1070.695,133.0177736147598
1072.6679,-26.388953667934402
1074.6402,-25.603757944962126
1076.6117,3.518278286581335
1078.5826,91.22232831113797
1080.5527,130.70356537797488
1082.5221,283.1071618241549
1084.4908,569.928288679781
1086.4587,776.3121141438678
1088.426,1051.9038007162308
1090.3925,910.7485031335527
1092.3584,897.2413656134886
1094.3235,596.3275232662127
1096.2879,504.2521022295259
1098.2515,514.7602226779709
1100.2145,568.5469997435794
1102.1767,603.3075434107886
1104.1382,726.73695797861
1106.099,996.4803417130097
1108.0591,1171.2827856126096
1110.0185,1309.9893707112278
1111.9771,1359.2951663298954
1113.9351,1054.1452286897475
1115.8923,692.9846004189385
1117.8488,365.95831360419834
1119.8045,2.4613934024309856
1121.7596,-61.311138689052314
1123.7139,-174.4142857622719
1125.6675,-173.35243841094052
1127.6204,74.72175516990683
1129.5726,86.15737857609201
1131.524,146.30351465626882
1133.4748,278.2592453974721
1135.4248,240.92365132371197
1137.3741,322.8958101764001
1139.3226,329.9247972877638
1141.2705,426.30968476099224
1143.2176,192.94954140020127
1145.164,277.1934317463674
1147.1097,334.2904184109939
1149.0546,466.08956123367534
1150.9989,396.7899167111609
1152.9424,265.4405366793071
1154.8852,99.49046900609392
1156.8272,-26.061241094867
1158.7686,12.534450595128874
1160.7092,-55.273151353379944
1162.6491,-126.58474249523715
1164.5883,11.09953379349463
1166.5267,95.63079871830269
1168.4644,263.5100626002968
1170.4014,509.58833480432804
1172.3377,777.7666220601459
1174.2732,993.9959260016549
1176.2081,1257.3272404851086
1178.1421,1436.4615494268437
1180.0755,1632.6498241699082
1182.0082,1521.8430216928027
1183.9401,1533.0920826475049
1185.8713,1298.1979324676067
1187.8017,1054.9114812557818
1189.7315,890.1836261327553
1191.6605,536.0152536701498
1193.5888,376.85724153774936
1195.5163,342.8104620452141
1197.4432,195.1757837336918
1199.3693,147.00407171617553
1201.2947,-11.703810846032866
1203.2193,14.75299773831648
1205.1432,81.42547608153109
1207.0664,165.41460264840134
1208.9889,177.42135508945648
1210.9106,260.59670940110664
1212.8316,294.59163980558515
1214.7519,349.15711791918875
1216.6715,367.7941124123172
1218.5903,425.80358846380113
1220.5084,343.0365075745649
1222.4257,414.9938269874765
1224.3424,222.22650051506935
1226.2583,335.4354778199995
1228.1735,413.72170634262875
1230.0879,496.5861301689947
1232.0016,675.0296892479128
1233.9146,704.0033185623615
1235.8269,606.4579463450282
1237.7384,582.4944937885884
1239.6492,282.463876021171
1241.5592,250.96700234597301
1243.4686,101.70477924157603
1245.3772,46.028110676914366
1247.285,1.4378996038976766
1249.1922,-65.11495148585163
1251.0986,22.270445534675673
1253.0042,-59.85437070918124
1254.9092,80.56213818525066
1256.8134,150.07210856577876
1258.7169,392.1276759746106
1260.6196,508.18097445326566
1262.5216,772.1341341219959
1264.4229,905.6892800192618
1266.3234,1067.8485294622042
1268.2232,1134.5139907110752
1270.1223,1144.9377613476645
1272.0207,1115.171927608615
1273.9183,1107.418564281208
1275.8151,1006.6797350010384
1277.7113,1010.057492329528
1279.6067,842.8038787613114
1281.5014,630.4209266904581
1283.3953,542.3106600830288
1285.2885,482.3250966008818
1287.181,453.01624848279243
1289.0727,532.8361231443305
1290.9637,517.9367234708843
1292.854,734.4200470195028
1294.7435,857.6380861678772
1296.6323,1110.7928259495347
1298.5204,1415.5862428216096
1300.4077,1721.620302133335
1302.2943,1945.2469550780734
1304.1802,2060.5681356330024
1306.0653,2015.8857583228491
1307.9497,1911.4517170666659
1309.8333,1858.16788562468
1311.7162,1926.7861186425907
1313.5984,2075.2082521844495
1315.4798,2187.8361030464584
1317.3605,2386.0214672727343
1319.2405,2604.6661190290397
1321.1197,2685.3218086209345
1322.9982,2602.4902603073133
1324.876,2681.9731714938825
1326.753,2645.7222135614466
1328.6293,2811.689031071084
1330.5048,2917.825242126677
1332.3796,2841.9324367152294
1334.2537,2862.612175645503
1336.127,2770.615991306953
1337.9996,2756.145387462908
1339.8714,2748.4518401705463
1341.7426,2684.7367979256123
1343.6129,2688.751681739326
1345.4826,2585.59788577554
1347.3515,2639.776777310617
1349.2196,2576.2396977649514
1351.087,2645.937962161188
1352.9537,2669.7228597595895
1354.8197,2898.795653361056
1356.6849,3096.6575790692586
1358.5493,3189.359843999933
1360.4131,3232.503624302255
1362.276,3124.9400642318287
1364.1383,2970.920275719247
1365.9998,2705.2953394457036
1367.8606,2429.466306383194
1369.7206,2184.6342004507933
1371.5799,2074.5500212728984
1373.4384,1963.9147466275936
1375.2962,1920.9293335474686
1377.1533,1568.5447194259905
1379.0096,1272.6618224473314
1380.8652,1078.331545110239
1382.7201,835.954777186831
1384.5742,589.5823976659449
1386.4275,494.76527717687713
1388.2802,398.1042804530989
1390.132,255.60026728043522
1391.9832,273.65409346369415
1393.8336,159.11661225167336
1395.6832,124.08867415665736
1397.5322,68.82112809974569
1399.3803,99.51482176117497
1401.2278,24.570602132971544
1403.0745,-5.36068478796733
1404.9204,-45.228193250448385
1406.7656,2.8189760499699332
1408.6101,40.732174247350486
1410.4538,-1.43724755239964
1412.2968,62.71206134930253
1414.139,46.68146600912587
1415.9805,192.7723308566492
1417.8213,240.18601985463465
1419.6613,397.17389503813683
1421.5006,610.4373160403738
1423.3391,872.4776385228288
1425.1769,1232.2462120426135
1427.0139,1791.9943774320927
1428.8502,2441.6234632011547
1430.6858,3064.284779939753
1432.5206,3476.1796138216196
1434.3547,3780.1092203776498
1436.188,3840.724820376956
1438.0206,3788.327596787556
1439.8524,3624.018694170234
1441.6835,3580.4492192025173
1443.5139,3552.0702423217626
1445.3435,3395.2827981608534
1447.1724,3435.137885831995
1449.0005,3365.7864704945605
1450.8279,3297.4294829565515
1452.6545,3292.367820368112
1454.4804,3366.602346905107
1456.3056,3384.0838938197267
1458.13,3233.863258698133
1459.9536,3136.991205285649
1461.7766,2804.2184649889896
1463.5987,2394.5957378449493
1465.4202,2005.7736958481619
1467.2409,1618.702987047338
1469.0608,1435.5342394334657
1470.88,1175.218064810495
1472.6984,986.8550606270292
1474.5161,763.3958125795107
1476.3331,658.8408964958544
1478.1493,586.6908805700259
1479.9648,536.6463264075719
1481.7795,465.05778974713394
1483.5935,452.22582096091355
1485.4067,379.50096577053773
1487.2192,404.93376537537915
1489.031,395.72475717982525
1490.842,371.42447453891145
1492.6522,411.88344685045377
1494.4618,351.55219979803223
1496.2705,376.831254946399
1498.0785,395.5711303447897
1499.8858,370.77234027414306
1501.6924,392.5353950596764
1503.4981,405.1608013188925
1505.3032,411.9490617439624
1507.1075,385.4506749754437
1508.911,387.8661355344193
1510.7138,378.5459340874768
1512.5159,347.24055742255223
1514.3172,357.800488542136
1516.1178,343.87620697632155
1517.9176,330.76818867721886
1519.7166,347.6269061581879
1521.515,308.40282862492313
1523.3126,312.0464218068664
1525.1094,264.1581483494301
1526.9055,245.93846777758154
1528.7008,252.78783697473045
1530.4954,168.20671036489512
1532.2893,201.94553984422964
1534.0824,146.4547756268512
1535.8747,194.8348659074145
1537.6663,187.18625741604046
1539.4572,178.15939493451515
1541.2473,213.50472137275938
1543.0367,168.77267785913136
1544.8253,187.7637033869396
1546.6132,211.9782352617658
1548.4003,158.81670891156682
1550.1867,247.22955764452126
1551.9723,270.01721318065756
1553.7572,284.8801047677116
1555.5414,291.5686589532597
1557.3247,361.3832994360746
1559.1074,380.27444699925763
1560.8893,479.6425188120993
1562.6705,482.6879282411428
1564.4509,578.0110838565088
1566.2305,663.3623894014563
1568.0094,846.8422428391314
1569.7876,959.5510354990693
1571.565,1064.4391502423932
1573.3417,1107.3569603347205
1575.1176,1131.4548283973018
1576.8928,1098.4331059778306
1578.6672,1043.3421333094775
1580.4409,942.4322396410753
1582.2138,837.1037437880768
1583.986,736.8569551416076
1585.7575,647.0421747217624
1587.5282,558.7596961800919
1589.2981,547.7598066977225
1591.0673,469.0927878682014
1592.8358,471.9089158074712
1594.6035,522.7584619405679
1596.3704,448.99169297342814
1598.1366,473.1588703844063
1599.9021,529.6602511619494
1601.6668,523.9960875629149
1603.4308,582.1166265475586
1605.194,698.8221098361682
1606.9564,758.4627733278903
1608.7182,911.4888459336617
1610.4791,1040.9505489797812
1612.2394,1180.4980946776886
1613.9988,1381.7316848293194
1615.7576,1659.051509431647
1617.5156,1907.707744664338
1619.2728,2175.9005501165666
1621.0293,2353.080066300423
1622.785,2452.2964119690023
1624.54,2372.449682344608
1626.2942,2257.8399481265697
1628.0477,1993.2672562897478
1629.8005,1727.6316312306099
1631.5525,1511.1830774129703
1633.3037,1328.6715820243298
1635.0542,1198.8471171403817
1636.804,1043.4096415501026
1638.553,961.5091020540021
1640.3013,926.0454350185046
1642.0488,881.6185671949461
1643.7955,899.7784160742103
1645.5416,909.3748903310006
1647.2868,984.207889642259
1649.0313,1055.5773045911847
1650.7751,1202.783015918907
1652.5181,1417.074893810799
1654.2604,1637.7527964243964
1656.0019,1959.3165677465058
1657.7427,2339.5160353864158
1659.4828,2730.401007360266
1661.222,2997.021268289045
1662.9606,3066.8765754897286
1664.6984,2943.816656309109
1666.4354,2615.091207425212
1668.1717,2196.599896077905
1669.9072,1702.7923633561513
1671.642,1404.4182283829086
1673.3761,1096.2270932532192
1675.1094,893.3685460179549
1676.8419,769.4921637657226
1678.5737,619.7975146514491
1680.3048,526.6841591351495
1682.0351,455.2516514788713
1683.7646,360.79954067782455
1685.4934,361.37737117470897
1687.2215,296.23468380423765
1688.9488,262.92101578736583
1690.6754,210.93590138270338
1692.4012,212.97887221966994
1694.1263,206.54945781832976
1695.8506,226.64718556896514
1697.5742,212.22158079636574
1699.297,164.77216655886514
1701.0191,119.14846379258051
1702.7404,112.79999178591788
1704.461,113.27626863580372
1706.1808,78.87681131116551
1707.8999,92.2511356481773
1709.6182,51.64875669424691
1711.3358,61.56918857427445
1713.0527,47.71194489668778
1714.7688,44.32653865422071
1716.4841,36.51248236250467
1718.1987,50.21928809390374
1719.9126,41.79646755564863
1721.6257,42.243531952794
1723.338,43.10999207242821
1725.0496,6.245358279213178
1726.7605,28.349140506721596
1728.4706,11.720848626075167
1730.18,-45.940007775087
1731.8886,-33.03391922634728
1733.5964,-24.510917316609266
1735.3036,2.0792963740695996
1737.0099,18.28726512969297
1738.7156,16.613532213474173
1740.4204,-32.99135929424119
1742.1246,6.323133520763804
1743.8279,17.007883156386015
1745.5306,50.61376204730004
1747.2325,47.49164245810607
1748.9336,12.342396147269028
1750.634,1.8668943983320787
1752.3336,31.366008371418502
1754.0325,70.59060920798584
1755.7307,56.39156773583636
1757.4281,86.6697540768655
1759.1247,95.22603778905614
1760.8206,127.01128756370599
1762.5158,140.97637113985002
1764.2102,104.37215498641126
1765.9039,110.14950416255851
1767.5968,104.1592826837441
1769.289,63.85235346392619
1770.9804,89.0295783754882
1772.6711,132.49181865229184
1774.361,135.58993463791012
1776.0502,142.9247853509969
1777.7386,155.09722845431497
1779.4263,150.90812018138422
1781.1132,152.5083152147563
1782.7994,150.0486667279074
1784.4849,180.93002636922938
1786.1696,165.75324428663407
1787.8535,185.46916881872858
1789.5367,186.37864664659173
1791.2192,211.88252259661203
1792.9009,147.93163963140069
1794.5818,215.37683859474964
1796.2621,203.5689588511359
1797.9415,222.0088376112799
1799.6202,216.44731005020913
1801.2982,224.18520912287568
1802.9755,212.12336561974917
1804.6519,260.36260808946827
1806.3277,208.85376295944116
1808.0027,245.39765405344588
1809.6769,237.0451031067314
1811.3504,229.99692940056957
1813.0231,236.90394984579143
1814.6951,252.96697905327164
1816.3664,274.43682926485053
1818.0369,275.9643101926995
1819.7067,268.75022880462166
1821.3757,292.9453893087866
1823.044,261.5505932258493
1824.7115,308.86663914702694
1826.3783,271.6943230480356
1828.0443,287.4844378159323
1829.7096,283.3877736208324
1831.3741,310.4051177580095
1833.0379,342.1372546888724
1834.701,320.7349657707837
1836.3633,330.19902893974177
1838.0248,334.9302189244099
1839.6856,335.4793071514632
1841.3457,371.09706169828496
1843.005,363.6842472874723
1844.6636,397.74162493066433
1846.3214,380.7699520026563
1847.9785,398.0699819008332
1849.6349,390.29246421488824
1851.2904,393.7881445538096
1852.9453,415.5577646236743
1854.5994,405.4520621926822
1856.2528,430.82177087346645
1857.9054,439.76762022413095
1859.5572,449.09033549456944
1861.2083,462.1906375370054
1862.8587,503.3192427127633
1864.5084,491.47686276127206
1866.1572,481.96420438876885
1867.8054,428.681969386731
1869.4528,464.33085472700077
1871.0994,458.4615530946103
1872.7453,485.12475253127377
1874.3905,487.9711364940995
1876.0349,475.3513835889444
1877.6786,547.3661675419644
1879.3215,525.116157325816
1880.9637,529.7520164394955
1882.6051,540.8744031308452
1884.2458,538.5839703501861
1885.8858,501.03136563910266
1887.525,517.467231153345
1889.1634,516.5422040383546
1890.8011,513.7069162649022
1892.4381,511.7119946383482
1894.0743,556.4580608269771
1895.7098,541.595731381969
1897.3446,547.9756172899179
1898.9786,536.1483241214737
1900.6118,543.514451967525
1902.2443,520.6245955574941
1903.8761,530.3293441856658
1905.5071,524.0292819400765
1907.1374,527.2749876054841
1908.7669,511.71703472634726
1910.3957,537.3559915743826
1912.0237,476.5924213041453
1913.651,521.1768816966342
1915.2776,523.0099257669281
1916.9034,501.9421013183455
1918.5285,470.17395092410516
1920.1528,441.7060121380073
1921.7764,474.28881781212476
1923.3992,465.12289638147195
1925.0213,427.1087715381873
1926.6427,426.7469623231791
1928.2633,422.33798350626785
1929.8832,428.4323455898084
1931.5023,422.4305548527791
1933.1207,394.93311328983873
1934.7383,448.04051867134876
1936.3552,414.10326481835
1937.9714,414.3718410714773
1939.5868,404.7467326303413
1941.2015,379.9784205508349
1942.8154,371.7173818413885
1944.4286,363.2640897106612
1946.041,340.41901365013837
1947.6528,323.7326195186779
1949.2637,335.9553697709398
1950.8739,319.5377236242748
1952.4834,341.18013693646935
1954.0921,342.0830623699494
1955.7001,317.6469491753378
1957.3074,334.0722431824379
1958.9139,331.3593870445784
1960.5197,334.70882007437285
1962.1247,307.7709782708462
1963.729,286.5462942859376
1965.3325,268.7351976938771
1966.9353,306.18811520344207
1968.5374,292.5554708360578
1970.1387,273.187685551271
1971.7393,249.4351773830731
1973.3392,254.14836163358268
1974.9383,241.87765111057706
1976.5366,240.2234560803463
1978.1342,240.3361843904113
1979.7311,248.26624148606516
1981.3273,230.3140304092385
1982.9227,254.8299517192063
1984.5173,254.01440367210944
1986.1112,232.56778197578933
1987.7044,242.3904797979576
1989.2968,218.33288798065405
1990.8885,233.19539494200853
1992.4795,248.12838691683555
1994.0697,232.63224780799283
1995.6592,222.8073590370659
1997.2479,234.2540996993157
1998.8359,211.27284666193736
2000.4232,202.36397444958493
2002.0097,189.72785547418152
2003.5955,196.81486012402092
2005.1805,231.02535689011438
2006.7648,214.75971229533025
2008.3484,213.61829055228463
2009.9312,255.9514537260029
2011.5133,209.25956174533349
2013.0946,205.49297197961278
2014.6752,226.0020397055887
2016.2551,221.88711814508406
2017.8342,191.0985582599087
2019.4126,189.73670879300153
2020.9902,193.60191657632276
2022.5672,207.44452654446286
2024.1433,208.91488169599688
2025.7188,161.51332295505927
2027.2935,172.690189156634
2028.8674,178.29581752057766
2030.4406,170.43054353984098
2032.0131,169.3947009244157
2033.5849,177.88862167999105
2035.1559,212.862636118316
2036.7261,213.3670727722565
2038.2957,185.85225804605398
2039.8645,187.71851621028327
2041.4325,216.7161696769981
2042.9998,194.3955389810735
2044.5664,206.25694249022035
2046.1323,214.90069662820133
2047.6974,207.17711575621433
2049.2617,207.38651208645206
2050.8254,186.17919575934138
2052.3883,229.4554748414439
2053.9504,220.315655537539
2055.5118,198.26004175785147
2057.0725,161.33893520945367
2058.6325,195.80263561682204
2060.1917,196.3014410910473
2061.7502,181.2856477851965
2063.3079,173.00554988932345
2064.8649,166.26143978062828
2066.4212,163.1536081062577
2067.9767,192.3823438507443
2069.5315,179.59793436709333
2071.0856,153.70066508448417
2072.6389,137.7408196361248
2074.1915,141.6686801182159
2075.7433,106.78452724955241
2077.2945,137.73864033224436
2078.8448,131.93129760055945
2080.3945,133.41277591137896
2081.9434,134.83335080227062
2083.4916,142.29329647668146
2085.039,142.04288578972682
2086.5857,146.2823901735892
2088.1317,134.76207964002424
2089.677,136.9322227379689
2091.2215,126.84308666874495
2092.7652,136.1949372643585
2094.3083,124.188039088388
2095.8506,162.5726553424638
2097.3921,149.9990479863427
2098.933,167.76747735406116
2100.4731,157.42820227966877
2102.0124,163.3814799195443
2103.5511,177.3775658557861
2105.089,167.36671403668333
2106.6261,172.54917663674587
2108.1626,166.37520415682866
2109.6983,166.9950453722904
2111.2332,181.75894739474734
2112.7675,202.66715566587027
2114.301,153.61991380973996
2115.8337,177.21746342376719
2117.3657,183.46004456916762
2118.897,193.34789553498285
2120.4276,172.73125277566396
2121.9575,147.26035081218106
2123.4866,181.13542243819575
2125.0149,197.6066989747651
2126.5426,156.8744099315918
2128.0695,174.38878284231214
2129.5956,191.45004367182355
2131.1211,191.65841664113668
2132.6458,168.16412405676874
2134.1698,202.81738630865402
2135.693,190.76842210508585
2137.2155,168.11744812618417
2138.7373,170.0646791443869
2140.2584,177.810328250961
2141.7787,175.95460683653346
2143.2983,175.54772451363078
2144.8171,160.9398891352348
2146.3353,176.8813067988549
2147.8527,141.9721819926017
2149.3693,172.11271743577436
2150.8853,169.65311442795155
2152.4005,147.99357254758797
2153.9149,155.1342896766073
2155.4287,133.57546221699977
2156.9417,193.26728501941216
2158.454,161.40995159874637
2159.9655,179.00365353722918
2161.4764,166.09858080299
2162.9865,167.3449215741266
2164.4958,188.29286236774988
2166.0045,159.7925880275252
2167.5124,182.24428151419306
2169.0195,177.74812419056616
2170.526,190.2042955970228
2172.0317,173.71297349646284
2173.5367,168.12433374974444
2175.0409,166.53855048059995
2176.5445,191.4557961315213
2178.0473,177.8762414796156
2179.5494,172.70005538743862
2181.0507,172.12740493878937
2182.5513,170.6584554904657
2184.0512,187.59337067799515
2185.5504,175.8823124303217
2187.0488,161.9254408004599
2188.5465,162.0229140825959
2190.0435,153.72488895166407
2191.5397,158.48152046237192
2193.0353,147.79296213218095
2194.5301,143.55936589373505
2196.0241,141.48088220175669
2197.5175,150.85766007536859
2199.0101,151.38984711889043
2200.502,136.82758942806595
2201.9931,131.82103158474638
2203.4835,114.57031680250475
2204.9733,113.87558697670465
2206.4622,112.5369828570092
2207.9505,114.80464405433395
2209.438,143.5787090542226
2210.9248,116.859315194175
2212.4109,111.4465983759037
2213.8962,103.89069333253428
2215.3809,117.3417336827224
2216.8648,101.69985200623069
2218.3479,100.01517970939949
2219.8304,105.93784718158167
2221.3121,95.0679838119795
2222.7931,114.8557179304189
2224.2733,98.20117691604992
2225.7529,92.80448699946373
2227.2317,75.06577342924265
2228.7098,100.28516052592568
2230.1872,88.9627718593947
2231.6638,80.64872999668023
2233.1397,78.09315661518849
2234.6149,102.59617258583876
2236.0894,90.20789799862087
2237.5632,90.52845191756023
2239.0362,73.65795250460906
2240.5085,87.64651701643106
2241.9801,77.99426197311823
2243.4509,68.55130301829377
2244.921,70.76775501564316
2246.3904,70.54373214334555
2247.8591,70.62934787189897
2249.3271,68.07471496637118
2250.7943,65.47994548553834
2252.2608,61.34515080743313
2253.7266,61.07044165528987
2255.1917,64.15592813889452
2256.656,30.15171975733392
2258.1197,56.35792536813551
2259.5826,50.72465352731433
2261.0447,42.70201222730611
2262.5062,57.14010895330648
2263.9669,52.73905076349183
2265.4269,74.04894414463706
2266.8862,71.16989505613037
2268.3448,70.45200871687393
2269.8026,69.24538963407213
2271.2598,78.55014161041163
2272.7162,76.16636775613006
2274.1719,74.6441703959672
2275.6268,76.3336510930003
2277.0811,75.28491066386687
2278.5346,63.948049161870586
2279.9874,72.82316588747017
2281.4395,88.51035950164169
2282.8908,89.75972793713481
2284.3414,79.9713682415977
2285.7914,78.04537656508182
2287.2406,87.43184825793196
2288.689,80.18087789003494
2290.1368,94.64255915696594
2291.5838,94.61698495248947
2293.0302,88.05424722394582
2294.4758,102.90443697251067
2295.9206,71.41764431881802
2297.3648,74.14395835445521
2298.8082,94.63346745683793
2300.251,86.5862592619469
2301.693,88.65242045942341
2303.1343,104.63203687305304
2304.5748,82.42519344009452
2306.0147,90.58197405148803
2307.4538,82.20246177392437
2308.8922,68.1367387682767
2310.3299,82.18488637339442
2311.7669,74.94698524675869
2313.2031,71.42311522400769
2314.6387,85.01335539131014
2316.0735,91.56778412060567
2317.5076,72.1864789337028
2318.941,78.71951643673219
2320.3737,72.16697251396363
2321.8056,64.97892226247541
2323.2369,78.4554400576767
2324.6674,74.79659962519327
2326.0972,79.75247390609547
2327.5263,89.47313509348987
2328.9547,51.2086545829593
2330.3823,86.55910287535517
2331.8092,89.17454995944308
2333.2355,77.45506495839936
2334.661,78.80071610365849
2336.0858,77.61157085210652
2337.5098,76.78769587262559
2338.9332,94.62915705798423
2340.3558,88.63601953307443
2341.7778,88.3583474764987
2343.199,73.29620418050172
2344.6195,87.29965205374856
2346.0393,91.31875277194513
2347.4583,99.3035671378002
2348.8767,97.40415504083967
2350.2943,77.470575377557
2351.7113,87.10288607040366
2353.1275,104.05114426712998
2354.543,88.31540624445961
2355.9578,90.29572723860656
2357.3718,99.04216160263013
2358.7852,83.20476278663364
2360.1978,85.33358325030258
2361.6098,85.5286746212737
2363.021,64.34008767384785
2364.4315,90.067872327038
2365.8413,62.46207785645811
2367.2504,78.87275263704396
2368.6587,71.49994441911122
2370.0664,73.6937001642491
2371.4733,62.30406611904846
2372.8795,60.28108779316335
2374.285,66.6748100732093
2375.6899,55.78527724299602
2377.0939,62.2625329195871
2378.4973,66.2066201621933
2379.9,53.56758140740067
2381.3019,54.34545842973057
2382.7032,42.49029246802684
2384.1037,48.35212421768074
2385.5035,43.630993949182084
2386.9027,37.92694144949928
2388.3011,36.14000606929176
2389.6987,50.620226779953555
2391.0957,41.71764219147872
2392.492,51.582290407661276
2393.8876,29.414209115122958
2395.2824,29.513435484663205
2396.6765,35.03000639294214
2398.07,27.513958421484404
2399.4627,23.36532780151765
2400.8547,34.53415048913166
2402.246,29.170462206765933
2403.6366,27.37429833151873
2405.0265,24.745693948785174
2406.4156,13.284683870218942
2407.8041,27.641302660015754
2409.1918,28.41558474952626
2410.5789,30.4575642936843
2411.9652,21.267275163270824
2413.3508,10.794750924483196
2414.7358,9.390024930844902
2416.12,2.303130427931137
2417.5035,26.634100567418955
2418.8863,17.88296847795391
2420.2684,27.349767021845764
2421.6497,10.434528882574341
2423.0304,4.587286470125946
2424.4104,8.958072090142196
2425.7896,6.746918002394523
2427.1682,7.153856377077318
2428.546,6.028919316915108
2429.9232,12.522138853096294
2431.2996,23.133546956523332
2432.6753,19.813175472877447
2434.0503,14.461056016505154
2435.4246,31.777220003623825
2436.7982,6.061698705842446
2438.1711,0.7145230769979207
2439.5433,3.1357240103116055
2440.9148,6.125325260918544
2442.2856,15.533350552597312
2443.6557,14.959823547876113
2445.025,6.704767753949
2446.3937,18.36820652841152
2447.7617,18.800163161815362
2449.1289,7.800660761029576
2450.4955,20.769722244924196
2451.8613,40.95737045436317
2453.2265,22.313628022514877
2454.5909,35.938517172975935
2455.9546,33.28205990620927
2457.3177,29.04427786329188
2458.68,27.67519235248301
2460.0416,39.17482439160085
2461.4025,51.393194721713826
2462.7627,43.580323692141974
2464.1222,21.336231138273433
2465.4811,44.760936459698314
2466.8392,51.20445884264245
2468.1966,33.01681702572523
2469.5533,52.14802923552179
2470.9093,55.498113368440045
2472.2645,45.567086799409026
2473.6191,51.154966348380185
2474.973,52.81176837963221
2476.3262,38.987508745897685
2477.6787,50.78220277179025
2479.0305,38.24586539205302
2480.3816,54.22851103360517
2481.7319,49.58015374090928
2483.0816,46.950807016142335
2484.4306,23.040483865683655
2485.7789,42.999196826406205
2487.1264,34.026958204779476
2488.4733,37.27377987728369
2489.8195,43.589673380128716
2491.165,35.224649876789044
2492.5097,36.82872009484299
2493.8538,35.151894409623765
2495.1972,18.694182828176054
2496.5398,22.055595006027943
2497.8818,32.786140411766155
2499.2231,32.58582829342458
2500.5637,23.40466757117474
2501.9035,33.74266683932956
2503.2427,23.199834458155692
2504.5812,35.67617845049426
2505.919,35.77170660718821
2507.256,42.786426362323255
2508.5924,41.52034479226859
2509.9281,38.823468545531796
2511.2631,35.695803855416216
2512.5974,40.98735656699273
2513.9309,34.19813216837565
2515.2638,34.02813573780713
2516.596,48.32737201154805
2517.9275,26.195845385580014
2519.2583,30.13355977260926
2520.5884,39.09051882338554
2521.9178,31.01672588732572
2523.2465,32.11218392294086
2524.5745,22.426895578576023
2525.9018,32.660863181454715
2527.2284,33.06408883453287
2528.5543,23.736574314158588
2529.8796,43.42832106604192
2531.2041,36.439330298525874
2532.5279,48.769602785673214
2533.851,46.419138937154
2535.1735,55.63793867494405
2536.4952,43.37600145682927
2537.8163,56.13332618421555
2539.1366,54.15991132474983
2540.4562,48.455754784747114
2541.7752,50.520853928923316
2543.0935,54.305205637437666
2544.411,35.65880628524201
2545.7279,57.13165170423645
2547.0441,59.17373736973241
2548.3596,64.88505818572685
2549.6744,71.16560846447874
2550.9885,62.76538186939888
2552.3019,63.18437135224258
2553.6146,69.97256923711211
2554.9266,76.77996721626732
2556.2379,83.20655628224404
2557.5485,82.15232665977965
2558.8585,81.7172677415474
2560.1677,92.10136809869755
2561.4762,74.2546154852098
2562.7841,86.72699673405077
2564.0913,88.71849793564161
2565.3977,90.37910431313412
2566.7035,81.15880020249642
2568.0086,87.50756903590764
2569.313,106.92539343395674
2570.6167,103.11225514215948
2571.9197,101.01813483677779
2573.222,108.34301216295307
2574.5236,104.18686575564584
2575.8246,101.94967316638758
2577.1248,101.73141090484205
2578.4244,115.93205446117645
2579.7232,107.95157830824633
2581.0214,110.38995575958711
2582.3189,122.39715904922036
2583.6157,136.72315930726745
2584.9118,138.11792643988065
2586.2072,126.83142898598203
2587.5019,121.31363410331255
2588.7959,128.16450768130153
2590.0893,127.93401439624199
2591.3819,155.57211764278327
2592.6739,138.22877953623447
2593.9652,146.25396063618564
2595.2557,150.39762011993798
2596.5456,154.60971570225593
2597.8348,161.04020359392825
2599.1234,155.03903845964624
2600.4112,164.0561733537029
2601.6983,158.79155977999812
2602.9848,145.99514760187162
2604.2705,150.81688509474998
2605.5556,162.10671907410892
2606.84,148.9145948472576
2608.1237,157.34045610043813
2609.4067,148.13424503074907
2610.689,143.49590226188502
2611.9707,143.57536693619932
2613.2516,147.37257676108766
2614.5319,151.2874680081925
2615.8115,142.71997547543174
2617.0903,139.6200324478491
2618.3685,143.18757078328986
2619.6461,143.572520943399
2620.9229,136.92481195794562
2622.199,157.4943714209769
2623.4745,144.3811255572905
2624.7493,154.23499901674404
2626.0234,143.55591500538299
2627.2968,159.4437951869038
2628.5695,148.49855978944584
2629.8415,137.3701274467105
2631.1128,136.75841530741536
2632.3835,148.31333914657694
2633.6535,157.38481337162898
2634.9228,141.8727509068724
2636.1914,149.22706310276226
2637.4593,156.94765989102598
2638.7265,155.08444971112135
2639.9931,139.68733943303027
2641.259,154.7062343758903
2642.5242,140.79103846196654
2643.7887,132.19165406646198
2645.0525,137.00798215666964
2646.3156,146.0399223779675
2647.5781,129.5873730056535
2648.8398,137.2502308546284
2650.1009,132.5783914439187
2651.3613,135.12174892004896
2652.6211,135.88019610376023
2653.8801,133.90362446457857
2655.1385,137.89192411322756
2656.3961,133.0449838213956
2657.6531,127.91269098185217
2658.9094,136.84493165691697
2660.1651,147.74159062978356
2661.42,138.00255131519657
2662.6743,154.42769565048616
2663.9279,143.16690419295787
2665.1808,148.37005595564028
2666.433,153.13702851989387
2667.6846,155.31769798337882
2668.9354,167.61193891238486
2670.1856,172.8696243200268
2671.4351,165.14062554330053
2672.6839,165.02481219050765
2673.9321,169.57205221854338
2675.1795,169.43221193405566
2676.4263,178.05515594797157
2677.6724,178.74074717689632
2678.9179,166.58884675688364
2680.1626,183.54931403657997
2681.4067,182.22200669874383
2682.6501,187.3567805906407
2683.8928,185.7034897373178
2685.1348,178.46198629025434
2686.3761,173.5821205438956
2687.6168,167.01374100806743
2688.8568,168.9566944567755
2690.0961,162.0108259938886
2691.3348,161.42597903370984
2692.5727,157.20199537043436
2693.81,151.488715183998
2695.0466,155.68597708231732
2696.2826,144.34361815842271
2697.5178,154.61147394848467
2698.7524,157.28937854523974
2699.9863,159.87716449530876
2701.2195,159.97466277242188
2702.452,171.88170275153766
2703.6839,158.64811220786942
2704.9151,160.773717197814
2706.1456,165.40834219128806
2707.3755,166.35181005047252
2708.6046,192.3539419834649
2709.8331,194.81455753484624
2711.0609,203.63347432565774
2712.2881,204.3605080287955
2713.5145,217.09547228082124
2714.7403,225.43817867469215
2715.9654,222.28843663241037
2717.1899,232.94605332159858
2718.4136,253.5108336869946
2719.6367,256.5325803438768
2720.8591,270.66109337241573
2722.0809,267.94617028745665
2723.3019,283.8876058972353
2724.5223,301.685192330526
2725.7421,297.73871887722885
2726.9611,293.7479718103925
2728.1795,291.1127344256786
2729.3972,291.2827870812687
2730.6142,270.35790722421734
2731.8306,269.08786938875187
2733.0462,245.57244540551983
2734.2612,222.56140441429125
2735.4756,197.30451309911155
2736.6892,194.80153591841213
2737.9022,171.30223535758023
2739.1145,155.056371953988
2740.3262,142.91370453198647
2741.5372,131.5239903653619
2742.7475,112.58698529876597
2743.9571,103.60244386161048
2745.1661,107.32011945743875
2746.3744,87.73976445377002
2747.582,75.06113014492257
2748.7889,71.63396694781886
2749.9952,58.45802452877024
2751.2008,59.783051837749326
2752.4057,54.35879724014944
2753.61,37.38500850353216
2754.8136,44.06143285187272
2756.0165,39.33781713529629
2757.2188,40.41390776331559
2758.4204,48.83945075206657
2759.6213,19.41419171354596
2760.8215,42.8878757713569
2762.0211,33.36024785496147
2763.22,27.83105246494324
2764.4182,21.550033768284948
2765.6158,12.816935653658675
2766.8127,10.631501794236328
2768.009,12.243475735021775
2769.2045,8.802600914704726
2770.3994,6.908620649539898
2771.5936,-8.738721832243527
2772.7872,-12.68968337150045
2773.9801,-12.244433509256623
2775.1723,-17.153015016600875
2776.3639,-23.11534834273175
2777.5548,-14.081182578228436
2778.745,-18.05003589133935
2779.9346,-17.671285779300206
2781.1235,-3.1941294194873535
2782.3117,-3.117587453133183
2783.4992,-11.990648612118093
2784.6861,-8.962270483623797
2785.8723,-15.1312908682537
2787.0579,2.7035419664703113
2788.2428,1.6436309146213262
2789.427,5.890378843237386
2790.6106,21.195188602920325
2791.7935,18.8594629853701
2792.9757,28.484604570334795
2794.1573,45.672015748968306
2795.3382,53.67309862757929
2796.5184,73.03925485575678
2797.698,72.32188554636082
2798.8769,93.62239108185895
2800.0551,107.94217112150068
2801.2327,114.08262438831275
2802.4096,133.04514852590023
2803.5859,163.23114003704268
2804.7615,176.59199409406847
2805.9364,197.07910423699718
2807.1106,230.39386223992778
2808.2842,259.93765790617
2809.4572,288.76187873509343
2810.6294,306.5179096266929
2811.801,353.60713259334466
2812.972,394.18092658224487
2814.1423,429.99066700452113
2815.3119,483.9377253294906
2816.4808,544.7734687265656
2817.6491,570.7992595257817
2818.8167,624.6164546094396
2819.9837,675.8764051518478
2821.15,726.0304560811489
2822.3157,769.2799455667221
2823.4807,800.1762045176415
2824.645,842.8205561501829
2825.8086,866.2643156788592
2826.9716,903.5087898899776
2828.134,949.455276907204
2829.2957,984.855065819118
2830.4567,1005.259436219746
2831.617,1022.2196578545643
2832.7767,1040.7369904164555
2833.9358,1047.612683376105
2835.0941,1030.0979757968307
2836.2519,1009.2940962658231
2837.4089,1000.0522630692942
2838.5653,1000.3236844005166
2839.7211,992.5095584522405
2840.8761,1004.5610734139786
2842.0306,1015.9294075501507
2843.1843,1070.2657290795646
2844.3374,1119.0711960617352
2845.4899,1163.5969558535205
2846.6417,1257.6941446210665
2847.7928,1328.6638868945506
2848.9433,1403.9572946272103
2850.0931,1494.175466485644
2851.2422,1572.7194870968785
2852.3907,1641.5904261461858
2853.5385,1703.4893375916433
2854.6857,1764.767258975426
2855.8323,1820.1252108048147
2856.9781,1842.7641959394184
2858.1233,1902.5851990375945
2859.2679,1954.5391863300588
2860.4118,1991.977105021675
2861.555,2018.849882771917
2862.6976,2056.4584273204864
2863.8395,2080.003626218589
2864.9808,2106.7363464528444
2866.1214,2117.807434209838
2867.2614,2130.2677146087894
2868.4007,2141.8179915908477
2869.5393,2150.3590477944836
2870.6773,2156.19164443999
2871.8146,2178.9165212440676
2872.9513,2180.4343963615042
2874.0874,2175.7959661579207
2875.2227,2163.8519051945946
2876.3574,2136.8028662748447
2877.4915,2097.9994805634715
2878.6249,2092.492357857246
2879.7577,2066.9820869729456
2880.8898,2033.619235802423
2882.0212,2021.7043515677133
2883.152,2007.3879611546593
2884.2821,2004.4205712320615
2885.4116,2001.7026683948407
2886.5405,1989.1347191937143
2887.6686,1990.7171701623724
2888.7962,2007.5504479431588
2889.923,2018.284959271246
2891.0493,2021.4210908063012
2892.1748,2039.0092090251433
2893.2997,2040.6496601903816
2894.424,2061.8927701745324
2895.5476,2072.988844443617
2896.6706,2104.738167844729
2897.7929,2124.191004495075
2898.9145,2163.9475974644783
2900.0355,2176.2581685808536
2901.1559,2219.2229180326403
2902.2756,2259.542024245695
2903.3946,2280.665643453647
2904.513,2315.7439092947047
2905.6308,2364.0269326004213
2906.7479,2365.814801044911
2907.8643,2390.1575786620188
2908.9801,2409.0553058274427
2910.0953,2421.0579990153055
2911.2098,2412.465650609177
2912.3236,2390.428228782047
2913.4368,2395.49567758225
2914.5494,2375.3179171538395
2915.6613,2354.644843685912
2916.7725,2334.126329614385
2917.8831,2306.5622238287306
2918.9931,2264.0023518771554
2920.1024,2229.146516242246
2921.211,2216.194496766566
2922.319,2210.146051001214
2923.4264,2208.550914335343
2924.5331,2171.5588000566486
2925.6391,2168.469399367316
2926.7445,2151.8823817539424
2927.8493,2136.447395018433
2928.9534,2148.164065443867
2930.0569,2136.98199794885
2931.1597,2131.7007759703492
2932.2619,2114.019961575511
2933.3634,2107.6390955144752
2934.4643,2083.2576973971823
2935.5645,2080.375265757182
2936.6641,2051.5912782954492
2937.763,2003.705191909205
2938.8613,1957.6164429797582
2939.959,1901.624447851367
2941.056,1808.3286032921249
2942.1523,1731.4282870538823
2943.248,1640.622858805203
2944.3431,1560.4116609003688
2945.4375,1457.3940192874356
2946.5313,1369.6692443103414
2947.6244,1250.8866317390857
2948.7169,1143.245463646976
2949.8087,1048.0450095984538
2950.8999,970.1345277255064
2951.9904,890.5632656796706
2953.0803,829.8804614111393
2954.1696,764.9353439644728
2955.2582,721.3771340854269
2956.3462,686.7550448704035
2957.4335,640.9182822020339
2958.5202,605.4660450953988
2959.6062,576.4975261563977
2960.6916,567.1119119362695
2961.7764,540.1083832212787
2962.8605,533.7361151265706
2963.9439,520.5442773662069
2965.0267,525.4320343168895
2966.1089,515.098545149877
2967.1905,515.292963782109
2968.2714,511.06443897953966
2969.3516,522.0121143551941
2970.4312,521.1351284114535
2971.5102,521.2826144305791
2972.5885,540.1537004834809
2973.6662,534.1975094282432
2974.7432,525.5131587214148
2975.8196,516.0497604775684
2976.8954,511.0064215561463
2977.9705,507.8822436560931
2979.045,502.4263233662896
2980.1188,483.2877521967947
2981.192,479.36561663340535
2982.2645,444.20899832904
2983.3364,430.01697414296234
2984.4077,398.0386164923459
2985.4783,378.02299349419525
2986.5483,349.26916928513003
2987.6177,325.0762042215397
2988.6864,289.3431551671223
2989.7545,252.6190757348146
2990.8219,234.35301664412123
2991.8887,198.54402608835744
2992.9548,172.79114991730842
2994.0204,148.99343199531882
2995.0852,123.24991445882245
2996.1495,101.90963795431878
2997.2131,94.57164189580851
2998.276,67.48496467819666
2999.3383,54.448643750672204
3000.4,41.51171588757529
3001.4611,25.77321731876043
3002.5215,16.53218385896514
3003.5812,6.837651065196155
3004.6404,6.888654329138376
3005.6989,-6.71577102589913
3006.7567,-3.1765897454929473
3007.8139,-16.294699484667944
3008.8705,-6.170966164317861
3009.9264,-4.206092921288587
3010.9818,-5.7507212444743345
3012.0364,-8.355450603902113
3013.0905,-13.970823019893828
3014.1439,-1.847297041820525
3015.1966,-6.535191650531374
3016.2487,-4.184807372378486
3017.3002,-4.646379447149798
3018.3511,6.529898691591711
3019.4013,11.293880027613909
3020.4509,12.995417479386106
3021.4998,19.43436385243865
3022.5481,24.910571822348743
3023.5958,25.673893870350412
3024.6428,36.924182228572136
3025.6892,42.01128887240418
3026.735,52.735065407995194
3027.7802,53.04536302138138
3028.8247,53.64203237124843
3029.8685,64.37492358582858
3030.9118,74.69388625693466
3031.9544,87.84876933262979
3032.9963,92.28942101403948
3034.0376,96.46568862380275
3035.0783,112.32741856166524
3036.1184,115.67445626271649
3037.1578,121.3566460387716
3038.1966,123.97383104490154
3039.2348,134.32585322261093
3040.2723,142.81255327366637
3041.3092,147.78377055657597
3042.3455,142.4393430017219
3043.3811,153.8291070616492
3044.4161,137.70289776451
3045.4505,137.7105486001658
3046.4842,138.05189168144932
3047.5173,133.77675774408817
3048.5498,129.7849761432916
3049.5816,132.47637489650094
3050.6128,137.60078072330862
3051.6434,125.80801901854352
3052.6734,123.69791380102765
3053.7027,122.82028783150292
3054.7314,111.5749626337323
3055.7594,108.51175850327616
3056.7868,105.93049461994553
3057.8136,108.18098907843387
3058.8398,105.06305891413012
3059.8653,108.52652008061409
3060.8902,102.07118748083519
3061.9145,100.44687493247784
3062.9381,98.35339523251491
3063.9612,100.3405601734504
3064.9835,100.15818056425496
3066.0053,89.95606621049433
3067.0264,89.48402591615229
3068.0469,78.14186758565194
3069.0668,86.27939822857661
3070.086,77.4464240730913
3071.1046,72.19275048456706
3072.1226,77.46818205391133
3073.1399,62.02252265010378
3074.1567,58.355575367442725
3075.1727,52.71714268000113
3076.1882,39.857026478296916
3077.203,40.17502812567659
3078.2173,31.0709485869167
3079.2308,32.794588425044026
3080.2438,17.745747892375846
3081.2561,15.624226913283735
3082.2678,13.429825234682255
3083.2789,14.562342447243395
3084.2893,19.521578007341247
3085.2991,5.457331225726477
3086.3083,-2.180598782066056
3087.3169,4.45758704492539
3088.3248,5.671709551844344
3089.3321,-6.538410460741773
3090.3388,-7.922952248982199
3091.3449,-6.632029750305776
3092.3503,-1.6156777518488639
3093.3551,-0.7738647867703321
3094.3593,-4.6565432476085675
3095.3629,-0.16365779599311736
3096.3658,-2.2951065746864856
3097.3681,-2.55078609151019
3098.3698,-0.2805699261714949
3099.3708,-1.7843061760244154
3100.3713,1.6881598644703786
3101.3711,-0.062999273929222
3102.3702,-3.687611077346787
3103.3688,3.714497597456841
3104.3667,2.343536732955272
3105.364,8.549716274477646
3106.3607,2.533246143917779
3107.3568,4.094336177672631
3108.3522,4.083196186806447
3109.347,1.8000359414407399
3110.3412,6.345065170865155
3111.3348,9.36847562201001
3112.3277,9.970458978355225
3113.32,7.5512068296957295
3114.3117,6.760910666122072
3115.3028,11.499761902212924
3116.2932,19.967951884937975
3117.2831,13.065671846269083
3118.2723,17.443112818499003
3119.2608,18.200465703264
3120.2488,19.437921227769266
3121.2361,21.205669937215646
3122.2229,22.20390218242494
3123.209,23.682808102161914
3124.1944,20.64257761315315
3125.1793,22.483400395296826
3126.1635,25.105465922065832
3127.1471,28.558963442099298
3128.1301,27.594081952981753
3129.1125,29.661010166708138
3130.0942,30.40993651933286
3131.0753,27.19104915030033
3132.0558,33.35453589495597
3133.0357,35.200584316734705
3134.015,40.07938164552621
3134.9936,40.99111475921424
3135.9716,42.63597013488911
3136.949,42.06413383972992
3137.9258,45.775791514556374
3138.902,42.571128379546934
3139.8775,43.85032919712219
3140.8524,43.01357830399144
3141.8267,43.76105959836093
3142.8004,48.59295654830106
3143.7735,46.00945218427165
3144.7459,54.360729050803116
3145.7178,48.84696923233139
3146.689,56.41835426968541
3147.6596,53.525065215224515
3148.6295,52.11728255712458
3149.5989,60.69518624831102
3150.5676,57.10895572053653
3151.5357,62.758769798601946
3152.5032,63.74480673621866
3153.4701,58.567244159510636
3154.4364,57.026259057153794
3155.402,65.32202783215163
3156.367,64.95472631724533
3157.3315,62.62452969195587
3158.2952,64.58161248625714
3159.2584,67.17614860387798
3160.221,65.40831130273116
3161.1829,69.27827316896824
3162.1442,67.08620613465771
3163.105,71.13228143908546
3164.065,70.9166696506752
3165.0245,70.63954062652809
3165.9834,76.90106351457854
3166.9416,77.10140675636569
3167.8993,77.29073802441806
3168.8563,80.81922422025022
3169.8127,75.98703147246951
3170.7684,81.94432510149085
3171.7236,76.64126966785918
3172.6782,82.52802891267598
3173.6321,80.40476581063027
3174.5854,84.82164251113076
3175.5381,87.77882035953871
3176.4902,83.12645985299878
3177.4417,88.31472061086757
3178.3926,88.04376142123722
3179.3428,88.01374018905263
3180.2924,88.72481393882114
3181.2415,92.17713881491284
3182.1899,90.87087007444967
3183.1377,98.35616205278238
3184.0848,96.68316817655294
3185.0314,96.95204088884172
3185.9773,103.66293166589757
3186.9227,100.6659910144489
3187.8674,103.06136840459494
3188.8115,105.99921229977505
3189.755,104.82967013281495
3190.6979,106.45288827654817
3191.6402,106.61901205551163
3192.5818,108.92818572971348
3193.5229,116.03055249297158
3194.4633,112.2262544498221
3195.4031,111.91543254449569
3196.3423,114.39822659896053
3197.2809,115.22477531603045
3198.2189,118.6452162545371
3199.1563,122.80968582106445
3200.0931,123.26831923574429
3201.0292,121.6712504906116
3201.9648,126.11861234501815
3202.8997,122.16053634160323
3203.834,127.59715276182007
3204.7677,131.57859066551657
3205.7008,125.80497783656915
3206.6333,127.97644074306825
3207.5652,129.2431045950546
3208.4964,135.00509332280464
3209.4271,137.61252956416365
3210.3571,133.91553460692614
3211.2865,136.36422836276128
3212.2154,136.85872940418292
3213.1436,139.44915494006267
3214.0712,139.18562081068484
3214.9982,139.66824146184217
3215.9246,143.44712994747127
3216.8503,144.6723979248263
3217.7755,140.7941556166901
3218.7001,146.6125117991217
3219.624,152.42757384023835
3220.5473,148.53944764203243
3221.4701,153.54823758222037
3222.3922,149.70404655312436
3223.3137,157.7569759115841
3224.2346,157.45712551739888
3225.1549,159.45459365279828
3226.0746,156.99947702544057
3226.9937,156.44187074843808
3227.9121,158.93186836490844
3228.83,162.96956185355054
3229.7473,170.4550416037446
3230.6639,165.63839637517518
3231.5799,163.1197132229765
3232.4954,168.7990775458987
3233.4102,168.57657311149495
3234.3244,164.40228199932753
3235.238,170.32628460319302
3236.151,170.44865967286518
3237.0634,173.81948425485496
3237.9752,173.18883369118663
3238.8864,171.45678158568967
3239.797,175.7233998103052
3240.7069,181.33875852240658
3241.6163,180.50292612213303
3242.5251,177.06596919623632
3243.4332,178.72795252643886
3244.3408,190.08893912380336
3245.2477,180.94899021211285
3246.154,184.45816511426113
3247.0598,185.21652134365198
3247.9649,187.67411456910747
3248.8694,191.4809986072845
3249.7733,188.58722539809875
3250.6766,192.94284496665583
3251.5793,194.04790545218913
3252.4814,195.30245306450365
3253.3829,198.05653207292522
3254.2838,197.3101847937551
3255.1841,201.26345156272922
3256.0838,197.3163707424817
3256.9829,194.81897868301206
3257.8814,197.67130976115618
3258.7792,194.42339640556006
3259.6765,202.07526906815667
3260.5731,203.5269562566449
3261.4692,203.07848445797094
3262.3647,202.57987812381134
3263.2595,202.48115967505774
3264.1538,203.68234950680306
3265.0474,209.1334659893285
3265.9404,201.68452545609165
3266.8329,204.53554214921553
3267.7247,202.58652829397778
3268.616,205.18749407030054
3269.5066,204.23844763224074
3270.3966,200.73939508198015
3271.286,205.24034047931613
