RamanShift,CorrectedData
30.1047,4843.513704155586
32.3739,4524.4744531471215
34.6426,4210.335153703519
36.9109,3892.3457121448964
39.1787,3582.655992688022
41.4461,3267.9658206262015
43.7131,2956.7249854261827
45.9796,2641.633243875053
48.2456,2333.7903231926457
50.5112,2021.7459241824617
52.7764,1712.6497243100973
55.0411,1401.2013808236882
57.3054,1089.0505338448725
59.5692,788.1468094832737
61.8326,479.1398229580103
64.0955,179.02918160673164
66.3579,-118.23551202431048
68.6199,-415.3046571791563
70.8815,-678.9274719290813
73.1426,-876.5990254518355
75.4032,-891.3576044397257
77.6634,-431.3327383607957
79.9231,1170.054947979379
82.1824,5149.839138789279
84.4412,12776.253506576832
86.6995,24887.98167235158
88.9574,35801.55712936053
91.2148,43051.813121970874
93.4717,45144.132536534235
95.7282,45820.0978288841
97.9842,45953.641003412624
100.2398,45371.54360631102
102.4949,44779.83672423405
104.7495,44250.70099012106
107.0036,43385.716589113064
109.2573,43336.36326384402
111.5105,42392.22032309075
113.7632,42018.11664226644
116.0154,41754.98067286209
118.2672,41675.69044618752
120.5185,41232.87357600275
122.7693,40876.05725931092
125.0197,39906.6682807864
127.2696,40557.98301634301
129.519,39987.32744282789
131.7679,40050.07713150833
134.0163,38567.00725377839
136.2642,38565.092580531345
138.5117,38807.25749699039
140.7587,38161.22600272781
143.0052,37702.22170924333
145.2512,36717.61784642439
147.4967,37045.28726713624
149.7417,36448.252457067945
151.9863,36019.885531455686
154.2304,35330.458241053166
156.4739,35185.04197641519
158.717,35275.007774792
160.9596,34583.67632158344
163.2017,33686.867949439256
165.4433,33814.85264517243
167.6844,33099.85005872729
169.925,32992.92950189963
172.1651,32257.109955486732
174.4047,32013.56007035662
176.6439,31619.3981748062
178.8825,31141.642276996776
181.1206,31194.76006889568
183.3582,30778.26893105382
185.5954,30203.3859320745
187.832,29972.62783277835
190.0681,29328.361091952163
192.3037,29661.40186865644
194.5388,30007.066028668127
196.7734,28236.569141150114
199.0075,29281.77647519466
201.2411,28565.90301752835
203.4742,29044.463462060008
205.7068,28607.572217039437
207.9389,28330.493400271815
210.1704,28000.89084348662
212.4015,28374.62809510839
214.632,27401.368423552776
216.862,27890.124813489158
219.0915,27283.70997557323
221.3205,26918.786341559466
223.549,27276.31607036522
225.777,26943.661051720006
228.0044,27026.832902590173
230.2314,26548.192970505468
232.4578,26276.05233272734
234.6837,26128.771801035295
236.909,27058.411924448355
239.1339,25131.68299069782
241.3582,25560.545016930893
243.582,25271.80776897797
245.8053,25027.630757063987
248.0281,24812.47323869581
250.2503,24751.144221103994
252.472,24024.252463394358
254.6932,24206.506477161318
256.9139,23758.414533756764
259.134,24603.834662467543
261.3536,23271.424654996343
263.5727,23733.04205700754
265.7912,23269.39418145126
268.0092,23264.238103947224
270.2267,23264.180667421242
272.4436,22563.528482156715
274.6601,22778.98792579528
276.8759,22748.515150343275
279.0913,22167.06608001717
281.3061,22089.096411548326
283.5204,21826.461619997404
285.7341,21586.116959534167
287.9473,21850.967466063747
290.16,21292.117959630108
292.3721,21298.92304176757
294.5837,20681.837101089295
296.7947,20185.164313219226
299.0052,20852.058646962967
301.2152,20279.77386927449
303.4246,20332.91353858721
305.6334,19975.13101053681
307.8418,19032.529437429865
310.0495,18690.861771821692
312.2568,18317.730775942335
314.4635,17916.789025113205
316.6696,17926.988911478442
318.8752,17900.13264801431
321.0802,16586.422268427177
323.2847,16914.25962742212
325.4887,16613.446413840014
327.692,16178.834147379152
329.8949,16259.674181603365
332.0972,15776.667708288169
334.2989,15683.915756612336
336.5001,15744.769197987975
338.7007,14729.728746988047
340.9008,14976.994960737837
343.1003,14746.068249065334
345.2992,14772.298872028638
347.4976,14141.286942225175
349.6955,14107.132424529394
351.8927,13619.185142402923
354.0895,13742.744778236032
356.2856,13522.110878227199
358.4812,13634.68285114746
360.6763,12888.409970546796
362.8707,13222.891373628328
365.0646,12678.826068711132
367.258,12546.862931885371
369.4508,12034.90071245296
371.643,12526.53803424722
373.8346,12081.123400752454
376.0257,11977.35519018762
378.2162,11664.98165996041
380.4062,11085.350947705025
382.5956,11256.011074405847
384.7844,11051.809950193798
386.9726,11042.395372639672
389.1603,10845.865028796201
391.3474,10197.366495292204
393.5339,10509.897240297876
395.7199,9699.104630009759
397.9052,9646.335925525433
400.09,9674.588290951455
402.2743,9922.658793931012
404.4579,9432.344405361466
406.641,9377.341996913594
408.8235,9556.498345934742
411.0054,9474.560135998916
413.1868,9476.523955115124
415.3675,9217.486296546827
417.5477,9148.143558792239
419.7273,8967.392048174763
421.9064,8703.877979536359
424.0848,8617.94747804512
426.2627,8768.446581830329
428.4399,8020.821242841812
430.6166,7388.617325344945
432.7928,7587.630613396876
434.9683,6930.656817168645
437.1432,6779.241570954997
439.3176,6881.780439744107
441.4914,6186.2689207318035
443.6645,6163.102442296105
445.8371,6055.176370952358
448.0091,5672.336011584943
450.1806,5416.576608526477
452.3514,5284.693349386289
454.5216,5002.931367607947
456.6913,5109.185743788083
458.8603,5098.65150849404
461.0288,4666.223641201337
463.1967,4914.44707039895
465.3639,4805.766677913678
467.5306,4128.277296427841
469.6967,4362.073710566088
471.8622,4394.600663670339
474.0271,4114.5028554617675
476.1914,4161.424941715595
478.3551,4109.711537062016
480.5182,4406.157214517014
482.6807,3894.006505999445
484.8426,3993.0038993666603
487.0039,4469.493843535936
489.1647,4520.170747494558
491.3248,4077.078975534838
493.4843,4577.1628467474075
495.6432,4455.866639452179
497.8015,3798.1845861974216
499.9592,3943.5108749727515
502.1163,3813.9396557859945
504.2728,3576.565039209854
506.4287,3447.8810976776294
508.5839,2957.831867856992
510.7386,3019.1113519368228
512.8927,3007.963522527658
515.0461,2828.3823220489357
517.199,3086.21166284052
519.3512,2899.845428958477
521.5029,2816.027473596776
523.6539,3044.1016209509835
525.8043,2664.6616670563817
527.9541,2861.9013775072744
530.1033,2624.6644912513584
532.2519,2401.894718617361
534.3999,2556.0357436873674
536.5472,2718.981226524549
538.694,2310.0248016317273
540.8401,2679.6100763219583
542.9856,2701.5806348080732
545.1305,2785.9800345067997
547.2748,2523.201805819088
549.4185,2443.2394512860774
551.5615,2531.586448216898
553.704,2439.8362494882967
555.8458,2161.382282661172
557.987,2350.217950898077
560.1276,2558.1366357477673
562.2675,2569.7816952568246
564.4069,2785.946461890482
566.5456,3162.924242416164
568.6837,2754.8083157418805
570.8212,2768.791929146384
572.958,1988.0183023604113
575.0942,2097.180627426773
577.2299,1549.4720765081365
579.3648,1442.8358007954157
581.4992,1226.5149359847783
583.6329,1241.052603344091
585.766,1295.6419118760896
587.8985,1391.2259581729886
590.0304,980.5978258706018
592.1616,1234.0505846925225
594.2922,1010.3772945563978
596.4222,752.621003039385
598.5515,741.0747476148827
600.6802,697.5315582301118
602.8083,315.48445742156764
604.9358,327.2764607504578
607.0626,473.5474320882422
609.1888,250.48396581452107
611.3144,453.772651573403
613.4393,361.84757667416125
615.5636,389.04282388836873
617.6873,492.5424723691176
619.8103,404.1805973790906
621.9327,400.94126925557066
624.0544,402.30855429405347
626.1756,199.46651478065905
628.2961,170.89920897840784
630.4159,-20.061297520122025
632.5351,18.715353594518092
634.6537,242.35972104411485
636.7716,-33.197823415910534
638.8889,79.82308954622567
641.0056,137.9031609085796
643.1216,178.02229421654192
645.237,291.0590153628873
647.3518,4.74184846017306
649.4659,98.6993147103858
651.5793,93.40988794445002
653.6922,57.05105598708178
655.8043,-98.7006265017917
657.9159,222.58082519768504
660.0268,-248.22761817536957
662.137,-63.74898810763989
664.2466,-19.303836291845073
666.3556,34.73792243160278
668.4639,-43.24343393239542
670.5716,5.7820255891856505
672.6786,39.69466397125507
674.785,-206.37521357379592
676.8907,-160.24730223050574
678.9958,-86.33923549502651
681.1002,-43.66704599300283
683.204,-195.39590382113238
685.3072,-169.94054284237063
687.4097,-198.51374491459865
689.5115,-197.32659418970434
691.6127,-54.18819166726462
693.7132,-171.15566705423407
695.8131,-78.8356087175489
697.9123,49.86710482095077
700.0109,102.34838260712422
702.1089,-19.79586681182991
704.2061,41.18026408782316
706.3028,129.12268302778102
708.3987,189.47729731800064
710.4941,119.29001297716604
712.5887,271.1067341292219
714.6827,297.1733637052603
716.7761,424.7358019253006
718.8688,503.1899460376735
720.9608,567.4816890433431
723.0522,678.8069189114176
725.1429,604.0115179361746
727.233,854.291361623822
729.3224,730.0923194405041
731.4112,697.0602523094421
733.4993,581.7410138529594
735.5867,526.7804507228357
737.6735,422.27440375344304
739.7596,255.318708511375
741.845,241.8591963404906
743.9298,171.9916960314804
746.014,143.0620339564921
748.0974,168.81603476776945
750.1802,189.24952168695017
752.2624,97.508316247513
754.3439,78.83823809045862
756.4247,147.23510588172212
758.5048,172.79473749888712
760.5843,282.11294934716716
762.6631,428.78555610388867
764.7413,690.008369625255
766.8188,1071.2771974796342
768.8956,1319.3878403353374
770.9718,1543.8860881478904
773.0473,1443.3177176789977
775.1221,1340.4284902515137
777.1962,1207.9141527551474
779.2697,1131.970438675322
781.3426,1205.693069418332
783.4147,1268.7777550708197
785.4862,1348.5201936625162
787.557,1247.21607053536
789.6271,1073.2110575460902
791.6966,751.4008140793012
793.7654,387.08098878750025
795.8335,290.99722280920105
797.901,106.19515341209626
799.9678,21.070414953952422
802.0339,2.168640730626066
804.0993,27.38546382725326
806.1641,-54.733482692652615
808.2282,-93.34256603943504
810.2916,-52.096152876074484
812.3544,-49.74860893209552
814.4164,-102.70429941605107
816.4778,-20.767589038987353
818.5385,-23.442841484895325
820.5986,74.76557976992626
822.658,266.50331148361875
824.7166,371.5659896666766
826.7747,727.7992476645959
828.832,998.9987151072055
830.8886,1098.9100143463656
832.9446,1227.3287577439696
834.9999,1101.05054667285
837.0545,1058.8209702325403
839.1085,984.185606512081
841.1618,797.0400230123414
843.2143,661.6797773923026
845.2662,559.2504193406348
847.3175,569.3474919292057
849.368,453.4165326374059
851.4179,473.95307325118483
853.467,351.5526410223247
855.5155,337.16075846311287
857.5633,263.8229445702964
859.6105,256.93471496897837
861.6569,270.34158264608413
863.7027,287.3890580192092
865.7478,289.97264880254806
867.7922,262.7878598364405
869.8359,318.73019306149945
871.8789,363.69514779049496
873.9212,405.12822014890116
875.9629,414.574902625267
878.0039,556.5806836568881
880.0441,611.0410475353056
882.0837,690.1014729862945
884.1226,711.1074326252128
886.1609,817.1043921664168
888.1984,909.4878102132207
890.2352,1078.7531371979057
892.2714,1064.0458144578733
894.3069,1094.5112725430154
896.3416,947.5949313627862
898.3757,911.9421998815451
900.4091,879.6484775877288
902.4418,895.0591548503544
904.4739,883.3696132419755
906.5052,970.6252253845669
908.5358,935.8713550663961
910.5658,895.8033563694989
912.595,821.3165740172117
914.6236,691.7563437748395
916.6515,704.3179931945524
918.6786,635.4968429109758
920.7051,707.2882065155682
922.7309,789.4373912448355
924.756,729.7396972624338
926.7804,853.9404168376568
928.8041,625.7848349424094
930.8272,763.3182280092115
932.8495,635.1858662127634
934.8711,708.9830120946099
936.892,661.8049218444467
938.9123,606.4968445621598
940.9318,697.6540227295955
942.9506,672.2716927636575
944.9688,622.3950841047117
946.9862,636.7194194704316
949.003,465.5899153545615
951.019,460.7017818836721
953.0344,417.40022452845005
955.0491,399.88044415261174
957.063,528.2876374458683
959.0763,660.1169970991432
961.0888,636.3637105205053
963.1007,733.1229585168621
965.1119,716.0399155314844
967.1223,705.0597486764455
969.1321,765.7776179034372
971.1412,774.1886761135538
973.1495,766.0380685501441
975.1572,756.5209327146804
977.1641,824.6823984482762
979.1704,772.5675880268536
981.1759,744.7216154794878
983.1808,809.2395871096269
985.1849,855.3166017734875
987.1884,872.5477502349131
989.1911,965.728114704576
991.1932,1009.252768667684
993.1945,958.1167759521777
995.1951,876.2651902934958
997.1951,930.9430558459062
999.1943,878.19540800104
1001.1928,860.9672728410878
1003.1906,789.5036676663003
1005.1877,898.0496011672476
1007.1841,883.7500741394797
1009.1798,854.6000783980598
1011.1748,817.444596920559
1013.1691,724.8286041385654
1015.1627,629.097066309223
1017.1556,404.79494244140733
1019.1477,355.2171852530446
1021.1392,236.85874341410454
1023.1299,189.16456204241695
1025.12,184.0795838872291
1027.1093,195.34874980616587
1029.0979,263.316998816088
1031.0859,214.52926798037515
1033.0731,305.93049172927203
1035.0596,216.36560234773424
1037.0454,163.12952906142164
1039.0304,64.21719893235786
1041.0148,11.723537391277205
1042.9985,-55.356530773253326
1044.9814,-45.078080889881676
1046.9636,-149.7456352755362
1048.9452,-146.51326591711768
1050.926,-94.683548842655
1052.9061,-89.35759641265759
1054.8855,-105.13557509898965
1056.8642,-20.166758691120776
1058.8421,29.500629325848422
1060.8194,3.418566932741669
1062.7959,49.28903181538408
1064.7717,81.56400162544014
1066.7469,119.29545352168498
1068.7213,174.58536384725085
1070.695,304.5357077523331
1072.6679,241.09845864126328
1074.6402,273.07558687303026
1076.6117,289.1690603956631
1078.5826,278.0808444264403
1080.5527,185.96290129096815
1082.5221,126.11719053404158
1084.4908,118.69566984084668
1086.4587,134.3502956354023
1088.426,151.83302315478795
1090.3925,146.44580629259508
1092.3584,239.84059742410682
1094.3235,162.16934746014522
1096.2879,181.88400491314678
1098.2515,212.58651667385857
1100.2145,364.9288278142012
1102.1767,407.912881280241
1104.1382,602.890616368768
1106.099,728.3639682974572
1108.0591,810.3348662550925
1110.0185,894.3552321468487
1111.9771,1010.576979774567
1113.9351,916.8520139965367
1115.8923,835.0822295653088
1117.8488,748.2695120648968
1119.8045,576.2157387285297
1121.7596,568.1227793066973
1123.7139,421.1924977877534
1125.6675,416.5767524787916
1127.6204,547.0273974750307
1129.5726,528.946282705936
1131.524,475.6352526306873
1133.4748,414.8961464190252
1135.4248,317.530798484353
1137.3741,264.4910390911173
1139.3226,170.47869532845652
1141.2705,216.09559164060192
1143.2176,100.14355076700303
1145.164,108.17439328618639
1147.1097,111.28993877523317
1149.0546,46.642005729510856
1150.9989,50.382411531474645
1152.9424,55.662973097205395
1154.8852,-6.5644931610440835
1156.8272,-11.94817138763392
1158.7686,12.113819852358574
1160.7092,27.473481356089906
1162.6491,7.882692903622228
1164.5883,67.24333400031173
1166.5267,116.15720540339316
1168.4644,241.67610719767254
1170.4014,347.3018383064118
1172.3377,545.8361952361192
1174.2732,653.5309710202855
1176.2081,919.7379532340565
1178.1421,1210.1589229172714
1180.0755,1519.445651912385
1182.0082,1655.2498999602903
1183.9401,1758.2234116074214
1185.8713,1676.4179148477197
1187.8017,1535.6351200929057
1189.7315,1360.5767209905425
1191.6605,1091.2443958318545
1193.5888,871.3398093023061
1195.5163,819.9146151749374
1197.4432,763.3704585094019
1199.3693,702.1089761662261
1201.2947,619.131797372218
1203.2193,544.4905443331409
1205.1432,581.1868330634243
1207.0664,580.172274132623
1208.9889,546.1984722984198
1210.9106,522.6670265167886
1212.8316,510.9795302817256
1214.7519,529.6375718605741
1216.6715,489.09273441088953
1218.5903,604.7465957938657
1220.5084,634.6007289797853
1222.4257,778.956700891471
1224.3424,748.5660721057538
1226.2583,799.1303954099058
1228.1735,894.3512161055405
1230.0879,932.9800715029851
1232.0016,1038.4684899690728
1233.9146,1090.6679905408346
1235.8269,1103.3300818706484
1237.7384,1163.206261704221
1239.6492,1055.6980167539805
1241.5592,1101.6068221003188
1243.4686,1067.184142266644
1245.3772,1171.3314307603177
1247.285,1303.3001304168538
1249.1922,1410.391672358488
1251.0986,1515.3074746744605
1253.0042,1532.7989413500982
1254.9092,1599.7174612176495
1256.8134,1690.264407781393
1258.7169,1781.091138548436
1260.6196,1863.5989941232547
1262.5216,2006.689297299421
1264.4229,2102.8133522345342
1266.3234,2251.972443019302
1268.2232,2311.66783271631
1270.1223,2331.950761868444
1272.0207,2369.4724479019205
1273.9183,2351.0340849234635
1275.8151,2331.7868433451004
1277.7113,2334.3318700685195
1279.6067,2366.820288677558
1281.5014,2540.853199412748
1283.3953,2785.1316788464064
1285.2885,3086.906778142351
1287.181,3432.929520613092
1289.0727,3822.400898702079
1290.9637,4009.5218705234765
1292.854,4190.693355967462
1294.7435,4138.516234828974
1296.6323,4097.341344996061
1298.5204,4010.419482971589
1300.4077,3867.3014042850336
1302.2943,3740.5878243617044
1304.1802,3607.579419953894
1306.0653,3337.726830408046
1307.9497,3075.030658994805
1309.8333,2840.791475607555
1311.7162,2669.7098193893835
1313.5984,2564.736201075473
1315.4798,2505.2211047039164
1317.3605,2460.714988665437
1319.2405,2472.4182862985726
1321.1197,2362.2314063347076
1322.9982,2157.904732781055
1324.876,2071.2886260225314
1326.753,1883.5834248650062
1328.6293,1765.4894474014727
1330.5048,1731.006992889088
1332.3796,1639.336342930139
1334.2537,1607.227761816841
1336.127,1500.3314974480745
1337.9996,1474.1977816504477
1339.8714,1481.2268312472515
1341.7426,1460.1188483198202
1343.6129,1579.1240201372093
1345.4826,1513.4425193672905
1347.3515,1591.6245028867052
1349.2196,1535.3701124376748
1351.087,1618.3294738461846
1352.9537,1642.5526975845023
1354.8197,1731.0898779416166
1356.6849,1832.4910927809979
1358.5493,1907.3564026552194
1360.4131,2037.585849791947
1362.276,2107.779457345321
1364.1383,2150.237228093625
1365.9998,2100.8591437373834
1367.8606,1901.5451644747518
1369.7206,1755.7952294953138
1371.5799,1571.3592589732216
1373.4384,1472.4871555246718
1375.2962,1349.7288060522733
1377.1533,1182.3340827337706
1379.0096,947.9028442496274
1380.8652,780.2849374569887
1382.7201,645.4801997339673
1384.5742,471.43846065583057
1386.4275,401.05954334306807
1388.2802,286.1932662017789
1390.132,204.68944362746333
1391.9832,189.19788715372852
1393.8336,148.56840626728808
1395.6832,120.70080856289132
1397.5322,107.89490014962757
1399.3803,71.8004859295761
1401.2278,22.267369725874232
1403.0745,2.595354643663086
1404.9204,-2.415756434589639
1406.7656,-14.616160652371036
1408.6101,-32.80603101977249
1410.4538,-22.985394531448037
1412.2968,22.246049550180032
1414.139,12.53883158676399
1415.9805,63.04348171750644
1417.8213,103.66052995621976
1419.6613,153.39050568629682
1421.5006,259.13393725452624
1423.3391,367.9913514738
1425.1769,486.06327256569057
1427.0139,752.000221071863
1428.8502,1037.6027126733643
1430.6858,1315.9712555312435
1432.5206,1491.3563474305283
1434.3547,1658.9084729965507
1436.188,1688.0781019410733
1438.0206,1673.0656873867829
1439.8524,1577.7216655755983
1441.6835,1515.3964560187833
1443.5139,1463.9404624503914
1445.3435,1461.1540734505106
1447.1724,1480.7876629598395
1449.0005,1474.7415903075253
1450.8279,1442.316200014855
1452.6545,1476.3618218557112
1454.4804,1520.728771180824
1456.3056,1498.667348577299
1458.13,1480.6778394249686
1459.9536,1461.8105141170108
1461.7766,1347.2156282398264
1463.5987,1156.6434227617137
1465.4202,1000.4941251788296
1467.2409,838.8679514208943
1469.0608,727.9651074126978
1470.88,601.0857906903511
1472.6984,542.9801915103199
1474.5161,397.4984941182247
1476.3331,321.4408773298819
1478.1493,275.85751598613024
1479.9648,283.54858171339947
1481.7795,232.26424337955905
1483.5935,274.1046670169908
1485.4067,258.1700163354453
1487.2192,218.76045230363707
1489.031,245.67613330858694
1490.842,267.96721554971555
1492.6522,271.9338527696891
1494.4618,245.17619603151616
1496.2705,240.3443936788608
1498.0785,227.78859160363754
1499.8858,224.25893329432802
1501.6924,199.55555996152725
1503.4981,185.1786105732499
1505.3032,206.22822210196864
1507.1075,195.45452966837183
1508.911,199.45766633086714
1510.7138,179.93776319333483
1512.5159,151.84494936506417
1514.3172,160.07935215598263
1516.1178,120.34109735757374
1517.9176,133.3803091605423
1519.7166,91.59711055218031
1521.515,107.94162318599047
1523.3126,161.26396779950483
1525.1094,115.91426405084349
1526.9055,69.69262998549675
1528.7008,72.19918248980684
1530.4954,52.18403775320439
1532.2893,54.6473112431413
1534.0824,17.539117905227613
1535.8747,74.55957213861257
1537.6663,52.4587881670559
1539.4572,52.73687946872451
1541.2473,45.34395899719675
1543.0367,68.73013917869139
1544.8253,46.1455319859906
1546.6132,116.24024870457833
1548.4003,74.31440015847875
1550.1867,174.16809600932174
1551.9723,179.4014451755993
1553.7572,233.86455483412828
1555.5414,303.1575303677291
1557.3247,382.9804748205843
1559.1074,465.8834882053088
1560.8893,569.4666667047204
1562.6705,658.6801018428068
1564.4509,747.9238794488865
1566.2305,788.8480787654862
1568.0094,830.1027715558957
1569.7876,895.6880216949194
1571.565,889.1538847563552
1573.3417,922.5004073571217
1575.1176,896.2776272226056
1576.8928,909.0355728531904
1578.6672,906.9742637864965
1580.4409,974.9937104697947
1582.2138,956.8939142806157
1583.986,999.7248668465563
1585.7575,1070.5865502262805
1587.5282,1104.1289364812073
1589.2981,1221.2019869668984
1591.0673,1254.0556519976126
1592.8358,1337.7898696755965
1594.6035,1396.0045655625509
1596.3704,1443.1496518422737
1598.1366,1468.1250267385221
1599.9021,1512.3805740435619
1601.6668,1528.5161628684218
1603.4308,1602.2316472003185
1605.194,1692.4268657413159
1606.9564,1822.5016411711622
1608.7182,1982.1557792453532
1610.4791,2123.189067494357
1612.2394,2282.7512736270983
1613.9988,2474.7421441206043
1615.7576,2657.9114026244024
1617.5156,2823.9587480406044
1619.2728,2898.683852692211
1621.0293,2837.6363606626473
1622.785,2773.815887048504
1624.54,2566.922018570016
1626.2942,2398.404314209258
1628.0477,2127.5623072790877
1629.8005,1928.4455071083266
1631.5525,1754.0034017501748
1633.3037,1573.9854599733899
1635.0542,1486.8411330066974
1636.804,1358.769856338975
1638.553,1307.471050590695
1640.3013,1242.994122794631
1642.0488,1234.0384669088508
1643.7955,1252.153464461493
1645.5416,1286.2384846403165
1647.2868,1309.8928841115467
1649.0313,1360.0660066790315
1650.7751,1427.5571830477056
1652.5181,1499.7657303218512
1654.2604,1589.490951330181
1656.0019,1683.5821339037593
1657.7427,1820.4385499787404
1659.4828,1992.0094546554592
1661.222,2080.5940848298724
1662.9606,2075.841657477844
1664.6984,2015.0513687693
1666.4354,1859.9723941157572
1668.1717,1621.1038887782252
1669.9072,1333.7449894179845
1671.642,1079.9948164852885
1673.3761,887.802477092946
1675.1094,751.7170675538182
1676.8419,619.4376753027464
1678.5737,534.413380257407
1680.3048,435.9432561411104
1682.0351,382.17637133302924
1683.7646,306.26178985291153
1685.4934,268.4485718987489
1687.2215,257.03577460591987
1688.9488,229.42245242532044
1690.6754,173.4576572374899
1692.4012,190.64043862875042
1694.1263,175.96984445085764
1695.8506,177.44492064916085
1697.5742,173.41471140932117
1699.297,128.17825914255081
1701.0191,113.28460452591025
1702.7404,107.38278695469126
1704.461,51.971844691339356
1706.1808,56.60081492447898
1707.8999,51.718734323025274
1709.6182,33.824638989890445
1711.3358,9.117564510794182
1713.0527,32.69654613322018
1714.7688,37.01061901347566
1716.4841,-11.49118201908459
1718.1987,-2.959822505214106
1719.9126,5.053846811240874
1721.6257,4.749004755047281
1723.338,35.274830100430336
1725.0496,-21.569498425864367
1726.7605,7.2151975501674315
1728.4706,12.828311881812624
1730.18,-8.980761649789201
1731.8886,-20.5126293917765
1733.5964,-20.717807973480376
1735.3036,-1.846609103075025
1737.0099,3.0008624821657577
1738.7156,18.474520492587544
1740.4204,-9.475721391463594
1742.1246,0.25005032561421103
1743.8279,8.801843801877112
1745.5306,-8.070332807114028
1747.2325,-27.066471433816332
1748.9336,-6.336483388065972
1750.634,-4.030009585650987
1752.3336,-11.796627640895167
1754.0325,-7.185874908331243
1755.7307,17.502829105806086
1757.4281,28.820136682170414
1759.1247,49.816699926390356
1760.8206,62.64317065589239
1762.5158,89.35020018994874
1764.2102,47.63843922140768
1765.9039,71.75853754961099
1767.5968,70.8611444975104
1769.289,53.24690867049139
1770.9804,75.46647796531943
1772.6711,81.37049974628098
1774.361,89.3096206230166
1776.0502,111.38448639147464
1777.7386,113.1457419545095
1779.4263,105.54403110113162
1781.1132,144.52999648889818
1782.7994,128.25427971993122
1784.4849,110.01752095105257
1786.1696,108.92035905655393
1787.8535,116.4634318105509
1789.5367,104.7473758979595
1791.2192,135.87282683906597
1792.9009,102.74041910668348
1794.5818,139.30078581490034
1796.2621,138.254559050406
1797.9415,135.7523695068894
1799.6202,137.94484649549304
1801.2982,161.88261796984625
1802.9755,139.36631050412598
1804.6519,178.74654905369516
1806.3277,169.62395718025437
1808.0027,141.29915665804765
1809.6769,166.67276756508
1811.3504,168.64540856637086
1813.0231,161.6176966602152
1814.6951,181.84024715846044
1816.3664,199.66367375677692
1818.0369,227.93858833243485
1819.7067,223.36560076607384
1821.3757,222.9453186589517
1823.044,240.87834737867342
1824.7115,228.5152900633948
1826.3783,218.10674744248809
1828.0443,226.70331796017672
1829.7096,231.95559787962156
1831.3741,227.96418119695136
1833.0379,249.0796595887432
1834.701,227.85262245193553
1836.3633,244.78365669267168
1838.0248,274.6233469385734
1839.6856,252.97227536943137
1841.3457,268.93102141880354
1843.005,268.6001619905328
1844.6636,284.8802712991528
1846.3214,303.6219208732009
1847.9785,315.27567939242
1849.6349,296.7921125003386
1851.2904,304.27178268772695
1852.9453,288.8652494774442
1854.5994,308.1730693496338
1856.2528,342.0457958957895
1857.9054,325.8339796256778
1859.5572,345.6381676286128
1861.2083,344.6589037355716
1862.8587,367.7467283211545
1864.5084,346.4521783133787
1866.1572,365.62578696279616
1867.8054,327.618084055448
1869.4528,362.62959572111686
1871.0994,347.0108448134133
1872.7453,356.36235055965335
1874.3905,354.68462871705015
1876.0349,373.92819147919545
1877.6786,384.4435474928423
1879.3215,392.5312016654616
1880.9637,379.2416550600992
1882.6051,392.32540481448996
1884.2458,375.38294427395795
1885.8858,388.56476286057386
1887.525,398.0213462425836
1889.1634,387.4531762025954
1890.8011,374.0107305429992
1892.4381,382.19448319166077
1894.0743,408.7049043363386
1895.7098,398.8924603428577
1897.3446,420.6576134899997
1898.9786,392.6508220676287
1900.6118,421.02254015903054
1902.2443,400.27321792099065
1903.8761,406.2033013000673
1905.5071,376.313232240087
1907.1374,376.8534486228473
1908.7669,387.07438456701857
1910.3957,418.12647042273875
1912.0237,365.4101326694026
1913.651,389.2757936051421
1915.2776,403.3738718739878
1916.9034,360.6047822272103
1918.5285,357.41893538235036
1920.1528,376.8667384508981
1921.7764,358.2985949701615
1923.3992,368.4649047087787
1925.0213,310.9160638524045
1926.6427,323.40246490204663
1928.2633,337.32449724955586
1929.8832,347.48254705276486
1931.5023,293.67699709626413
1933.1207,309.5582266898273
1934.7383,323.77661220646496
1936.3552,314.78252692360275
1937.9714,347.4763408809122
1939.5868,301.05842097024106
1941.2015,304.0791306086776
1942.8154,279.8888302027326
1944.4286,287.13787711812347
1946.041,273.87662592168454
1947.6528,257.6554283088699
1949.2637,267.77463323637403
1950.8739,268.28458708433845
1952.4834,273.63563355516453
1954.0921,277.52811366840797
1955.7001,263.96236570727433
1957.3074,272.188725179687
1958.9139,268.1075249539481
1960.5197,249.3690951764729
1962.1247,238.22376331260693
1963.729,232.67185433400755
1965.3325,226.66369083009522
1966.9353,237.04959306357796
1968.5374,212.17987903052835
1970.1387,230.10486435652092
1971.7393,214.52486254533505
1973.3392,222.64018479969855
1974.9383,212.60114017709566
1976.5366,184.15803550860983
1978.1342,209.26117549931587
1979.7311,211.21086301271043
1981.3273,208.1073988196822
1982.9227,204.8010815790094
1984.5173,191.14220786840178
1986.1112,189.73107221756345
1987.7044,198.71796724477463
1989.2968,183.20318367100845
1990.8885,202.78701023005942
1992.4795,211.21973382369197
1994.0697,208.05163932580126
1995.6592,201.8830094980931
1997.2479,193.96412502175463
1998.8359,196.39526455914893
2000.4232,188.02670483300062
2002.0097,183.85872060208112
2003.5955,169.1915847448954
2005.1805,188.6255683013651
2006.7648,185.61094061949643
2008.3484,194.09796916103642
2009.9312,206.3369195316318
2011.5133,168.32805539594483
2013.0946,180.62163835527736
2014.6752,197.26792832765295
2016.2551,187.5171834248804
2017.8342,179.71965978608932
2019.4126,164.47561167524327
2020.9902,159.23529155911
2022.5672,171.54895025970563
2024.1433,186.96683700669746
2025.7188,176.08919931426408
2027.2935,190.31628282692327
2028.8674,165.8483314283003
2030.4406,160.2855870988651
2032.0131,159.62829016060368
2033.5849,145.72667933264893
2035.1559,153.5309917378545
2036.7261,161.04146304180722
2038.2957,143.1583273747865
2039.8645,138.18181725666273
2041.4325,164.7621637757211
2042.9998,163.9995966384322
2044.5664,146.3943439036475
2046.1323,169.54663199022343
2047.6974,157.6566858530732
2049.2617,162.72472875165022
2050.8254,185.0009823688406
2052.3883,196.63566676028677
2053.9504,168.17900013162216
2055.5118,175.08119872213138
2057.0725,150.64247708930543
2058.6325,159.76304803982566
2060.1917,172.1431228739557
2061.7502,172.13291129432673
2063.3079,161.33262128214756
2064.8649,160.54245909729252
2066.4212,157.96262938631662
2067.9767,152.2433351903528
2069.5315,138.184777970906
2071.0856,142.93715766705373
2072.6389,145.65067283602093
2074.1915,130.7255206056616
2075.7433,88.26189664732647
2077.2945,113.45999532511178
2078.8448,115.82001012049841
2080.3945,121.09213338036716
2081.9434,119.72655629339988
2083.4916,112.62346883735427
2085.039,123.33305979272609
2086.5857,116.70551681377583
2088.1317,137.49102632143422
2089.677,136.73977356957948
2091.2215,146.95194243717833
2092.7652,119.12771543580675
2094.3083,124.11727360752229
2095.8506,140.32079680310835
2097.3921,134.18846363217654
2098.933,142.42045130112638
2100.4731,133.566935674482
2102.0124,147.97809119256
2103.5511,149.25409096001113
2105.089,159.19510660170545
2106.6261,160.70130824997432
2108.1626,159.67286444520414
2109.6983,144.8599421207682
2111.2332,148.36270661331037
2112.7675,144.4313218108855
2114.301,144.11595011791815
2115.8337,154.76675249452364
2117.3657,153.08388845965965
2118.897,167.31751598461778
2120.4276,161.91779150984985
2121.9575,156.18486980263697
2123.4866,157.96890401108067
2125.0149,170.2200457214385
2126.5426,157.4884449402789
2128.0695,150.07424997197268
2129.5956,158.62760754600913
2131.1211,155.54866289113488
2132.6458,157.13755964982647
2134.1698,154.34443990907675
2135.693,153.86944418450457
2137.2155,153.46271144829188
2138.7373,184.1743791339286
2140.2584,148.05458314028328
2141.7787,143.4034575244823
2143.2983,143.221134863109
2144.8171,125.25774629871557
2146.3353,150.46342154164086
2147.8527,145.08828904965048
2149.3693,162.08247577587645
2150.8853,144.74610722256693
2152.4005,126.52930727115199
2153.9149,148.03219835560412
2155.4287,124.30490164460025
2156.9417,159.04753682650426
2158.454,133.96022234662723
2159.9655,147.14307505981014
2161.4764,154.54621048129502
2162.9865,148.46974265489644
2164.4958,146.3137840789709
2166.0045,135.32844576717753
2167.5124,141.51383727004122
2169.0195,152.47006678480784
2170.526,151.39724109358667
2172.0317,141.39546545378698
2173.5367,165.31484360884497
2175.0409,153.05547788824515
2176.5445,160.06746896832874
2178.0473,163.25091599488314
2179.5494,144.7559165130233
2181.0507,130.8325664353556
2182.5513,128.1809602269277
2184.0512,126.15119104446148
2185.5504,127.39335076287261
2187.0488,138.25752999556744
2188.5465,135.79381808202152
2190.0435,115.90230297913604
2191.5397,125.6830712858773
2193.0353,140.58620844219104
2194.5301,110.01179863119023
2196.0241,112.10992463012508
2197.5175,110.53066811613053
2199.0101,104.9241096452406
2200.502,102.34032866818416
2201.9931,93.47940358644973
2203.4835,108.09141177812126
2204.9733,98.62642968649106
2206.4622,95.48453267393688
2207.9505,97.41579511657528
2209.438,92.87029043568009
2210.9248,97.84809107837009
2212.4109,83.09926856306583
2213.8962,83.62389342970255
2215.3809,75.67203538722697
2216.8648,86.99376330834457
2218.3479,82.48914530904449
2219.8304,87.45824863538064
2221.3121,87.80113970851608
2222.7931,74.56788407503382
2224.2733,83.90854640350926
2225.7529,58.92319061683702
2227.2317,86.9618797988287
2228.7098,72.67467644406406
2230.1872,71.21164217750948
2231.6638,85.72283789738094
2233.1397,87.65832378978257
2234.6149,66.81815918359007
2236.0894,68.0524025311006
2237.5632,64.11111161643385
2239.0362,50.74434354318737
2240.5085,52.75215477385109
2241.9801,52.034601263471814
2243.4509,72.34173843958024
2244.921,65.42362120936468
2246.3904,51.18030375659464
2247.8591,51.81183961081024
2249.3271,61.318281789745924
2250.7943,49.94968279302884
2252.2608,60.60609450710672
2253.7266,50.187568318932335
2255.1917,58.34415500940486
2256.656,58.425904857548176
2258.1197,51.982867558944235
2259.5826,48.9150922249205
2261.0447,54.67262744698019
2262.5062,43.60552132747807
2263.9669,42.7638214220442
2265.4269,53.647574850258025
2266.8862,56.00682830405822
2268.3448,64.94162793891064
2269.8026,60.80201935021341
2271.2598,65.38804748394887
2272.7162,69.29975667807867
2274.1719,55.58719061668717
2275.6268,61.55039229085742
2277.0811,60.08940413580376
2278.5346,86.05426797123391
2279.9874,62.79502501596426
2281.4395,73.61171562826985
2282.8908,76.90437953847368
2284.3414,69.97305574078655
2285.7914,71.6177824603742
2287.2406,58.83859722266925
2288.689,72.03553683693099
2290.1368,85.7586375240312
2291.5838,61.80793478449186
2293.0302,85.28346326124483
2294.4758,77.53525697914665
2295.9206,67.96334911021904
2297.3648,63.96777205113176
2298.8082,69.89855751891764
2300.251,73.30573659093625
2301.693,66.43933964556436
2303.1343,70.74939632812357
2304.5748,66.78593561954676
2306.0147,75.2989857932721
2307.4538,57.63857445487929
2308.8922,73.30472845695931
2310.3299,73.3974740757194
2311.7669,72.51683685431908
2313.2031,71.46284160194546
2314.6387,56.53551240262095
2316.0735,50.134872625733806
2317.5076,61.0609450753268
2318.941,68.51375205409295
2320.3737,60.293315254117715
2321.8056,64.74965568235075
2323.2369,52.432793742808826
2324.6674,77.89274919201807
2326.0972,69.3295412621751
2327.5263,71.94318840655069
2328.9547,54.58370838511655
2330.3823,61.35111823841635
2331.8092,60.39543446116113
2333.2355,66.11667293455503
2334.661,61.76484893584029
2336.0858,68.78997708109728
2337.5098,68.4420713687673
2338.9332,70.27114510939282
2340.3558,53.57721092909742
2341.7778,63.11028075129707
2343.199,64.12036596363123
2344.6195,69.90747732263935
2346.0393,65.82162494365912
2347.4583,71.81281824295502
2348.8767,69.08106597857386
2350.2943,70.8763761904388
2351.7113,76.24875622766149
2353.1275,54.69821273059415
2354.543,72.82475157709905
2355.9578,84.27837809806078
2357.3718,56.30909689611417
2358.7852,71.06691173111403
2360.1978,63.301825799825565
2361.6098,63.21384158834553
2363.021,59.852960949755015
2364.4315,75.31918510499827
2365.8413,74.81251467649327
2367.2504,75.33294953346558
2368.6587,61.330488797019825
2370.0664,60.05513083493088
2371.4733,58.806873401671965
2372.8795,67.33571365116495
2374.285,72.7916481492648
2375.6899,45.37467278846998
2377.0939,37.8847827333625
2378.4973,43.571972694780925
2379.9,41.63623700471635
2381.3019,48.127569559442236
2382.7032,46.29596383887019
2384.1037,62.941412841638794
2385.5035,41.36390910342516
2386.9027,29.963444530496417
2388.3011,48.840010615476785
2389.6987,51.743598551361174
2391.0957,44.624199042742475
2392.492,45.78180227677922
2393.8876,47.2163979943889
2395.2824,46.42797547867076
2396.6765,39.86652354056241
2398.07,27.38203052672452
2399.4627,29.324484385153028
2400.8547,38.34387279002431
2402.246,23.49018312227099
2403.6366,11.513402379387571
2405.0265,25.213517323967608
2406.4156,29.240514603473002
2407.8041,34.144380613230624
2409.1918,15.27510145616452
2410.5789,21.982662893754878
2411.9652,29.417050534733335
2413.3508,11.678249768004662
2414.7358,21.21624568830339
2416.12,25.131023273585924
2417.5035,18.27256728964312
2418.8863,20.990862250959708
2420.2684,17.285892489292564
2421.6497,24.35764212649201
2423.0304,9.156095111551622
2424.4104,-6.168764850111074
2425.7896,0.7330458553592507
2427.1682,11.461572467778296
2428.546,19.516860219629507
2429.9232,11.898954228782713
2431.2996,19.457899417941917
2432.6753,14.243740590820835
2434.0503,28.45652235655507
2435.4246,5.146289181843713
2436.7982,21.463085248820335
2438.1711,13.856954688155838
2439.5433,9.827941415891473
2440.9148,8.376089209497877
2442.2856,6.751441748170237
2443.6557,9.654042627342278
2445.025,10.733935374934845
2446.3937,7.841163422331192
2447.7617,20.825770093572828
2449.1289,4.737798634293085
2450.4955,30.827292081868563
2451.8613,7.3942934262991
2453.2265,22.28884534931285
2454.5909,9.760990458696142
2455.9546,16.460771139348253
2457.3177,3.18822967855931
2458.68,20.993408199011355
2460.0416,40.52634879150719
2461.4025,28.68709333691595
2462.7627,18.62568331084458
2464.1222,19.942159902032017
2465.4811,18.786564112959695
2466.8392,27.05893674668914
2468.1966,23.509318418417024
2469.5533,23.93774947274983
2470.9093,27.94427001920144
2472.2645,32.27891992790978
2473.6191,36.691738789570536
2474.973,36.98276587209102
2476.3262,37.952040076462254
2477.6787,31.49959993384641
2479.0305,20.77548359588809
2480.3816,11.929728899235215
2481.7319,34.262373472781746
2483.0816,29.72345482612627
2484.4306,24.463010126243034
2485.7789,23.081076242873905
2487.1264,18.42768980113101
2488.4733,12.402887195317362
2489.8195,13.706704635458664
2491.165,14.639178207552504
2492.5097,22.4003438605298
2493.8538,26.99023739693166
2495.1972,17.508894395296693
2496.5398,9.606350164261357
2497.8818,23.032639837374063
2499.2231,10.987798452119932
2500.5637,12.921860815658874
2501.9035,25.034861625274516
2503.2427,11.276835449032887
2504.5812,7.697816604651962
2505.919,25.097839297081464
2507.256,6.426937654294761
2508.5924,10.685145553287839
2509.9281,10.072496806787058
2511.2631,16.639025120667156
2512.5974,21.184764100079974
2513.9309,15.959747183787158
2515.2638,16.11400759870503
2516.596,31.597578412153098
2517.9275,16.660492530310194
2519.2583,15.702782543380636
2520.5884,9.174480874964729
2521.9178,16.125619791635472
2523.2465,20.70623146822186
2524.5745,8.866347918296015
2525.9018,8.806000948371093
2527.2284,10.075222276296927
2528.5543,11.274043531865573
2529.8796,18.402496244116264
2531.2041,17.810611829349
2532.5279,21.398421519839076
2533.851,28.915956369755577
2535.1735,19.01324721928495
2536.4952,14.890324619455441
2537.8163,23.597218931163297
2539.1366,27.43396036640388
2540.4562,24.80057890120065
2541.7752,30.047104237238045
2543.0935,28.773565828195842
2544.411,44.52999282728456
2545.7279,48.966414099980284
2547.0441,49.832858066458584
2548.3596,49.32935265723086
2549.6744,41.005925304481934
2550.9885,44.962602947102596
2552.3019,36.7994121139252
2553.6146,42.86637888415794
2554.9266,23.413528969015715
2556.2379,43.7908876510503
2557.5485,45.24847997867937
2558.8585,54.88633056241338
2560.1677,60.65446356027678
2561.4762,53.302902581433045
2562.7841,52.08167062850043
2564.0913,52.09079017107115
2565.3977,53.88028315792053
2566.7035,53.300171016915556
2568.0086,54.150474637121306
2569.313,52.38121437460131
2570.6167,57.64241004391306
2571.9197,63.03408093580401
2573.222,69.25624576459973
2574.5236,54.70892261428412
2575.8246,71.39212887627991
2577.1248,67.95588139492179
2578.4244,81.75019630062343
2579.7232,77.57508904424071
2581.0214,78.63057425912643
2582.3189,83.31666580288402
2583.6157,74.63337674681111
2584.9118,77.53071932903981
2586.2072,82.05870504136828
2587.5019,87.26734460028842
2588.7959,73.95664790170463
2590.0893,82.57662396884825
2591.3819,93.62728108538568
2592.6739,80.35862670921779
2593.9652,93.42066736197376
2595.2557,87.66340876169693
2596.5456,78.28685569222398
2597.8348,92.04101206075893
2599.1234,82.1258809916369
2600.4112,89.74146468878394
2601.6983,83.2877645348683
2602.9848,79.21478101514435
2604.2705,89.27251378198935
2605.5556,89.96096169563361
2606.84,80.73012272358255
2608.1237,76.17999393373384
2609.4067,79.46057158668441
2610.689,67.5718511812313
2611.9707,73.06382742156666
2613.2516,76.78649433616465
2614.5319,81.43984522286132
2615.8115,78.97387261162885
2617.0903,81.73856821804179
2618.3685,69.73392296793554
2619.6461,71.65992696976105
2620.9229,63.466569634630105
2622.199,78.25383965705578
2623.4745,66.6217250968864
2624.7493,63.67021323143331
2626.0234,78.64929067179105
2627.2968,68.75894339235288
2628.5695,68.8991565810195
2629.8415,69.21991473810135
2631.1128,65.37120167491821
2632.3835,58.85300051059107
2633.6535,54.715293710529295
2634.9228,78.25806315161299
2636.1914,68.6312901635697
2637.4593,68.28495529354655
2638.7265,57.7190384023786
2639.9931,64.48351866805046
2641.259,67.17837469135861
2642.5242,74.20358442826387
2643.7887,61.85912516294479
2645.0525,65.69497343754392
2646.3156,58.71110517561465
2647.5781,61.107495643759876
2648.8398,58.03411952147212
2650.1009,64.84095087717014
2651.3613,59.37796319893141
2652.6211,55.19512932642533
2653.8801,55.0424215055416
2655.1385,64.46981143021912
2656.3961,71.27727024397382
2657.6531,62.06476844562394
2658.9094,71.48227582121444
2660.1651,75.07976153614413
2661.42,68.75719404098913
2662.6743,72.41454103552883
2663.9279,64.55176953197133
2665.1808,67.8688458183799
2666.433,69.91573553730018
2667.6846,76.74240365258993
2668.9354,83.74881442894934
2670.1856,69.18493136365532
2671.4351,82.25071711649639
2672.6839,84.14613365541231
2673.9321,85.57114212583656
2675.1795,85.92570283174155
2676.4263,89.70977522139015
2677.6724,74.37331788378788
2678.9179,77.06628851084338
2680.1626,87.93864405073327
2681.4067,91.54034068097167
2682.6501,80.3213336996871
2683.8928,91.73157748960352
2685.1348,71.57102563023386
2686.3761,72.9396307837751
2687.6168,77.3373448967152
2688.8568,75.16411918614608
2690.0961,81.86990409578607
2691.3348,75.55464931771348
2692.5727,81.21830372530758
2693.81,78.01081543640203
2695.0466,67.68213175664869
2696.2826,79.78219921159052
2697.5178,82.6109636499491
2698.7524,70.01837012262627
2699.9863,80.50436285441356
2701.2195,81.16888536991996
2702.452,85.11188038871069
2703.6839,76.18328981866262
2704.9151,79.23305471653407
2706.1456,87.71111537725051
2707.3755,80.91741130340733
2708.6046,87.90188112048963
2709.8331,95.21446264480733
2711.0609,105.80509281365403
2712.2881,99.37370761217835
2713.5145,102.37024196747734
2714.7403,110.64462981291172
2715.9654,100.4968040581407
2717.1899,106.07669650637717
2718.4136,115.6842379558675
2719.6367,120.0193581440908
2720.8591,126.88198565168477
2722.0809,132.1720478590944
2723.3019,142.13947087794486
2724.5223,143.8341794981427
2725.7421,142.55609708820043
2726.9611,142.15514557828806
2728.1795,144.4812454730161
2729.3972,136.48431585544392
2730.6142,122.01427436381937
2731.8306,107.27103727154656
2733.0462,116.40451963188855
2734.2612,105.66463542539759
2735.4756,100.75129746858192
2736.6892,86.2144175213034
2737.9022,90.75390633591144
2739.1145,68.26967380261192
2740.3262,65.71162890407186
2741.5372,66.3296799402624
2742.7475,55.32373455403763
2743.9571,54.54369972495613
2745.1661,51.689481879338814
2746.3744,42.06098689807061
2747.582,49.10812014514295
2748.7889,41.48078656393659
2749.9952,30.628890606751952
2751.2008,28.352336311082695
2752.4057,26.001027408133837
2753.61,27.07486734558745
2754.8136,19.773759311114873
2756.0165,28.547606221639967
2757.2188,17.896310796349326
2758.4204,23.41977546895498
2759.6213,22.567902494206578
2760.8215,14.040593892656261
2762.0211,20.33775145917741
2763.22,13.259276848238073
2764.4182,16.105071510929292
2765.6158,21.32503676574936
2766.8127,20.619073770146542
2768.009,10.787083468319679
2769.2045,13.878966598276861
2770.3994,15.994623790156083
2771.5936,-0.31604446469452796
2772.7872,5.79686216512755
2773.9801,-8.116752831691542
2775.1723,-3.4069860244339907
2776.3639,-4.0238528960215945
2777.5548,-5.667334893586258
2778.745,-11.037373265970245
2779.9346,-0.8338526453402437
2781.1235,-8.056547400504883
2782.3117,0.04477642991491848
2783.4992,-2.129566707793856
2784.6861,-1.6792623677908978
2785.8723,-6.20397482986516
2787.0579,-5.15335159797462
2788.2428,-3.9269781983690564
2789.427,-2.17438867531655
2790.6106,1.4049221574267676
2791.7935,-8.038518791752267
2792.9757,-1.0541846285152587
2794.1573,6.558531846277447
2795.3382,5.450248363070386
2796.5184,7.921582586723389
2797.698,6.423152127594676
2798.8769,15.905574516827642
2800.0551,13.769467221334253
2801.2327,18.815447548970837
2802.4096,35.99413266989984
2803.5859,36.50613956612972
2804.7615,37.452084859728984
2805.9364,53.082584807705075
2807.1106,62.89825529254472
2808.2842,73.64971166591022
2809.4572,82.43756865048022
2810.6294,99.91244023243871
2811.801,108.32493957359384
2812.972,130.27567883662925
2814.1423,140.61526910097905
2815.3119,175.09432014332094
2816.4808,189.71344033418018
2817.6491,205.9732362931377
2818.8167,232.57431274264252
2819.9837,260.36727234541036
2821.15,286.852715438415
2822.3157,325.9312397549578
2823.4807,351.00344015981375
2824.645,377.96990825844557
2825.8086,398.3812321462824
2826.9716,428.18799613905355
2828.134,461.7907805686772
2829.2957,475.3401614851921
2830.4567,488.5367103207295
2831.617,504.23099375402035
2832.7767,511.32357357842784
2833.9358,513.9650065450068
2835.0941,499.355844291576
2836.2519,507.7466333163052
2837.4089,488.08791512380583
2838.5653,490.2802261412228
2839.7211,472.3740979148232
2840.8761,469.37005708807214
2842.0306,473.7186255806936
2843.1843,475.2703206187126
2844.3374,510.4256546909684
2845.4899,513.0851355335968
2846.6417,540.2992657784786
2847.7928,568.7185429266423
2848.9433,602.6434590761253
2850.0931,635.6745006377782
2851.2422,657.7121479960192
2852.3907,686.2568751785211
2853.5385,714.3591496358362
2854.6857,729.6694319559483
2855.8323,752.0881755832502
2856.9781,770.3658266654411
2858.1233,804.5028238293378
2859.2679,828.0495979980992
2860.4118,860.0565720498564
2861.555,868.9241605822441
2862.6976,893.9527695923331
2863.8395,909.4427963879517
2864.9808,923.8946293374023
2866.1214,937.958647714559
2867.2614,953.2352215543506
2868.4007,963.7747115121193
2869.5393,962.7774687108557
2870.6773,961.9438346358035
2871.8146,967.6241411444323
2872.9513,965.3687104747734
2874.0874,958.7278551886174
2875.2227,961.8018781940686
2876.3574,947.3410728119535
2877.4915,936.9457227450797
2878.6249,915.3661022228448
2879.7577,907.9024761051902
2880.8898,894.855100098396
2882.0212,894.9242208297183
2883.152,885.6600759778629
2884.2821,874.3128942722929
2885.4116,879.0828955858716
2886.5405,876.7202910483331
2887.6686,889.0252829985837
2888.7962,882.2480650083266
2889.923,885.4388217590124
2891.0493,890.5477291096106
2892.1748,902.0249540647029
2893.2997,901.0706547233938
2894.424,903.4349801645388
2895.5476,915.6180704562871
2896.6706,927.370056632438
2897.7929,943.441060570611
2898.9145,947.0311948747249
2900.0355,956.0405627142886
2901.1559,963.9192577884994
2902.2756,991.9673642361481
2903.3946,1006.0349565568338
2904.513,1009.4220993304823
2905.6308,1026.6788470766696
2906.7479,1046.505244220751
2907.8643,1056.9513249212941
2908.9801,1061.4171128718144
2910.0953,1053.6526211963142
2911.2098,1046.1578524046247
2912.3236,1046.782798470052
2913.4368,1038.9274409043232
2914.5494,1027.2417507513378
2915.6613,1010.8256886657217
2916.7725,1005.4792050296826
2917.8831,990.4522401171727
2918.9931,977.3947241473516
2920.1024,955.6565774348571
2921.211,950.8877105203807
2922.319,942.4880243880474
2923.4264,933.607410513107
2924.5331,938.9457509459281
2925.6391,925.5029184008058
2926.7445,929.3287762025783
2927.8493,929.3731784210545
2928.9534,935.7859698327566
2930.0569,938.666985920475
2931.1597,944.966052809141
2932.2619,940.2329872370165
2933.3634,952.2675964927034
2934.4643,951.819678462474
2935.5645,950.6390215099256
2936.6641,945.6254044804589
2937.763,938.5285967130854
2938.8613,918.048358090563
2939.959,898.3844391103643
2941.056,872.8865810894785
2942.1523,826.2045163610504
2943.248,791.5879685293608
2944.3431,759.9366529366448
2945.4375,705.7502770092588
2946.5313,665.6285405741932
2947.6244,618.5711364009352
2948.7169,565.4277506026882
2949.8087,532.3980631069431
2950.8999,489.1317481869138
2951.9904,450.97847479183486
2953.0803,421.13790697962247
2954.1696,388.1597042984097
2955.2582,365.4435220849497
2956.3462,341.88901179439904
2957.4335,323.0958212274792
2958.5202,307.0635947660214
2959.6062,305.5919735608992
2960.6916,292.13059569235065
2961.7764,268.2290961846943
2962.8605,263.2871071409429
2963.9439,274.95425798181884
2965.0267,267.4801754951736
2966.1089,263.91448371931665
2967.1905,264.30680401775624
2968.2714,253.35675511485636
2969.3516,262.31395309191294
2970.4312,266.0280114966555
2971.5102,274.74854125367403
2972.5885,269.92515062727864
2973.6662,279.9074451342942
2974.7432,271.34502759229406
2975.8196,281.2374980197774
2976.8954,275.0344537217935
2977.9705,276.7854891910167
2979.045,267.64019616977737
2980.1188,273.29816363255065
2981.192,258.20897787741046
2982.2645,251.57222246944946
2983.3364,247.0874783916704
2984.4077,230.05432411135428
2985.4783,227.32233562490728
2986.5483,207.9910866281923
2987.6177,196.16014854384878
2988.6864,186.679090714606
2989.7545,168.49748052159146
2990.8219,159.16488347914208
2991.8887,140.18086341661967
2992.9548,125.04498257173793
2994.0204,106.806801780402
2995.0852,97.06588062806759
2996.1495,81.6217776321231
2997.2131,77.07405033929797
2998.276,65.07225548010433
2999.3383,63.265949014313605
3000.4,50.90468625097503
3001.4611,41.68802186647906
3002.5215,32.11551002816941
3003.5812,29.636704486509757
3004.6404,18.901158670809423
3005.6989,12.858425714010764
3006.7567,4.358058560044924
3007.8139,12.099610024259334
3008.8705,2.0826328784208954
3009.9264,5.006679773300618
3010.9818,3.421303338843245
3012.0364,2.326056154926846
3013.0905,-0.3295092327832094
3014.1439,-10.695840301881674
3015.1966,-3.373381238166587
3016.2487,-7.512469375991657
3017.3002,-5.663408349632107
3018.3511,-0.4264267437945932
3019.4013,-9.551696565736563
3020.4509,-5.739385562712243
3021.4998,1.9604339394728072
3022.5481,2.1477469514748577
3023.5958,-1.8274615356538106
3024.6428,-2.815206552338225
3025.6892,-3.065484872663376
3026.735,3.3217348531990183
3027.7802,5.896514599270745
3028.8247,11.658916306356844
3029.8685,7.109001856297084
3030.9118,9.546833014341871
3031.9544,8.472471474652139
3032.9963,19.135978835920582
3034.0376,20.737416612115226
3035.0783,10.976846125844816
3036.1184,23.004328492344086
3037.1578,20.51992471707979
3038.1966,20.07369557547537
3039.2348,33.315701637756206
3040.2723,33.39600327341026
3041.3092,34.11466051876886
3042.3455,38.171733076203
3043.3811,33.16728030693747
3044.4161,30.551361190479838
3045.4505,33.92403437466504
3046.4842,40.18535820181495
3047.5173,36.93539067501092
3048.5498,35.2741893954813
3049.5816,40.20181159510042
3050.6128,36.0183141530012
3051.6434,36.973753546298326
3052.6734,42.46818589192401
3053.7027,37.60166693707288
3054.7314,35.774252004257846
3055.7594,34.53599603997543
3056.7868,33.5869536329796
3057.8136,39.427179026664476
3058.8398,36.156726128555135
3059.8653,39.32564845190467
3060.8902,35.483999148399164
3061.9145,39.331830976468154
3062.9381,37.81919633970148
3063.9612,41.89614724837077
3064.9835,42.612735334555964
3066.0053,44.56901181137562
3067.0264,35.065027465821345
3068.0469,31.250832639194982
3069.0668,32.82647732214832
3070.086,40.892011192824896
3071.1046,37.347483601104045
3072.1226,32.14294348794465
3073.1399,38.378439420831114
3074.1567,33.204019645818335
3075.1727,21.46973202517688
3076.1882,22.525624089137466
3077.203,32.521743153233615
3078.2173,21.308136307742757
3079.2308,19.08485031772534
3080.2438,17.40193173516076
3081.2561,23.959426921179897
3082.2678,14.907382062894897
3083.2789,16.195843107823464
3084.2893,13.674855854409884
3085.2991,11.594465939140036
3086.3083,6.604718861751508
3087.3169,6.655660006037351
3088.3248,11.147334689743502
3089.3321,9.529788164059084
3090.3388,4.3030655687002195
3091.3449,4.66721194808531
3092.3503,5.472272303602097
3093.3551,11.018291589966395
3094.3593,8.105314707171715
3095.3629,2.7833864450288957
3096.3658,6.102551512295747
3097.3681,10.46285458989621
3098.3698,6.014340297729063
3099.3708,9.507053151064383
3100.3713,3.9410376050291234
3101.3711,-0.7836619803201188
3102.3702,5.082998715662939
3103.3688,4.291071842407689
3104.3667,6.74060949851372
3105.364,6.081663739669864
3106.3607,7.1642865541589345
3107.3568,5.338529869447598
3108.3522,1.3544455413595529
3109.347,5.812085372333399
3110.3412,7.411501151263224
3111.3348,4.1027446089223645
3112.3277,7.235867401969074
3113.32,6.610921146034116
3114.3117,1.6779573843896856
3115.3028,6.187027594198838
3116.2932,0.3881832358453039
3117.2831,3.9314757078423384
3118.2723,7.416956404821661
3119.2608,4.2946766821001745
3120.2488,4.814687820825441
3121.2361,1.0270410591983818
3122.2229,7.281787587273129
3123.209,3.9289785848335725
3124.1944,6.2686651588458915
3125.1793,-2.049101623013371
3126.1635,2.575729244245764
3127.1471,3.9932292361382906
3128.1301,4.253469802422103
3129.1125,10.156522352922735
3130.0942,7.802458254931281
3131.0753,7.591348774173667
3132.0558,10.073265098351499
3133.0357,8.948278339253022
3134.015,3.1164595079339676
3134.9936,13.377879525967558
3135.9716,7.032609283762554
3136.949,7.2807195379490395
3137.9258,11.522280974830977
3138.902,11.407364207905289
3139.8775,9.786039735446082
3140.8524,11.708377941653964
3141.8267,13.924449112869297
3142.8004,12.684323418348725
3143.7735,8.988070888104346
3144.7459,14.885761425305304
3145.7178,10.077464843239937
3146.689,14.413250806339136
3147.6596,20.193188878259093
3148.6295,15.867348478523695
3149.5989,12.485798824724839
3150.5676,18.59860897578102
3151.5357,20.505847865752855
3152.5032,16.657584242714933
3153.4701,19.303886649683477
3154.4364,22.344823463098777
3155.402,22.180462866362433
3156.367,20.510872819427988
3157.3315,20.786121060444373
3158.2952,18.456275122451984
3159.2584,20.571402330630008
3160.221,22.88156982559508
3161.1829,17.486844542249884
3162.1442,20.087293186681336
3163.105,22.682982290107987
3164.065,20.573978182875777
3165.0245,17.810346968500824
3165.9834,22.842154544759495
3166.9416,20.919466631324923
3167.8993,22.492348719448785
3168.8563,25.260866091188177
3169.8127,25.925083803676927
3170.7684,26.135066661440106
3171.7236,29.140879209752114
3172.6782,31.392585732536674
3173.6321,28.290250222308742
3174.5854,25.28393635765741
3175.5381,32.42370753426948
3176.4902,30.259626894992493
3177.4417,28.241757258437076
3178.3926,31.070161140617614
3179.3428,29.194900775131117
3180.2924,29.66603808487295
3181.2415,31.83363470078973
3182.1899,33.04775195716772
3183.1377,34.708450869957005
3184.0848,30.26579212463008
3185.0314,32.119836059574965
3185.9773,32.620642710521835
3186.9227,37.81827179200249
3187.8674,36.51278269234233
3188.8115,35.35423442168407
3189.755,37.89268562504279
3190.6979,40.87819459389131
3191.6402,37.810819240775416
3192.5818,39.14061706945914
3193.5229,37.61764520559808
3194.4633,43.04196038344183
3195.4031,40.76361896106354
3196.3423,44.23267686611689
3197.2809,38.349189618619434
3198.2189,42.61321229626219
3199.1563,49.62479959324422
3200.0931,41.68400577763269
3201.0292,48.64088462124687
3201.9648,46.09548947906589
3202.8997,47.69787321966015
3203.834,43.64808825064492
3204.7677,45.34618650265696
3205.7008,44.44221946985209
3206.6333,46.68623819292435
3207.5652,49.17829326814561
3208.4964,48.16843482492551
3209.4271,56.10671250089108
3210.3571,51.643175451984874
3211.2865,53.52787227308285
3212.2154,51.36085104262946
3213.1436,54.39215930379069
3214.0712,53.02184408612405
3214.9982,53.349951875265475
3215.9246,55.726528626632486
3216.8503,56.00161976214315
3217.7755,57.97527014645024
3218.7001,61.79752408419043
3219.624,60.468425300247674
3220.5473,53.98801690153074
3221.4701,55.80634139026421
3222.3922,60.42344072879257
3223.3137,60.08935632139689
3224.2346,63.4041289681239
3225.1549,62.16779886812684
3226.0746,64.33040558651764
3226.9937,62.441988066730275
3227.9121,63.602584608894674
3228.83,60.76223288872104
3229.7473,68.62096994589365
3230.6639,62.478832212474586
3231.5799,67.23585543431619
3232.4954,67.69207473248257
3233.4102,68.54752455567925
3234.3244,66.75223867569103
3235.238,69.95625017882753
3236.151,71.00959148387601
3237.0634,71.06229431006113
3237.9752,67.16438966651177
3238.8864,71.46590785173377
3239.797,71.56687849258924
3240.7069,73.46733050128117
3241.6163,73.71729207434379
3242.5251,79.06679067363805
3243.4332,71.46585302385199
3244.3408,74.31450505900577
3245.2477,73.91277199846098
3246.154,80.01067831843427
3247.0598,73.40824775601455
3247.9649,75.30550324818394
3248.8694,76.65246699784215
3249.7733,79.19916045483384
3250.6766,78.89560430247901
3251.5793,78.5918184321061
3252.4814,81.5378219460874
3253.3829,82.93363316087718
3254.2838,81.72926957755139
3255.1841,82.07474786784972
3256.0838,81.32008388621918
3256.9829,81.9652926663593
3257.8814,84.71038842876882
3258.7792,86.20538457429353
3259.6765,83.40029365667537
3260.5731,86.39512736760243
3261.4692,85.23989656475986
3262.3647,82.23461124188157
3263.2595,85.87928054030245
3264.1538,83.27391277901137
3265.0474,81.36851541820435
3265.9404,85.41309508533833
3266.8329,85.20765759418506
3267.7247,85.50220790438536
3268.616,80.94675012350346
3269.5066,82.84128750408154
3270.3966,83.38582248919425
3271.286,78.0803566935034
