RamanShift,CorrectedData
30.1047,6738.18706495089
32.3739,6286.437628495037
34.6426,5842.888124657312
36.9109,5394.488423191469
39.1787,4953.738335422379
41.4461,4514.3376187300255
43.7131,4073.83598095701
45.9796,3631.8330848025544
48.2456,3192.328552227516
50.5112,2761.32196887442
52.7764,2322.5128884625055
55.0411,1893.0508370977898
57.3054,1461.6853176611608
59.5692,1030.4158141029975
61.8326,603.5917957568251
64.0955,190.01272165201067
66.3579,-228.22195521799676
68.6199,-634.4627837598749
70.8815,-981.6080329429697
73.1426,-1229.0496334534173
75.4032,-1139.2697097131058
77.6634,-203.8881079380899
79.9231,2863.7867069599793
82.1824,10535.748306911644
84.4412,31228.940235209582
86.6995,58023.85592978899
88.9574,59346.93851629566
91.2148,58853.63054013684
93.4717,58375.12395325037
95.7282,57906.96011903781
97.9842,57438.62981714947
100.2398,56977.37324816606
102.4949,56512.93003828201
104.7495,56053.339243917995
107.0036,55594.88935636543
109.2573,55137.668306382315
111.5105,54678.11346877777
113.7632,54225.01166698425
116.0154,53756.599177653065
118.2672,53306.961735185425
120.5185,52856.83453641654
122.7693,52397.65224511205
125.0197,51942.09899646917
127.2696,51487.75840170866
129.519,51033.76355263027
131.7679,50580.597026156174
134.0163,50128.79088887093
136.2642,49685.026701553106
138.5117,49228.3855236934
140.7587,48783.34791793222
143.0052,48338.793954626155
145.2512,47896.15321629829
147.4967,47456.45480208379
149.7417,47017.327332156274
151.9863,46567.09895212485
154.2304,46124.697337425336
156.4739,45689.09969782256
158.717,45249.482781834406
160.9596,44813.072881087755
163.2017,44380.49583471464
165.4433,43946.827033716385
167.6844,43519.99142528939
169.925,43086.36351716174
172.1651,42661.46738186166
174.4047,42232.1766610537
176.6439,41809.11456978778
178.8825,41380.20390079204
181.1206,40955.217028703446
183.3582,40534.22591435698
185.5954,40114.25210903541
187.832,39696.6167586793
190.0681,39276.94060808669
192.3037,38865.894005089445
194.5388,38452.34690475011
196.7734,38040.86887347225
199.0075,37631.77909313598
201.2411,37222.64636521274
203.4742,36818.58911485622
205.7068,36414.72539499366
207.9389,36011.62289036638
210.1704,35610.84892156852
212.4015,35210.620449077964
214.632,34826.054077264154
216.862,34440.016058390305
219.0915,34055.27229645915
221.3205,33670.48835107324
223.549,33290.32944128242
225.777,32901.160449431634
228.0044,32515.245924962575
230.2314,32134.750088305347
232.4578,31756.386834737583
234.6837,31374.069738189457
236.909,30997.11205502729
239.1339,30598.926727876715
241.3582,30237.176389392298
243.582,29843.523366239322
245.8053,29488.77968271134
248.0281,29127.157064666666
250.2503,28762.966943075786
252.472,28393.120457637662
254.6932,28039.428460421594
256.9139,27679.901519565705
259.134,27324.549922813858
261.3536,26970.233681110876
263.5727,26618.56253215614
265.7912,26272.19594394668
268.0092,25929.09311829394
270.2267,25581.462994287416
272.4436,25241.164251725684
274.6601,24899.455314592706
276.8759,24563.99435446079
279.0913,24224.239293907733
281.3061,23894.4978098714
283.5204,23561.37733704729
285.7341,23229.93507118593
287.9473,22893.477972424087
290.16,22574.962768599216
292.3721,22258.445958613993
294.5837,21936.283815621493
296.7947,21623.882390190367
299.0052,21302.247513526483
301.2152,20994.134800596883
303.4246,20691.749653346196
305.6334,20383.647263777675
307.8418,20073.782616977165
310.0495,19767.110494194087
312.2568,19463.535475940065
314.4635,19166.0119450556
316.6696,18873.44408974592
318.8752,18570.185906556108
321.0802,18282.49120329682
323.2847,17996.96360207691
325.4887,17704.80654218032
327.692,17419.373282921413
329.8949,17134.31690656649
332.0972,16854.490321188117
334.2989,16576.29626351573
336.5001,16297.987301733869
338.7007,16027.165838264118
340.9008,15748.634112548207
343.1003,15482.14420375623
345.2992,15219.598033571994
347.4976,14955.047368857879
349.6955,14687.643824280327
351.8927,14427.688864955322
354.0895,14160.983809122423
356.2856,13914.029830744374
358.4812,13666.02796217407
360.6763,13416.02909662416
362.8707,13170.33399064705
365.0646,12924.443266634873
367.258,12680.757415276421
369.4508,12434.226798016112
371.643,12198.201649490795
373.8346,11963.232079995083
376.0257,11724.768077841567
378.2162,11496.659511710539
380.4062,11267.456133034655
382.5956,11041.357578279989
384.7844,10818.963371238082
386.9726,10597.472925286944
389.1603,10378.485545614967
391.3474,10128.000431435888
393.5339,9949.816678178606
395.7199,9741.133279992056
397.9052,9535.19913152702
400.09,9326.963030022962
402.2743,9126.623677367374
404.4579,8925.729682178157
406.641,8723.679561807003
408.8235,8523.071744348359
411.0054,8331.804570659915
413.1868,8131.876296368711
415.3675,7939.885093783763
417.5477,7750.029053895341
419.7273,7562.606188294922
421.9064,7371.4644310736985
424.0848,7194.451640696861
426.2627,7014.615601914935
428.4399,6836.054027533952
430.6166,6656.414560213794
432.7928,6486.544774253809
434.9683,6320.892177389258
437.1432,6155.854212489983
439.3176,5992.478259216936
441.4914,5834.161635672564
443.6645,5667.401600034595
445.8371,5503.545352139146
448.0091,5350.640035148339
450.1806,5197.132737188949
452.3514,5049.070492881372
454.5216,4895.500284874717
456.6913,4750.719045327402
458.8603,4610.873657442869
461.0288,4474.960956917399
463.1967,4334.727733338521
465.3639,4189.420731544218
467.5306,4056.0866530251806
469.6967,3924.072157377952
471.8622,3793.7238636382026
474.0271,3663.7383516008776
476.1914,3530.812163123781
478.3551,3406.5918034273345
480.5182,3288.4737424238774
482.6807,3178.204415959859
484.8426,3068.6802269970503
487.0039,2943.7475467151744
489.1647,2824.602715607216
491.3248,2710.692044728654
493.4843,2607.061816888978
495.6432,2501.408287790822
497.8015,2389.2276870662245
499.9592,2283.7162193331824
502.1163,2188.020065317425
504.2728,2101.6853829075335
506.4287,2010.6083081119068
508.5839,1916.334955922117
510.7386,1823.9114212236163
512.8927,1721.6837797385597
515.0461,1638.648088949958
517.199,1551.9003891240718
519.3512,1470.136704140772
521.5029,1389.9030423609074
523.6539,1316.945397444033
525.8043,1241.1097491506953
527.9541,1162.7920640720185
530.1033,1096.5382963880547
532.2519,1025.7943886509747
534.3999,959.0062724476375
536.5472,896.3198691069483
538.694,836.9810903677862
540.8401,770.8358390058711
542.9856,711.4300094271894
545.1305,639.8594883293626
547.2748,586.6201552957209
549.4185,533.7078835110224
551.5615,489.4126858246018
553.704,440.9692433440141
555.8458,405.30734794406453
557.987,360.1023862167276
560.1276,321.37569573354267
562.2675,281.6450166431896
564.4069,239.92487855110085
566.5456,206.0269974289622
568.6837,175.46069239886128
570.8212,145.38322437317402
572.958,112.9501014119669
575.0942,93.11537919680268
577.2299,66.48198503772437
579.3648,52.851916022125806
581.4992,37.026505082292715
583.6329,14.35655715980829
585.766,-7.757492698525311
587.8985,-34.865352867971524
590.0304,-73.41665422642836
592.1616,-79.71067934699386
594.2922,-99.19597737040021
596.4222,-112.4203011276768
598.5515,-131.7304124821385
600.6802,-140.92195021828957
602.8083,-145.2392371339156
604.9358,-154.07518821652775
607.0626,-164.7712675137518
609.1888,-179.06739986207685
611.3144,-177.3018640330265
613.4393,-184.21114991485956
615.5636,-192.9299761502116
617.6873,-189.79122111241304
619.8103,-190.92583580439532
621.9327,-193.81287521478953
624.0544,-187.02948698317778
626.1756,-190.40088255859882
628.2961,-192.75040496558358
630.4159,-194.34949512388994
632.5351,-191.8676683767917
634.6537,-186.87249851610977
636.7716,-189.57964257572894
638.8889,-185.2028907332642
641.0056,-180.40413926575275
643.1216,-174.54343427336426
645.237,-167.57901961891184
647.3518,-152.36739547633624
649.4659,-140.6633879052024
651.5793,-132.02030081481644
653.6922,-127.59003288727399
655.8043,-118.8731639218895
657.9159,-109.2689990935396
660.0268,-99.87684238833026
662.137,-95.49599669966119
664.2466,-90.17576392211049
666.3556,-73.1654449952548
668.4639,-59.16433995695115
670.5716,-43.12174811333534
672.6786,-30.03696817882883
674.785,-22.50929843661288
676.8907,-1.5880368694779463
678.9958,17.577518764912384
681.1002,28.988070724830322
683.204,38.0443210927333
685.3072,53.89697166127007
687.4097,76.34672384268924
689.5115,92.4942785103267
691.6127,117.7903357740579
693.7132,137.63559481880657
695.8131,137.43075365165714
697.9123,173.1765089033579
700.0109,189.82355583038589
702.1089,219.37258795748494
704.2061,242.7242969111685
706.3028,257.8293721242517
708.3987,286.3885006023702
710.4941,313.6023667728732
712.5887,341.92165219927847
714.6827,361.04703530910774
716.7761,393.6291911107255
718.8688,419.31879100200604
720.9608,439.8165024445916
723.0522,461.32298870695377
725.1429,496.43890865943104
727.233,525.5149165591793
729.3224,560.4016616989757
731.4112,591.1997881165153
733.4993,619.4099342455011
735.5867,652.7827326076149
737.6735,684.1688095304708
739.7596,713.868784813887
741.845,751.2832714159958
743.9298,784.0128751562515
746.014,816.3581943413155
748.0974,848.1698194377022
750.1802,886.398332748402
752.2624,923.5943080946672
754.3439,964.3083104337857
756.4247,991.6408954871586
758.5048,1039.2426093331305
760.5843,1074.51398813368
762.6631,1115.5055576583327
764.7413,1158.6178329314935
766.8188,1200.2013178225607
768.8956,1239.0565046147894
770.9718,1283.1338735894533
773.0473,1325.5838926372671
775.1221,1368.4070168176186
777.1962,1414.2036879341176
779.2697,1455.1243341063455
781.3426,1483.219369311846
783.4147,1548.3891929769961
785.4862,1597.184189695945
787.557,1638.954728579025
789.6271,1689.4011627647196
791.6966,1737.9738290020032
793.7654,1787.4230471458286
795.8335,1840.5491196714866
797.901,1889.8523311800382
799.9678,1936.3829478671396
802.0339,1986.4912170299722
804.0993,2028.0773666019304
806.1641,2092.5416046515384
808.2282,2142.634118966591
810.2916,2193.3550764094834
812.3544,2263.8546224163147
814.4164,2300.832880489659
816.4778,2350.439951493594
818.5385,2404.9259132838997
820.5986,2465.6908202120103
822.658,2528.5347025801675
824.7166,2591.8075660337563
826.7747,2627.609390932812
828.832,2696.790131719361
830.8886,2766.899716559361
832.9446,2830.688046650932
834.9999,2832.8049955232273
837.0545,2935.3004083985434
839.1085,3014.8241021711874
841.1618,3068.425864382465
843.2143,3079.805452425513
845.2662,3150.312593009272
847.3175,3241.9469820446684
849.368,3227.6582839394614
851.4179,3355.696130681943
853.467,3371.8101219838645
855.5155,3468.2998240000743
857.5633,3487.064769167322
859.6105,3544.554455239384
861.6569,3628.5183450994227
863.7027,3640.405866185036
865.7478,3740.166409648693
867.7922,3794.8993302388917
869.8359,3910.303945302432
871.8789,3910.22953423718
873.9212,3993.3253373379994
875.9629,4116.290555797459
878.0039,4192.224350874931
880.0441,4243.225842666907
882.0837,4314.544109347669
884.1226,4385.578186659317
886.1609,4442.727067198473
888.1984,4486.7396997060205
890.2352,4608.014988495634
892.2714,4608.30179301359
894.3069,4738.248926626067
896.3416,4793.255156616207
898.3757,4861.519202884701
900.4091,4803.189737399691
902.4418,5030.815383514171
904.4739,5033.744716549227
906.5052,5124.3262615178755
908.5358,5150.308493095712
910.5658,5209.039834715091
912.595,5289.0186583053
914.6236,5188.493283705269
916.6515,5531.811977863763
918.6786,5375.272955844666
920.7051,5535.624377393688
922.7309,5576.914348503837
924.756,5726.790919811894
926.7804,5740.152086185524
928.8041,5606.745785224506
930.8272,5881.61989712713
932.8495,5971.522246024288
934.8711,5890.100597230688
936.892,5787.452656345813
938.9123,5994.72607006818
940.9318,5915.068427221791
942.9506,5953.777256683388
944.9688,6076.250028179042
946.9862,5666.434151897069
949.003,6000.776977263333
951.019,5584.52579703935
953.0344,5816.777843978925
955.0491,5874.330294990592
957.063,6150.430268815144
959.0763,6291.624825450082
961.0888,5940.010963388624
963.1007,6359.6856182078045
965.1119,6473.695666084546
967.1223,6235.587919598947
969.1321,6708.059126594155
971.1412,6261.705972557444
973.1495,6146.625075895536
975.1572,6505.362992398113
977.1641,6359.516216388656
979.1704,6442.331177137043
981.1759,6591.9042403180065
983.1808,6321.081707182995
985.1849,6448.709813064474
987.1884,6785.534730084117
989.1911,7229.052565876547
991.1932,6323.209360221066
993.1945,6689.701080606472
995.1951,7068.673631289479
997.1951,6550.122849629806
999.1943,6473.694502300452
1001.1928,6312.83429047322
1003.1906,6634.187850582966
1005.1877,5805.050755936238
1007.1841,5615.968513497704
1009.1798,5777.636572181531
1011.1748,5757.200324742247
1013.1691,5662.405106158018
1015.1627,4085.1461938349894
1017.1556,4713.5188085552945
1019.1477,5014.918130249629
1021.1392,4299.939291713505
1023.1299,3568.8273755933333
1025.12,4218.0274215361205
1027.1093,3906.884433500629
1029.0979,3996.7933732653983
1031.0859,3939.5491635401268
1033.0731,3282.5466870665914
1035.0596,3620.1307871910903
1037.0454,3555.1962744344637
1039.0304,3135.58792311624
1041.0148,2465.3504720040073
1042.9985,2683.5286285094553
1044.9814,3096.0670753908125
1046.9636,2432.060468571006
1048.9452,2525.9534330123206
1050.926,2427.690569356455
1052.9061,2432.716452985602
1054.8855,2614.375635005046
1056.8642,2283.3626421929293
1058.8421,2136.021975183721
1060.8194,2225.6481117782605
1062.7959,2058.5855084171853
1064.7717,2365.4785992847246
1066.7469,2268.4717979792695
1068.7213,2281.3094944444456
1070.695,2087.4360559392007
1072.6679,1751.145826909371
1074.6402,1925.3831309265006
1076.6117,1778.4922740506736
1078.5826,1913.1175430881558
1080.5527,1909.7032070603454
1082.5221,1924.1935158574634
1084.4908,2224.682700272744
1086.4587,2372.2649718575267
1088.426,2577.3845199163334
1090.3925,2533.835510031058
1092.3584,2425.612082009793
1094.3235,2051.408350322323
1096.2879,1903.5184051823453
1098.2515,1896.6363162894704
1100.2145,1922.3561343081747
1102.1767,1914.3718909365489
1104.1382,2163.0775986491135
1106.099,2252.7172507766954
1108.0591,2345.334819019321
1110.0185,2257.6742525499067
1111.9771,2484.57947708798
1113.9351,2149.4443957764233
1115.8923,1738.312886912281
1117.8488,1305.128807298228
1119.8045,879.0859963538242
1121.7596,871.5782804473711
1123.7139,742.7994771563099
1125.6675,747.1433953422966
1127.6204,864.8038364390377
1129.5726,828.8745944088805
1131.524,952.8494545661306
1133.4748,1091.9221939363924
1135.4248,1001.3865800167914
1137.3741,1094.8363693852953
1139.3226,1069.3653086060003
1141.2705,1131.6171332946979
1143.2176,926.4855683735805
1145.164,955.3643274486967
1147.1097,907.4971148612603
1149.0546,1035.127625398818
1150.9989,944.2995447739813
1152.9424,855.0565483480896
1154.8852,677.942302039577
1156.8272,497.0504632163138
1158.7686,531.2746824667483
1160.7092,382.508605408897
1162.6491,292.44587234804203
1164.5883,478.18011976443813
1166.5267,500.70498121387936
1168.4644,721.2140854703975
1170.4014,852.3510563010059
1172.3377,1199.359510260576
1174.2732,1427.6330553804728
1176.2081,1636.015287698494
1178.1421,1782.4997889761216
1180.0755,1991.1801246147152
1182.0082,1880.0998421906697
1183.9401,1888.352469368605
1185.8713,1615.5815150121489
1187.8017,1393.7804691014317
1189.7315,1205.6928054607706
1191.6605,801.011983976714
1193.5888,596.9814524789253
1195.5163,554.1946507869288
1197.4432,459.4950127504999
1199.3693,296.17596667745966
1201.2947,168.58093628069037
1203.2193,103.40334231132147
1205.1432,219.63660383474053
1207.0664,264.1741388823066
1208.9889,308.00936328902753
1210.9106,305.03569024819444
1212.8316,391.94652987302106
1214.7519,472.7352892263589
1216.6715,409.5453714516334
1218.5903,473.4701749649321
1220.5084,436.25309408690373
1222.4257,419.6875184035234
1224.3424,234.36683313821413
1226.2583,329.2344193175886
1228.1735,447.8836556245369
1230.0879,521.3579174496481
1232.0016,609.6505757046762
1233.9146,663.1049960878008
1235.8269,537.1145382007453
1237.7384,479.12255501418986
1239.6492,199.97239412769704
1241.5592,182.55739834961423
1243.4686,40.120908488563146
1245.3772,-4.843736472394085
1247.285,-117.14319795139454
1249.1922,-160.43413731811597
1251.0986,-116.62204568168818
1253.0042,-229.31081141426694
1254.9092,-75.25315783372935
1256.8134,-8.949517442990327
1258.7169,239.90042903407448
1260.6196,421.79709027922945
1262.5216,645.5408725752495
1264.4229,793.2321779869671
1266.3234,888.3214021238018
1268.2232,1009.0089326628731
1270.1223,994.8951483981073
1272.0207,1007.3304180333434
1273.9183,934.0151003234787
1275.8151,899.2495439501436
1277.7113,812.1340882548393
1279.6067,657.9690635865772
1281.5014,498.2547921730875
1283.3953,380.0415896623963
1285.2885,354.17976672000805
1287.181,290.81963021101546
1289.0727,416.3114834587468
1290.9637,401.20562687836355
1292.854,654.802356721957
1294.7435,741.251965229545
1296.6323,973.954738093169
1298.5204,1256.4609535923082
1300.4077,1568.420880266909
1302.2943,1762.934774092355
1304.1802,2005.502875359809
1306.0653,1882.075406731121
1307.9497,1790.8525708131492
1309.8333,1790.4845513920227
1311.7162,1790.9215143453184
1313.5984,1905.6636076458162
1315.4798,2058.2609613570457
1317.3605,2249.663686485954
1319.2405,2509.571873456858
1321.1197,2568.4355901974996
1322.9982,2535.104879539904
1324.876,2632.22975863178
1326.753,2593.810219269799
1328.6293,2745.34622692837
1330.5048,2854.9377211437823
1332.3796,2794.7346139989095
1334.2537,2837.4367890272333
1336.127,2755.1441018149126
1337.9996,2764.206379573756
1339.8714,2734.573421964131
1341.7426,2648.6950010043947
1343.6129,2638.2708613671493
1345.4826,2540.500721238088
1347.3515,2640.6842724202143
1349.2196,2564.5711813115267
1351.087,2632.7110879032225
1352.9537,2709.4536065407956
1354.8197,2894.3983252426406
1356.6849,3159.944804932624
1358.5493,3196.0425775906224
1360.4131,3239.291143597089
1362.276,3129.9899713720806
1364.1383,2948.8884969427745
1365.9998,2736.7361250364374
1367.8606,2414.7822308914983
1369.7206,2210.676162379019
1371.5799,2090.6172432222775
1373.4384,1957.6547750377977
1375.2962,1886.2380385359538
1377.1533,1638.7162948505866
1379.0096,1308.7887862531607
1380.8652,1095.4047386280254
1382.7201,901.4633647716255
1384.5742,576.8638665263752
1386.4275,438.2054367200617
1388.2802,361.18726241187323
1390.132,248.0585262789573
1391.9832,324.5184073866076
1393.8336,136.0160823195656
1395.6832,105.25072441740485
1397.5322,80.87150565956472
1399.3803,32.02759697299189
1401.2278,-63.48183152406273
1403.0745,9.692389966374321
1404.9204,-46.34993457426026
1406.7656,-18.159001261432422
1408.6101,15.715456825186266
1410.4538,-111.57611198565792
1412.2968,-14.68325952235682
1414.139,2.745577032052097
1415.9805,106.86210718028815
1417.8213,184.3180129967368
1419.6613,318.664975487176
1421.5006,546.054673814222
1423.3391,792.488783953846
1425.1769,1124.1689764214643
1427.0139,1720.946913807602
1428.8502,2375.0742474611216
1430.6858,2940.252611521435
1432.5206,3328.133616377192
1434.3547,3670.368843014552
1436.188,3759.359839138335
1438.0206,3741.8581157496847
1439.8524,3605.8651462561465
1441.6835,3512.032366646712
1443.5139,3410.1611768517105
1445.3435,3340.4529416811783
1447.1724,3367.858991843572
1449.0005,3310.680624642817
1450.8279,3261.119103704277
1452.6545,3245.025659546547
1454.4804,3359.651490077016
1456.3056,3341.5477607528665
1458.13,3279.9656034347427
1459.9536,3146.1561165678613
1461.7766,2805.6203657977785
1463.5987,2380.509385308491
1465.4202,1998.124181227795
1467.2409,1660.4657358783988
1469.0608,1447.9350116017886
1470.88,1218.4329541347906
1472.6984,1031.710494734918
1474.5161,788.4185524753811
1476.3331,666.5080361122964
1478.1493,656.4298465176253
1479.9648,629.0348778982516
1481.7795,489.37401789680007
1483.5935,502.24814786553543
1485.4067,450.3081442629882
1487.2192,507.65487852524166
1489.031,489.4892175852947
1490.842,450.8120232996116
1492.6522,461.6741526297883
1494.4618,446.5264580293224
1496.2705,452.61978733496653
1498.0785,445.0549839182204
1499.8858,466.3828866243857
1501.6924,429.7543298482051
1503.4981,490.9201433206217
1505.3032,484.0311524750505
1507.1075,475.9881778356794
1508.911,448.1920350864166
1510.7138,476.2935351512715
1512.5159,433.4434844723619
1514.3172,403.29268472888
1516.1178,357.3419332656049
1517.9176,403.7920233943805
1519.7166,340.4937448536293
1521.515,362.09788334388577
1523.3126,419.4552211607552
1525.1094,363.76653697888105
1526.9055,317.38260527835155
1528.7008,317.65419690160707
1530.4954,234.53207951727018
1532.2893,317.71701761744043
1534.0824,231.15977334889976
1535.8747,237.26110568127478
1537.6663,235.77177127260074
1539.4572,243.24252440832788
1541.2473,263.97411701618694
1543.0367,282.26729859149054
1544.8253,234.77281598983973
1546.6132,284.04141324418015
1548.4003,237.0738320397286
1550.1867,281.67081122132004
1551.9723,301.18308726307805
1553.7572,379.86139382242254
1555.5414,380.65646154494607
1557.3247,441.819017277634
1559.1074,484.44978406092196
1560.8893,522.8494805170812
1562.6705,580.5188204238766
1564.4509,627.6085123306038
1566.2305,667.519258981356
1568.0094,912.8017568441574
1569.7876,1021.2066957118659
1571.565,1084.7847562493153
1573.3417,1188.9366089092982
1575.1176,1214.16291329675
1576.8928,1214.0643171272495
1578.6672,1114.2414559747594
1580.4409,1040.994953272606
1582.2138,872.1254213117172
1583.986,771.8834619730806
1585.7575,719.9196684164381
1587.5282,650.0346260826955
1589.2981,629.3789132135826
1591.0673,504.9531015504763
1592.8358,523.0077565409847
1594.6035,540.3434385831788
1596.3704,510.26070284506204
1598.1366,513.5600990912317
1599.9021,590.1921719836537
1601.6668,613.9074610487332
1603.4308,655.8564999109367
1605.194,761.7398160556986
1606.9564,800.1579304098705
1608.7182,964.2113562829436
1610.4791,1051.1505989828147
1612.2394,1190.4761541752814
1613.9988,1402.7885070146403
1615.7576,1654.5381307504394
1617.5156,1922.675484604344
1619.2728,2232.6010112526346
1621.0293,2422.3151341448574
1622.785,2483.0682544045594
1624.54,2427.260748932131
1626.2942,2291.6429697973
1628.0477,2019.2652447972105
1629.8005,1817.177878812563
1631.5525,1593.7811565314369
1633.3037,1387.5253444701339
1635.0542,1250.8606932071489
1636.804,1104.887439445749
1638.553,1030.65580738059
1640.3013,982.7660101574729
1642.0488,903.518250615638
1643.7955,952.1627217666901
1645.5416,954.5496075870687
1647.2868,1024.2290825315722
1649.0313,1065.3013115095273
1650.7751,1260.816449187976
1652.5181,1430.5746395809474
1654.2604,1668.4260140943334
1656.0019,1981.7206898282893
1657.7427,2389.20876719871
1659.4828,2766.3403268042966
1661.222,3043.4654253516746
1662.9606,3115.7340918840673
1664.6984,3024.3463250100212
1666.4354,2746.80209218078
1668.1717,2287.201330604119
1669.9072,1841.3439500198037
1671.642,1461.579837295587
1673.3761,1245.008860885806
1675.1094,994.0808746289949
1676.8419,808.5457199136072
1678.5737,693.4032281873115
1680.3048,585.4532228123207
1682.0351,502.9455202168283
1683.7646,409.27993097450235
1685.4934,391.6562606295556
1687.2215,368.12431063340046
1688.9488,306.7338785209067
1690.6754,282.734758145707
1692.4012,311.1767402940859
1694.1263,260.65961292499924
1695.8506,253.7831608856286
1697.5742,241.19716641657578
1699.297,189.30140922061037
1701.0191,158.39566658853437
1702.7404,164.52971391814572
1704.461,90.20332502329256
1706.1808,84.06627207253769
1707.8999,90.21832633242593
1709.6182,86.6592582288431
1711.3358,107.088837285497
1713.0527,89.75683215952449
1714.7688,76.26301043717103
1716.4841,28.757138807133742
1718.1987,54.23898319546424
1719.9126,34.758309240671224
1721.6257,51.11488203888439
1723.338,58.708466338654034
1725.0496,25.388826377384248
1726.7605,42.90572580541448
1728.4706,12.308928019205268
1730.18,-22.601804013849687
1731.8886,-31.87670744943898
1733.5964,-18.315793651236163
1735.3036,-30.41875553461432
1737.0099,3.6648969598263648
1738.7156,9.53595777485134
1740.4204,-20.304779183421488
1742.1246,23.94347989576636
1743.8279,36.93173166791166
1745.5306,32.110972549078724
1747.2325,28.232198586025333
1748.9336,25.14640550439799
1750.634,23.20458874752694
1752.3336,61.50774350728534
1754.0325,75.1068647435095
1755.7307,68.15294680096122
1757.4281,128.49698327334409
1759.1247,140.48996707283368
1760.8206,142.83288982664453
1762.5158,121.27674175709399
1764.2102,125.82251165817979
1765.9039,88.6211871111409
1767.5968,119.62375443899509
1769.289,103.7811990785558
1770.9804,117.09450527041554
1772.6711,143.01465621735406
1774.361,142.79263395123235
1776.0502,187.6794190737637
1777.7386,180.42599075874023
1779.4263,187.53332630317163
1781.1132,204.30240119980954
1782.7994,179.43418906608713
1784.4849,173.07966147641855
1786.1696,160.58978821089113
1787.8535,172.36553731879758
1789.5367,186.8078752435522
1791.2192,218.91776670490617
1792.9009,207.046174554529
1794.5818,216.44405945491053
1796.2621,225.11237999808327
1797.9415,223.65209261165182
1799.6202,225.2641514721072
1801.2982,276.4995085194296
1802.9755,265.35911344096894
1804.6519,314.19391315909525
1806.3277,247.30485194258836
1808.0027,259.5428709182979
1809.6769,286.40890874003344
1811.3504,288.453901466175
1813.0231,310.1787822910301
1814.6951,282.38448152437377
1816.3664,309.7719263742001
1818.0369,323.99204122466654
1819.7067,307.6457473622122
1821.3757,308.98396283336297
1823.044,346.45760260820134
1824.7115,378.91757856697586
1826.3783,321.4647991253569
1828.0443,314.3001689098528
1829.7096,363.62458933232483
1831.3741,350.4889586616446
1833.0379,347.7441715304376
1834.701,358.0411190664472
1836.3633,401.0806889199648
1838.0248,350.7137651608773
1839.6856,377.69122784827414
1841.3457,418.3639535341008
1843.005,418.0828149934059
1844.6636,447.6486808176014
1846.3214,425.31241541728014
1847.9785,475.77487872654456
1849.6349,474.2369264263889
1851.2904,464.1994094400616
1852.9453,484.16317394843645
1854.5994,472.1790614903948
1856.2528,513.5479087631866
1857.9054,518.5205477422824
1859.5572,529.2978052676772
1861.2083,552.9805029941763
1862.8587,590.969457283607
1864.5084,572.1154789680004
1866.1572,545.9193729696963
1867.8054,537.3319384898896
1869.4528,581.303969270577
1871.0994,578.13625368045
1872.7453,547.9295742751638
1874.3905,558.5347078290088
1876.0349,544.5524256369899
1877.6786,600.5334934087659
1879.3215,608.0786714084807
1880.9637,619.1887138949423
1882.6051,641.3643690461959
1884.2458,617.9063788483909
1885.8858,614.5654788740485
1887.525,621.5923985166246
1889.1634,582.9878610239302
1890.8011,559.7525834278531
1892.4381,618.5872769303987
1894.0743,637.1426471360628
1895.7098,634.7693934634626
1897.3446,643.5182089598075
1898.9786,614.6397803246164
1900.6118,658.8347878222339
1902.2443,597.2539055706129
1903.8761,592.1478010993596
1905.5071,579.6171359655473
1907.1374,587.0625658047793
1908.7669,600.834740456492
1910.3957,600.7843038895007
1912.0237,560.4618940642886
1913.651,587.9681429335033
1915.2776,577.8536768451831
1916.9034,575.0191162676838
1918.5285,548.1150758908352
1920.1528,538.6921646542796
1921.7764,547.8509860165141
1923.3992,545.2921380491189
1925.0213,487.36621334516167
1926.6427,483.8237990447851
1928.2633,503.56547741447685
1929.8832,489.79182588249387
1931.5023,449.1534168414328
1933.1207,488.60081778598396
1934.7383,483.1345917193157
1936.3552,483.30529675859
1937.9714,483.11348618962256
1939.5868,473.5597084651836
1941.2015,451.0445072069124
1942.8154,441.91842130086116
1944.4286,385.0319851226395
1946.041,372.73572862867513
1947.6528,366.5301779250767
1949.2637,355.16585539060907
1950.8739,395.19327973873624
1952.4834,397.2129661312647
1954.0921,388.32542577807544
1955.7001,348.58116591693397
1957.3074,359.7806899023544
1958.9139,342.0744976030419
1960.5197,376.56308528990303
1962.1247,345.0469458131065
1963.729,319.07656825718914
1965.3325,334.60243825623
1966.9353,338.37503825354725
1968.5374,317.5448473464385
1970.1387,293.76234124846087
1971.7393,305.3779924977225
1973.3392,285.89227069471053
1974.9383,277.1056423861264
1976.5366,244.91857125977003
1978.1342,285.83151823238586
1979.7311,294.9949417715343
1981.3273,264.65929748646704
1982.9227,275.3750380365
1984.5173,268.392613434351
1986.1112,239.66247093899256
1987.7044,246.4350551254829
1989.2968,257.71080817225084
1990.8885,260.19016979338994
1992.4795,270.42357712588637
1994.0697,246.6114647048289
1995.6592,268.60426436108173
1997.2479,237.40240545939378
1998.8359,234.95631467848216
2000.4232,212.366416323046
2002.0097,237.03313234822963
2003.5955,198.9068825855138
2005.1805,232.53808449605276
2006.7648,233.07715355193795
2008.3484,251.02450289987246
2009.9312,253.2305433558049
2011.5133,241.3456832254269
2013.0946,234.97032828213378
2014.6752,247.10488188586896
2016.2551,252.2997450468756
2017.8342,237.30531630435325
2019.4126,234.57199167451108
2020.9902,218.50016480050908
2022.5672,211.94022697979017
2024.1433,218.24256732480717
2025.7188,207.2075728286036
2027.2935,185.03562830180272
2028.8674,171.47711648295444
2030.4406,205.68241826025587
2032.0131,173.35191280714025
2033.5849,178.28597724021893
2035.1559,185.28498694258997
2036.7261,235.84931551449336
2038.2957,203.8793347033261
2039.8645,201.67541389799044
2041.4325,232.13792044860384
2042.9998,212.61721968852544
2044.5664,189.36367462974886
2046.1323,208.97764615809683
2047.6974,197.3594932657652
2049.2617,210.60957285516633
2050.8254,227.97823985512878
2052.3883,247.81584708838272
2053.9504,208.9227450978815
2055.5118,209.04928194841705
2057.0725,201.44580361555927
2058.6325,232.61265398439173
2060.1917,214.05017492553816
2061.7502,222.50870598350411
2063.3079,188.2385845622939
2064.8649,189.0901458408298
2066.4212,197.7137231156521
2067.9767,193.75964779239803
2069.5315,181.67824929956987
2071.0856,203.66985512807878
2072.6389,167.83479095205985
2074.1915,154.72338040894465
2075.7433,125.48594545782908
2077.2945,141.92280651057445
2078.8448,143.23428272418823
2080.3945,117.27069183645472
2081.9434,156.33235015281753
2083.4916,162.26957280602346
2085.039,138.33267336550125
2086.5857,138.77196377797918
2088.1317,139.7877546068703
2089.677,148.4303550278637
2091.2215,136.05007281877624
2092.7652,141.5472142731287
2094.3083,171.62208432394254
2095.8506,174.77498648877736
2097.3921,181.00622256896622
2098.933,169.91609261809936
2100.4731,168.60489487970517
2102.0124,186.67292589816316
2103.5511,177.2704805318026
2105.089,181.14785177222802
2106.6261,193.55533083834325
2108.1626,187.39320713757388
2109.6983,181.21176814180217
2111.2332,180.76129944898094
2112.7675,169.84208484494957
2114.301,180.25440630793582
2115.8337,215.09854411774995
2117.3657,206.12477675165337
2118.897,206.28338053593234
2120.4276,211.42462973563033
2121.9575,175.94879655296063
2123.4866,213.25615107589874
2125.0149,214.14696163293775
2126.5426,187.72149442001228
2128.0695,196.23001349159858
2129.5956,211.22278102496148
2131.1211,212.3500572350731
2132.6458,216.76210022468058
2134.1698,214.35916597303458
2135.693,222.39150829176924
2137.2155,213.7093788489301
2138.7373,212.1130270886506
2140.2584,206.80270031797227
2141.7787,195.77864372281238
2143.2983,190.04110042106367
2144.8171,194.34031157283425
2146.3353,177.47651643782774
2147.8527,192.54995233234513
2149.3693,220.11085479792837
2150.8853,196.00945745062018
2152.4005,184.49599170535566
2153.9149,174.0706870169788
2155.4287,158.83377099537938
2156.9417,229.58546950974142
2158.454,210.77600684091522
2159.9655,190.55560497389706
2161.4764,212.9744837859289
2162.9865,215.18286124870338
2164.4958,184.98095320416815
2166.0045,192.06897334244786
2167.5124,181.99713350386355
2169.0195,201.76564360804605
2170.526,222.17471175465653
2172.0317,214.37454402570165
2173.5367,208.0153442814426
2175.0409,206.74731423839785
2176.5445,230.87065353293383
2178.0473,210.98555973394923
2179.5494,189.04222810163446
2181.0507,195.79085178633431
2182.5513,196.33162204796918
2184.0512,209.9647281885591
2185.5504,191.79035754681172
2187.0488,175.60869536179416
2188.5465,179.01992495466493
2190.0435,173.7742278905116
2191.5397,167.921783944219
2193.0353,190.91277115292905
2194.5301,146.39736587456719
2196.0241,170.6257425579388
2197.5175,146.49807418787077
2199.0101,147.06453204294303
2200.502,137.0752859367576
2201.9931,129.0805042122729
2203.4835,104.53035384169834
2204.9733,127.67500050644048
2206.4622,141.71460884260796
2207.9505,151.94934220955747
2209.438,122.72936254950764
2210.9248,103.05483028518574
2212.4109,145.02590461202635
2213.8962,122.89274369492523
2215.3809,118.80550424852208
2216.8648,131.76434175853683
2218.3479,110.96941052263537
2219.8304,121.2208635208408
2221.3121,134.61885262348824
2222.7931,111.01352848870283
2224.2733,115.65504042842713
2225.7529,95.2435366444688
2227.2317,105.0291641820977
2228.7098,102.91206913414226
2230.1872,76.49239654314897
2231.6638,96.37029042254653
2233.1397,104.94589402084057
2234.6149,95.06934962284322
2236.0894,112.74079846390669
2237.5632,115.4603808286929
2239.0362,83.27823587445982
2240.5085,96.94450160386623
2241.9801,87.75931518679681
2243.4509,96.12281282369258
2244.921,75.88512983741202
2246.3904,78.44640058958339
2247.8591,77.95675868298622
2249.3271,78.71633693593685
2250.7943,52.72526738718534
2252.2608,68.98368128832226
2253.7266,64.04170936369155
2255.1917,76.54948164780217
2256.656,61.057127534752
2258.1197,66.01477565314508
2259.5826,57.622554021018914
2261.0447,70.78058999626046
2262.5062,60.73901036053303
2263.9669,92.59794118769696
2265.4269,72.45750794422656
2266.8862,86.71783517062067
2268.3448,101.0290466828028
2269.8026,89.14126542952272
2271.2598,78.40461334924021
2272.7162,90.66921148900474
2274.1719,102.08518011182241
2275.6268,75.8026385740095
2277.0811,94.97170521103362
2278.5346,83.79249760033326
2279.9874,114.81513236963383
2281.4395,111.03972530873762
2282.8908,93.4663910593008
2284.3414,99.54524315258641
2285.7914,122.2763941851963
2287.2406,88.55995575828365
2288.689,113.2460382502386
2290.1368,114.88475115385245
2291.5838,115.57620282945845
2293.0302,120.92050048854435
2294.4758,122.66775018684439
2295.9206,105.1680567708845
2297.3648,115.72152386051675
2298.8082,112.67825402391463
2300.251,112.73834867204187
2301.693,105.50190808908246
2303.1343,123.01903143183608
2304.5748,102.73981680208999
2306.0147,96.81436107143873
2307.4538,82.09276008408324
2308.8922,104.52510871608501
2310.3299,105.71150102257889
2311.7669,94.65203001345071
2313.2031,97.14678764148175
2314.6387,85.14586491292994
2316.0735,91.24935186258972
2317.5076,108.60733767380316
2318.941,95.11991061741901
2320.3737,77.13715787821639
2321.8056,97.45916568977646
2323.2369,104.43601951430901
2324.6674,107.61780383943187
2326.0972,103.10460210840301
2327.5263,87.29649668829825
2328.9547,97.3435689151529
2330.3823,97.34589925203272
2331.8092,104.0035671885762
2333.2355,111.81665124096435
2334.661,99.78522888534553
2336.0858,116.35937647969604
2337.5098,120.0891693841395
2338.9332,113.97468179520729
2340.3558,104.26598670854492
2341.7778,105.66315598004803
2343.199,111.76626042295811
2344.6195,118.12536979388551
2346.0393,108.2405527317751
2347.4583,113.9118766943202
2348.8767,113.58940805680777
2350.2943,100.87321205540684
2351.7113,124.21335279039522
2353.1275,125.05989335331651
2354.543,115.66289559358484
2355.9578,114.42242011001963
2357.3718,88.73852634481409
2358.7852,93.41127259594487
2360.1978,106.4407162739999
2361.6098,106.9269138554564
2363.021,102.01992075238377
2364.4315,100.86979130758482
2365.8413,107.07657884366836
2367.2504,96.9403356745488
2368.6587,88.51111304337974
2370.0664,78.5389612239187
2371.4733,82.8239296048132
2372.8795,93.31606678932621
2374.285,69.56542055248246
2375.6899,55.922037736146194
2377.0939,56.53596448652661
2378.4973,64.95724639062064
2379.9,71.08592847007276
2381.3019,60.122055096948316
2382.7032,76.16566993246215
2384.1037,91.66681603660481
2385.5035,68.97553570771333
2386.9027,75.54187032745858
2388.3011,64.11586058776084
2389.6987,90.14754642512071
2391.0957,60.88696713487343
2392.492,54.38416111088736
2393.8876,46.739166138158
2395.2824,34.60201945783592
2396.6765,43.77275784368703
2398.07,29.551417723461327
2399.4627,47.08803508719211
2400.8547,66.6326456293964
2402.246,64.18528457371303
2403.6366,47.195986477464885
2405.0265,47.01478525612902
2406.4156,28.94171435322596
2407.8041,30.726806742135068
2409.1918,42.57009510680837
2410.5789,30.471611823935746
2411.9652,42.73138884450691
2413.3508,28.949457814796915
2414.7358,37.82584995377238
2416.12,-4.289403809096257
2417.5035,19.953727077404437
2418.8863,27.705316015633343
2420.2684,22.715436208411575
2421.6497,19.03416058150833
2423.0304,4.261561833540327
2424.4104,2.8977124727866794
2425.7896,17.492684964915497
2427.1682,8.996551746618024
2428.546,28.45938507966048
2429.9232,32.73125713584432
2431.2996,19.26223980238001
2432.6753,24.702404639165252
2434.0503,11.351823013480953
2435.4246,17.460566045584073
2436.7982,20.778704742217542
2438.1711,13.00630993552204
2439.5433,17.993452249854272
2440.9148,6.5402021795061955
2442.2856,1.1966300388403397
2443.6557,29.81280607681856
2445.025,7.938788588066018
2446.3937,24.674635569080692
2447.7617,14.220404936974774
2449.1289,22.426154362115994
2450.4955,16.041941372669953
2451.8613,33.46782327254459
2453.2265,27.653857205229542
2454.5909,37.70009997953821
2455.9546,54.35660812774722
2457.3177,42.773437805130015
2458.68,25.250644623400603
2460.0416,34.08828376653764
2461.4025,43.18641016601805
2462.7627,40.34507841243658
2464.1222,56.26434266452725
2465.4811,31.89425667757041
2466.8392,58.43487364420707
2468.1966,55.23624643813582
2469.5533,57.848427348707446
2470.9093,72.57146811291341
2472.2645,48.00541988926216
2473.6191,59.90033311054958
2474.973,57.10625772951744
2476.3262,56.87324309990527
2477.6787,57.35133800439189
2479.0305,46.240590656923814
2480.3816,41.69104869793409
2481.7319,59.70275930545267
2483.0816,45.77576924060031
2484.4306,53.81012466747188
2485.7789,55.95587129240448
2487.1264,46.613054283639485
2488.4733,24.88171824985784
2489.8195,36.61190733361218
2491.165,38.25366542864003
2492.5097,49.9070360625642
2493.8538,46.62206238047247
2495.1972,29.698787028386505
2496.5398,37.337252186106525
2497.8818,36.88749973644872
2499.2231,39.349571188857226
2500.5637,32.37350768390161
2501.9035,30.309349968658807
2503.2427,24.70713846647186
2504.5812,33.91691329759033
2505.919,46.53871433519498
2507.256,40.27258111329593
2508.5924,30.91855270051883
2509.9281,46.7266677627631
2511.2631,29.846964656745968
2512.5974,42.779481271917575
2513.9309,36.27425519926146
2515.2638,23.131323601965505
2516.596,42.45072328047763
2517.9275,34.682490803932524
2519.2583,38.32666231696021
2520.5884,28.883273617365376
2521.9178,19.552360119690093
2523.2465,37.483956949643016
2524.5745,26.028099037410357
2525.9018,30.834820938341636
2527.2284,36.754156947504725
2528.5543,42.186141051620325
2529.8796,43.23080686986896
2531.2041,39.08818759957194
2532.5279,47.80831600574447
2533.851,61.49122446252068
2535.1735,66.93694486595268
2536.4952,65.74550849717934
2537.8163,40.06694596797115
2539.1366,40.25128723264197
2540.4562,50.74856184483906
2541.7752,57.45879895569806
2543.0935,61.88202720887011
2544.411,71.21827467342064
2545.7279,67.0675687995963
2547.0441,70.17993632546131
2548.3596,69.95540331840448
2549.6744,71.6939951440163
2550.9885,64.94573646833396
2552.3019,72.06065124045836
2553.6146,59.28876276003257
2554.9266,69.78009360609667
2556.2379,67.68466576480387
2557.5485,91.10250052450874
2558.8585,81.88361849671901
2560.1677,88.67803938192083
2561.4762,93.08578206176298
2562.7841,87.9568645311183
2564.0913,84.84130385400204
2565.3977,94.08911621486413
2566.7035,88.70031694974068
2568.0086,109.22492045377976
2569.313,113.71294023512792
2570.6167,93.26438870968377
2571.9197,106.62927715621618
2573.222,118.60761592085282
2574.5236,109.29941428343045
2575.8246,124.45468033771112
2577.1248,104.7234210844631
2578.4244,134.65564227990762
2579.7232,122.8013486330351
2581.0214,131.4605435062781
2582.3189,132.6832290340585
2583.6157,150.11940603619405
2584.9118,150.21907400566988
2586.2072,138.53223093427914
2587.5019,143.40887331162503
2588.7959,147.74899624198815
2590.0893,136.90259339556133
2591.3819,162.61965696504512
2592.6739,151.2001777741184
2593.9652,152.7941450202643
2595.2557,156.90154638896593
2596.5456,164.87236803776477
2597.8348,165.35659455518862
2599.1234,155.20420888104354
2600.4112,163.86519230157182
2601.6983,158.23952455097378
2602.9848,145.07718372479985
2604.2705,146.67814633620628
2605.5556,161.0423874475805
2606.84,157.4198806545287
2608.1237,154.91059794223474
2609.4067,153.1145097216845
2610.689,155.3815848547597
2611.9707,156.61179067219746
2613.2516,154.25509295092024
2614.5319,155.51145590173246
2615.8115,142.18084219288994
2617.0903,155.5132129375338
2618.3685,142.65852782699676
2619.6461,147.36674499748142
2620.9229,138.0878211586064
2622.199,151.67171154632342
2623.4745,153.41837001570684
2624.7493,146.4277489051169
2626.0234,140.7997990187332
2627.2968,160.48446969645966
2628.5695,165.08170887020515
2629.8415,151.69146286703244
2631.1128,141.9636763631911
2632.3835,142.49829251801475
2633.6535,153.39525307120311
2634.9228,147.4544983374708
2636.1914,152.12596709758373
2637.4593,161.45959665776286
2638.7265,147.65532280297202
2639.9931,141.76307970357766
2641.259,137.03280005339434
2642.5242,141.7644151286072
2643.7887,148.85785483507357
2645.0525,155.01304766100657
2646.3156,146.2299206060427
2647.5781,150.55839911968837
2648.8398,129.44840718914998
2650.1009,140.59986729605134
2651.3613,136.762700627532
2652.6211,137.23682696473406
2653.8801,139.97216472117407
2655.1385,140.36863093800002
2656.3961,149.07614125663895
2657.6531,145.34460991483388
2658.9094,150.77394965956705
2660.1651,152.0640717843762
2661.42,156.51488607505985
2662.6743,156.52630079677442
2663.9279,157.49822264952923
2665.1808,152.88055676807062
2666.433,160.82320671216394
2667.6846,157.3260745127709
2668.9354,158.18906059262304
2670.1856,166.61206380119074
2671.4351,157.59498140605615
2672.6839,174.98770900868044
2673.9321,161.99014063457525
2675.1795,180.80216855937738
2676.4263,180.92368343882208
2677.6724,181.05457412062447
2678.9179,182.09472764326415
2680.1626,176.19402923467487
2681.4067,182.30236230184573
2682.6501,190.1196084898254
2683.8928,182.99564762064006
2685.1348,181.88035761512037
2686.3761,175.22361456414137
2687.6168,167.4252927397756
2688.8568,172.23526466186104
2690.0961,167.50340117598353
2691.3348,163.97957140537687
2692.5727,163.31364279824243
2693.81,163.35548116298628
2695.0466,158.40495067487973
2696.2826,158.81191387563922
2697.5178,166.67623172293384
2698.7524,141.54776358631398
2699.9863,156.27636716856864
2701.2195,147.16189875701002
2702.452,171.40421307618794
2703.6839,164.25316337903428
2704.9151,164.90860120443813
2706.1456,172.9203764487586
2707.3755,173.73833735926883
2708.6046,177.6623304540376
2709.8331,189.34220051375246
2711.0609,196.42779054247762
2712.2881,209.21894165085587
2713.5145,218.41549298525229
2714.7403,223.56728159984414
2715.9654,239.47414236465534
2717.1899,239.43590791403767
2718.4136,252.40240848760322
2719.6367,264.87347193060464
2720.8591,262.0489235642726
2722.0809,287.3285860611029
2723.3019,285.36227947310203
2724.5223,281.69982097899106
2725.7421,293.6910249038692
2726.9611,292.73570275583734
2728.1795,293.68366310608667
2729.3972,289.08471159845317
2730.6142,263.5886509399372
2731.8306,251.6952809466918
2733.0462,236.35439879898536
2734.2612,216.8157991601338
2735.4756,206.17927432990996
2736.6892,184.89461443993036
2737.9022,166.86160756001868
2739.1145,162.33003991105375
2740.3262,137.74969604529815
2741.5372,128.62035889171534
2742.7475,113.19181000177264
2743.9571,109.61382964073414
2745.1661,104.93619694194649
2746.3744,87.00868994261805
2747.582,79.48108563059554
2748.7889,69.75316012363965
2749.9952,64.92468874470046
2751.2008,65.94544611919605
2752.4057,48.5652062232989
2753.61,42.73374237372832
2754.8136,35.95082740155249
2756.0165,41.31623371050364
2757.2188,42.72973334480639
2758.4204,48.99109793552293
2759.6213,36.900098686419824
2760.8215,34.15650631135304
2762.0211,34.1600911551775
2763.22,18.210623221184278
2764.4182,21.307872171063536
2765.6158,25.101607484399437
2766.8127,9.641598427698455
2768.009,16.227614016452435
2769.2045,4.359423169737738
2770.3994,1.8867946443563142
2771.5936,-1.1905028464848328
2772.7872,-3.022700608445348
2773.9801,-10.810018054062766
2775.1723,-18.202644399096016
2776.3639,-6.000660867224724
2777.5548,-15.95396683771105
2778.745,-14.81240174321465
2779.9346,-17.275645636267427
2781.1235,-15.543230593507587
2782.3117,-17.46451610787426
2783.4992,-19.688706395432973
2784.6861,-7.814831201733341
2785.8723,-15.19172358214928
2787.0579,0.38186147810688453
2788.2428,-0.8426792408595247
2789.427,2.636051037239895
2790.6106,16.36945750705786
2791.7935,23.708945336886472
2792.9757,33.405919531324116
2794.1573,44.41178485788009
2795.3382,52.12794575000612
2796.5184,62.005806197037145
2797.698,73.49676966702987
2798.8769,77.40223900798424
2800.0551,100.22361633293303
2801.2327,118.81230298088667
2802.4096,134.56969928862304
2803.5859,157.04720440479696
2804.7615,174.64621613236727
2805.9364,199.66813070382227
2807.1106,222.0643426051863
2808.2842,237.886244325804
2809.4572,285.2852261343753
2810.6294,324.21267592073923
2811.801,355.0699787218816
2812.972,393.3585163326634
2814.1423,449.9796669972475
2815.3119,474.634805026212
2816.4808,534.075300230339
2817.6491,576.2025176740656
2818.8167,622.7678170810741
2819.9837,670.7725524130217
2821.15,697.2180714038882
2822.3157,755.1557150799299
2823.4807,793.3368174952222
2824.645,840.2627051522861
2825.8086,880.1346966202748
2826.9716,925.0541020657147
2828.134,971.5722228537859
2829.2957,986.8403510991297
2830.4567,1018.9597692006637
2831.617,1034.4817496889045
2832.7767,1038.7075549047695
2833.9358,1043.8384368443615
2835.0941,1032.325637116707
2836.2519,1014.5703868924495
2837.4089,1006.4239070189767
2838.5653,998.4874081979731
2839.7211,984.0620910668856
2840.8761,999.7491462782873
2842.0306,1022.0497546441295
2843.1843,1065.0650869788738
2844.3374,1123.6463038764853
2845.4899,1173.694555280278
2846.6417,1252.8109798971045
2847.7928,1329.496704696871
2848.9433,1387.652844121376
2850.0931,1483.9304993174496
2851.2422,1549.880757555395
2852.3907,1636.604691266211
2853.5385,1693.7033573820895
2854.6857,1751.4777964691762
2855.8323,1806.7790321565847
2856.9781,1851.0580705586494
2858.1233,1892.5158997219164
2859.2679,1948.7034891823523
2860.4118,1995.2717895507649
2861.555,2013.6717319509287
2862.6976,2059.5042275539
2863.8395,2074.170167394017
2864.9808,2109.520421910578
2866.1214,2121.4058408011797
2867.2614,2140.077252668214
2868.4007,2140.3354649000166
2869.5393,2151.181263484153
2870.6773,2167.3654130048317
2871.8146,2180.688656534451
2872.9513,2169.0017154717525
2874.0874,2183.305289408596
2875.2227,2158.100056246819
2876.3574,2147.8866720552114
2877.4915,2115.8657713215603
2878.6249,2080.187967054787
2879.7577,2065.653851105155
2880.8898,2047.1139945210498
2882.0212,2020.818947694318
2883.152,2011.2192405456678
2884.2821,1990.7653827876175
2885.4116,1995.3078640204953
2886.5405,1993.1471539369757
2887.6686,2006.0337022766548
2888.7962,2009.0679388476594
2889.923,2013.9502733977802
2891.0493,2038.531095584128
2892.1748,2023.0607749243136
2893.2997,2047.3896605506338
2894.424,2053.918081364781
2895.5476,2083.79634579455
2896.6706,2105.674741728555
2897.7929,2115.903536217451
2898.9145,2150.3329752551426
2900.0355,2194.913283676503
2901.1559,2221.794664813073
2902.2756,2243.7273000472624
2903.3946,2276.3113485435356
2904.513,2298.1969470290833
2905.6308,2338.834209467984
2906.7479,2370.2232268423472
2907.8643,2389.3140667459406
2908.9801,2402.0067730703004
2910.0953,2411.8013658138216
2911.2098,2411.497840954832
2912.3236,2398.7461703536496
2913.4368,2399.246301755613
2914.5494,2377.1981589185993
2915.6613,2348.0016416080257
2916.7725,2309.5566258173258
2917.8831,2285.9129640599194
2918.9931,2274.0204857536582
2920.1024,2238.528997457268
2921.211,2216.9882829892686
2922.319,2186.6481037828908
2923.4264,2183.8081991014838
2924.5331,2175.3682863419162
2925.6391,2168.0780610629763
2926.7445,2152.4371970697675
2927.8493,2154.345346486616
2928.9534,2145.9021399134754
2930.0569,2129.957186406845
2931.1597,2120.360073564204
2932.2619,2124.7103676834613
2933.3634,2115.107613858924
2934.4643,2095.151335937798
2935.5645,2092.69103661621
2936.6641,2049.526197638776
2937.763,2003.6062798232035
2938.8613,1974.8307234919362
2939.959,1901.4989489313575
2941.056,1835.610356679543
2942.1523,1752.964328259579
2943.248,1676.8102268384475
2944.3431,1581.2973980534903
2945.4375,1470.2751707739467
2946.5313,1380.8428580560817
2947.6244,1269.2497582534102
2948.7169,1165.6451559110185
2949.8087,1068.9783228814954
2950.8999,985.3985193609792
2951.9904,903.2049948558249
2953.0803,838.7469890184052
2954.1696,769.9237324690419
2955.2582,727.5844474405872
2956.3462,673.2283484666573
2957.4335,635.3046428050243
2958.5202,608.012530981177
2959.6062,590.4012071675577
2960.6916,558.3198594564853
2961.7764,549.2176700362663
2962.8605,537.89381551201
2963.9439,529.4474669966489
2965.0267,526.7777902241794
2966.1089,509.73394563412285
2967.1905,522.9150883982238
2968.2714,524.1203685908877
2969.3516,519.0989310573705
2970.4312,527.4999154017241
2971.5102,515.9224560370124
2972.5885,529.1156821012996
2973.6662,528.4287175734269
2974.7432,542.9106811410786
2975.8196,523.6606862076521
2976.8954,518.9778407474387
2977.9705,513.9612474981236
2979.045,507.8600040076151
2980.1188,498.1732026842087
2981.192,474.64993085760034
2982.2645,453.08927087575375
2983.3364,432.24030034013435
2984.4077,395.0020923213144
2985.4783,381.4237155674641
2986.5483,358.2042348767329
2987.6177,340.59271123303427
2988.6864,297.73820203823914
2989.7545,261.13976128829245
2990.8219,240.69644000175776
2991.8887,213.2572865858018
2992.9548,185.1213470406267
2994.0204,159.38766523386323
2995.0852,130.90528318192878
2996.1495,112.3732413073642
2997.2131,95.04057872365786
2998.276,75.60633342056644
2999.3383,69.76954243744103
3000.4,40.12924205756997
3001.4611,40.584467866547016
3002.5215,17.53425504867255
3003.5812,11.32763838240328
3004.6404,4.163652470852867
3005.6989,1.4913318038595662
3006.7567,-5.140289170374899
3007.8139,-14.182176018561904
3008.8705,-17.135242955924582
3009.9264,-6.350262517747751
3010.9818,-6.077836058239882
3012.0364,-2.0685014924873713
3013.0905,-8.222736017994634
3014.1439,-17.290996167936555
3015.1966,-5.423656330355811
3016.2487,-5.720918156243897
3017.3002,9.26707088573437
3018.3511,13.54022047888543
3019.4013,10.598440213846061
3020.4509,22.74163954585083
3021.4998,25.51972782415021
3022.5481,25.532614170578995
3023.5958,28.030207451775027
3024.6428,30.41241627905015
3025.6892,49.02914898341464
3026.735,38.6803135917545
3027.7802,47.96581764066491
3028.8247,63.33556827993766
3029.8685,68.13947217970735
3030.9118,70.67743537675301
3031.9544,91.84936322645933
3032.9963,99.45516037743675
3034.0376,103.39473055980272
3035.0783,120.71797650912242
3036.1184,121.32479992701451
3037.1578,130.96510130791853
3038.1966,126.33877993302644
3039.2348,140.04573377387885
3040.2723,133.38585953862912
3041.3092,133.30905253497326
3042.3455,140.0152067367493
3043.3811,136.20421478470473
3044.4161,138.72596791943522
3045.4505,132.53035601949477
3046.4842,131.06726757617832
3047.5173,135.88658975547764
3048.5498,136.28820841271204
3049.5816,127.7220080443359
3050.6128,130.4378717839212
3051.6434,130.83568148781978
3052.6734,122.46531770800527
3053.7027,120.32665968809442
3054.7314,115.21958544705137
3055.7594,116.99397180057395
3056.7868,112.3996944121642
3057.8136,113.13662777538468
3058.8398,103.65464525980076
3059.8653,109.4036191036123
3060.8902,103.63342050847302
3061.9145,118.34391958200104
3062.9381,98.83498539548043
3063.9612,98.30648583675656
3064.9835,95.75828780532481
3066.0053,96.19025721761625
3067.0264,87.7022590324791
3068.0469,87.84415724685948
3069.0668,82.76581498068094
3070.086,75.61709447542614
3071.1046,74.49785714491986
3072.1226,64.40796364681614
3073.1399,68.89727389379084
3074.1567,57.7656471544401
3075.1727,48.912942008387745
3076.1882,41.38901645760143
3077.203,40.29372801492002
3078.2173,30.876933779292358
3079.2308,30.638490446729747
3080.2438,26.37825440447449
3081.2561,24.296081733384142
3082.2678,20.29182825053431
3083.2789,14.315349530039668
3084.2893,13.516500943097412
3085.2991,6.495137717751277
3086.3083,1.4011149468803978
3087.3169,-2.1657123415872093
3088.3248,-2.155489133734477
3089.3321,-1.7683387801779986
3090.3388,-3.104363098198405
3091.3449,-0.9136462393726106
3092.3503,2.5037586573100157
3093.3551,1.7978075801858608
3094.3593,4.918456492553901
3095.3629,-2.2343386602646547
3096.3658,3.7393780178673524
3097.3681,2.7895847441301385
3098.3698,-0.5837403016894314
3099.3708,-0.4806189677001953
3100.3713,-4.901067270445594
3101.3711,-4.545096425085717
3102.3702,-7.3126686851187515
3103.3688,10.546299101470254
3104.3667,5.131963140256232
3105.364,-2.4055204686483194
3106.3607,-0.015995676450529572
3107.3568,3.3007175967917988
3108.3522,-1.5052004091826916
3109.347,2.7664305123578288
3110.3412,10.815805605096955
3111.3348,10.143120085054306
3112.3277,3.748569060091711
3113.32,4.132347536639486
3114.3117,11.64465048364275
3115.3028,12.485672828723182
3116.2932,13.655609383056174
3117.2831,8.2046548329605
3118.2723,13.783003728199219
3119.2608,15.49085053648912
3120.2488,16.178389587716765
3121.2361,20.89581505686067
3122.2229,25.593320957115452
3123.209,27.871101092717993
3124.1944,21.729349011972147
3125.1793,23.91825798447087
3126.1635,26.188021062513826
3127.1471,32.23883105921823
3128.1301,34.72088052582154
3129.1125,33.63436169117347
3130.0942,30.179466436914538
3131.0753,35.25638630834129
3132.0558,37.36531254895607
3133.0357,28.856436049697265
3134.015,33.9299473278507
3134.9936,38.13603661213784
3135.9716,32.32489379198091
3136.949,43.496708375441926
3137.9258,49.30166954733403
3138.902,40.28996605750319
3139.8775,45.71178616277888
3140.8524,46.51731771709109
3141.8267,49.256748117252016
3142.8004,45.73026429490085
3143.7735,51.03805268910935
3144.7459,54.280299281647046
3145.7178,55.857189543902905
3146.689,49.918908404463195
3147.6596,54.46564023334244
3148.6295,58.1475689013663
3149.5989,57.16487773470408
3150.5676,62.067749478049535
3151.5357,57.406366304447744
3152.5032,58.480909766266734
3153.4701,60.39156084181087
3154.4364,65.73849992457548
3155.402,60.62190680414059
3156.367,64.94196061270114
3157.3315,66.6488398762333
3158.2952,73.89272247129358
3159.2584,65.32378560795013
3160.221,62.74220575734404
3161.1829,65.39815873737876
3162.1442,64.94181973853577
3163.105,67.47336329731502
3164.065,68.34296330079815
3165.0245,72.05079296133323
3165.9834,78.04702480783888
3166.9416,78.33183064872554
3167.8993,81.2553815119337
3168.8563,83.86784764208556
3169.8127,78.06939847124963
3170.7684,75.81020259281581
3171.7236,83.54042781948033
3172.6782,83.21024120583749
3173.6321,85.76980897107731
3174.5854,84.56929650228761
3175.5381,92.008868328858
3176.4902,90.43868813448526
3177.4417,91.65891868277743
3178.3926,93.3697218329558
3179.3428,89.42125852765255
3180.2924,91.61368877580281
3181.2415,93.54717169212901
3182.1899,94.42186547521672
3183.1377,91.43792738817987
3184.0848,94.64551374991396
3185.0314,101.89477996493522
3185.9773,100.18588049130494
3186.9227,103.11896876813657
3187.8674,106.59419723268488
3188.8115,106.8117172910151
3189.755,108.5716792832504
3190.6979,110.97423248139705
3191.6402,113.11952507174452
3192.5818,113.85770413084
3193.5229,115.9389156040356
3194.4633,114.31330429810636
3195.4031,115.58101386043819
3196.3423,116.34218679528414
3197.2809,116.64696445108709
3198.2189,119.29548701286816
3199.1563,117.237893499179
3200.0931,120.62432173561635
3201.0292,123.60490837539814
3201.9648,117.67978886549916
3202.8997,127.14909741684517
3203.834,122.96296706356412
3204.7677,131.02152956829303
3205.7008,131.3249154640393
3206.6333,131.673253973595
3207.5652,133.0166730065032
3208.4964,133.00529915557436
3209.4271,134.18925768345227
3210.3571,137.9686725227278
3211.2865,132.89366626409912
3212.2154,140.06436011857795
3213.1436,137.98087396823917
3214.0712,142.54332629451415
3214.9982,142.10183419902563
3215.9246,149.10651335796302
3216.8503,139.15747802649742
3217.7755,144.45484096873486
3218.7001,149.19871355720656
3219.624,152.0392057198954
3220.5473,149.42642589279706
3221.4701,156.36048099151532
3222.3922,155.74147643738968
3223.3137,157.36951608815485
3224.2346,160.0447022441308
3225.1549,159.81713563194245
3226.0746,158.08691537776767
3226.9937,160.70413900961302
3227.9121,162.0189024746158
3228.83,166.13130011287222
3229.7473,171.1414246442892
3230.6639,170.44936712746087
3231.5799,163.955216909567
3232.4954,171.90906163329385
3233.4102,170.86098730177528
3234.3244,172.5610781990548
3235.238,174.40941690056587
3236.151,170.75608425613132
3237.0634,178.7011593714796
3237.9752,174.99471964477857
3238.8864,180.73684068718424
3239.797,182.37759635990562
3240.7069,180.41705871678315
3241.6163,183.05529798788137
3242.5251,182.14238259909428
3243.4332,188.22837914576283
3244.3408,188.8633524018041
3245.2477,192.34736525885148
3246.154,190.93047871990473
3247.0598,192.76275186449004
3247.9649,192.1442418628287
3248.8694,194.12500395751454
3249.7733,194.10509146969895
3250.6766,194.78455577928324
3251.5793,199.31344632511787
3252.4814,205.29181059820766
3253.3829,198.31969409642304
3254.2838,200.29714026471623
3255.1841,200.52419056484254
3256.0838,208.05088445558593
3256.9829,204.77725939048838
3257.8814,204.15335074258311
3258.7792,206.77919183713064
3259.6765,204.55481395785793
3260.5731,211.13024632069994
3261.4692,206.2055160960435
3262.3647,214.33064834297284
3263.2595,207.80566605851706
3264.1538,211.18059009639867
3265.0474,207.8054392322835
3265.9404,210.38023013003146
3266.8329,206.9049773754481
3267.7247,208.27969345053663
3268.616,212.15438876825039
3269.5066,207.0790716587458
3270.3966,205.70374833063525
3271.286,208.0784229217405
