RamanShift,CorrectedData
30.1047,445.91713133537183
32.3739,416.1623799496774
34.6426,383.6076241048117
36.9109,356.5028551799795
39.1787,324.5980607183094
41.4461,295.3432246979013
43.7131,264.58832785087435
45.9796,235.43334795591556
48.2456,203.5782601458281
50.5112,170.97303719908166
52.7764,140.76764985836323
55.0411,113.5120671566294
57.3054,82.9062567191601
59.5692,54.30018503611467
61.8326,23.543817768589754
64.0955,-6.562879965319816
66.3579,-33.769943282957364
68.6199,-59.077341738495406
70.8815,-82.9347075243731
73.1426,-94.24108265038566
75.4032,-84.69468060860022
77.6634,-3.542773422668205
79.9231,219.11821298361798
82.1824,759.7918880787724
84.4412,1673.631859140127
86.6995,2905.891725847095
88.9574,4131.9750711427705
91.2148,5027.5854489113335
93.4717,5481.37637171721
95.7282,5606.201301848971
97.9842,5638.563646781428
100.2398,5612.5667579273795
102.4949,5566.1139303139835
104.7495,5507.008402842733
107.0036,5432.453358753983
109.2573,5343.701926218004
111.5105,5252.007179080531
113.7632,5158.472137750283
116.0154,5064.149770115904
118.2672,4984.4929924813205
120.5185,4880.45467050896
122.7693,4776.58762001632
125.0197,4676.994608016355
127.2696,4595.128353756139
129.519,4532.4415297128035
131.7679,4450.236762412196
134.0163,4416.016633055748
136.2642,4364.7336783425235
138.5117,4327.79039081142
140.7587,4278.689219354001
143.0052,4226.282569583923
145.2512,4163.822804327951
147.4967,4073.412244150028
149.7417,4006.853167975866
151.9863,3956.0978139970593
154.2304,3880.8983803366664
156.4739,3819.157025556772
158.717,3796.4258694104765
160.9596,3777.7569934593084
163.2017,3749.65244130054
165.4433,3737.164218753872
167.6844,3692.4442941424822
169.925,3639.5945984179093
172.1651,3553.7670256072433
174.4047,3483.4634333416366
176.6439,3432.8356437145662
178.8825,3369.7354439848777
181.1206,3323.36458708306
183.3582,3270.124792242249
185.5954,3227.917745461935
187.832,3197.5951000403625
190.0681,3167.2084769965986
192.3037,3141.8094653737617
194.5388,3109.499622542885
196.7734,3075.03047445691
199.0075,3073.353515973781
201.2411,3076.820211201139
203.4742,3051.1819935130907
205.7068,3051.4902655155383
207.9389,3024.546399302568
210.1704,3027.7017364533594
212.4015,2977.707588301633
214.632,2953.66523590409
216.862,2921.725930540357
219.0915,2902.540893953411
221.3205,2877.7613186689687
223.549,2860.03836818734
225.777,2830.67317723122
228.0044,2819.416851922924
230.2314,2791.3704700780336
232.4578,2731.0850813179645
234.6837,2683.3117073504313
236.909,2660.8013425722947
239.1339,2612.704954547305
241.3582,2593.473484231195
243.582,2547.8578464526527
245.8053,2535.8089301056298
248.0281,2508.027598605503
250.2503,2485.764690009562
252.472,2456.321017294824
254.6932,2437.597368580659
256.9139,2415.1945074232276
259.134,2393.36317300272
261.3536,2370.504080347382
263.5727,2384.217920551828
265.7912,2374.6053610056306
268.0092,2376.317045256186
270.2267,2392.6035931048386
272.4436,2405.865600589764
274.6601,2416.353639823104
276.8759,2396.3682588583442
279.0913,2399.259981585435
281.3061,2378.7793079306452
283.5204,2370.6267138276453
285.7341,2384.7526514223164
287.9473,2377.257549154271
290.16,2360.4918116155977
292.3721,2292.90581962581
294.5837,2228.749930399506
296.7947,2168.7744782222258
299.0052,2140.8297750920124
301.2152,2088.3661113191633
303.4246,2084.033755805683
305.6334,2039.5329565699149
307.8418,2024.5639407898657
310.0495,1979.6269152482146
312.2568,1924.522066481999
314.4635,1856.0495612319928
316.6696,1803.6595469937452
318.8752,1728.3021527023134
321.0802,1676.1774892561602
323.2847,1643.8856502707285
325.4887,1603.2267125996855
327.692,1598.9007366578426
329.8949,1601.6077668277458
332.0972,1620.647831502934
334.2989,1644.8209430608736
336.5001,1620.6770976725525
338.7007,1610.2162750607517
340.9008,1560.0884387414808
343.1003,1481.4935361285889
345.2992,1427.7314990350405
347.4976,1362.4522444588688
349.6955,1312.8556751207911
351.8927,1290.541680117004
354.0895,1245.2601354151507
356.2856,1217.760904077455
358.4812,1213.2438367135474
360.6763,1176.3087717554463
362.8707,1136.555535502734
365.0646,1147.4839424919073
367.258,1131.6937958939088
369.4508,1090.3348874048434
371.643,1118.756997403883
373.8346,1114.8098953668537
376.0257,1126.8933395820118
378.2162,1156.407077189519
380.4062,1147.7008440606032
382.5956,1105.6743645024212
384.7844,1042.8273513451245
386.9726,987.659506362123
389.1603,933.0705208985564
391.3474,891.5600764229725
393.5339,892.2778450732153
395.7199,875.1734900715314
397.9052,871.8466657173917
400.09,900.8970175585318
402.2743,907.7241824242242
404.4579,918.9777881347723
406.641,957.2074534332369
408.8235,954.0127878729072
411.0054,992.7433914349972
413.1868,1088.5988545605956
415.3675,1205.4287577633595
417.5477,1231.9826706709582
419.7273,1149.8101508567784
421.9064,987.3607435743752
424.0848,889.3339825792077
426.2627,799.6793917531277
428.4399,758.746486084648
430.6166,698.434772565488
432.7928,631.6937505999063
434.9683,577.4729126078128
437.1432,538.2717446921847
439.3176,508.3897271812689
441.4914,474.4763350205976
443.6645,444.7310380718068
445.8371,432.7033014517724
448.0091,427.59258583006067
450.1806,403.6483475492055
452.3514,369.6700386758148
454.5216,375.85710724001274
456.6913,358.20899757522784
458.8603,351.5251502563142
461.0288,344.35500227604143
463.1967,330.34798711192934
465.3639,328.35353479794776
467.5306,316.02107206459004
469.6967,288.80002235881193
471.8622,276.1898059673658
474.0271,272.8898402890027
476.1914,255.3995399605751
478.3551,250.01831689004348
480.5182,233.89558043137322
482.6807,248.63073743835184
484.8426,245.72319242581125
487.0039,278.3723474222784
489.1647,328.1776019990498
491.3248,358.2883529436981
493.4843,365.7039937620216
495.6432,372.87391437693805
497.8015,305.09750105432704
499.9592,280.724136331331
502.1163,237.65319969412167
504.2728,185.58406782162865
506.4287,180.51611501625212
508.5839,154.04871372455136
510.7386,161.2812345879247
512.8927,150.1630467072846
515.0461,155.79351757073346
517.199,159.8220131647422
519.3512,166.9978979178495
521.5029,211.07053466037496
523.6539,274.3892845526625
525.8043,286.45350664435136
527.9541,245.4125572411931
530.1033,191.66578978440475
532.2519,125.51255526107889
534.3999,104.35220274165158
536.5472,79.53408004143284
538.694,95.40753393221576
540.8401,103.92111664032882
542.9856,127.87337943803232
545.1305,123.9628725583766
547.2748,156.23814495567876
549.4185,167.44774434462988
551.5615,166.69021687753957
553.704,169.3141070322431
555.8458,182.31795761967578
557.987,172.5003097576323
560.1276,200.90970274073152
562.2675,264.89467413858847
564.4069,310.10375951172637
566.5456,357.3354917717211
568.6837,337.88840072911125
570.8212,266.1110126210833
572.958,213.20185030593984
575.0942,176.4094339808721
577.2299,152.73228171105984
579.3648,133.11890979758982
581.4992,95.51783301422847
583.6329,63.577564803554196
585.766,99.09661765296732
587.8985,86.02350341409965
590.0304,143.30673294761755
592.1616,181.64481625395229
594.2922,188.93626190047326
596.4222,166.67957663810057
598.5515,117.8232653283967
600.6802,64.0658311661291
602.8083,12.705776167834756
604.9358,-3.508398290605328
607.0626,-4.178317764014082
609.1888,14.394427241683388
611.3144,19.358287961952556
613.4393,35.86157183192881
615.5636,75.6523928974475
617.6873,125.57886484573055
619.8103,158.3891006074805
621.9327,173.2312118576101
624.0544,169.90330868714636
626.1756,131.00349945480184
628.2961,76.12989082025888
630.4159,65.18058813316793
632.5351,58.85369598188436
634.6537,40.49731830295514
636.7716,35.65955844439395
638.8889,23.93851934923805
641.0056,53.632303603932996
643.1216,51.23901355553926
645.237,62.45675101479537
647.3518,53.58361728005457
649.4659,55.367713025100784
651.5793,28.707138387884697
653.6922,15.349992952679258
655.8043,3.5443760166867833
657.9159,-17.861613276388653
660.0268,-3.919911191160736
662.137,-24.382275554728494
664.2466,-7.250425034280397
666.3556,0.3741652819308001
668.4639,-10.059907262603247
670.5716,-15.804049062305694
672.6786,-16.00956601312555
674.785,-12.677606128561365
676.8907,-13.959157486551703
678.9958,-19.555081515748952
681.1002,-5.166100192826434
683.204,-7.942740139196758
685.3072,-15.085476366932653
687.4097,-9.494704540137263
689.5115,-1.6206696190065486
691.6127,9.836478288358649
693.7132,-4.573410909933045
695.8131,8.449512595861052
697.9123,9.655098661220109
700.0109,3.143197057132056
702.1089,21.71365745803223
704.2061,43.01632950692647
706.3028,47.25106262968529
708.3987,86.1677058220198
710.4941,97.26610760712947
712.5887,118.99611564653969
714.6827,96.8575766291151
716.7761,103.45033605376011
718.8688,105.32423845080348
720.9608,115.17912731607521
723.0522,106.8648450921637
725.1429,127.83123306986772
727.233,161.67813147133893
729.3224,233.905379240417
731.4112,252.8628137041619
733.4993,285.850269850584
735.5867,267.7175801390649
737.6735,223.06457417048296
739.7596,163.3410788685428
741.845,151.1469189263039
743.9298,149.68191740341717
746.014,167.79589584806354
748.0974,196.13867431160543
750.1802,198.1600711674505
752.2624,186.60990282762168
754.3439,166.28798372254278
756.4247,141.39412641654098
758.5048,121.27814181106442
760.5843,135.88983939362151
762.6631,144.97902743894065
764.7413,179.7455128628526
766.8188,241.08910113139927
768.8956,297.40959591316823
770.9718,379.10679846585754
773.0473,360.0305070730715
775.1221,329.3305162273482
777.1962,306.50661682092414
779.2697,343.3585964527292
781.3426,442.93623965663073
783.4147,505.03932753291065
785.4862,518.7676367524882
787.557,464.6709389358916
789.6271,358.3490005159729
791.6966,273.5515832788765
793.7654,168.22844542725852
795.8335,104.32934242826104
797.901,78.05402806674374
799.9678,88.45225508427347
802.0339,81.4237754418773
804.0993,84.26834021606237
806.1641,83.23569966909645
808.2282,77.3756032205647
810.2916,62.48779945769638
812.3544,56.77203619396778
814.4164,53.47806061797792
816.4778,62.25561935060705
818.5385,55.60445847795745
820.5986,81.52432346357728
822.658,132.46495921496944
824.7166,178.67610982439555
826.7747,261.50751805946857
828.832,317.05892490104316
830.8886,376.7300687148995
832.9446,409.2206846962281
834.9999,391.4305042729229
837.0545,347.05925478067184
839.1085,282.5066596408592
841.1618,215.17243880427986
843.2143,170.20630939666125
845.2662,152.10798639200675
847.3175,138.87718306226088
849.368,127.16361115828795
851.4179,118.01698104218349
853.467,111.18700180440874
855.5155,115.62338135525533
857.5633,126.02582649314718
859.6105,132.19404286027384
861.6569,130.2777348385698
863.7027,112.82660548803187
865.7478,119.69035656587903
867.7922,90.76868870106546
869.8359,81.21130132564213
871.8789,81.26789296397646
873.9212,81.03816132832299
875.9629,109.12180331825994
878.0039,105.41851502298368
880.0441,104.47799144047531
882.0837,137.39992651453167
884.1226,155.9340131441727
886.1609,192.67994285441864
888.1984,231.8874056109521
890.2352,280.45608945265394
892.2714,287.23568009953215
894.3069,284.5258604670353
896.3416,236.676310598255
898.3757,214.5367076910261
900.4091,185.40672657642062
902.4418,188.8360399401463
904.4739,206.0243186138464
906.5052,225.62123154080427
908.5358,230.07644560406288
910.5658,208.839625430453
912.595,183.16043334604183
914.6236,160.23852958850148
916.6515,132.57357256390242
918.6786,119.51521907593178
920.7051,107.7131246025424
922.7309,115.36694342653664
924.756,112.07632875358786
926.7804,114.14093263570112
928.8041,111.66040600411816
930.8272,131.98439864867532
932.8495,138.01255924260568
934.8711,144.74453513929893
936.892,153.92997231202162
938.9123,181.61851528659508
940.9318,186.259807049541
942.9506,219.9034887712014
944.9688,212.39919975931934
946.9862,184.59657712260469
949.003,174.7952558457764
951.019,142.19486906758902
953.0344,135.84504817884226
955.0491,134.24542314839027
957.063,110.94562258663655
959.0763,109.84527376153164
961.0888,113.04400283157065
963.1007,113.54143485679697
965.1119,133.43719376681474
967.1223,128.38090235581512
969.1321,107.82218208361746
971.1412,101.6606531262355
973.1495,98.14593458146328
975.1572,100.07764453048912
977.1641,116.6554000730448
979.1704,108.27881730808713
981.1759,102.19751116802263
983.1808,111.2110955024691
985.1849,106.61918313907108
987.1884,102.22138579336615
989.1911,104.46731411469818
991.1932,106.20657773020002
993.1945,109.28878522233208
995.1951,99.46354411149105
997.1951,112.43046082518549
999.1943,106.7391407962914
1001.1928,100.88918833337766
1003.1906,96.48020667762512
1005.1877,118.61179806132532
1007.1841,145.53356375196563
1009.1798,163.24510383092002
1011.1748,149.24601692422448
1013.1691,141.58590002546725
1015.1627,118.2143486357786
1017.1556,54.480956840431645
1019.1477,44.635317542556095
1021.1392,34.477023100475435
1023.1299,26.355665426158794
1025.12,30.420836086806958
1027.1093,24.372126386067066
1029.0979,34.55912732337629
1031.0859,58.38142965445286
1033.0731,53.28862378942449
1035.0596,61.78029955460397
1037.0454,47.85604624342068
1039.0304,52.26545253150107
1041.0148,19.958106615913493
1042.9985,4.383596171071076
1044.9814,13.14150867180797
1046.9636,7.081431549122954
1048.9452,-1.4970478973973513
1050.926,12.655657561019325
1052.9061,23.23915010865403
1054.8855,50.15303180323326
1056.8642,43.49690447009243
1058.8421,50.62036943303838
1060.8194,38.823027580911
1062.7959,33.20447929634747
1064.7717,31.714324573755675
1066.7469,40.652163075499175
1068.7213,39.31759414679982
1070.695,64.8102167263578
1072.6679,51.979629359700084
1074.6402,94.57542994425285
1076.6117,113.19721585764728
1078.5826,111.79458353176187
1080.5527,74.06712826650437
1082.5221,32.1644442438369
1084.4908,11.68612490505302
1086.4587,4.4317633697996826
1088.426,-3.849047359135511
1090.3925,-13.256714323281813
1092.3584,-13.441606112183308
1094.3235,-0.8039588808110238
1096.2879,25.30612549751004
1098.2515,32.88855318100195
1100.2145,45.8932300748279
1102.1767,79.12006175526676
1104.1382,120.81895333966531
1106.099,163.7898091541715
1108.0591,197.7325323167438
1110.0185,244.29702430744555
1111.9771,263.0331846290137
1113.9351,309.190910341219
1115.8923,369.97009587349976
1117.8488,396.4706325633874
1119.8045,387.7424080487135
1121.7596,316.2353060026044
1123.7139,222.24920622076115
1125.6675,156.68398533653408
1127.6204,153.9895177607832
1129.5726,155.81567633752866
1131.524,175.7123323708979
1133.4748,145.57935560686064
1135.4248,98.66661403426679
1137.3741,57.82397418617302
1139.3226,22.10130160897097
1141.2705,22.348461270816642
1143.2176,25.81531791885118
1145.164,55.05173607673487
1147.1097,48.407580009976755
1149.0546,47.18271343356673
1150.9989,20.22699957842042
1152.9424,9.44030120362595
1154.8852,-14.627519133999158
1156.8272,-4.876598972040483
1158.7686,-0.30692971917005707
1160.7092,-7.168454066831828
1162.6491,-7.661111640245508
1164.5883,4.015229548226671
1166.5267,-3.2892219792752257
1168.4644,29.97574225923813
1170.4014,57.41036360508269
1172.3377,88.26488309981823
1174.2732,126.48954121090355
1176.2081,192.48457752314698
1178.1421,291.9002303564632
1180.0755,403.1367361059206
1182.0082,477.4943282475856
1183.9401,493.573236226159
1185.8713,425.7236847113993
1187.8017,307.34589343733387
1189.7315,223.14007788075628
1191.6605,136.70645044499884
1193.5888,104.39522130199543
1195.5163,72.15659925661498
1197.4432,51.64079206977567
1199.3693,11.098006780831156
1201.2947,12.278449912726956
1203.2193,3.282327877430589
1205.1432,-6.3901530358728
1207.0664,-4.488786570821958
1208.9889,1.3866973665731166
1210.9106,-12.813386286722107
1212.8316,-2.238722607608679
1214.7519,4.211131332740024
1216.6715,-3.1133591720117693
1218.5903,15.338271129689247
1220.5084,33.366518591853946
1222.4257,39.82187941511188
1224.3424,50.40484946642823
1226.2583,58.76592421455007
1228.1735,83.40559862417581
1230.0879,106.07436707234547
1232.0016,141.2727231020442
1233.9146,177.30115919551417
1235.8269,176.61016642227037
1237.7384,198.85023407881772
1239.6492,191.17184969555956
1241.5592,193.5254988143986
1243.4686,215.06166506552086
1245.3772,271.2308301438568
1247.285,346.6834735937223
1249.1922,421.6200722471244
1251.0986,492.54109946923813
1253.0042,545.3970244090369
1254.9092,612.588311290086
1256.8134,695.0654188819803
1258.7169,781.5287998284323
1260.6196,850.4788998225001
1262.5216,882.366156741957
1264.4229,903.7909999597848
1266.3234,886.9038500253064
1268.2232,830.8051184499343
1270.1223,778.0952078760447
1272.0207,738.0245126379618
1273.9183,726.9934192890607
1275.8151,722.2023070024704
1277.7113,736.6515476813868
1279.6067,790.7415060069843
1281.5014,899.5725392939225
1283.3953,1073.3449969494468
1285.2885,1256.6592193850786
1287.181,1405.6155362788913
1289.0727,1506.4142647423664
1290.9637,1466.2057078308321
1292.854,1378.7401535354732
1294.7435,1251.9678751854203
1296.6323,1117.939132322403
1298.5204,1002.6041719684745
1300.4077,959.2632299662946
1302.2943,891.6165321324847
1304.1802,866.5642946910336
1306.0653,825.7067249497659
1307.9497,811.7440215508645
1309.8333,790.0763748794438
1311.7162,764.6539672031806
1313.5984,752.2769728889862
1315.4798,730.7955586572325
1317.3605,725.7598837055223
1319.2405,760.7700999235049
1321.1197,755.87635194323
1322.9982,742.1787767890505
1324.876,708.5275039265548
1326.753,628.3726553995461
1328.6293,552.8143461665522
1330.5048,475.9026849023767
1332.3796,387.43777475368165
1334.2537,333.11971410810384
1336.127,293.2485974789008
1337.9996,260.0745160481333
1339.8714,235.34755806537737
1341.7426,222.41780917946562
1343.6129,222.03535268575388
1345.4826,196.95026965542093
1347.3515,191.91263893929272
1349.2196,186.92253741869263
1351.087,167.8300400558187
1352.9537,174.88521994364373
1354.8197,171.18814849684213
1356.6849,177.93889538123676
1358.5493,192.98752855076896
1360.4131,216.88411417999305
1362.276,249.12871651358887
1364.1383,289.4213976273975
1365.9998,290.61221710597306
1367.8606,296.7012316396567
1369.7206,271.33849501266945
1371.5799,285.27405804221985
1373.4384,276.40796883213216
1375.2962,276.2902726334926
1377.1533,230.07101193330686
1379.0096,177.75022645568038
1380.8652,172.22795362400734
1382.7201,137.8542290841815
1384.5742,109.72908675981603
1386.4275,89.10255919598399
1388.2802,69.52467784046894
1390.132,61.04547325002818
1391.9832,62.26497528617347
1393.8336,51.98321319996057
1395.6832,43.40021561979779
1397.5322,37.3160106542598
1399.3803,33.380625977922364
1401.2278,20.39408889220067
1403.0745,10.106426364704703
1404.9204,3.467665159104172
1406.7656,2.1778319380059656
1408.6101,2.0869533293414406
1410.4538,-1.854944060735761
1412.2968,9.802166353058965
1414.139,7.958329686901379
1415.9805,2.363590958945224
1417.8213,3.667995107762181
1419.6613,32.021587048287984
1421.5006,53.224411658780355
1423.3391,80.42651349728021
1425.1769,127.87793658958617
1427.0139,192.9787241572301
1428.8502,266.27891814296527
1430.6858,331.1285585597593
1432.5206,364.9776827577916
1434.3547,370.1763247759561
1436.188,349.9745150033714
1438.0206,331.5222801273926
1439.8524,327.4696433356314
1441.6835,333.616624500477
1443.5139,330.7132402196228
1445.3435,331.05950375459724
1447.1724,341.5054250597959
1449.0005,342.30101077902054
1450.8279,331.1462641410178
1452.6545,334.39118495152593
1454.4804,332.4857697048201
1456.3056,328.5300115512648
1458.13,318.1739003163668
1459.9536,301.81742254033406
1461.7766,282.7605615816367
1463.5987,256.10329778056985
1465.4202,218.4456086498251
1467.2409,187.63746914106082
1469.0608,167.0288520214806
1470.88,129.91972818191448
1472.6984,106.01006684290269
1474.5161,86.2998359257897
1476.3331,75.83900229181859
1478.1493,68.4275319392359
1479.9648,69.56539010789788
1481.7795,65.85254135338619
1483.5935,88.58894953562935
1485.4067,73.67457785603051
1487.2192,74.80938863010442
1489.031,91.74334343662008
1490.842,94.62640310625397
1492.6522,98.00852755224855
1494.4618,87.98967574158405
1496.2705,95.76980566115526
1498.0785,88.94887441796095
1499.8858,84.3268381613018
1501.6924,72.60365215099182
1503.4981,73.97927080357681
1505.3032,80.85364780956661
1507.1075,65.5767361196788
1508.911,73.59848787609485
1510.7138,70.01885456522973
1512.5159,60.9377869375146
1514.3172,60.05523504319126
1516.1178,53.17114832312495
1517.9176,50.88547561762857
1519.7166,56.84816523530503
1521.515,55.15916497590206
1523.3126,47.81842207068735
1525.1094,39.22588319933743
1526.9055,27.031494563344722
1528.7008,34.98520197194398
1530.4954,34.486950964055495
1532.2893,35.53668672874801
1534.0824,26.73435411022183
1535.8747,24.82989759731072
1537.6663,28.37326141150561
1539.4572,38.21438952599874
1541.2473,19.003225630250427
1543.0367,20.38971303157814
1544.8253,20.323794847267663
1546.6132,32.65541399070844
1548.4003,49.83451317205186
1550.1867,49.61103477489746
1551.9723,57.58492068449846
1553.7572,75.60611228999892
1555.5414,87.52455040469454
1557.3247,99.34017508581974
1559.1074,139.1029255153651
1560.8893,160.5127398819202
1562.6705,211.71955498304578
1564.4509,241.57330601117587
1566.2305,259.37392604154957
1568.0094,262.42134573367343
1569.7876,267.5654931533161
1571.565,268.45629374203236
1573.3417,271.6936702657233
1575.1176,278.02754280572753
1576.8928,296.00782872644686
1578.6672,300.28444261200957
1580.4409,327.107296086466
1582.2138,371.526297771023
1583.986,415.7413530158152
1585.7575,446.95236345571516
1587.5282,487.45922656818266
1589.2981,508.9118353611534
1591.0673,535.2100779679715
1592.8358,541.8538374328627
1594.6035,539.9929914479533
1596.3704,527.1774122868314
1598.1366,512.956966823156
1599.9021,486.88151665881185
1601.6668,457.6509182661134
1603.4308,440.2650232485621
1605.194,442.7736786331508
1606.9564,460.8267270442225
1608.7182,499.12400667838415
1610.4791,576.4153511239766
1612.2394,671.8005889781
1613.9988,763.279543073702
1615.7576,875.0020295257248
1617.5156,936.9178568163152
1619.2728,924.3268246776008
1621.0293,851.4287234725314
1622.785,759.723334320788
1624.54,648.6104298277655
1626.2942,525.5897750016263
1628.0477,425.61112836442885
1629.8005,348.2742431823349
1631.5525,298.6788684653952
1633.3037,237.02474974091808
1635.0542,185.36162954942438
1636.804,166.93924806118753
1638.553,131.70734359286564
1640.3013,125.61565279172476
1642.0488,96.51391098795852
1643.7955,107.9518522556042
1645.5416,75.82920970356054
1647.2868,76.94571536120782
1649.0313,66.75110049963553
1650.7751,69.79509562047565
1652.5181,63.72743055784963
1654.2604,68.29783444792895
1656.0019,77.35603578961047
1657.7427,77.1517623988135
1659.4828,94.28474131789653
1661.222,118.80469881770159
1662.9606,156.86136022622338
1664.6984,180.7544496834098
1666.4354,218.38368976059564
1668.1717,217.3488012215713
1669.9072,181.04950264628974
1671.642,146.08551044121623
1673.3761,112.30653920232203
1675.1094,77.16230206472358
1676.8419,42.35251104047245
1678.5737,37.62687736999783
1680.3048,28.635111870204582
1682.0351,26.126924981728394
1683.7646,15.002026858854606
1685.4934,15.96012739459934
1687.2215,6.650936331959542
1688.9488,7.474163254330392
1690.6754,7.6795176785983585
1692.4012,7.866709046909136
1694.1263,6.7854467246130525
1695.8506,1.8854399983938492
1697.5742,10.666398087081006
1699.297,1.4780301906499744
1701.0191,2.3200454024122337
1702.7404,-5.257847199100297
1704.461,1.4440614414439779
1706.1808,0.27553290526998353
1707.8999,6.186328759162052
1709.6182,-9.673789432849617
1711.3358,0.49493983140212094
1713.0527,5.392374695240051
1714.7688,-0.33162670296178476
1716.4841,-3.2272062787533287
1718.1987,4.005497365266251
1719.9126,0.2663778662886216
1721.6257,-2.4446711785492425
1723.338,-7.577756174772958
1725.0496,-0.8829591056443178
1726.7605,4.039713747359315
1728.4706,2.5402649235212493
1730.18,-7.331303078270821
1731.8886,-6.024987784531959
1733.5964,10.109286517940404
1735.3036,13.221655731976284
1737.0099,13.362255659313178
1738.7156,12.181221969472858
1740.4204,9.22869019835457
1742.1246,16.50479576004568
1743.8279,11.15967397634654
1745.5306,14.393460004009171
1747.2325,19.306288888189556
1748.9336,12.74829553010909
1750.634,14.969614637926156
1752.3336,15.87038079231695
1754.0325,19.150728424261388
1755.7307,15.160791806036173
1757.4281,21.35070501841085
1759.1247,17.87060199054747
1760.8206,28.420616438101092
1762.5158,25.25088189802102
1764.2102,35.061531623050655
1765.9039,41.35269861342488
1767.5968,37.024515518763906
1769.289,26.527114575161818
1770.9804,21.810627648467403
1772.6711,30.575186339259062
1774.361,30.47092203000875
1776.0502,24.797965797437087
1777.7386,38.35644841355577
1779.4263,39.24650040239658
1781.1132,37.31825190442669
1782.7994,33.6218326676493
1784.4849,36.757372066884955
1786.1696,33.974999140736486
1787.8535,40.574842560233606
1789.5367,38.75703065665607
1791.2192,40.371691355535745
1792.9009,36.218952194833946
1794.5818,39.59894030879548
1796.2621,40.76178246947586
1797.9415,46.15760505294213
1799.6202,45.58653402764321
1801.2982,39.0486949004528
1802.9755,36.09421272237887
1804.6519,38.523212153943405
1806.3277,40.235817494726234
1808.0027,35.58215265907586
1809.6769,41.46234115898221
1811.3504,45.07650615061391
1813.0231,34.474770375517096
1814.6951,53.10725612447254
1816.3664,47.774085343514116
1818.0369,42.32537944760361
1819.7067,41.811259373962116
1821.3757,46.681845636556886
1823.044,50.33725833124288
1824.7115,49.9776170870565
1826.3783,39.55304102966193
1828.0443,52.8636487849476
1829.7096,47.90955858327186
1831.3741,50.89088812635657
1833.0379,48.75775463682851
1834.701,57.060274828405454
1836.3633,55.44856492722772
1838.0248,48.87274058883372
1839.6856,51.08291691427621
1841.3457,54.37920851588058
1843.005,53.461729495143345
1844.6636,55.1805934097689
1846.3214,51.23591328284522
1847.9785,54.47780158565399
1849.6349,53.556370277118276
1851.2904,54.27173077138377
1852.9453,50.92399394703284
1854.5994,51.563270139930864
1856.2528,58.539669176703796
1857.9054,67.50330036834487
1859.5572,59.854272440451155
1861.2083,63.64269344358672
1862.8587,58.36867082977312
1864.5084,64.98231141460542
1866.1572,59.18372142999203
1867.8054,56.52300645801881
1869.4528,54.300271488934754
1871.0994,47.41562094775895
1872.7453,57.36915871650842
1874.3905,66.31098820304408
1876.0349,61.091212241535686
1877.6786,58.90993300304342
1879.3215,61.41725204771569
1880.9637,60.31327034660154
1882.6051,58.39808825657792
1884.2458,63.12180553138916
1885.8858,56.93452134079854
1887.525,61.68633422335188
1889.1634,64.67734214825032
1890.8011,53.007642467831204
1892.4381,57.22733188765915
1894.0743,65.28650658322192
1895.7098,57.5852621577348
1897.3446,61.67369356154734
1898.9786,60.90189516915717
1900.6118,60.019960738324926
1902.2443,61.17798341779218
1903.8761,61.07605575610182
1905.5071,63.6642696900164
1907.1374,61.742716545538656
1908.7669,61.361487012029045
1910.3957,66.62067116142043
1912.0237,59.67035845203122
1913.651,62.41063767597359
1915.2776,64.44159702865613
1916.9034,56.813324081381495
1918.5285,51.02590576103694
1920.1528,57.32942842637635
1921.7764,56.42397792589509
1923.3992,52.30963953479443
1925.0213,57.386497964035584
1926.6427,48.554637401483944
1928.2633,47.964141461139945
1929.8832,51.61509327145785
1931.5023,51.35757548125076
1933.1207,55.7416702231813
1934.7383,51.21745911633667
1936.3552,59.78502322238779
1937.9714,55.244443090831226
1939.5868,61.2957986733137
1941.2015,49.68916936903764
1942.8154,49.774633964247755
1944.4286,53.70227074829728
1946.041,52.22215751279322
1947.6528,50.48437151232031
1949.2637,47.4389894792418
1950.8739,57.48608764107718
1952.4834,46.82574175095641
1954.0921,48.00802698714847
1955.7001,42.08301805966539
1957.3074,40.50078919843929
1958.9139,51.51141421257205
1960.5197,51.0649665061577
1962.1247,48.36151896817648
1963.729,47.30114397695928
1965.3325,48.68391342722185
1966.9353,46.25989874066897
1968.5374,45.8291708521665
1970.1387,50.09180023398142
1971.7393,49.247856900089346
1973.3392,42.29741036354824
1974.9383,48.8905296449376
1976.5366,38.57728334186305
1978.1342,46.5077395630251
1979.7311,44.73196603135193
1981.3273,45.70003000469444
1982.9227,38.41199829358402
1984.5173,39.517937251551814
1986.1112,45.51791284800913
1987.7044,40.11199065718807
1989.2968,43.15023579814141
1990.8885,41.48271298880218
1992.4795,37.05948651560146
1994.0697,43.73062025014343
1995.6592,40.19617769343756
1997.2479,48.356221909187354
1998.8359,39.16081555913445
2000.4232,40.110020821458534
2002.0097,47.05389948273114
2003.5955,34.992512928423764
2005.1805,36.17592207346911
2006.7648,34.75418748287484
2008.3484,45.97736935988962
2009.9312,46.645527560220444
2011.5133,40.80872147980074
2013.0946,42.11701004810891
2014.6752,35.87045178653614
2016.2551,42.719104795303906
2017.8342,39.9130268159293
2019.4126,41.452275162738545
2020.9902,36.386906750927665
2022.5672,42.16697808116999
2024.1433,43.74254529027013
2025.7188,37.86366409336267
2027.2935,39.63038976815744
2028.8674,41.59277721372757
2030.4406,38.95088093284278
2032.0131,38.85475501234413
2033.5849,32.35445314956456
2035.1559,42.8000286532897
2036.7261,36.641534508760685
2038.2957,38.529023273219025
2039.8645,44.81254713749104
2041.4325,44.59215790711312
2042.9998,37.91790693949673
2044.5664,37.98984514613153
2046.1323,35.25802305932842
2047.6974,39.72249083149973
2049.2617,48.88329826247826
2050.8254,42.39049475487178
2052.3883,39.29412922245547
2053.9504,35.544250155099974
2055.5118,40.340905649734566
2057.0725,39.43414344784651
2058.6325,38.524010887514066
2060.1917,45.66055491247397
2061.7502,38.04382208122297
2063.3079,40.52385849565235
2064.8649,37.80070987721564
2066.4212,41.47442154212814
2067.9767,39.24503842859809
2069.5315,33.312605060089936
2071.0856,35.47716556761793
2072.6389,46.638763749070165
2074.1915,37.897443047563115
2075.7433,36.70324643982576
2077.2945,42.65621652361273
2078.8448,32.35639552964625
2080.3945,34.203825262086866
2081.9434,34.14854720153119
2083.4916,32.040602486538205
2085.039,36.6300319141813
2086.5857,37.51687596112828
2088.1317,41.151174737746885
2089.677,35.33296797923629
2091.2215,37.5622950092843
2092.7652,38.03919479824907
2094.3083,40.063705940866214
2095.8506,36.33586665147942
2097.3921,36.105714743795374
2098.933,36.47328766816253
2100.4731,39.53862251387221
2102.0124,39.10175600548314
2103.5511,37.562724472167986
2105.089,38.67156385208233
2106.6261,37.97830970775482
2108.1626,44.23299721499848
2109.6983,38.98566116984341
2111.2332,37.48633592598969
2112.7675,31.235055447280843
2114.301,40.081853322697214
2115.8337,39.7267628288688
2117.3657,39.51981684160705
2118.897,43.11104783945575
2120.4276,35.150487905760485
2121.9575,34.638168692756494
2123.4866,42.42412150117423
2125.0149,38.90837728536246
2126.5426,35.04096657542908
2128.0695,33.97191951239819
2129.5956,35.75126588688488
2131.1211,38.07903514978511
2132.6458,41.65525639448248
2134.1698,38.529958333570505
2135.693,38.90316926309015
2137.2155,40.82491709378314
2138.7373,38.095229347359464
2140.2584,37.06413313728001
2141.7787,36.23165519605334
2143.2983,36.04782188554731
2144.8171,33.062659205313196
2146.3353,39.826192794424344
2147.8527,39.18844796132777
2149.3693,39.649449616208585
2150.8853,35.20922227736736
2152.4005,40.26779006661059
2153.9149,27.82517675365284
2155.4287,30.58140570553087
2156.9417,40.5865000110299
2158.454,38.790482453121
2159.9655,36.543375408910606
2161.4764,38.09520086760034
2162.9865,41.54598045295813
2164.4958,36.045735407800066
2166.0045,33.29448655948255
2167.5124,39.29225437490504
2169.0195,38.08905898802226
2170.526,36.38492013986661
2172.0317,37.429857190580435
2173.5367,31.473889136456762
2175.0409,30.117034599490523
2176.5445,35.7093118869376
2178.0473,35.10073900488379
2179.5494,33.74133360232179
2181.0507,27.831112977237126
2182.5513,38.820094090201906
2184.0512,36.20829362347746
2185.5504,33.24572787112436
2187.0488,30.282412765120284
2188.5465,25.11836390498553
2190.0435,31.25359658741644
2191.5397,30.788125857925422
2193.0353,35.021966449489184
2194.5301,29.255132787202967
2196.0241,29.087638945942274
2197.5175,31.869498708031472
2199.0101,27.75072556491864
2200.502,22.18133268935719
2201.9931,24.411332976593087
2203.4835,22.64073910005908
2204.9733,28.419563489074676
2206.4622,21.047818346552276
2207.9505,30.925515591208637
2209.438,24.45266693128235
2210.9248,25.129283765757464
2212.4109,29.355377249091077
2213.8962,29.130958284447388
2215.3809,26.956037481436624
2216.8648,24.830625158359908
2218.3479,26.90473136395798
2219.8304,22.278365898665015
2221.3121,20.00153829386784
2222.7931,26.274257858169733
2224.2733,22.846533700159057
2225.7529,18.568374665681176
2227.2317,26.589789372116513
2228.7098,28.560786251161517
2230.1872,17.531373468614845
2231.6638,28.851558904667456
2233.1397,23.871350264197133
2234.6149,29.490754963566246
2236.0894,18.709780180423763
2237.5632,31.328432797511027
2239.0362,21.896719510471826
2240.5085,21.914646701666186
2241.9801,21.03222053448684
2243.4509,19.39944695318013
2244.921,16.51633169167053
2246.3904,15.582880289887953
2247.8591,22.649098122599128
2249.3271,25.214990408742437
2250.7943,19.68056214076495
2252.2608,21.19581805896445
2253.7266,13.560762706832918
2255.1917,18.675400415904562
2256.656,15.239735382105835
2258.1197,19.60377161460923
2259.5826,18.567512970190535
2261.0447,21.130963109587697
2262.5062,18.244125507863487
2263.9669,19.557003428771452
2265.4269,21.71959995362414
2266.8862,11.981917968164566
2268.3448,17.193960140939737
2269.8026,18.805729020677575
2271.2598,16.717226984166473
2272.7162,15.628456220137707
2274.1719,16.639418750149787
2275.6268,23.100116439476835
2277.0811,12.360550986998817
2278.5346,8.270723860594558
2279.9874,15.880636404537313
2281.4395,18.14028988039354
2282.8908,12.949685390923548
2284.3414,21.30882385748481
2285.7914,20.367706071938244
2287.2406,24.22633261305674
2288.689,16.984703855936516
2290.1368,11.842819933410851
2291.5838,16.050680808466268
2293.0302,18.10828632566097
2294.4758,9.815636169046854
2295.9206,14.672729841593195
2297.3648,15.829566748113166
2298.8082,14.63614614669251
2300.251,18.94246713712124
2301.693,16.848528672828195
2303.1343,15.754329517817553
2304.5748,19.009868267608397
2306.0147,9.765143360176637
2307.4538,12.72015304339979
2308.8922,13.274895467503825
2310.3299,17.229368655513326
2311.7669,8.98357049770408
2313.2031,10.687498712058158
2314.6387,12.2411509267221
2316.0735,13.294524662967689
2317.5076,13.847617319655114
2318.941,15.500426162699682
2320.3737,16.85294831954056
2321.8056,19.905180762612815
2323.2369,17.55712029582213
2324.6674,13.85876352402255
2326.0972,14.410106876497139
2327.5263,21.46114664394142
2328.9547,16.96187897294979
2330.3823,20.76229979550564
2331.8092,16.662404873973486
2333.2355,14.86218976309516
2334.661,11.761649850988391
2336.0858,16.860780377149325
2337.5098,12.809576463457404
2338.9332,12.608033063184564
2340.3558,15.406145001506758
2341.7778,12.45390697752012
2343.199,14.601313536259141
2344.6195,14.398359098219657
2346.0393,10.545037937884473
2347.4583,18.69134418575277
2348.8767,12.687271866873715
2350.2943,16.68281481938294
2351.7113,12.777966754543712
2353.1275,16.672721216791075
2354.543,7.417071622780469
2355.9578,10.411011222440237
2357.3718,10.604533191528105
2358.7852,15.247630601691839
2360.1978,12.840296418533939
2361.6098,11.882523455180603
2363.021,7.324304396355302
2364.4315,14.66563180795643
2365.8413,11.856498182639427
2367.2504,10.99689586640352
2368.6587,12.036817086683158
2370.0664,8.326253960943802
2371.4733,12.665198486282918
2372.8795,6.003642576535299
2374.285,9.84157801888395
2375.6899,8.678996540475481
2377.0939,4.765889770041014
2378.4973,11.40224924952156
2379.9,13.73806647319941
2381.3019,8.323332821334503
2382.7032,9.008039536806393
2384.1037,7.74217777926134
2385.5035,7.225738618265268
2386.9027,3.8087130459625484
2388.3011,11.64109198224017
2389.6987,5.62286630889821
2391.0957,8.35402679132602
2392.492,4.034564138684317
2393.8876,7.66446897659381
2395.2824,14.143731890329605
2396.6765,7.472343388522319
2398.07,7.800293838365377
2399.4627,7.177573532328864
2400.8547,6.7041726848799215
2402.246,10.530081438710198
2403.6366,5.005289869469692
2405.0265,1.0797879475075831
2406.4156,4.853565593120521
2407.8041,8.926612715807096
2409.1918,6.898919176530342
2410.5789,5.37047474698727
2411.9652,4.191269129885541
2413.3508,2.3112919742284816
2414.7358,5.630532887106625
2416.12,5.69898145249789
2417.5035,4.616627198074866
2418.8863,7.933459594520457
2420.2684,5.599468066351278
2421.6497,7.86464195874953
2423.0304,5.278970560902792
2424.4104,0.04244308335242408
2425.7896,1.6050486838503275
2427.1682,-0.6832234802760127
2428.546,2.5776157322505924
2429.9232,3.8875622881096206
2431.2996,8.196612128204606
2432.6753,4.0047611545632265
2434.0503,1.012005187247297
2435.4246,2.8683400062709836
2436.7982,5.973761381528561
2438.1711,3.978265054230974
2439.5433,2.1818467058516546
2440.9148,5.734501978081568
2442.2856,2.6362264907933195
2443.6557,3.137015806514597
2445.025,1.2868654614109971
2446.3937,1.7357709602782165
2447.7617,6.783727795043035
2449.1289,9.330731440274832
2450.4955,2.426777302705773
2451.8613,1.0218606957607221
2453.2265,1.215976908596872
2454.5909,1.009121220152707
2455.9546,4.001288897207161
2457.3177,0.4924751964481402
2458.68,7.232675334550663
2460.0416,4.721884523265231
2461.4025,4.1100979020155535
2462.7627,3.8473105630067437
2464.1222,-0.11648244265717267
2465.4811,6.318713897654931
2466.8392,4.3028957602336675
2468.1966,1.1360592581826268
2469.5533,0.01820046157655497
2470.9093,2.099315429129632
2472.2645,5.179400219374145
2473.6191,4.258450869849213
2474.973,4.036463366299927
2476.3262,8.413433651887033
2477.6787,4.889357629406476
2479.0305,3.1142311175200916
2480.3816,6.188049885996179
2481.7319,1.8108096734608239
2483.0816,2.982506156659639
2484.4306,4.553134994230362
2485.7789,3.372691814985643
2487.1264,4.341172202206906
2488.4733,5.10857170544881
2489.8195,3.1248858308543674
2491.165,7.140110033480852
2492.5097,5.804239737136953
2493.8538,2.2672702942301726
2495.1972,3.1791969991257645
2496.5398,5.2400151235163435
2497.8818,2.8497199073026707
2499.2231,3.4083065379854816
2500.5637,5.915770174568365
2501.9035,3.5221059419720575
2503.2427,5.427308905959677
2504.5812,3.731374097073484
2505.919,3.084296491582677
2507.256,4.93607102844274
2508.5924,3.4366926157663613
2509.9281,4.3861561123054
2511.2631,1.8844563424450484
2512.5974,4.581588086708763
2513.9309,2.9775461067757476
2515.2638,6.522325118509258
2516.596,3.3159198079972327
2517.9275,4.35832479610437
2519.2583,3.8995346705360987
2520.5884,2.639543975415023
2521.9178,1.878347215868132
2523.2465,3.715938870627184
2524.5745,4.652313399640775
2525.9018,5.33746522569794
2527.2284,2.0213887250649805
2528.5543,1.8540782206335962
2529.8796,2.5855280150816498
2531.2041,-0.43426760745393267
2532.5279,3.3446856113090178
2533.851,6.4223862679852175
2535.1735,6.798832925742687
2536.4952,5.674024083525694
2537.8163,6.6979581722901855
2539.1366,5.270633566252002
2540.4562,3.2920485726474453
2541.7752,7.212201446006532
2543.0935,3.581090407938973
2544.411,2.3987136079324216
2545.7279,4.715069159663869
2547.0441,4.580155152823124
2548.3596,3.193969629949436
2549.6744,4.856510587780605
2550.9885,1.0677759911146438
2552.3019,3.2277637561846575
2553.6146,2.386471788545947
2554.9266,2.143897961476199
2556.2379,8.850040124388329
2557.5485,4.004896105256506
2558.8585,2.0584636435545463
2560.1677,7.610740438707438
2561.4762,4.161724169555669
2562.7841,7.3114124388323205
2564.0913,0.05980280765328416
2565.3977,5.656892764020313
2566.7035,6.252679795337258
2568.0086,4.297161332439117
2569.313,6.340334743634031
2570.6167,4.4821973542586875
2571.9197,4.972746426246459
2573.222,8.261979176708849
2574.5236,8.149892773029848
2575.8246,4.036484299973836
2577.1248,8.22175076080643
2578.4244,6.305689118428319
2579.7232,5.238296253522833
2581.0214,12.169568983716488
2582.3189,13.949504074252928
2583.6157,11.128098168680282
2584.9118,7.305347771051686
2586.2072,9.631249274139492
2587.5019,3.105798997662504
2588.7959,11.428993165027265
2590.0893,10.10082796858228
2591.3819,11.621299486386249
2592.6739,4.940403695489607
2593.9652,2.8581364567299374
2595.2557,10.474493581540827
2596.5456,12.68947085277452
2597.8348,8.303063948538437
2599.1234,9.015268420045373
2600.4112,10.22607973547764
2601.6983,7.835493272864795
2602.9848,10.94350430797573
2604.2705,7.850108038224533
2605.5556,10.855299551590178
2606.84,12.159073857550709
2608.1237,9.961425857031116
2609.4067,9.412350329365694
2610.689,13.561841954274527
2611.9707,11.659895317354255
2613.2516,6.606504868583144
2614.5319,8.801664941340519
2615.8115,4.695369802940675
2617.0903,3.5376136326813707
2618.3685,6.628390562906645
2619.6461,10.317694690584531
2620.9229,12.505520046399255
2622.199,8.69186055785815
2623.4745,11.876710027413452
2624.7493,11.710062170598817
2626.0234,6.2919105841808545
2627.2968,12.722248747825603
2628.5695,9.9010700782801
2629.8415,4.878367865068839
2631.1128,7.5541352987057735
2632.3835,6.878365520921136
2633.6535,6.15105159790383
2634.9228,8.822186527059173
2636.1914,8.191763244282
2637.4593,11.809774597245365
2638.7265,10.7262133517048
2639.9931,12.541072155318119
2641.259,9.154343548481009
2642.5242,12.11601994617854
2643.7887,9.626093671852232
2645.0525,8.284556927783541
2646.3156,5.091401819993067
2647.5781,10.946620371655854
2648.8398,5.600204555033031
2650.1009,9.102146232919509
2651.3613,6.0024372121082195
2652.6211,8.301069208370734
2653.8801,5.848033877454327
2655.1385,10.643322792095617
2656.3961,12.08692746655096
2657.6531,10.678839308643532
2658.9094,7.66904960532726
2660.1651,5.757549536767726
2661.42,9.14433020644006
2662.6743,4.679382660243888
2663.9279,8.062697852635608
2665.1808,10.494266691277815
2666.433,6.774080003206123
2667.6846,6.802128510513668
2668.9354,7.778402867552799
2670.1856,11.552893660654675
2671.4351,12.575591398366413
2672.6839,11.796486473706352
2673.9321,9.115569153936889
2675.1795,11.582829588355608
2676.4263,10.548257835104522
2677.6724,13.511843836497349
2678.9179,10.823577429365272
2680.1626,14.383448315421077
2681.4067,12.2414460881418
2682.6501,9.897560197170037
2683.8928,10.901779969733965
2685.1348,9.704094634086204
2686.3761,12.804493309461634
2687.6168,8.052965018054252
2688.8568,8.549498654013135
2690.0961,11.394083030957816
2691.3348,8.036706877012875
2692.5727,9.62735880636211
2693.81,9.866027352822329
2695.0466,5.102700953936747
2696.2826,6.787367948588496
2697.5178,3.9200166246337034
2698.7524,7.0006352020548235
2699.9863,6.829211861634263
2701.2195,9.605734714148099
2702.452,4.33019180208035
2703.6839,12.302571071857685
2704.9151,12.97286042660501
2706.1456,9.691047646421467
2707.3755,12.357120381677717
2708.6046,12.271066185833902
2709.8331,12.882872488779029
2711.0609,10.842526597691474
2712.2881,12.250015690920904
2713.5145,13.155326838391886
2714.7403,14.80844698752881
2715.9654,14.459362954202902
2717.1899,13.358061406200974
2718.4136,13.004528866716228
2719.6367,15.99875172536133
2720.8591,17.890716241703586
2722.0809,15.880408515322898
2723.3019,15.417814466892011
2724.5223,19.602919858279634
2725.7421,17.485710297176354
2726.9611,18.166171195243663
2728.1795,13.744287789285949
2729.3972,13.120045134445945
2730.6142,15.593428148423513
2731.8306,14.514421617718128
2733.0462,14.483010172894993
2734.2612,11.349178299375183
2735.4756,14.412910337749793
2736.6892,9.074190515118076
2737.9022,10.483002914450253
2739.1145,7.839331527974721
2740.3262,9.193160243089793
2741.5372,10.844472868800594
2742.7475,7.293253122180545
2743.9571,9.98948461185833
2745.1661,7.433150873530153
2746.3744,6.824235342997383
2747.582,4.812721381729986
2748.7889,1.3985922829555335
2749.9952,7.281831291774537
2751.2008,1.1624216393014564
2752.4057,5.340346483832576
2753.61,6.1155889720399585
2754.8136,3.28813219719234
2756.0165,2.0579591914025883
2757.2188,3.6250529539022835
2758.4204,1.7893964633434507
2759.6213,5.050972662127634
2760.8215,1.7597644747624202
2762.0211,5.865754775245705
2763.22,4.9689264199777625
2764.4182,2.3192622067012962
2765.6158,3.3167448834698376
2766.8127,3.761357175144326
2768.009,2.00308177341833
2769.2045,2.7919013323718787
2770.3994,1.5277984860542375
2771.5936,1.7107558405956524
2772.7872,-1.109244013151553
2773.9801,1.5177814985574258
2775.1723,-0.4581739691848554
2776.3639,3.862883223536244
2777.5548,1.3309512937934187
2778.745,3.2460284200305125
2779.9346,3.108112767381911
2781.1235,-0.5827975314781924
2782.3117,-1.5267043749566653
2783.4992,0.9763961606868747
2784.6861,-1.3234767490305188
2785.8723,1.773696061644344
2787.0579,2.967946979997265
2788.2428,0.7593083755771772
2789.427,-1.5521874117464165
2790.6106,1.7334919503030193
2791.7935,0.3663943003541874
2792.9757,1.8965674597008757
2794.1573,-0.32594075402700184
2795.3382,1.6989174578347814
2796.5184,-0.2788068499014429
2797.698,6.340937360587489
2798.8769,-0.1417960875948836
2800.0551,2.073046565245562
2801.2327,3.6355204953458724
2802.4096,0.5956808582125888
2803.5859,4.403582772997112
2804.7615,-2.590718647105817
2805.9364,3.9128316670627754
2807.1106,0.5643146659409695
2808.2842,2.113811260838702
2809.4572,3.161402357422787
2810.6294,5.457168840221996
2811.801,8.451191562151166
2812.972,6.593551321553434
2814.1423,8.084328832260027
2815.3119,10.7236047421667
2816.4808,10.71145961832596
2817.6491,13.597973920554267
2818.8167,19.483228001553513
2819.9837,22.817302078045813
2821.15,29.000276171921087
2822.3157,30.382230076896192
2823.4807,39.91324329668534
2824.645,47.593395031180506
2825.8086,47.62276408114124
2826.9716,57.95142877139318
2828.134,68.07946695053437
2829.2957,73.35695588764855
2830.4567,77.3339721710249
2831.617,82.26059165538295
2832.7767,83.08688942210263
2833.9358,89.86293972995789
2835.0941,83.83881600685392
2836.2519,77.31459078206653
2837.4089,78.24033574648344
2838.5653,72.21612181784647
2839.7211,71.39201913149405
2840.8761,68.5180971006035
2842.0306,67.44442442443194
2843.1843,66.17106911705562
2844.3374,68.39809851810654
2845.4899,69.17557930550602
2846.6417,68.65357747319447
2847.7928,73.0821583233565
2848.9433,69.86138647164097
2850.0931,71.69132580287524
2851.2422,73.17203950327284
2852.3907,76.25359004213408
2853.5385,74.3360391570389
2854.6857,74.46944782303144
2855.8323,77.30387627179547
2856.9781,82.88938399032031
2858.1233,84.62602969255657
2859.2679,84.06387126356105
2860.4118,89.4029657421303
2861.555,93.34336932642222
2862.6976,99.08513732056502
2863.8395,101.52832409525328
2864.9808,96.5729830303302
2866.1214,99.11916649035588
2867.2614,104.5669258741605
2868.4007,101.86631158938272
2869.5393,101.9673729979919
2870.6773,109.57015844329436
2871.8146,108.52471524892276
2872.9513,109.88108964280813
2874.0874,121.88932676763449
2875.2227,110.59947066727503
2876.3574,119.16156416670965
2877.4915,118.22564898492367
2878.6249,119.29176564928676
2879.7577,122.95995350491208
2880.8898,126.28025070399528
2882.0212,129.5526941691324
2883.152,132.57731956011708
2884.2821,132.954161241216
2885.4116,129.88325225092274
2886.5405,136.81462429818933
2887.6686,136.74830779313524
2888.7962,137.03433177773385
2889.923,132.92272392647544
2891.0493,137.46351054350694
2892.1748,137.30671660374816
2893.2997,133.05236570748386
2894.424,133.00048008193164
2895.5476,136.30108062378548
2896.6706,139.20418689973462
2897.7929,134.4098171134575
2898.9145,140.26798807659077
2900.0355,138.72871525667287
2901.1559,138.8920127185624
2902.2756,137.65789313983086
2903.3946,129.87636780912956
2904.513,129.34744663853104
2905.6308,138.62113824134397
2906.7479,126.29744993740277
2907.8643,131.62638766033047
2908.9801,130.10795608077552
2910.0953,126.69215855312268
2911.2098,129.57899713067704
2912.3236,124.66847259982211
2913.4368,131.8605844511516
2914.5494,123.90533092857441
2915.6613,122.45270895739364
2916.7725,125.30271422385917
2917.8831,122.05534118969378
2918.9931,122.31058306359323
2920.1024,117.8184318336998
2921.211,115.42887826505012
2922.319,116.84191194449643
2923.4264,115.90752130460228
2924.5331,112.77569360951216
2925.6391,111.69641496429534
2926.7445,111.5696703462643
2927.8493,116.94544361576729
2928.9534,113.7737175174559
2930.0569,115.8044736265273
2931.1597,116.1376923804416
2932.2619,112.37335305861404
2933.3634,112.91143377908307
2934.4643,118.50191153615367
2935.5645,119.39476219501654
2936.6641,123.53996043584324
2937.763,124.5374797448578
2938.8613,122.88729237288462
2939.959,123.98936932537336
2941.056,120.39368037890077
2942.1523,113.7001940701499
2943.248,109.40887773186702
2944.3431,100.46969755979651
2945.4375,94.68261865559393
2946.5313,91.14760511621799
2947.6244,80.7146200918011
2948.7169,76.38362582099987
2949.8087,67.70458373532463
2950.8999,61.87745450244947
2951.9904,56.852198113002764
2953.0803,49.92877393883832
2954.1696,50.207140783287954
2955.2582,48.33725695039576
2956.3462,44.869080242134444
2957.4335,42.852567977104115
2958.5202,42.83767702521417
2959.6062,39.22436382784836
2960.6916,47.012584398013686
2961.7764,45.85229435647351
2962.8605,44.143448853865365
2963.9439,42.336002582303855
2965.0267,45.47990979246909
2966.1089,44.92512431168119
2967.1905,45.821599512461134
2968.2714,44.16928831807875
2969.3516,41.96814319358783
2970.4312,41.56811616234933
2971.5102,41.36915882804283
2972.5885,41.671222378666755
2973.6662,44.02425758852796
2974.7432,41.72821481522112
2975.8196,45.08304397609834
2976.8954,43.98869457122959
2977.9705,40.095115649854456
2979.045,37.70225582132561
2980.1188,45.160063294044534
2981.192,44.81848589939024
2982.2645,42.37747101714105
2983.3364,38.33696557889046
2984.4077,40.6469160924573
2985.4783,37.7572686822908
2986.5483,35.56796906637105
2987.6177,32.92896258510551
2988.6864,35.240194223221934
2989.7545,32.35160863615852
2990.8219,26.36315012695158
2991.8887,26.72476267512134
2992.9548,27.086389996556576
2994.0204,25.04797553989848
2995.0852,22.45946248292438
2996.1495,21.920793752931885
2997.2131,13.231912052623947
2998.276,15.042759865495633
2999.3383,12.553279542722883
3000.4,11.613413285054115
3001.4611,8.373103167704933
3002.5215,7.932291149756864
3003.5812,6.190919106560443
3004.6404,6.648928834143312
3005.6989,3.6062620666239837
3006.7567,4.0628604716317085
3007.8139,3.5186656807331147
3008.8705,0.8236192848662895
3009.9264,1.7776628397826713
3010.9818,1.3307378929975187
3012.0364,2.382785974249458
3013.0905,2.633748599969806
3014.1439,4.333567262762017
3015.1966,1.2821834288920897
3016.2487,-0.17046147870966166
3017.3002,-0.17442604993473765
3018.3511,0.17023282823549835
3019.4013,0.7634600113359085
3020.4509,-0.2947996468009251
3021.4998,-2.354601299977027
3022.5481,-1.8659971569459657
3023.5958,0.8209840960056667
3024.6428,3.2563324139028538
3025.6892,5.740037743560791
3026.735,0.8220899992313733
3027.7802,2.1024790377661375
3028.8247,-0.018805292204248758
3029.8685,-0.7917731630739056
3030.9118,-1.466434559372054
3031.9544,2.507208444185906
3032.9963,4.279168422565796
3034.0376,2.0494579256613505
3035.0783,3.3680894605746516
3036.1184,5.585075513913225
3037.1578,1.4504285386037168
3038.1966,4.014160931722017
3039.2348,3.976285075839826
3040.2723,4.786813313387185
3041.3092,5.59575794703138
3042.3455,4.603131231571531
3043.3811,4.708945365849239
3044.4161,0.7132125026747786
3045.4505,6.715944747769079
3046.4842,4.317154199720903
3047.5173,5.166852889959657
3048.5498,7.315052806743168
3049.5816,7.611765886660791
3050.6128,7.3570039931513165
3051.6434,3.7507789135359246
3052.6734,7.4931023615657395
3053.7027,10.233986013484106
3054.7314,5.8234414706033775
3055.7594,8.461480231896033
3056.7868,4.848113738100139
3057.8136,8.78335334533898
3058.8398,10.067210361254674
3059.8653,7.699696005655859
3060.8902,12.580821397679081
3061.9145,12.660597579463918
3062.9381,8.439035467341775
3063.9612,12.61614585103808
3064.9835,9.441939435887967
3066.0053,10.46642680106509
3067.0264,9.239618431323741
3068.0469,14.911524706753958
3069.0668,9.182155915049602
3070.086,8.401522194789337
3071.1046,11.869633592730239
3072.1226,10.936500071614194
3073.1399,11.352131475486761
3074.1567,8.866537539028513
3075.1727,10.079727883398714
3076.1882,12.591712041091277
3077.203,10.55249944380287
3078.2173,8.462099397313029
3079.2308,9.920521101876314
3080.2438,10.2277736731263
3081.2561,6.583866127491344
3082.2678,5.988807379122068
3083.2789,8.492606276330466
3084.2893,8.195271607540445
3085.2991,4.4468120762498735
3086.3083,2.6972363040039298
3087.3169,4.69655286787966
3088.3248,7.794770317981772
3089.3321,7.191897157449468
3090.3388,5.537941811474234
3091.3449,5.282912633328628
3092.3503,4.476817920905784
3093.3551,5.269665919269723
3094.3593,7.211464828716309
3095.3629,4.35222279684476
3096.3658,5.591947899139651
3097.3681,3.0806481675633357
3098.3698,3.868331578158699
3099.3708,4.05500607616214
3100.3713,5.390679568126764
3101.3711,5.075359920055643
3102.3702,7.5590549440450445
3103.3688,8.391772401437649
3104.3667,3.3235199779855833
3105.364,3.004305275523272
3106.3607,6.284135862649965
3107.3568,4.713019277921866
3108.3522,4.640962997053855
3109.347,5.717974448630613
3110.3412,5.844061014827215
3111.3348,0.9692300206389923
3112.3277,3.693488732620697
3113.32,4.316844407634779
3114.3117,6.039304265608823
3115.3028,3.8108754833019596
3116.2932,5.031565177080292
3117.2831,3.551380425201188
3118.2723,7.120328255606363
3119.2608,2.938415660723738
3120.2488,2.855649561777973
3121.2361,4.02203685060957
3122.2229,3.6875843905025576
3123.209,5.202299004520615
3124.1944,4.016187478851574
3125.1793,3.0792565476603144
3126.1635,2.041512904949837
3127.1471,6.102963213930597
3128.1301,5.363614117397926
3129.1125,3.6734721971175226
3130.0942,5.3325439812189614
3131.0753,4.4908359610970905
3132.0558,3.648354574821333
3133.0357,6.1051062155527624
3134.015,0.41109723996890324
3134.9936,2.516333943696239
3135.9716,5.720822618250281
3136.949,6.8745695299832015
3137.9258,4.727580888038954
3138.902,-0.2701371671841848
3139.8775,6.531421457436249
3140.8524,4.932265553693014
3141.8267,2.982403848064667
3142.8004,3.631845017707107
3143.7735,4.5305977099522
3144.7459,1.678670535813378
3145.7178,1.8260720609981114
3146.689,3.4728108344271718
3147.6596,4.018895386760622
3148.6295,4.514334213930436
3149.5989,2.8091357716796317
3150.5676,6.5033084706078945
3151.5357,4.496860693223553
3152.5032,2.7898007570018635
3153.4701,6.382136934449486
3154.4364,4.373877470175085
3155.402,2.915030544965962
3156.367,1.3556042958706698
3157.3315,6.045606830787467
3158.2952,3.53504624405857
3159.2584,2.8739305695701596
3160.221,4.5122678058579435
3161.1829,6.400065922718337
3162.1442,4.887332844825085
3163.105,4.624076432851286
3164.065,3.5103044985967067
3165.0245,5.446024807620368
3165.9834,4.881245090378236
3166.9416,4.115973022866049
3167.8993,4.650216232267088
3168.8563,8.08398230460492
3169.8127,5.1172787794009515
3170.7684,5.750113115336768
3171.7236,1.9324927199211732
3172.6782,3.164424943161844
3173.6321,3.045917115741535
3174.5854,5.726976536698764
3175.5381,6.157610474612884
3176.4902,4.787826140793483
3177.4417,4.767630684974046
3178.3926,5.047031209009813
3179.3428,3.7760347670796968
3180.2924,5.7546483628923255
3181.2415,4.082878962395968
3182.1899,4.610733473992424
3183.1377,3.238218765254702
3184.0848,6.365341657648468
3185.0314,7.4921089402572125
3185.9773,4.468527338511013
3186.9227,3.0446035029188607
3187.8674,6.220344039304486
3188.8115,3.295755523045587
3189.755,4.920844467316428
3190.6979,4.745617352333717
3191.6402,8.07008060910573
3192.5818,2.9942406211845736
3193.5229,2.418103691421571
3194.4633,5.091676092725635
3195.4031,5.464964073824644
3196.3423,7.287973832529724
3197.2809,5.810711512002365
3198.2189,5.383183182524325
3199.1563,5.6053948562702605
3200.0931,5.277352491582999
3201.0292,7.749061990751425
3201.9648,6.420529203290899
3202.8997,5.991759901226175
3203.834,5.312759792376717
3204.7677,6.933534524644401
3205.7008,7.054089692803496
3206.6333,4.124430822292927
3207.5652,4.59456336801073
3208.4964,2.8644927436106347
3209.4271,6.8342243168007535
3210.3571,2.2037634266442687
3211.2865,7.873115343862128
3212.2154,6.092285317137648
3213.1436,7.911278516422993
3214.0712,7.480100050747471
3214.9982,5.89875495002762
3215.9246,7.017248169378971
3216.8503,3.735584604929505
3217.7755,6.753769082634726
3218.7001,7.821806391094287
3219.624,8.489701251370153
3220.5473,6.107458306306237
3221.4701,4.125082113849441
3222.3922,4.842577170872083
3223.3137,8.859947932995667
3224.2346,7.277198807415921
3225.1549,5.2943341127291115
3226.0746,5.261358094759509
3226.9937,5.628274946388051
3227.9121,10.945088807882087
3228.83,7.411803763226219
3229.7473,6.7784237869541535
3230.6639,6.494952779481562
3231.5799,7.561394573439884
3232.4954,6.877752936511024
3233.4102,6.094031560762941
3234.3244,5.310234069486075
3235.238,8.276364025030546
3236.151,8.992424936644133
3237.0634,8.20842023081097
3237.9752,8.07435324409096
3238.8864,8.74022723095979
3239.797,8.656045365149627
3240.7069,8.021810732990364
3241.6163,7.837526334251439
3242.5251,9.853195088484199
3243.4332,10.11881983686473
3244.3408,6.584403322037167
3245.2477,7.849948185457443
3246.154,9.315457002737462
3247.0598,9.330932270989646
3247.9649,10.396376394171853
3248.8694,11.211791682932622
3249.7733,10.477180343956729
3250.6766,6.742544471811005
3251.5793,7.1078860562905
3252.4814,10.523207019764826
3253.3829,7.688509213524743
3254.2838,7.653794383628933
3255.1841,8.769064199250984
3256.0838,8.684320253026563
3256.9829,10.3495640499007
3257.8814,8.21479700797523
3258.7792,7.630020441856363
3259.6765,8.245235584002337
3260.5731,9.160443590571191
3261.4692,12.825645535268604
3262.3647,9.790842400195821
3263.2595,7.7560350391976325
3264.1538,7.171224208210408
3265.0474,5.7364105856101615
3265.9404,10.351594778060672
3266.8329,6.616777334861609
3267.7247,7.631958701796694
3268.616,7.197139258481878
3269.5066,5.612319308213524
3270.3966,7.477499082316606
3271.286,10.042678755992899
