RamanShift,CorrectedData
30.1047,429.1734747976811
32.3739,397.7025948616544
34.6426,367.9817106338929
36.9109,338.7108138456359
39.1787,309.1398925483057
41.4461,283.76893140621587
43.7131,253.79791199228148
45.9796,220.2268130417279
48.2456,193.8056107518012
50.5112,163.68427911747915
52.7764,133.0127901956834
55.0411,105.59111440649271
57.3054,76.31922083985785
59.5692,47.9970775298184
61.8326,20.12465174722178
64.0955,-7.198089717055431
66.3579,-34.621180273383146
68.6199,-59.69458142321502
70.8815,-82.61790880241381
73.1426,-96.74018169797392
75.4032,-80.55959404398087
77.6634,-5.773373340105053
79.9231,226.72205770432754
82.1824,760.0803340559903
84.4412,1665.9050884143364
86.6995,2900.299945878015
88.9574,4130.518514886627
91.2148,5039.51437487677
93.4717,5512.84106397986
95.7282,5654.102069932169
97.9842,5700.950825341556
100.2398,5668.640706274864
102.4949,5614.0750317894235
104.7495,5567.857064256163
107.0036,5502.640009905253
109.2573,5423.427019288302
111.5105,5350.771187930514
113.7632,5229.425557122824
116.0154,5152.893114648455
118.2672,5068.376795996375
120.5185,4970.029485126622
122.7693,4863.654015315465
125.0197,4806.4531701388805
127.2696,4718.579684536303
129.519,4662.386245382639
131.7679,4601.475492366995
134.0163,4556.400018554616
136.2642,4489.2123709959915
138.5117,4447.965051177614
140.7587,4425.860515693849
143.0052,4340.551176659414
145.2512,4284.739401930418
147.4967,4201.877515957464
149.7417,4144.467800343758
151.9863,4078.962494673735
154.2304,4046.7637970871488
156.4739,3971.8738649341303
158.717,3960.944815097174
160.9596,3934.8787247400346
163.2017,3908.927631417018
165.4433,3880.7435333336443
167.6844,3836.7783896061605
169.925,3794.484120543373
172.1651,3704.162608086308
174.4047,3630.515696231154
176.6439,3572.4951919324685
178.8825,3508.7528658396577
181.1206,3471.7904528771714
183.3582,3431.409652881934
185.5954,3385.8121309729686
187.832,3356.599517955199
190.0681,3325.5734107754315
192.3037,3304.7353728144753
194.5388,3280.3869341974114
196.7734,3259.4795920019633
199.0075,3224.614810501989
201.2411,3219.0940213765484
203.4742,3197.718624058558
205.7068,3190.7899857899884
207.9389,3178.659441835629
210.1704,3160.928295552366
212.4015,3118.6478185104957
214.632,3110.1192506710286
216.862,3094.9938008085
219.0915,3065.8726465962536
221.3205,3035.9069347576956
223.549,3007.3977813575057
225.777,3000.5462721012973
228.0044,2960.653462620702
230.2314,2928.7203785418947
232.4578,2881.848015884514
234.6837,2846.287341380999
236.909,2817.339292945307
239.1339,2747.604780028525
241.3582,2748.6846839083464
243.582,2701.52985838642
245.8053,2669.2411297775466
248.0281,2645.8692973812317
250.2503,2623.215133804572
252.472,2584.9293851959733
254.6932,2571.0127714716914
256.9139,2535.9659866986894
259.134,2536.589699233805
261.3536,2514.084552074214
263.5727,2525.4511628512005
265.7912,2507.4901240552003
268.0092,2535.552002922138
270.2267,2545.787341613042
272.4436,2514.8466569334187
274.6601,2519.1304402309065
276.8759,2517.789157704675
279.0913,2511.473250362591
281.3061,2491.1331340346314
283.5204,2484.3191994360427
285.7341,2482.0318123707416
287.9473,2481.171313799452
290.16,2451.088019862582
292.3721,2413.232221888829
294.5837,2353.5541866960098
296.7947,2296.1541569696205
299.0052,2262.0823518596185
301.2152,2221.188967554419
303.4246,2190.374177621615
305.6334,2161.9881334169136
307.8418,2112.8309643922794
310.0495,2077.0027783797964
312.2568,2043.7536620832402
314.4635,1969.2836814363604
316.6696,1895.0428819353674
318.8752,1849.1812893836382
321.0802,1807.3989106341241
323.2847,1751.1457340479606
325.4887,1723.0717299122985
327.692,1692.8268510028279
329.8949,1725.1610328645238
332.0972,1732.4241941140963
334.2989,1747.3162361166455
336.5001,1723.1370429130338
338.7007,1678.0364810709598
340.9008,1644.5643999267531
343.1003,1587.770632036381
345.2992,1513.0549935101662
347.4976,1451.9172845807284
349.6955,1412.6072903501372
351.8927,1402.4247814012906
354.0895,1366.7195141910174
356.2856,1346.7912311518958
358.4812,1306.6396610493166
360.6763,1290.4645191807558
362.8707,1262.1155077772946
365.0646,1242.8923161653688
367.258,1244.9946210502667
369.4508,1212.3220867083483
371.643,1217.8743649660337
373.8346,1209.3510955265278
376.0257,1233.3019059142916
378.2162,1234.6764115602764
380.4062,1233.3742155624159
382.5956,1203.94490867188
384.7844,1146.8380693060972
386.9726,1077.7532638430525
389.1603,1039.0400471923508
391.3474,986.747963486066
393.5339,967.4765464658776
395.7199,949.375320005985
397.9052,961.393798305824
400.09,986.8814860710809
402.2743,996.7878783935039
404.4579,987.0124604960283
406.641,1011.2047076337112
408.8235,1047.664085191489
411.0054,1091.2400484422515
413.1868,1167.1320421822502
415.3675,1255.7395002953385
417.5477,1282.5618449940503
419.7273,1193.148485933527
421.9064,1039.6488199432902
424.0848,945.5622319213799
426.2627,887.4380963693488
428.4399,808.0757783331269
430.6166,761.1246339842646
432.7928,702.2340114135577
434.9683,650.7532511005579
437.1432,605.7816865024774
439.3176,583.7686445689969
441.4914,533.4634461919823
443.6645,523.7154064256124
445.8371,502.97383498943736
448.0091,506.83803636585435
450.1806,488.80731000751985
452.3514,457.73095029871183
454.5216,435.5582467356353
456.6913,408.8884842371863
458.8603,410.4709433666826
461.0288,414.90490059855665
463.1967,405.6896283025335
465.3639,388.02439469929095
467.5306,379.60846395261296
469.6967,358.34109634603965
471.8622,326.97154836702884
474.0271,328.84907291962963
476.1914,318.67291963817615
478.3551,297.79233486851535
480.5182,282.5565617697657
482.6807,303.5648405231277
484.8426,302.86640848423804
487.0039,327.06049997308537
489.1647,372.19634628099584
491.3248,393.4231754286907
493.4843,406.74021171493087
495.6432,401.0466755042453
497.8015,367.39178309376393
499.9592,324.92474677015343
502.1163,282.74477514616274
504.2728,224.7010735852973
506.4287,222.49284462361538
508.5839,197.96928855016267
510.7386,192.92960342905735
512.8927,186.6729853447291
515.0461,184.74862845230882
517.199,187.35572504020138
519.3512,206.9934655493239
521.5029,245.16103854703988
523.6539,308.55763053078044
525.8043,320.6324255463678
527.9541,285.434604554051
530.1033,216.96334530775766
532.2519,179.96782270706808
534.3999,169.3972094819328
536.5472,148.25067656262217
538.694,157.02739318543854
540.8401,170.4765271041806
542.9856,170.19724450237482
545.1305,168.88870985878657
547.2748,180.80008595021127
549.4185,197.33053386455958
551.5615,199.12921288174357
553.704,195.94528030837455
555.8458,191.2778914597734
557.987,209.37619969181014
560.1276,240.0393564475762
562.2675,280.76651107640146
564.4069,322.2068105272233
566.5456,348.45939894131834
568.6837,332.2234172378976
570.8212,276.2480028515797
572.958,234.08228989475128
575.0942,220.92540971731705
577.2299,173.87649132836168
579.3648,153.53466152771534
581.4992,109.39904537644998
583.6329,101.3687664002905
585.766,105.99294703097303
587.8985,121.32070868654773
590.0304,160.551171725132
592.1616,191.43345529164208
594.2922,183.21667692548226
596.4222,161.14995225172606
598.5515,117.28239506328009
600.6802,81.71311754155204
602.8083,34.89123069512925
604.9358,20.815844715467847
607.0626,14.735721230630134
609.1888,26.949413918386654
611.3144,39.505329246651854
613.4393,59.101604458692236
615.5636,103.68637640272573
617.6873,132.90778133595495
619.8103,177.36395447871973
621.9327,170.75302972228428
624.0544,153.72313918427517
626.1756,113.97241327478741
628.2961,66.7489808666869
630.4159,40.45096969311862
632.5351,50.676506819736005
634.6537,39.023718907685634
636.7716,24.840732111350462
638.8889,35.07567219487919
641.0056,70.32666467401441
643.1216,60.99183471374363
645.237,76.06930677578703
647.3518,60.30720471194945
649.4659,49.45365161334439
651.5793,42.906769968018125
653.6922,23.214681769479284
655.8043,14.025508582171824
657.9159,1.087371738393358
660.0268,-20.55160756981195
662.137,-15.493319013244218
664.2466,-2.0394469521434075
666.3556,-7.341520968495388
668.4639,-2.6510502702130907
670.5716,-13.019470723414997
672.6786,-9.048191710233368
674.785,-21.338492548285558
676.8907,-20.191562163759045
678.9958,-10.358376311301981
681.1002,-9.939709031858001
683.204,-8.136230886196245
685.3072,-12.698513137394002
687.4097,-23.077045767584423
689.5115,-5.022191900756297
691.6127,-0.6340841212117994
693.7132,-0.7628549630289854
695.8131,-4.158636953942732
697.9123,24.778437385940833
700.0109,11.398235578106323
702.1089,29.05062489625243
704.2061,41.885472500099695
706.3028,55.95264525886296
708.3987,79.70200962290482
710.4941,84.08343148306449
712.5887,97.49677593315846
714.6827,104.34190722617404
716.7761,95.36868864013059
718.8688,124.02698240963218
720.9608,103.56664981559788
723.0522,125.13755089867709
725.1429,126.48954466385476
727.233,162.12248886474208
729.3224,210.3862399900545
731.4112,259.48065290728346
733.4993,280.0555803800603
735.5867,246.11087257720692
737.6735,205.94637686699298
739.7596,163.21193815658262
741.845,142.85739929367674
743.9298,142.98260149385806
746.014,170.93738454413642
748.0974,178.57158680169732
750.1802,187.53504491435206
752.2624,167.92759374419666
754.3439,147.99906627797964
756.4247,148.14929382317632
758.5048,128.12810620727305
760.5843,119.33533177626396
762.6631,134.37079759486323
764.7413,173.9843295344317
766.8188,228.77575212262218
768.8956,281.9448881472481
770.9718,334.9915581083683
773.0473,327.56557968659126
775.1221,302.5667672126142
777.1962,285.89493174147674
779.2697,328.2998813025547
781.3426,385.0814210662761
783.4147,472.6393529200718
785.4862,469.223474900557
787.557,404.0835803179584
789.6271,327.9194577902681
791.6966,224.63089189464563
793.7654,149.66766392905674
795.8335,123.92955294516014
797.901,87.36633649794203
799.9678,94.67779090309295
802.0339,82.31369160264012
804.0993,70.77381309183875
806.1641,65.75792904280661
808.2282,58.91581241992708
810.2916,39.59723553000458
812.3544,40.35197009068679
814.4164,43.57978742365003
816.4778,51.730458447051205
818.5385,71.40375364325155
820.5986,84.59944297731045
822.658,130.467295700249
824.7166,179.55708021709552
826.7747,261.6185636282062
828.832,316.90151123836677
830.8886,343.4056857361802
832.9446,369.68084664123353
834.9999,344.82675003906024
837.0545,299.5431483183852
839.1085,239.42979041966646
841.1618,186.03642228793478
843.2143,146.26278747392553
845.2662,121.30862766801056
847.3175,132.47368309793683
849.368,109.65769277836807
851.4179,107.16039439923043
853.467,105.03152455387544
855.5155,111.47081876405446
857.5633,113.3780115012064
859.6105,118.80283612206131
861.6569,97.64502484957256
863.7027,87.40430871866602
865.7478,89.13041778781962
867.7922,86.12308124146784
869.8359,80.68202737274123
871.8789,92.5069836135417
873.9212,80.5976765889518
875.9629,81.10383199898524
878.0039,99.97517473768221
880.0441,112.76142888804634
882.0837,135.06231753333304
884.1226,127.92756262918738
886.1609,168.15688478063294
888.1984,223.45000331341816
890.2352,260.25663587172403
892.2714,279.02649786523307
894.3069,254.40930210106217
896.3416,218.10475859606504
898.3757,194.96257482300507
900.4091,169.83245607359868
902.4418,172.81410568993624
904.4739,179.00722531578413
906.5052,191.51151486676827
908.5358,219.1766724684462
910.5658,210.1523943312627
912.595,196.08837447390079
914.6236,150.7843048135178
916.6515,123.93987530638788
918.6786,98.00477440094483
920.7051,108.4786893062219
922.7309,117.9113062512065
924.756,104.20231038010115
926.7804,109.05138565799552
928.8041,103.05821500795673
930.8272,136.82248026254
932.8495,125.74386222372323
934.8711,148.17204032526297
936.892,152.10669274347947
938.9123,159.8974961729732
940.9318,168.74412578728152
942.9506,178.54625516096576
944.9688,180.65355618114654
946.9862,182.41569894948543
949.003,140.4823517611071
951.019,121.50318108698048
953.0344,113.9278519932518
955.0491,108.10602833103576
957.063,98.1873728121709
959.0763,115.3715470674374
961.0888,100.05821174574112
963.1007,102.89702634227478
965.1119,113.18764935164882
967.1223,107.42973823950433
969.1321,104.77294933960638
971.1412,107.91693791142643
973.1495,90.36135816670503
975.1572,80.50586323801372
977.1641,98.3501053543132
979.1704,96.59373593950613
981.1759,99.93640543399397
983.1808,93.47776331224486
985.1849,79.86745804936209
987.1884,84.30513718567363
989.1911,89.29044746283216
991.1932,107.8230347794397
993.1945,89.90254414119454
995.1951,84.37861947556439
997.1951,83.30090381099399
999.1943,90.86903933214217
1001.1928,91.63266739066194
1003.1906,89.34142842951815
1005.1877,111.0449619753499
1007.1841,125.29290666138422
1009.1798,125.63490001039645
1011.1748,126.32057829223368
1013.1691,112.79957652039502
1015.1627,97.57152844517623
1017.1556,67.73606668887624
1019.1477,51.19282289808416
1021.1392,32.14142804202629
1023.1299,22.03151257800255
1025.12,8.662706641900058
1027.1093,21.684640149291226
1029.0979,33.596942929124
1031.0859,50.8992445935005
1033.0731,57.791174418554874
1035.0596,56.47236117142893
1037.0454,44.54243304135434
1039.0304,37.80101765284007
1041.0148,15.947742184971958
1042.9985,9.482233438827734
1044.9814,4.304118056008974
1046.9636,-11.436977416706668
1048.9452,1.808573524422627
1050.926,19.340397497507638
1052.9061,16.658121102577297
1054.8855,32.811370746257126
1056.8642,41.79977266859305
1058.8421,42.62295278151987
1060.8194,36.23053657897617
1062.7959,36.12214912867148
1064.7717,33.94741513601002
1066.7469,25.455958945177372
1068.7213,30.297404560885752
1070.695,50.77137573328764
1072.6679,56.22749590956619
1074.6402,74.76538802918867
1076.6117,94.48467446935229
1078.5826,85.28497685959974
1080.5527,58.26591588462861
1082.5221,21.977111376289486
1084.4908,9.668182583774069
1086.4587,1.78874853650359
1088.426,-5.061571832781283
1090.3925,-9.483159609227187
1092.3584,-3.876395827363922
1094.3235,1.2084332150411683
1096.2879,18.02104125898768
1098.2515,27.611142033390024
1100.2145,57.5784490869537
1102.1767,62.072675692275425
1104.1382,104.94353454616703
1106.099,150.49073772471593
1108.0591,178.71399625457298
1110.0185,220.11301965748316
1111.9771,245.7375156680514
1113.9351,277.7871898197541
1115.8923,324.06174518869193
1117.8488,359.2608820730952
1119.8045,334.58429753057817
1121.7596,265.8316850261476
1123.7139,183.90273467896895
1125.6675,139.79713394988994
1127.6204,149.06456846073297
1129.5726,141.0047224353507
1131.524,151.76727860695064
1133.4748,127.25191829869368
1135.4248,79.45832131606903
1137.3741,46.586166192047585
1139.3226,17.685130665017596
1141.2705,25.304892007507988
1143.2176,13.74512731519576
1145.164,35.955513430708834
1147.1097,31.8857270592257
1149.0546,37.8354445463699
1150.9989,17.75434191890872
1152.9424,9.342094825256027
1154.8852,-6.901621263716834
1156.8272,-17.97713097056021
1158.7686,-0.08468997062868766
1160.7092,-16.324374347740104
1162.6491,-13.946260184862922
1164.5883,1.8997395155311096
1166.5267,8.41385107410838
1168.4644,26.546300792538887
1170.4014,52.99731488835505
1172.3377,97.66711931362602
1174.2732,119.10593949044937
1176.2081,178.01399986425167
1178.1421,274.19152368940036
1180.0755,373.48873244012384
1182.0082,431.70584484873643
1183.9401,444.29307591266684
1185.8713,381.60063631228354
1187.8017,279.17873228502685
1189.7315,186.22756625232932
1191.6605,128.5473378438387
1193.5888,86.13824482692598
1195.5163,64.75048368348939
1197.4432,31.934250034045817
1199.3693,31.989738851607854
1201.2947,15.717144789845179
1203.2193,-5.0833378174684185
1205.1432,9.638485206267887
1207.0664,-5.617141179801138
1208.9889,-7.1499721129137015
1210.9106,9.69029338493192
1212.8316,-4.245972280041315
1214.7519,-4.458396798510421
1216.6715,-1.1465654438909496
1218.5903,26.939981049784365
1220.5084,21.251713402671612
1222.4257,38.28910206552655
1224.3424,39.15261727659026
1226.2583,54.04272889121148
1228.1735,83.45990637321438
1230.0879,108.20461864599565
1232.0016,147.477333798352
1233.9146,170.87851883703547
1235.8269,171.70863929402412
1237.7384,183.768158992513
1239.6492,181.3075400386117
1241.5592,178.42724270075064
1243.4686,214.7277254342855
1245.3772,279.2094449102999
1247.285,344.8728556526007
1249.1922,393.2684093929013
1251.0986,465.6965544141865
1253.0042,507.2577350667609
1254.9092,574.1523910439623
1256.8134,664.3809569665527
1258.7169,732.7938617137697
1260.6196,783.8915275210431
1262.5216,822.1243692958633
1264.4229,821.642794106808
1266.3234,798.0472008012118
1268.2232,759.7879800099815
1270.1223,707.8155143835531
1272.0207,658.3801789744834
1273.9183,654.1823417571757
1275.8151,656.6223641222327
1277.7113,677.2006009184356
1279.6067,738.417400428342
1281.5014,843.8231041625068
1283.3953,999.6680462473103
1285.2885,1161.102552370904
1287.181,1282.4769382247584
1289.0727,1351.7415078893198
1290.9637,1318.6465526202664
1292.854,1246.3923501558613
1294.7435,1131.7791650479028
1296.6323,1038.6572493842668
1298.5204,936.3768439350386
1300.4077,871.8381790837311
1302.2943,828.9414758500905
1304.1802,806.9369465354819
1306.0653,777.6747951518546
1307.9497,756.4552176417913
1309.8333,737.6784021711255
1311.7162,724.6445293411414
1313.5984,705.5537723763377
1315.4798,681.0062972547705
1317.3605,674.1022628989585
1319.2405,689.6918214213586
1321.1197,690.925118193406
1322.9982,666.552291689618
1324.876,632.7234734752619
1326.753,570.1387884500816
1328.6293,498.39835518658833
1330.5048,432.25228655590513
1332.3796,354.70069044517254
1334.2537,299.74367041900837
1336.127,279.9313264950249
1337.9996,241.61375569339793
1339.8714,230.1410522349911
1341.7426,204.56330792453082
1343.6129,200.98061226533423
1345.4826,179.44305271508597
1347.3515,176.00071472166496
1349.2196,173.55368193852087
1351.087,156.4520362590972
1352.9537,157.89585784130145
1354.8197,166.0852252785212
1356.6849,182.12021558518563
1358.5493,192.85090411487204
1360.4131,207.8773643999566
1362.276,232.19966804430715
1364.1383,270.1678845730182
1365.9998,264.1820811891887
1367.8606,269.6423223942386
1369.7206,262.1486700477692
1371.5799,270.2011833129584
1373.4384,279.299918731499
1375.2962,252.9449301430716
1377.1533,224.5362685943578
1379.0096,185.42398260259097
1380.8652,158.8581184396412
1382.7201,135.13872052313945
1384.5742,111.9158316821356
1386.4275,82.38949339429337
1388.2802,76.25974601811868
1390.132,63.37662908822381
1391.9832,59.19018137662306
1393.8336,44.1004410215653
1395.6832,39.45744556939917
1397.5322,42.16123212546859
1399.3803,34.86183740054389
1401.2278,34.05929768378337
1403.0745,24.3536489157284
1404.9204,10.194926696328594
1406.7656,16.083166381997216
1408.6101,5.218403227200724
1410.4538,0.10067232557389616
1412.2968,-1.3199912814334311
1414.139,5.956446441912249
1415.9805,18.38003271805792
1417.8213,21.850814709886436
1419.6613,40.01883939648269
1421.5006,50.5841535384227
1423.3391,93.4468034960953
1425.1769,117.4568351240473
1427.0139,186.7142933423579
1428.8502,258.46922189653833
1430.6858,307.0216626649576
1432.5206,332.7716549412937
1434.3547,334.0192349490096
1436.188,325.6144355838512
1438.0206,309.20728640137486
1439.8524,293.24781370099095
1441.6835,310.4860406900393
1443.5139,290.4719876433803
1445.3435,313.0056717310156
1447.1724,323.5871072182272
1449.0005,324.31630524024126
1450.8279,304.64327369641296
1452.6545,304.6180172429338
1454.4804,314.8405374895642
1456.3056,311.6608329998853
1458.13,298.5788991890727
1459.9536,278.5947283556932
1461.7766,260.8083098125262
1463.5987,229.86963008640396
1465.4202,198.5286730960754
1467.2409,170.18542046159496
1469.0608,148.7398518177297
1470.88,132.7919450973934
1472.6984,114.89167674610235
1474.5161,89.73902188145394
1476.3331,75.83395447213093
1478.1493,73.82644758942524
1479.9648,72.4664735462909
1481.7795,67.0540039174175
1483.5935,79.1890095528313
1485.4067,78.17146063201835
1487.2192,74.30132654257727
1489.031,87.0285758903915
1490.842,87.20317653833263
1492.6522,88.17509547898703
1494.4618,82.79429883290868
1496.2705,95.61075183890239
1498.0785,79.97441890782875
1499.8858,87.785263494442
1501.6924,82.59324825375256
1503.4981,79.64833496291794
1505.3032,70.00048457316325
1507.1075,78.89965723923228
1508.911,72.94581241586411
1510.7138,72.788908768802
1512.5159,68.3789042343301
1514.3172,65.71575602084476
1516.1178,54.89942065295463
1517.9176,43.929853998108456
1519.7166,46.807011374763306
1521.515,48.83084766207821
1523.3126,53.65131727114158
1525.1094,52.31837412473533
1526.9055,38.18197160912791
1528.7008,37.39206258740501
1530.4954,17.398599540832492
1532.2893,36.65153457675592
1534.0824,38.95081962853624
1535.8747,32.846406263018935
1537.6663,27.038245657541665
1539.4572,28.276288660977798
1541.2473,33.410485851819885
1543.0367,24.99078752579703
1544.8253,30.01714364453403
1546.6132,43.889503919748336
1548.4003,43.65781776298513
1550.1867,51.97203414689636
1551.9723,63.18210160755564
1553.7572,72.98796816131687
1555.5414,79.33958119271381
1557.3247,105.53688735640128
1559.1074,119.72983251363814
1560.8893,155.9183614703153
1562.6705,206.3524178350251
1564.4509,230.3319436571768
1566.2305,235.8568789226564
1568.0094,251.72716131403035
1569.7876,253.94272615529644
1571.565,255.853506253182
1573.3417,255.45943187498779
1575.1176,263.5604307294792
1576.8928,268.8564279708279
1578.6672,292.4473461176017
1580.4409,307.73310499980425
1582.2138,339.16362152296665
1583.986,373.1388095152887
1585.7575,414.5085794133345
1587.5282,448.2728379222815
1589.2981,479.43148760222095
1591.0673,491.83442653051657
1592.8358,498.5815479902177
1594.6035,501.27274034603045
1596.3704,485.4078869768465
1598.1366,461.4868662488301
1599.9021,447.30955167406637
1601.6668,433.7758121497725
1603.4308,416.8355121000701
1605.194,402.1885116113224
1606.9564,418.48466660153815
1608.7182,469.17382896684194
1610.4791,539.9058464185106
1612.2394,622.6805619760842
1613.9988,715.947813260044
1615.7576,794.5574316640668
1617.5156,839.6092414223518
1619.2728,847.2030588235244
1621.0293,777.5386917601182
1622.785,679.9659396526365
1624.54,573.2345941461962
1626.2942,485.89444008625514
1628.0477,387.1452565859256
1629.8005,316.48681789937757
1631.5525,259.4688944093273
1633.3037,213.2912533336248
1635.0542,177.05365929543075
1636.804,150.3058747849941
1638.553,120.04766052202717
1640.3013,110.52877572318368
1642.0488,98.74897840464143
1643.7955,83.5580254772907
1645.5416,77.40567286453245
1647.2868,69.94167565418786
1649.0313,63.565788160020816
1650.7751,66.12776399637892
1652.5181,64.1773561419526
1654.2604,56.064316914154574
1656.0019,63.18839798862507
1657.7427,72.29935048036089
1659.4828,93.74692487247569
1661.222,117.18087092508995
1662.9606,150.90093746085563
1664.6984,179.6068721306167
1666.4354,191.19842107620786
1668.1717,195.52532864339537
1669.9072,162.08733726596154
1671.642,121.78418742243616
1673.3761,88.11561797047523
1675.1094,62.98136654989332
1676.8419,50.83116991934912
1678.5737,35.96476420768795
1680.3048,29.78188503544311
1682.0351,28.882267663500897
1683.7646,13.3156470549294
1685.4934,10.981757883974069
1687.2215,9.380334691724556
1688.9488,8.511111909453007
1690.6754,1.673823874629079
1692.4012,8.168204839611917
1694.1263,7.043989040023234
1695.8506,1.350910629802911
1697.5742,7.6387036924509175
1699.297,10.80710229795875
1701.0191,1.3558404399308301
1702.7404,1.3846520039008965
1704.461,1.9432708618446668
1706.1808,-3.818569128108834
1707.8999,-2.801134127263026
1709.6182,-5.554652149416029
1711.3358,-1.9293232250369101
1713.0527,-1.1752918936193737
1714.7688,-9.54268342071964
1716.4841,0.9683886692723718
1718.1987,-8.29209381662622
1719.9126,-2.7241490810820324
1721.6257,2.622287511255422
1723.338,7.347307809985637
1725.0496,-0.3489963615149918
1726.7605,4.78346674665795
1728.4706,-3.105207629118354
1730.18,0.6850756996988139
1731.8886,0.3544429426764282
1733.5964,4.003020302530786
1735.3036,8.630933978434314
1737.0099,8.08831012952976
1738.7156,10.225274828650527
1740.4204,5.49195406774777
1742.1246,15.438473736519427
1743.8279,7.514959669744144
1745.5306,15.171537547816342
1747.2325,14.908332975981125
1748.9336,10.325471407768305
1750.634,13.173078147624437
1752.3336,18.651278396741986
1754.0325,18.210197224582657
1755.7307,13.299959514095917
1757.4281,23.470689966129157
1759.1247,23.77251314853072
1760.8206,22.05555339444186
1762.5158,30.11993479927912
1764.2102,22.015781237903298
1765.9039,24.693216283976085
1767.5968,19.202363291001006
1769.289,24.393345365550545
1770.9804,29.216285422173428
1772.6711,26.521306131485062
1774.361,22.858529871938117
1776.0502,29.328078756772584
1777.7386,26.980074670643944
1779.4263,33.36463920492679
1781.1132,30.03189368119513
1782.7994,26.181959087376868
1784.4849,27.81495611108153
1786.1696,34.4310051780991
1787.8535,40.98022643606987
1789.5367,30.86273968832529
1791.2192,39.478664328394416
1792.9009,31.778119441179342
1794.5818,36.36122371679562
1796.2621,36.72809552757826
1797.9415,33.02885288225002
1799.6202,37.063613422253184
1801.2982,32.68249445874153
1802.9755,34.23561293223372
1804.6519,33.17308545642322
1806.3277,40.195028302647984
1808.0027,29.901557410515352
1809.6769,44.04278831768249
1811.3504,33.668836262791274
1813.0231,36.57981604405609
1814.6951,41.075842123002985
1816.3664,39.45702859536033
1818.0369,45.023489146097916
1819.7067,41.225337065615975
1821.3757,36.51268519408001
1823.044,43.88564595940204
1824.7115,34.74433142436794
1826.3783,43.13885321290718
1828.0443,40.81932260150637
1829.7096,48.38585043526365
1831.3741,44.98854715108433
1833.0379,43.07752270201547
1834.701,40.95288659121866
1836.3633,45.814747891080856
1838.0248,43.863215264459996
1839.6856,48.74839691606638
1841.3457,49.42040061197872
1843.005,35.62933363079219
1844.6636,41.625302756897554
1846.3214,46.35841441839273
1847.9785,51.92877462712295
1849.6349,51.63648893134916
1851.2904,51.53166236004449
1852.9453,45.66439942581752
1854.5994,57.28480412596076
1856.2528,52.04298000112294
1857.9054,49.789030019104814
1859.5572,51.12305662727783
1861.2083,47.64516177512354
1862.8587,52.35544690089279
1864.5084,46.5040129663854
1866.1572,49.19096040984681
1867.8054,54.31638920448256
1869.4528,54.880398831588536
1871.0994,56.73308822929732
1872.7453,52.2745557869377
1874.3905,55.35489932650768
1876.0349,50.374216147259745
1877.6786,57.432602994897536
1879.3215,48.430156111382644
1880.9637,53.66697116435125
1882.6051,55.443143337138395
1884.2458,53.95876727640905
1885.8858,56.8639370743972
1887.525,55.55874628374937
1889.1634,55.743287888472764
1890.8011,54.86765431698757
1892.4381,58.081937440281195
1894.0743,58.68622858066453
1895.7098,56.580618479629265
1897.3446,52.765197291805066
1898.9786,58.39005460601544
1900.6118,62.505279483432105
1902.2443,60.61096040132679
1903.8761,53.75718521191823
1905.5071,49.094041161316
1907.1374,57.82161495805775
1908.7669,57.13999281974117
1910.3957,55.149260385747766
1912.0237,52.699502724059414
1913.651,54.24080435116542
1915.2776,54.22324925656034
1916.9034,53.99692088733087
1918.5285,52.16190214833159
1920.1528,48.91827540444757
1921.7764,54.016122498945606
1923.3992,48.40552478590939
1925.0213,52.18656307926176
1926.6427,51.65931770887005
1928.2633,45.17386848273674
1929.8832,53.48029469227106
1931.5023,48.07867517714391
1933.1207,43.71908824222328
1934.7383,51.301611711590795
1936.3552,43.37632297213736
1937.9714,51.19329889773803
1939.5868,49.45261592850483
1941.2015,42.60434999261639
1942.8154,38.14857652372598
1944.4286,43.0853705294428
1946.041,51.56480663589076
1947.6528,48.43695903833952
1949.2637,43.65190141641136
1950.8739,39.95970696535903
1952.4834,47.960448443916334
1954.0921,49.25419821122023
1955.7001,47.99102814680367
1957.3074,44.82100963765794
1958.9139,42.69421359086414
1960.5197,47.110710465293664
1962.1247,45.52057029287607
1963.729,42.87386263443409
1965.3325,45.420656595585
1966.9353,45.561020853207594
1968.5374,42.79502362997437
1970.1387,40.32273269294774
1971.7393,43.29421538124001
1973.3392,43.759538630736415
1974.9383,45.918768944380304
1976.5366,39.921972387519986
1978.1342,39.71921456631617
1979.7311,39.660560687710245
1981.3273,41.646075561451596
1982.9227,38.47582360068418
1984.5173,38.34986880209101
1986.1112,37.31827477759714
1987.7044,38.48110475562885
1989.2968,37.33842159142989
1990.8885,38.69028775543319
1992.4795,38.03676534468758
1994.0697,41.27791606933954
1995.6592,40.96380125916755
1997.2479,36.1944818311714
1998.8359,39.370018292712984
2000.4232,34.84047078920918
2002.0097,36.505899072376906
2003.5955,36.9663625455284
2005.1805,35.921920246917466
2006.7648,39.92263084513422
2008.3484,36.51855264955003
2009.9312,42.85974357030983
2011.5133,40.64626115237331
2013.0946,41.228162512103154
2014.6752,37.5055043593992
2016.2551,40.07834299187982
2017.8342,42.3467343321085
2019.4126,37.76073390186565
2020.9902,30.82039679946439
2022.5672,39.97577774561057
2024.1433,38.776931152806014
2025.7188,30.873911033795252
2027.2935,34.41677101355339
2028.8674,35.10556440831681
2030.4406,39.19034419015435
2032.0131,42.721162980079214
2033.5849,38.29807300720165
2035.1559,31.47112607342018
2036.7261,34.49037359765288
2038.2957,37.8558666841069
2039.8645,37.31765609208571
2041.4325,43.62579220233437
2042.9998,37.88032502242129
2044.5664,41.18130412365713
2046.1323,32.87877869854907
2047.6974,33.27279752779174
2049.2617,38.863409063291954
2050.8254,38.750661424228554
2052.3883,39.38460234114666
2053.9504,35.665279157084626
2055.5118,42.54273882123522
2057.0725,35.767027926138496
2058.6325,37.3881926389073
2060.1917,37.7562787689846
2061.7502,35.07133175193127
2063.3079,39.4833966457461
2064.8649,33.742518157714414
2066.4212,35.29874060028783
2067.9767,35.85210794849263
2069.5315,35.15266382436812
2071.0856,32.50045149143244
2072.6389,32.64551386167756
2074.1915,33.437893522090974
2075.7433,36.42763273320526
2077.2945,33.2647734211742
2078.8448,35.39935714787549
2080.3945,30.281425142538808
2081.9434,43.36101828040057
2083.4916,34.93817713388319
2085.039,34.56294184179882
2086.5857,32.28535219357815
2088.1317,35.20544763302229
2089.677,38.57326728107893
2091.2215,33.98884990664152
2092.7652,36.60223389287091
2094.3083,34.2634572830396
2095.8506,39.87255775439786
2097.3921,33.2795726415614
2098.933,41.13453888042051
2100.4731,39.537493074070085
2102.0124,39.48847141425972
2103.5511,37.187509697364135
2105.089,40.28464332487346
2106.6261,36.3799073264027
2108.1626,37.47333632872096
2109.6983,44.76496459479824
2111.2332,34.75482601287172
2112.7675,34.04295402352864
2114.301,40.82938171980834
2115.8337,38.41414185432075
2117.3657,36.29726677138177
2118.897,40.52878843116645
2120.4276,35.15873843087735
2121.9575,42.23714796242905
2123.4866,37.664047866149076
2125.0149,36.08946855999352
2126.5426,30.013440085278262
2128.0695,37.03599212242443
2129.5956,35.15715405171915
2131.1211,37.326954883089684
2132.6458,36.145423274891925
2134.1698,32.51258751221252
2135.693,36.8784755186839
2137.2155,40.29311489281281
2138.7373,37.25653286432129
2140.2584,35.16875626000018
2141.7787,38.17981153407544
2143.2983,37.739724789085415
2144.8171,36.89852174577044
2146.3353,34.90622774747362
2147.8527,39.16286776855327
2149.3693,31.56846643430532
2150.8853,38.473047978397176
2152.4005,33.52663631881154
2153.9149,32.07925498880081
2155.4287,34.48092718635098
2156.9417,34.08167578865596
2158.454,36.181523328100184
2159.9655,32.58049199625151
2161.4764,35.1286036228629
2162.9865,34.2258797118825
2164.4958,32.22234141597238
2166.0045,30.21800954553595
2167.5124,33.56290458875361
2169.0195,37.45704673162567
2170.526,32.70045582452332
2172.0317,30.743151343247632
2173.5367,35.735152436595115
2175.0409,34.62647794593107
2176.5445,38.317146355269074
2178.0473,33.60717580235831
2179.5494,35.696584041776305
2181.0507,32.93538849202912
2182.5513,34.57360621465716
2184.0512,27.061253941847156
2185.5504,32.99834806004998
2187.0488,35.48490468510391
2188.5465,30.720939602864178
2190.0435,32.356468244336895
2191.5397,29.09150573331914
2193.0353,26.526066870042882
2194.5301,27.71016616382559
2196.0241,32.44381785872389
2197.5175,30.627035921692936
2199.0101,29.159833995249926
2200.502,28.942225415642042
2201.9931,27.974223227518223
2203.4835,26.205840186105092
2204.9733,31.137088766887587
2206.4622,28.717981183292125
2207.9505,28.49852933737435
2209.438,28.62874484401027
2210.9248,24.65863903309065
2212.4109,27.338222948218913
2213.8962,28.617507386412456
2215.3809,31.596502871306257
2216.8648,27.02521964036049
2218.3479,22.903667615070276
2219.8304,17.781856446678773
2221.3121,21.05979555739225
2222.7931,24.38749419159859
2224.2733,21.56496138308796
2225.7529,28.64220592177577
2227.2317,20.06923638192802
2228.7098,23.546061051388875
2230.1872,18.772688017310372
2231.6638,19.149125131384068
2233.1397,25.025380057574637
2234.6149,23.40146026835569
2236.0894,19.97737298594717
2237.5632,22.90312519855459
2239.0362,25.37872369460993
2240.5085,22.504175033513974
2241.9801,17.879485520880195
2243.4509,25.404661237280663
2244.921,15.029708084492398
2246.3904,15.604631710246252
2247.8591,16.579437611975834
2249.3271,18.654131131068453
2250.7943,20.87871744311738
2252.2608,18.203201537174806
2253.7266,19.52758819350578
2255.1917,20.851882010343445
2256.656,18.826087390645284
2258.1197,18.400208528850243
2259.5826,15.174249431136673
2261.0447,20.998213919681092
2262.5062,15.87210566491774
2263.9669,16.995928127298782
2265.4269,17.969684608555525
2266.8862,20.24337824045986
2268.3448,23.167011975087235
2269.8026,20.990588562079154
2271.2598,17.314110519407052
2272.7162,17.287580155136425
2274.1719,15.510999604191937
2275.6268,22.78437082862277
2277.0811,16.107695635368202
2278.5346,18.930975603524104
2279.9874,14.65421215110942
2281.4395,15.92740650683345
2282.8908,19.900559752863472
2284.3414,15.423672812092747
2285.7914,20.046746408409177
2287.2406,18.119781111464192
2288.689,15.592777290441859
2290.1368,14.715735133328565
2291.5838,19.488654672183003
2293.0302,15.461535791906698
2294.4758,9.68437818251465
2295.9206,16.257181379406717
2297.3648,14.77994482113914
2298.8082,14.502667783696353
2300.251,13.925349395263396
2301.693,14.747988638998692
2303.1343,9.620584358807122
2304.5748,14.493135251113813
2306.0147,17.115639916138207
2307.4538,15.238096809168468
2308.8922,10.810504214336731
2310.3299,17.682860263394105
2311.7669,11.855162979986773
2313.2031,15.077410210932271
2314.6387,16.849599684496383
2316.0735,13.821728978171109
2317.5076,10.893795500952535
2318.941,18.415796523619804
2320.3737,13.08772920801394
2321.8056,16.959590531818236
2323.2369,16.13137734183877
2324.6674,19.053086315285725
2326.0972,18.17471396805547
2327.5263,19.946256625513627
2328.9547,23.967710431278675
2330.3823,17.7390713295068
2331.8092,15.110335024677227
2333.2355,13.381497043878824
2334.661,12.852552763097009
2336.0858,16.82349742450282
2337.5098,14.844326141741561
2338.9332,17.915033860223616
2340.3558,13.635615376916235
2341.7778,14.806065309636523
2343.199,12.876378139845372
2344.6195,13.696548200943226
2346.0393,13.46656969756657
2347.4583,11.986436697386608
2348.8767,14.356143133408722
2350.2943,10.02568281877393
2351.7113,18.395049423061863
2353.1275,8.61423651559528
2354.543,7.783237481746596
2355.9578,11.952045620745935
2357.3718,13.220654153990978
2358.7852,16.939056183359213
2360.1978,7.857244678521653
2361.6098,2.5252124397592013
2363.021,14.042952188780191
2364.4315,11.360456622041113
2365.8413,14.877718295569167
2367.2504,18.09472965178722
2368.6587,13.66148298434112
2370.0664,14.127970405929261
2371.4733,8.844183892635414
2372.8795,12.210115279263562
2374.285,10.425756312175992
2375.6899,9.241098615633888
2377.0939,10.60613370964083
2378.4973,10.070853021789276
2379.9,10.435247873610564
2381.3019,13.39930948592746
2382.7032,4.713028975210079
2384.1037,13.826397323936021
2385.5035,4.339405467452707
2386.9027,7.3020442028438595
2388.3011,9.264304283799078
2389.6987,10.776176390987814
2391.0957,11.387651112436146
2392.492,9.848718928408744
2393.8876,8.559370205294414
2395.2824,9.919595210994629
2396.6765,4.679384127817258
2398.07,8.138727038874435
2399.4627,10.39761398048455
2400.8547,8.50603490757888
2402.246,8.963979671112497
2403.6366,6.571438036980311
2405.0265,3.8783996814375143
2406.4156,7.334854215024961
2407.8041,4.490791209499605
2409.1918,6.846200163269998
2410.5789,6.301070529836778
2411.9652,8.455391694238614
2413.3508,10.00915297850355
2414.7358,7.162343620105673
2416.12,3.814952756427715
2417.5035,9.216969453229012
2418.8863,4.768382738119328
2420.2684,3.9191815465390505
2421.6497,1.5193547662446747
2423.0304,5.16889124580112
2424.4104,1.6677798185797315
2425.7896,6.766009266263097
2427.1682,4.663568353855908
2428.546,5.960445778702933
2429.9232,6.306630191513307
2431.2996,1.6521101833918124
2432.6753,3.896874282376956
2434.0503,10.940910999986158
2435.4246,4.434208808768318
2436.7982,3.97675607186315
2438.1711,3.0185411080683764
2439.5433,5.009552196414205
2440.9148,4.099777585745613
2442.2856,3.339205474812161
2443.6557,4.727824021365848
2445.025,1.9156213497666954
2446.3937,2.9525855370965814
2447.7617,5.538704641281186
2449.1289,3.87396669072038
2450.4955,5.658359658427202
2451.8613,4.191871478674841
2453.2265,6.124490029153122
2454.5909,6.45620314563314
2455.9546,2.9869986026411937
2457.3177,3.1668641101414607
2458.68,2.645787348228339
2460.0416,7.023755965327666
2461.4025,6.500757583407562
2462.7627,4.126779754198623
2464.1222,5.551809964423995
2465.4811,7.875835659539092
2466.8392,2.8988442294813694
2468.1966,2.9208229854300782
2469.5533,4.841759209576054
2470.9093,4.161640154901988
2472.2645,6.280453025973003
2473.6191,-1.401815014261956
2474.973,10.114823134341663
2476.3262,3.3803685760603344
2477.6787,4.994822314022514
2479.0305,3.8581853175529375
2480.3816,3.5704585060283307
2481.7319,5.631642760243551
2483.0816,8.491738925288956
2484.4306,1.9507477899385606
2485.7789,7.208670058049222
2487.1264,5.21550641397036
2488.4733,10.371257469964831
2489.8195,8.37592378614056
2491.165,9.329505818893068
2492.5097,6.0820039408586695
2493.8538,6.383418431378743
2495.1972,1.5837495089746199
2496.5398,2.482997328333454
2497.8818,3.8811620283051127
2499.2231,4.778243722909508
2500.5637,3.274242487355025
2501.9035,8.069158349067635
2503.2427,6.512991302730995
2504.5812,4.405741262337301
2505.919,3.847408076748792
2507.256,3.687991550770562
2508.5924,6.827491450733589
2509.9281,5.815907506089019
2511.2631,3.1532393780132395
2512.5974,2.6894866695236317
2513.9309,6.274648952105224
2515.2638,4.658725770348411
2516.596,6.441716606097117
2517.9275,3.173620894608149
2519.2583,3.1044380067212103
2520.5884,6.384167281540016
2521.9178,9.062808027123793
2523.2465,4.99035948769037
2524.5745,5.76682081682938
2525.9018,2.5421911182270094
2527.2284,2.766469437901378
2528.5543,2.639654796448781
2529.8796,3.111746186801014
2531.2041,8.082742575493285
2532.5279,4.352642897943497
2533.851,6.621446008742112
2535.1735,8.68915071895313
2536.4952,8.905755773426193
2537.8163,3.1212598301194134
2539.1366,5.435661457933463
2540.4562,4.098959194556414
2541.7752,2.4111515233198872
2543.0935,4.472236886565753
2544.411,2.8822137025245524
2545.7279,4.241080344704443
2547.0441,3.44883515779145
2548.3596,7.505476444060861
2549.6744,5.911002471299639
2550.9885,6.915411432239949
2552.3019,5.268701460504104
2553.6146,5.6208706205602255
2554.9266,10.971916924189514
2556.2379,3.8718383269644505
2557.5485,4.670632674738499
2558.8585,5.768297774646811
2560.1677,3.4648313871182097
2561.4762,5.51023121489871
2562.7841,7.604494926086019
2564.0913,2.4476201336756276
2565.3977,4.739604374618182
2566.7035,9.280445161388158
2568.0086,5.770139959064068
2569.313,7.558686139920027
2570.6167,6.696081018528872
2571.9197,11.28232183387665
2573.222,10.617405757988593
2574.5236,4.90132985006683
2575.8246,7.884091063139465
2577.1248,13.265686301221237
2578.4244,9.596112389486137
2579.7232,8.125366020451295
2581.0214,5.60344379067287
2582.3189,12.380342215453396
2583.6157,6.55605775406103
2584.9118,12.68058674196061
2586.2072,11.353925449056433
2587.5019,8.526070018446987
2588.7959,12.397016479691558
2590.0893,7.516760777088749
2591.3819,7.385298730967065
2592.6739,11.952626086487385
2593.9652,8.318738514957786
2595.2557,13.98363156816012
2596.5456,10.897300714688996
2597.8348,12.559741283302728
2599.1234,6.220948493786679
2600.4112,8.230917440328824
2601.6983,11.689643154907841
2602.9848,10.747120587193322
2604.2705,11.653344569958335
2605.5556,8.108309828504858
2606.84,9.512010971601384
2608.1237,12.614442526933274
2609.4067,8.96559892706587
2610.689,8.265474478420074
2611.9707,12.614063397761015
2613.2516,11.461359819199117
2614.5319,9.60735775070441
2615.8115,9.202051085633272
2617.0903,11.94543362126845
2618.3685,8.187499062872249
2619.6461,9.878240996252657
2620.9229,10.967652925342733
2622.199,7.755728255293249
2623.4745,8.09246028157834
2624.7493,9.72784222211493
2626.0234,9.461867213895445
2627.2968,7.994528296633945
2628.5695,8.22581841542582
2629.8415,9.005730435421214
2631.1128,10.034257139512036
2632.3835,10.111391220533065
2633.6535,6.137125270976426
2634.9228,6.461451782220465
2636.1914,10.384363184272246
2637.4593,9.355851842524416
2638.7265,8.575910018525988
2639.9931,11.294529880267504
2641.259,9.76170350998052
2642.5242,7.727422876951309
2643.7887,8.44167985284912
2645.0525,8.604466232069058
2646.3156,6.0157737245894225
2647.5781,4.975593954343921
2648.8398,8.983918485108617
2650.1009,8.290738830903692
2651.3613,12.096046415910223
2652.6211,7.249832581401947
2653.8801,7.902088547692287
2655.1385,6.20280546259626
2656.3961,7.601974394908169
2657.6531,8.29958635139424
2658.9094,8.595632262801004
2660.1651,10.190102976879132
2661.42,7.1329892554229986
2662.6743,9.024281758326026
2663.9279,8.913971074151775
2665.1808,7.052047701221099
2666.433,9.688502048715165
2667.6846,7.8233244552947525
2668.9354,14.956505162735638
2670.1856,10.788034334580416
2671.4351,9.317901984806653
2672.6839,11.596098019511587
2673.9321,15.172612251613458
2675.1795,9.947434378069559
2676.4263,13.120553944111137
2677.6724,13.84196039549515
2678.9179,11.261643046773045
2680.1626,13.829591074076703
2681.4067,10.945793540921642
2682.6501,8.460239372527496
2683.8928,11.122917384656091
2685.1348,11.483816308466828
2686.3761,10.492924763889988
2687.6168,7.400231256017733
2688.8568,8.455724185013025
2690.0961,8.759391877036563
2691.3348,6.5612225736917935
2692.5727,10.761204428988322
2693.81,12.40932553132346
2695.0466,6.055573861482628
2696.2826,10.049937276157976
2697.5178,8.392403571485971
2698.7524,5.33296044310373
2699.9863,8.071595502724364
2701.2195,9.708296308731363
2702.452,10.343050338792324
2703.6839,11.025844973491886
2704.9151,11.406667489984315
2706.1456,9.885505055165382
2707.3755,10.962344721864355
2708.6046,11.287173444055398
2709.8331,12.409978066089352
2711.0609,10.830745319445413
2712.2881,14.34946181150299
2713.5145,11.016114041334177
2714.7403,17.080688364516433
2715.9654,12.393171026466064
2717.1899,11.403548101792609
2718.4136,19.061805541173868
2719.6367,15.367929181252208
2720.8591,15.921904668051937
2722.0809,19.92371749391819
2723.3019,17.323352991977004
2724.5223,20.020796296117325
2725.7421,14.216032366994483
2726.9611,16.859045965055927
2728.1795,16.349821708588763
2729.3972,16.188344047289718
2730.6142,15.424597267357328
2731.8306,14.108565493106724
2733.0462,12.190232694607104
2734.2612,14.369582700842116
2735.4756,12.146599218893058
2736.6892,13.37126581214548
2737.9022,8.443565922519014
2739.1145,10.213482858220601
2740.3262,12.23099984302165
2741.5372,8.846099998558799
2742.7475,9.85876632415868
2743.9571,13.068981730687
2745.1661,9.576729030421888
2746.3744,9.231990904951672
2747.582,6.73474994009743
2748.7889,8.93498862936039
2749.9952,5.532689398894249
2751.2008,4.627834585502853
2752.4057,5.020406470663218
2753.61,9.410387289574032
2754.8136,3.9477592272299944
2756.0165,8.682504374522011
2757.2188,3.664604782863478
2758.4204,0.4940424168427171
2759.6213,3.4707992044021267
2760.8215,0.8448570685436607
2762.0211,6.966197897561358
2763.22,3.1348035713006936
2764.4182,4.750655899945215
2765.6158,4.913736662330521
2766.8127,5.024027589785689
2768.009,4.531510364502452
2769.2045,4.18616661843231
2770.3994,4.187977938211745
2771.5936,2.9369258686156456
2772.7872,5.732991912539148
2773.9801,2.126157543508228
2775.1723,-3.0835958222810262
2776.3639,3.2537132101059427
2777.5548,3.438096840725919
2778.745,2.0695672370986102
2779.9346,-1.7018634676372386
2781.1235,4.9238168389615
2782.3117,1.3466372709539627
2783.4992,3.366626893161083
2784.6861,1.4338147569375082
2785.8723,-0.6017701200284051
2787.0579,0.6599012656135983
2788.2428,1.7188639288972354
2789.427,-0.5248471217427806
2790.6106,0.028803104939782997
2791.7935,-1.3201451565862357
2792.9757,3.028348327860016
2794.1573,1.9743369807094382
2795.3382,-0.23212580589057552
2796.5184,1.409013340464071
2797.698,1.4978101111142479
2798.8769,3.684320183310703
2800.0551,-1.8814007806738289
2801.2327,5.55070284459012
2802.4096,3.08070547972585
2803.5859,0.008681489849649893
2804.7615,0.6847052092708452
2805.9364,1.7588509722119312
2807.1106,2.2311931060483943
2808.2842,7.40180592056727
2809.4572,7.120763703243583
2810.6294,6.438140667534427
2811.801,3.904010955689216
2812.972,10.418448645575978
2814.1423,10.88152777602268
2815.3119,10.49332228167276
2816.4808,10.503905988354461
2817.6491,14.413352616962783
2818.8167,16.021735783353705
2819.9837,17.879128959249684
2821.15,25.935605456155912
2822.3157,26.291238406786306
2823.4807,34.1961006844987
2824.645,38.60026489973849
2825.8086,45.603803320990224
2826.9716,55.256787830735746
2828.134,61.75928985541893
2829.2957,68.01138026891573
2830.4567,71.46312932750917
2831.617,71.46460660736834
2832.7767,76.76588097003109
2833.9358,77.16702056238921
2835.0941,79.2180927636757
2836.2519,71.91916418145337
2837.4089,67.82030063110412
2838.5653,63.42156720881832
2839.7211,64.27302833258332
2840.8761,61.07474778617083
2842.0306,63.17678871062233
2843.1843,62.47921363623179
2844.3374,62.23208446152536
2845.4899,64.2354624602371
2846.6417,66.93940828378028
2847.7928,69.04398194121356
2848.9433,71.09924277220153
2850.0931,67.25524942596903
2851.2422,70.16205984074841
2852.3907,72.71973128221967
2853.5385,69.02832031444211
2854.6857,71.93788277427785
2855.8323,71.74847380830582
2856.9781,73.86014784372608
2858.1233,80.12295859025402
2859.2679,77.08695901900361
2860.4118,85.65220129985927
2861.555,85.11873683183583
2862.6976,93.48661615742618
2863.8395,89.45588896793585
2864.9808,93.02660401980431
2866.1214,89.94880917491211
2867.2614,94.97255136487371
2868.4007,97.54787662181556
2869.5393,97.5248300281386
2870.6773,99.60345569076505
2871.8146,104.43379674136887
2872.9513,106.26589531558955
2874.0874,101.64979250472858
2875.2227,104.83552833742861
2876.3574,109.47314182583428
2877.4915,113.06267093373509
2878.6249,109.35415253018914
2879.7577,110.09762235362774
2880.8898,117.84311504894086
2882.0212,116.39066416004219
2883.152,116.64030205241426
2884.2821,120.5420599276331
2885.4116,123.39596782087169
2886.5405,123.3520545618824
2887.6686,123.060347746458
2888.7962,129.57087373687082
2889.923,128.53365766478967
2891.0493,127.79872336617471
2892.1748,125.3160933916495
2893.2997,121.7357890138504
2894.424,126.15783025225278
2895.5476,125.38223590897428
2896.6706,124.75902352455421
2897.7929,122.33820938570952
2898.9145,121.31980853156699
2900.0355,122.65383477787134
2901.1559,123.24030072716926
2902.2756,121.37921775546907
2903.3946,123.0205960063762
2904.513,124.26444440970387
2905.6308,123.46077066505944
2906.7479,120.15958122940575
2907.8643,119.46088132509806
2908.9801,119.26467497289576
2910.0953,117.42096499894949
2911.2098,116.72975303676316
2912.3236,118.79103954563108
2913.4368,115.90482381755011
2914.5494,115.8211039566066
2915.6613,114.63987690783883
2916.7725,111.81113845807396
2917.8831,114.18488324774046
2918.9931,109.96110479915546
2920.1024,105.48979549278727
2921.211,103.12094660949316
2922.319,101.70454837523242
2923.4264,100.19058998475498
2924.5331,100.82905961576532
2925.6391,103.16994444406203
2926.7445,102.96323063715323
2927.8493,105.10890333084754
2928.9534,103.75694663132137
2930.0569,105.30734359366215
2931.1597,109.36007623538778
2932.2619,104.96512552094278
2933.3634,113.37247132117092
2934.4643,110.13209245726482
2935.5645,110.84396661669231
2936.6641,113.25807038560042
2937.763,118.07437924169648
2938.8613,111.5428675301071
2939.959,111.56350841521522
2941.056,109.48627394597509
2942.1523,100.01113505570592
2943.248,100.3380615828642
2944.3431,96.76702236579507
2945.4375,87.79798523946317
2946.5313,84.6309170711628
2947.6244,75.76578385020856
2948.7169,71.35255071960582
2949.8087,65.79118206470216
2950.8999,60.431641557319686
2951.9904,53.02389221136866
2953.0803,47.017896436443
2954.1696,47.11361611189769
2955.2582,39.91101264690873
2956.3462,37.96004697951605
2957.4335,45.710679648649446
2958.5202,41.562870813638256
2959.6062,38.21658017670511
2960.6916,40.8217670244439
2961.7764,41.0283902612828
2962.8605,41.336408383432236
2963.9439,41.4457794768188
2965.0267,40.65646121400498
2966.1089,38.81841085309548
2967.1905,42.831585245630464
2968.2714,37.495940854966
2969.3516,40.26143371614236
2970.4312,41.27801948924042
2971.5102,37.99565343172676
2972.5885,38.714290388287736
2973.6662,39.23388482365328
2974.7432,37.85439081541039
2975.8196,39.12576204880728
2976.8954,42.7479518305483
2977.9705,39.57091307608019
2979.045,37.69459827337019
2980.1188,37.61895951467643
2981.192,40.993948515311125
2982.2645,41.31951661439683
2983.3364,37.74561474111672
2984.4077,31.82219341145875
2985.4783,36.09920276395481
2986.5483,32.326592618914866
2987.6177,30.40431243565689
2988.6864,30.282311350232952
2989.7545,24.06053819465204
2990.8219,25.888941498100017
2991.8887,25.167469549157452
2992.9548,19.746070377515487
2994.0204,19.224691761190577
2995.0852,19.603281280738543
2996.1495,18.181786324468277
2997.2131,15.310154084655892
2998.276,13.038331571759613
2999.3383,8.566265643136191
3000.4,8.293903025759064
3001.4611,8.821190360939049
3002.5215,7.998074207047942
3003.5812,5.574501034245685
3004.6404,7.2504172327114915
3005.6989,4.025769136879582
3006.7567,2.500503008679999
3007.8139,2.0245650697851403
3008.8705,4.347901516862414
3009.9264,3.4704585263335446
3010.9818,2.592182231141301
3012.0364,-2.136981270476106
3013.0905,0.38291409379773
3014.1439,2.451835744722061
3015.1966,2.719751099226997
3016.2487,0.8866275497243095
3017.3002,2.102432461428265
3018.3511,-0.08286680931313839
3019.4013,-1.7693029271762128
3020.4509,2.4430922710021292
3021.4998,1.7543046237211684
3022.5481,-0.7356800549507057
3023.5958,-0.6768759684881402
3024.6428,1.280710029077909
3025.6892,1.4370778457074351
3026.735,0.2922273765532992
3027.7802,0.6961585023976511
3028.8247,1.4988711011003488
3029.8685,3.5503650435597223
3030.9118,-0.7493598143145874
3031.9544,2.099696347883409
3032.9963,3.247540836664257
3034.0376,4.694180937541546
3035.0783,1.539623903553455
3036.1184,6.083876940796401
3037.1578,3.426947239970559
3038.1966,3.51884193093737
3039.2348,5.2595681092888285
3040.2723,0.849132835428513
3041.3092,4.137543117164327
3042.3455,5.774805953812866
3043.3811,2.1609283033153446
3044.4161,7.195917065864926
3045.4505,6.829779120045508
3046.4842,3.362521272481814
3047.5173,4.444150261500827
3048.5498,3.8246727918043426
3049.5816,7.604095523652713
3050.6128,6.382425079059587
3051.6434,5.45966800399767
3052.6734,6.135830780615429
3053.7027,5.310919836464677
3054.7314,6.984941537738891
3055.7594,6.9579021975224045
3056.7868,8.779808059050147
3057.8136,6.950665295978055
3058.8398,7.67047999416398
3059.8653,10.889258169959152
3060.8902,10.057005763009986
3061.9145,11.07372860407035
3062.9381,12.089432423324041
3063.9612,8.35412284021763
3064.9835,10.967805353303334
3066.0053,6.980485377592178
3067.0264,7.842168218417143
3068.0469,13.402859111306373
3069.0668,10.212563213366337
3070.086,10.971285547674931
3071.1046,8.129031035184443
3072.1226,8.585804487134311
3073.1399,10.64161063347369
3074.1567,10.746454118293673
3075.1727,10.350339479269277
3076.1882,11.603271146610986
3077.203,5.75525344702589
3078.2173,10.856290591188401
3079.2308,8.106386732220404
3080.2438,6.355545914680874
3081.2561,7.653772102064934
3082.2678,10.151069194312242
3083.2789,10.497441014824776
3084.2893,5.292891285493788
3085.2991,4.487423623236168
3086.3083,5.631041592039903
3087.3169,4.323748711018762
3088.3248,9.115548442976113
3089.3321,6.056444207477849
3090.3388,2.5464393329343835
3091.3449,6.635537087191707
3092.3503,6.273740712631419
3093.3551,1.9610533852797758
3094.3593,5.547478218425642
3095.3629,7.583018305747366
3096.3658,6.117676685448512
3097.3681,7.50145631990247
3098.3698,6.5343601103058795
3099.3708,0.366390882840836
3100.3713,9.047551398345828
3101.3711,10.077844413995443
3102.3702,6.757272596488768
3103.3688,2.9358385117464394
3104.3667,7.313544658116388
3105.364,5.840393504588157
3106.3607,5.516387447015866
3107.3568,5.041528822849717
3108.3522,7.165819914376037
3109.347,3.6892629534658887
3110.3412,5.311860100332126
3111.3348,6.18361347829498
3112.3277,0.7045251575560911
3113.32,7.624597146480955
3114.3117,4.993831446389851
3115.3028,2.0622299823570884
3116.2932,3.0797946295186946
3117.2831,3.7965272423883825
3118.2723,8.512429644681948
3119.2608,6.377503622149931
3120.2488,5.441750875418563
3121.2361,6.055173041339067
3122.2229,1.8177717023451407
3123.209,4.029548380318765
3124.1944,5.740504578964195
3125.1793,1.6506417616902311
3126.1635,4.759961334500627
3127.1471,3.7684646868927167
3128.1301,3.2761531607642453
3129.1125,3.6830280603283096
3130.0942,4.239090657036485
3131.0753,5.794342185510079
3132.0558,3.998783837979488
3133.0357,5.852416748731704
3134.015,4.655242012065871
3134.9936,7.057260663756983
3135.9716,5.358473693027616
3136.949,1.0588820185277505
3137.9258,3.3084865053226356
3138.902,5.607288007888696
3139.8775,5.355287347617519
3140.8524,7.152485289827808
3141.8267,6.7488825462854045
3142.8004,5.344479757231301
3143.7735,7.939277495417661
3144.7459,-1.0167237198481338
3145.7178,2.0264765513485337
3146.689,7.768888905992231
3147.6596,4.910523920802783
3148.6295,6.801392094811126
3149.5989,4.64150387794297
3150.5676,4.780869652110114
3151.5357,5.469499752809323
3152.5032,5.257404467728671
3153.4701,7.244594029861235
3154.4364,6.381078619626056
3155.402,4.266868344996235
3156.367,7.35197325013408
3157.3315,6.686403336533228
3158.2952,7.770168532167583
3159.2584,4.253278698147032
3160.221,2.8357436178797837
3161.1829,6.5175730322412715
3162.1442,7.448776653749498
3163.105,7.32936412974674
3164.065,6.559345033087517
3165.0245,2.8387288633327046
3165.9834,8.467525054449736
3166.9416,5.745743012018762
3167.8993,5.223392056944681
3168.8563,7.400481452674963
3169.8127,4.077020410423156
3170.7684,6.653018067398001
3171.7236,7.078483520038045
3172.6782,7.103425798251642
3173.6321,5.827853861162328
3174.5854,4.451776596859377
3175.5381,5.975202835153528
3176.4902,5.248141361337767
3177.4417,6.420600900953051
3178.3926,7.3425901270589335
3179.3428,7.364117648508957
3180.2924,9.835192000730768
3181.2415,6.855821645510831
3182.1899,4.426014946283697
3183.1377,7.645780197925701
3184.0848,4.815125651053033
3185.0314,8.934059479824088
3185.9773,6.502589810246003
3186.9227,9.87072467898533
3187.8674,8.08847205768273
3188.8115,9.85583981927161
3189.755,7.922835755800676
3190.6979,7.739467560760227
3191.6402,6.405742848412204
3192.5818,9.721669155623882
3193.5229,4.937253955205109
3194.4633,4.702504622749042
3195.4031,6.6674284844763
3196.3423,7.082032819582464
3197.2809,7.296324840588835
3198.2189,5.660311689196378
3199.1563,7.824000434142817
3200.0931,10.387398087562762
3201.0292,8.750511583350818
3201.9648,6.613347751527614
3202.8997,6.4759133346086655
3203.834,8.538215008976014
3204.7677,8.70025938625258
3205.7008,5.812052992679117
3206.6333,6.173602267493803
3207.5652,6.284913591814284
3208.4964,8.14599328502219
3209.4271,7.406847603650005
3210.3571,6.317482722770295
3211.2865,11.277904743387147
3212.2154,7.088119703329827
3213.1436,4.9981335276485535
3214.0712,8.907952070512357
3214.9982,6.817581136108927
3215.9246,6.177026439546442
3216.8503,8.286293627757269
3217.7755,5.29538828590351
3218.7001,7.854315916284333
3219.624,8.563081968245019
3220.5473,9.121691812587695
3221.4701,8.68015073448367
3222.3922,10.788463927887324
3223.3137,10.546636499951543
3224.2346,8.404673449944573
3225.1549,8.8125796716683
3226.0746,9.570359974877876
3226.9937,6.428019081202669
3227.9121,8.48556161656845
3228.83,5.942992142620799
3229.7473,8.000315136149679
3230.6639,7.057535014515122
3231.5799,8.66465611507402
3232.4954,9.621682704607913
3233.4102,10.378618963251778
3234.3244,8.08546897492376
3235.238,8.242236719755828
3236.151,9.198926097025254
3237.0634,11.305540923586952
3237.9752,6.1120849243065765
3238.8864,9.71856171099437
3239.797,10.524974834339721
3240.7069,10.731327747846402
3241.6163,11.737623799768437
3242.5251,9.84386623104658
3243.4332,8.950058165245355
3244.3408,8.006202627490625
3245.2477,10.212302553407678
3246.154,9.368360798559767
3247.0598,10.774380116387134
3247.9649,5.830363166646407
3248.8694,9.986312501350412
3249.7733,5.942230614208346
3250.6766,11.498119899066284
3251.5793,8.503982690348
3252.4814,8.35982120749606
3253.3829,9.615637584913207
3254.2838,12.171433873403972
3255.1841,9.427212027616479
3256.0838,9.78297388048451
3256.9829,10.788721170669733
3257.8814,9.744455539004072
3258.7792,11.000178518432245
3259.6765,9.505891544454409
3260.5731,9.411595942568933
3261.4692,9.867292943215283
3262.3647,8.572983682716949
3263.2595,10.6786691987245
3264.1538,10.084350443158668
3265.0474,7.140028261153492
3265.9404,8.6957033969995
3266.8329,9.70137652358694
3267.7247,11.707048226849029
3268.616,8.46271899570521
3269.5066,10.318389202004449
3270.3966,9.274059132968517
3271.286,9.129728972635295
