RamanShift,CorrectedData
30.1047,2657.7209636276793
32.3739,2482.640252320045
34.6426,2311.3095144352
36.9109,2135.828698569534
39.1787,1963.1977302063383
41.4461,1789.8665134706168
43.7131,1616.734932855397
45.9796,1443.7528549550395
48.2456,1270.8201301965544
50.5112,1101.2365945694214
52.7764,925.05207135492
55.0411,753.6163728219622
57.3054,586.1793019889387
59.5692,416.0406543380769
61.8326,247.40021948981052
64.0955,77.3577829041669
66.3579,-83.78687243282891
68.6199,-247.4339643087296
70.8815,-395.48287348023246
73.1426,-502.0305088387312
75.4032,-501.1698284017144
77.6634,-222.73877490188818
79.9231,680.2797156146275
82.1824,2876.3049322620736
84.4412,7046.656157351892
86.6995,13000.20264443248
88.9574,18957.51357658567
91.2148,23347.55800689127
93.4717,25636.55479885396
95.7282,26414.722582502818
97.9842,26681.029731501403
100.2398,26491.69435536603
102.4949,26261.83429680273
104.7495,25934.717133600578
107.0036,25519.110180930325
109.2573,25252.83049461554
111.5105,24950.194875288704
113.7632,24610.619871053976
116.0154,24367.97178051359
118.2672,24233.116656163573
120.5185,24028.420306820233
122.7693,23862.748298968727
125.0197,23690.51595880999
127.2696,23467.988373917484
129.519,23376.830394959514
131.7679,23175.256637924507
134.0163,23020.631485032573
136.2642,22780.26908675128
138.5117,22550.33336334187
140.7587,22277.388007262896
143.0052,22122.396485469595
145.2512,21789.5220421433
147.4967,21570.8777002414
149.7417,21347.526264826058
151.9863,21096.68032525066
154.2304,20955.452257393346
156.4739,20601.70422616543
158.717,20467.29818692373
160.9596,20259.295889008008
163.2017,19992.608877085047
165.4433,19781.448493228672
167.6844,19491.825879586628
169.925,19292.55198049218
172.1651,18941.387545360325
174.4047,18792.193130680545
176.6439,18527.829103528456
178.8825,18282.055643057734
181.1206,18134.98274314377
183.3582,17954.820214841395
185.5954,17743.72768785562
187.832,17593.41461234325
190.0681,17445.79026102383
192.3037,17364.91373068276
194.5388,17155.293943647546
196.7734,17053.13964859657
199.0075,16906.25942265526
201.2411,16853.61167241767
203.4742,16726.354635415264
205.7068,16704.04638064339
207.9389,16513.69480983386
210.1704,16458.607657678025
212.4015,16277.092493730292
214.632,16197.756722959006
216.862,16076.557587561583
219.0915,15931.002167757882
221.3205,15829.947383002193
223.549,15736.649993438776
225.777,15627.616600912428
228.0044,15467.503649901444
230.2314,15426.86742860797
232.4578,15231.864070559113
234.6837,15106.299555013311
236.909,15041.629708910375
239.1339,14894.760208127125
241.3582,14778.696578124098
243.582,14540.944195414235
245.8053,14439.00828872351
248.0281,14259.24394136845
250.2503,14126.356092275508
252.472,14015.099537778697
254.6932,13888.078932948481
256.9139,13733.59879270434
259.134,13597.113493084964
261.3536,13464.677272793051
263.5727,13445.444234560186
265.7912,13283.918346471182
268.0092,13241.153442156421
270.2267,13144.7032224071
272.4436,13059.471255602886
274.6601,12917.310978676427
276.8759,12757.425697965651
279.0913,12653.368590635393
281.3061,12494.242706276229
283.5204,12427.950967945066
285.7341,12285.996173756392
287.9473,12163.730997545175
290.16,12074.007990286444
292.3721,11881.879581317922
294.5837,11821.69807923726
296.7947,11666.365673823319
299.0052,11562.484436638006
301.2152,11433.106322579573
303.4246,11321.883170921446
305.6334,11117.016706605988
307.8418,10920.108541356745
310.0495,10754.410175727131
312.2568,10504.473001069473
314.4635,10255.898301192006
316.6696,10041.937254858243
318.8752,9764.49093827272
321.0802,9586.410327220608
323.2847,9545.096299842175
325.4887,9409.099638413605
327.692,9217.671029760128
329.8949,9239.261066615978
332.0972,9058.720249538685
334.2989,8944.598986693178
336.5001,8710.147595657185
338.7007,8622.966304562455
340.9008,8493.805254439249
343.1003,8333.7645000882
345.2992,8227.844011371893
347.4976,8097.593674815274
349.6955,7921.013294664859
351.8927,7875.002594191254
354.0895,7668.861217454916
356.2856,7600.238729766312
358.4812,7477.934619747295
360.6763,7408.848300017344
362.8707,7245.679108416614
365.0646,7245.726308696769
367.258,7109.689092152697
369.4508,6927.566577622038
371.643,6886.90781284554
373.8346,6757.3117762883085
376.0257,6644.077377546357
378.2162,6532.703458642594
380.4062,6450.638795159164
382.5956,6324.832097351191
384.7844,6183.0320109674285
386.9726,6005.0871185083015
389.1603,5885.145940643946
391.3474,5752.356937993631
393.5339,5713.968512325195
395.7199,5571.029007882906
397.9052,5472.236711771366
400.09,5388.939855384877
402.2743,5319.486615395388
404.4579,5225.025114585467
406.641,5258.353422542827
408.8235,5210.919556604938
411.0054,5198.371481525755
413.1868,5223.457109950068
415.3675,5191.474302538965
417.5477,5097.37086771895
419.7273,4998.094562001814
421.9064,4804.943090925659
424.0848,4665.814110047635
426.2627,4481.055226875473
428.4399,4407.364002258757
430.6166,4248.0879522365285
432.7928,4075.574548774206
434.9683,3882.8712213563194
437.1432,3704.1253587116917
439.3176,3581.234310740423
441.4914,3409.89539030139
443.6645,3358.2558744411363
445.8371,3191.463006107264
448.0091,3084.513994664827
450.1806,2945.9560175642764
452.3514,2861.486221410938
454.5216,2820.9517233505867
456.6913,2648.249611914147
458.8603,2624.0269474230336
461.0288,2584.8307637161743
463.1967,2521.8580683922264
465.3639,2495.6558432015554
467.5306,2391.4210446759425
469.6967,2311.4506043906367
471.8622,2186.641430006661
474.0271,2167.890406070561
476.1914,2080.5443952624664
478.3551,2050.30023858363
480.5182,2073.6047562298663
482.6807,2015.7047478940003
484.8426,2039.84699253281
487.0039,2111.328248946058
489.1647,2150.6452555350334
491.3248,2219.544729587753
493.4843,2134.52336688578
495.6432,2128.227841015254
497.8015,1970.8548042171024
499.9592,1968.250887449969
502.1163,1875.9127019639673
504.2728,1701.0368393267054
506.4287,1693.5698723466667
508.5839,1509.508356821978
510.7386,1463.2488316150557
512.8927,1411.8878204932516
515.0461,1455.221832591411
517.199,1376.547362925543
519.3512,1358.7108919594648
521.5029,1407.258886391519
523.6539,1387.0377993329566
525.8043,1402.3440698224513
527.9541,1376.5241230283136
530.1033,1267.8243700954154
532.2519,1153.4912084034186
534.3999,1095.5710226537412
536.5472,1120.160186012905
538.694,1160.2050606917255
540.8401,1188.2019976994343
542.9856,1243.6973364432379
545.1305,1224.937404448323
547.2748,1212.7185168029064
549.4185,1164.9869763458264
551.5615,1073.6390737887523
553.704,1051.8210881934756
555.8458,997.2792878854198
557.987,1036.2599306717966
560.1276,1063.559264387044
562.2675,1143.7735265029914
564.4069,1209.4489438559067
566.5456,1285.4817318443202
568.6837,1304.818093772279
570.8212,1170.0542200890377
572.958,961.1362881956775
575.0942,831.510463792747
577.2299,678.8729029694587
579.3648,576.1197534999337
581.4992,470.2471563695726
583.6329,430.45124680258596
585.766,438.82815532073073
587.8985,461.27400814126304
590.0304,403.78492709315833
592.1616,429.60702939267503
594.2922,365.1364282182403
596.4222,275.4692324522184
598.5515,224.45154732561423
600.6802,156.42672613180184
602.8083,15.6358798931833
604.9358,35.06855692914178
607.0626,-0.2858506433767616
609.1888,19.111698957683984
611.3144,30.650250370028516
613.4393,37.51865730548525
615.5636,89.35546727985638
617.6873,99.54885299757007
619.8103,101.63609450190779
621.9327,24.453477343093255
624.0544,-9.863728273230663
626.1756,-43.03049643168197
628.2961,-72.26170267825364
630.4159,-129.17179268428663
632.5351,-58.22449022672663
634.6537,-100.88222865631906
636.7716,-51.50685966117453
638.8889,-59.30922711596213
641.0056,15.550339658166195
643.1216,-45.23789616080103
645.237,32.216328449667344
647.3518,-18.946271561366302
649.4659,-0.03498156697241939
651.5793,-43.8590867507628
653.6922,-47.17787229596797
655.8043,-67.15062294724339
657.9159,-53.48662297743431
660.0268,-84.34515598787402
662.137,-104.03550504504892
664.2466,-73.71695237198583
666.3556,-67.79877915136603
668.4639,-129.64026582869337
670.5716,-84.20069217149285
672.6786,-62.68933665086661
674.785,-156.7654768959037
676.8907,-163.23838990878357
678.9958,-145.51578660457744
681.1002,-188.7537471468495
683.204,-186.60835024399057
685.3072,-179.5337889544462
687.4097,-165.43239211925538
689.5115,-131.40648678410435
691.6127,-158.80839834032304
693.7132,-152.99045086518163
695.8131,-118.20496684785394
697.9123,-55.65426724759891
700.0109,-98.79067184162705
702.1089,-51.166499850598484
704.2061,-33.884069507254026
706.3028,-24.59569853265566
708.3987,13.796295690983243
710.4941,19.639596027427615
712.5887,56.631885202488775
714.6827,73.12084574557957
716.7761,118.05415961982726
718.8688,136.0795080571479
720.9608,140.0945711089298
723.0522,218.6470274657804
725.1429,226.0345544173797
727.233,271.7548270669431
729.3224,313.90551825735747
731.4112,272.93429811396345
733.4993,282.7388336230797
735.5867,185.2167890416822
737.6735,149.66582579937676
739.7596,104.3836034736014
741.845,88.11778014513038
743.9298,50.06601285091892
746.014,73.77595774675501
748.0974,149.59527048777818
750.1802,84.5716059913866
752.2624,20.002617679008836
754.3439,0.985958126380865
756.4247,22.069279709208786
758.5048,11.100234793371783
760.5843,79.02647552404596
762.6631,111.29565393543453
764.7413,185.755421271464
766.8188,376.05342766313333
768.8956,432.7873213838866
770.9718,604.2047469466488
773.0473,589.153344536473
775.1221,546.1307482963966
777.1962,460.4845864779236
779.2697,465.4624818712582
781.3426,446.2120526617946
783.4147,477.93091238027773
785.4862,580.9166700953756
787.557,507.5669300964437
789.6271,432.57929086367585
791.6966,277.60134580160593
793.7654,146.03068398897813
795.8335,58.36489172853544
797.901,-17.44844613726309
799.9678,-58.961745349624834
802.0339,-63.72742147524332
804.0993,-51.497889491194655
806.1641,-123.67556373726256
808.2282,-130.46285803826322
810.2916,-104.26218498222806
812.3544,-87.3759558525635
814.4164,-131.70658089001518
816.4778,-57.55646946157867
818.5385,-61.028029617147695
820.5986,17.876331168936304
822.658,57.10420603262901
824.7166,108.85318793110855
826.7747,277.9208692505308
828.832,383.9548412885306
830.8886,412.5026925635684
832.9446,486.01200775455436
834.9999,497.5803674153867
837.0545,457.65534723985184
839.1085,419.13451794595676
841.1618,358.9654456751523
843.2143,314.8956923775768
845.2662,210.72281641371592
847.3175,238.394372995117
849.368,191.40791522610016
851.4179,190.26099382703978
853.467,141.2011576042387
855.5155,159.57595346141534
857.5633,138.73292689027585
859.6105,80.36962178678732
861.6569,120.48358065957655
863.7027,113.52234521358332
865.7478,151.13345594892962
867.7922,138.76445223050177
869.8359,142.01287191186566
871.8789,124.82625145894417
873.9212,147.75212591754098
875.9629,160.4380290851841
878.0039,199.13149328188956
880.0441,268.63004922329856
882.0837,324.7312256337427
884.1226,321.68254855125633
886.1609,386.48154076656283
888.1984,438.8757218535866
890.2352,502.8126075214386
892.2714,526.1897090904931
894.3069,555.2545328529995
896.3416,434.30457983929955
898.3757,474.1373455272187
900.4091,421.3003210515417
902.4418,451.84099280569717
904.4739,457.55684297009793
906.5052,467.59534920675287
908.5358,468.05398460209835
910.5658,468.0302175666293
912.595,433.7715118303131
914.6236,372.52532644280654
916.6515,412.48911611607036
918.6786,314.310331836823
920.7051,370.93642046691093
922.7309,412.01482572509485
924.756,364.1929876207723
926.7804,405.7183420432084
928.8041,324.038321239721
930.8272,396.4503534004689
932.8495,374.7518634752414
934.8711,370.8402724493171
936.892,342.01299756047774
938.9123,369.8174523381149
940.9318,403.65104689149666
942.9506,372.0611876317271
944.9688,365.34527693341624
946.9862,348.8507134505726
949.003,281.92489218376795
951.019,241.31520464507412
953.0344,248.06903952732318
955.0491,247.2837831102097
957.063,303.5568191927505
959.0763,349.285529101111
961.0888,330.0172911259051
963.1007,364.9994800648965
965.1119,384.67946741567357
967.1223,420.30462102583806
969.1321,399.2723048962016
971.1412,398.22987882454254
973.1495,381.4246986159251
975.1572,423.0541160931225
977.1641,426.71547926468884
979.1704,414.4061319086468
981.1759,391.7734135358769
983.1808,445.81465951320934
985.1849,457.42720128975634
987.1884,415.5083658564763
989.1911,455.505475630056
991.1932,472.0658488721074
993.1945,459.3367992891981
995.1951,410.86563586724515
997.1951,434.1496629987996
999.1943,404.68618096776845
1001.1928,367.37248571658347
1003.1906,377.1058691407925
1005.1877,419.33361946222067
1007.1841,443.3530211316556
1009.1798,458.5113544065698
1011.1748,389.30589511089966
1013.1691,371.5339144834634
1015.1627,345.89267987003404
1017.1556,223.62945490105267
1019.1477,195.09149974804495
1021.1392,133.17607234623756
1023.1299,97.18042867995064
1025.12,79.10182340174651
1027.1093,67.48751019239535
1029.0979,94.58474194164592
1031.0859,114.74077086439138
1033.0731,149.30284822968133
1035.0596,133.76822415915376
1037.0454,68.2841472814398
1039.0304,61.747864887485775
1041.0148,4.756623585402849
1042.9985,-42.04233063416905
1044.9814,-43.701751828159104
1046.9636,-45.37397405061529
1048.9452,-57.51089477509231
1050.926,-58.81395818915735
1052.9061,-60.134033946535055
1054.8855,-21.67140414952155
1056.8642,-7.175750161419273
1058.8421,14.453463151794494
1060.8194,-3.883229004099121
1062.7959,16.96470843215866
1064.7717,19.447810560657672
1066.7469,29.866612311847348
1068.7213,79.12164842170932
1070.695,114.71345332756209
1072.6679,85.69256067551032
1074.6402,101.95950296452793
1076.6117,175.41481183667565
1078.5826,143.45901791441975
1080.5527,102.44265006608657
1082.5221,51.01623572542121
1084.4908,67.53030130175466
1086.4587,30.735372694245598
1088.426,54.88197512676197
1090.3925,22.77063351581819
1092.3584,82.95187222911045
1094.3235,27.7262154066284
1096.2879,35.49418635886286
1098.2515,74.15630811904884
1100.2145,167.36310336548195
1102.1767,190.16509403491364
1104.1382,203.26280039047379
1106.099,264.80674079365417
1108.0591,310.5974315733165
1110.0185,398.4853864102788
1111.9771,412.32111587938925
1113.9351,413.9551265706432
1115.8923,399.93792095084063
1117.8488,352.5199973472336
1119.8045,301.60185008770713
1121.7596,279.48396997494456
1123.7139,211.06684479562136
1125.6675,170.70095954157296
1127.6204,210.38679709397547
1129.5726,192.02483862699955
1131.524,211.7655632109454
1133.4748,209.50944799587523
1135.4248,132.40696801420017
1137.3741,92.00859620324627
1139.3226,87.41480417627645
1141.2705,71.22606262646696
1143.2176,43.292841372860494
1145.164,58.365609522226805
1147.1097,42.79483574843289
1149.0546,32.4809881416877
1150.9989,11.024534364256397
1152.9424,18.67594175360682
1154.8852,-20.514432487903832
1156.8272,5.003768655329623
1158.7686,-3.6188928619103535
1160.7092,-21.88190507249601
1162.6491,-35.48471985656397
1164.5883,26.123429505973036
1166.5267,26.393664227554837
1168.4644,99.92710525939401
1170.4014,167.62487328878524
1172.3377,210.68808800373336
1174.2732,296.21786741601863
1176.2081,402.06532743053504
1178.1421,513.1815809900017
1180.0755,638.6177370164824
1182.0082,733.3748993002409
1183.9401,798.20416524537
1185.8713,755.0566249222265
1187.8017,691.2833604191255
1189.7315,579.2354462738185
1191.6605,444.5139501112317
1193.5888,360.5199337639315
1195.5163,328.0044546193658
1197.4432,269.26856645979024
1199.3693,229.06331978741946
1201.2947,212.03976241178134
1203.2193,188.89893985178787
1205.1432,189.54189550595038
1207.0664,190.31967088380588
1208.9889,143.38330559947462
1210.9106,146.28383736388423
1212.8316,129.22230245413266
1214.7519,146.44973568449677
1216.6715,138.61717057703208
1218.5903,186.07563918930828
1220.5084,211.77617219272724
1222.4257,238.56979839794622
1224.3424,214.60754449786327
1226.2583,275.4404347996824
1228.1735,309.81949146453553
1230.0879,335.74573389915713
1232.0016,366.470178412088
1233.9146,403.24383795441645
1235.8269,437.96772181253436
1237.7384,453.64283524039274
1239.6492,396.17017911226685
1241.5592,422.850749766003
1243.4686,433.3855395777573
1245.3772,489.9255366951693
1247.285,539.6717249320427
1249.1922,592.8250832029207
1251.0986,688.1865850256327
1253.0042,706.657197989769
1254.9092,767.6378828030502
1256.8134,805.9795931066274
1258.7169,917.8832748652803
1260.6196,928.5498659839923
1262.5216,962.7802951889207
1264.4229,1000.9254819207308
1266.3234,1066.3363359922969
1268.2232,1071.8637572072312
1270.1223,1103.6586347057946
1272.0207,1083.8718469096148
1273.9183,1082.904261203741
1275.8151,1080.406734134509
1277.7113,1057.6801114192149
1279.6067,1082.375227971097
1281.5014,1160.2429081265946
1283.3953,1291.9839653984109
1285.2885,1503.6492016968205
1287.181,1663.589406012261
1289.0727,1881.9053522986815
1290.9637,1988.3477978741448
1292.854,2082.667481237666
1294.7435,2096.8151210047927
1296.6323,2065.091414964396
1298.5204,1993.6470399372029
1300.4077,1928.9826520930328
1302.2943,1839.7988876652307
1304.1802,1754.4463635973207
1306.0653,1606.7256784348428
1307.9497,1490.5874131788696
1309.8333,1372.5321327632137
1311.7162,1274.310387215819
1313.5984,1222.0727128393191
1315.4798,1169.4696331932446
1317.3605,1170.3516596164027
1319.2405,1147.7192917529119
1321.1197,1116.9230175433804
1322.9982,1074.563313451221
1324.876,997.1406447706195
1326.753,905.1554660501351
1328.6293,839.3582218669253
1330.5048,805.0993477465981
1332.3796,753.5292708211764
1334.2537,688.8984101717033
1336.127,650.8571773439235
1337.9996,626.1559769946089
1339.8714,624.4952072719516
1341.7426,570.1252600625885
1343.6129,619.8465210082122
1345.4826,606.4093700492631
1347.3515,618.5641809277276
1349.2196,613.5613213214965
1351.087,635.8011527228246
1352.9537,637.6840304883681
1354.8197,678.1103036167733
1356.6849,733.5803147298502
1358.5493,771.144399668301
1360.4131,813.4528869370333
1362.276,844.3560973295116
1364.1383,862.2043435046871
1365.9998,880.2479296779475
1367.8606,844.0371514426497
1369.7206,793.9722955896686
1371.5799,738.0036404695056
1373.4384,698.3314564929442
1375.2962,663.2560066907354
1377.1533,579.6775471103156
1379.0096,473.7963271665649
1380.8652,400.0625904775825
1382.7201,315.9765759235179
1384.5742,260.13851838389473
1386.4275,240.14864957847658
1388.2802,196.70719862564692
1390.132,142.66439224231544
1391.9832,146.87045517831757
1393.8336,96.87561075684516
1395.6832,120.4300808323942
1397.5322,76.48408629070673
1399.3803,81.3378468132305
1401.2278,59.591581316576594
1403.0745,43.995507903986436
1404.9204,13.149844082781783
1406.7656,13.004806920333976
1408.6101,-1.4393866474856623
1410.4538,26.667480185155
1412.2968,33.62563860355567
1414.139,49.58531952634621
1415.9805,57.246753535902826
1417.8213,52.06017071875249
1419.6613,78.32580058896656
1421.5006,135.29387214001054
1423.3391,170.51461358210327
1425.1769,232.9882517725273
1427.0139,353.615011863425
1428.8502,491.5951166770601
1430.6858,587.6287854995571
1432.5206,682.6162327010934
1434.3547,746.7076667755582
1436.188,759.4532893906808
1438.0206,764.2032947471243
1439.8524,713.907869451019
1441.6835,700.8171924664721
1443.5139,691.9814356185079
1445.3435,680.8007637239889
1447.1724,670.9753346799671
1449.0005,658.3052995754915
1450.8279,648.2908027898611
1452.6545,670.6819821193276
1454.4804,707.0289688772336
1456.3056,710.5318876701003
1458.13,694.2408560341637
1459.9536,680.6559844003459
1461.7766,632.7273762571722
1463.5987,556.8551282866047
1465.4202,502.9893308433366
1467.2409,445.33006871352154
1469.0608,406.3774216534184
1470.88,342.48146496599475
1472.6984,304.14226989044255
1474.5161,208.40990424114898
1476.3331,194.53443279107614
1478.1493,189.16591822908686
1479.9648,190.8544212987099
1481.7795,168.55000085180654
1483.5935,165.65271383169875
1485.4067,177.31261549621013
1487.2192,188.8297594466385
1489.031,194.25419751116442
1490.842,172.2859796296725
1492.6522,192.57515379950473
1494.4618,183.7217662951516
1496.2705,177.52586146535305
1498.0785,188.78748182163872
1499.8858,170.95666810027524
1501.6924,202.58345914966503
1503.4981,187.4178921086468
1505.3032,207.41000209022695
1507.1075,157.40982233323484
1508.911,157.76738400239992
1510.7138,166.3327166883546
1512.5159,163.15584840405882
1514.3172,141.33680549915152
1516.1178,136.72561269172093
1517.9176,134.12229328648482
1519.7166,130.37686922090597
1521.515,135.6893610912257
1523.3126,146.3097881899257
1525.1094,145.8881684525868
1526.9055,106.5745183516974
1528.7008,107.81885290086575
1530.4954,93.32118604796051
1532.2893,111.88153066266568
1534.0824,81.69989868144876
1535.8747,100.07630092197633
1537.6663,84.61074738491607
1539.4572,71.65324707017407
1541.2473,82.85380813154734
1543.0367,94.81243800630455
1544.8253,96.27914330318163
1546.6132,88.55392968279011
1548.4003,94.03680184296263
1550.1867,116.77776359599102
1551.9723,144.0268178138076
1553.7572,169.73396620056974
1555.5414,193.49920902016038
1557.3247,218.2225448391291
1559.1074,260.5539702890328
1560.8893,310.443479819206
1562.6705,335.5910652734483
1564.4509,399.9467153911264
1566.2305,409.9104155556979
1568.0094,447.88214715115464
1569.7876,451.5118874623922
1571.565,454.8496092954856
1573.3417,476.4952809413926
1575.1176,470.7988661425843
1576.8928,483.2603238765805
1578.6672,476.87960841291897
1580.4409,514.556669188536
1582.2138,510.9914508715765
1583.986,554.9838929846246
1585.7575,599.5839299403515
1587.5282,618.2414906015956
1589.2981,677.0564978353532
1591.0673,661.1288683262101
1592.8358,709.7585119881915
1594.6035,724.8453321240368
1596.3704,733.1392249388964
1598.1366,741.1900793894747
1599.9021,751.0477771010828
1601.6668,743.212192287132
1603.4308,760.3831916505615
1605.194,775.1106344621903
1606.9564,830.3443723890123
1608.7182,870.684249346913
1610.4791,953.2301009483399
1612.2394,1043.8817540989012
1613.9988,1116.489026171911
1615.7576,1247.651724101861
1617.5156,1313.51964365836
1619.2728,1363.8925681345
1621.0293,1363.470267688178
1622.785,1311.8024988383722
1624.54,1221.0890044693579
1626.2942,1117.4795143473839
1628.0477,989.2237460278102
1629.8005,889.8214058912026
1631.5525,797.3721904258891
1633.3037,697.7757872219845
1635.0542,630.9818758958836
1636.804,587.6901290862315
1638.553,536.4502131218551
1640.3013,521.8117884546791
1642.0488,484.0745101721295
1643.7955,486.1880281435133
1645.5416,473.85198739739553
1647.2868,494.2660281004619
1649.0313,487.179785680888
1650.7751,518.8428906241843
1652.5181,533.954968544067
1654.2604,545.3656398658277
1656.0019,580.9745196752046
1657.7427,611.5812176042864
1659.4828,696.8853374754217
1661.222,741.0364769951466
1662.9606,773.6842269011477
1664.6984,760.3781705207457
1666.4354,718.0178834444205
1668.1717,629.352933658869
1669.9072,520.1328819706105
1671.642,430.85728289263807
1673.3761,366.97568573661647
1675.1094,282.23763550563945
1676.8419,256.39267353304604
1678.5737,197.39033832980476
1680.3048,175.83016584295365
1682.0351,151.6616900456338
1683.7646,113.73444315267989
1685.4934,118.54795586231467
1687.2215,92.15175773541978
1688.9488,86.99537714739836
1690.6754,68.82834155213732
1692.4012,77.50017753357588
1694.1263,66.91041098736423
1695.8506,62.958567034161206
1697.5742,69.99417012552112
1699.297,63.71674408341187
1701.0191,45.82581202986785
1702.7404,29.970896449753127
1704.461,7.1515193696704955
1706.1808,2.317202516517682
1707.8999,10.31746754568303
1709.6182,2.701836089378048
1711.3358,14.769829676647532
1713.0527,16.220969809519374
1714.7688,-6.245222157677745
1716.4841,-5.379225032821523
1718.1987,14.818544765977094
1719.9126,-0.602275440937774
1721.6257,7.507951518596201
1723.338,3.298868833468987
1725.0496,-25.329880382504598
1726.7605,-6.3286530485002
1728.4706,-9.697553038191472
1730.18,-20.78662100200745
1731.8886,-1.2958007118286332
1733.5964,0.9751717188046314
1735.3036,-7.373426878595637
1737.0099,6.308680317724793
1738.7156,13.021843790061212
1740.4204,-1.683586042382558
1742.1246,31.092741109384406
1743.8279,11.50119235337661
1745.5306,20.492134486682517
1747.2325,36.015934191384986
1748.9336,10.572957944646987
1750.634,19.51357186347559
1752.3336,15.938141959149107
1754.0325,14.99703404781576
1755.7307,36.640613786240465
1757.4281,43.56924668121928
1759.1247,54.83329787314551
1760.8206,71.08313206672346
1762.5158,69.9691134183272
1764.2102,45.99160537349917
1765.9039,53.50097067809065
1767.5968,44.89757161803482
1769.289,50.63176994426112
1770.9804,45.453926958722604
1772.6711,65.81440345705596
1774.361,38.41355978036381
1776.0502,89.40175561160822
1777.7386,83.77935024962107
1779.4263,80.19670209921787
1781.1132,91.9041687274239
1782.7994,87.10210689930364
1784.4849,84.64087246087774
1786.1696,88.97082038714598
1787.8535,84.29230480669321
1789.5367,91.75567895840413
1791.2192,101.26129523824011
1792.9009,75.90950512460722
1794.5818,86.5506590832988
1796.2621,81.78510682101796
1797.9415,93.06319717896304
1799.6202,98.08527818048333
1801.2982,97.25169691829888
1802.9755,99.91279950427634
1804.6519,92.16893107776832
1806.3277,97.7704357790044
1808.0027,98.61765682652731
1809.6769,97.71093646117924
1811.3504,114.15061593762448
1813.0231,102.43703553341902
1814.6951,108.37053438461953
1816.3664,109.6014506029087
1818.0369,138.28012121626944
1819.7067,119.50688215667014
1821.3757,122.18206797328139
1823.044,123.10601202020553
1824.7115,129.6790464297269
1826.3783,123.00150210307402
1828.0443,120.82370864468385
1829.7096,127.9959944289817
1831.3741,136.4186866221553
1833.0379,148.6421111104355
1834.701,141.3665924158654
1836.3633,136.04245357407171
1838.0248,137.4200162070174
1839.6856,151.89960057624194
1841.3457,144.4815255690878
1843.005,149.61610855390018
1844.6636,156.45366545421348
1846.3214,167.0945106974027
1847.9785,158.83895714630899
1849.6349,165.4873159928302
1851.2904,173.08989684047447
1852.9453,159.2970076378815
1854.5994,171.10895460279153
1856.2528,176.22604235997642
1857.9054,162.39857382311993
1859.5572,166.22685014364515
1861.2083,172.9111708489918
1862.8587,179.85183380433227
1864.5084,192.74913514573018
1866.1572,194.50336921073267
1867.8054,179.36482840939607
1869.4528,195.93380320674214
1871.0994,197.91058227414396
1872.7453,183.19545232364044
1874.3905,187.58869808816598
1876.0349,186.6906024687023
1877.6786,192.85144649034692
1879.3215,196.77150931129154
1880.9637,203.45106816121552
1882.6051,217.09039830208803
1884.2458,206.3897729613659
1885.8858,198.8494631956064
1887.525,215.1697379974712
1889.1634,196.00086437112577
1890.8011,202.69310716904238
1892.4381,203.14672928368145
1894.0743,216.11199158057843
1895.7098,204.63915289380247
1897.3446,203.92846989630152
1898.9786,183.08019721463415
1900.6118,222.59458743607638
1902.2443,190.97189131710365
1903.8761,195.9123573882489
1905.5071,190.96623227032842
1907.1374,203.43376062503603
1908.7669,199.76518520440413
1910.3957,207.16074672613058
1912.0237,188.5706839102636
1913.651,197.6452334052451
1915.2776,192.08462997381275
1916.9034,194.6891064022525
1918.5285,179.35889355600375
1920.1528,162.0442203536195
1921.7764,193.59531392006375
1923.3992,191.01239975985982
1925.0213,175.89570144157778
1926.6427,173.39544062366576
1928.2633,157.61183720561712
1929.8832,169.84510935296976
1931.5023,160.19547365514882
1933.1207,167.76314500312856
1934.7383,166.44833668592946
1936.3552,160.251260314943
1937.9714,155.12212583707924
1939.5868,159.5111415967349
1941.2015,145.868514387088
1942.8154,140.44444940620588
1944.4286,151.0391503934734
1946.041,117.60281968383015
1947.6528,130.43565810182827
1949.2637,141.48786529599147
1950.8739,133.40963961048874
1952.4834,138.85117797461226
1954.0921,137.31267598356044
1955.7001,135.69432784401943
1957.3074,149.49632638955018
1958.9139,141.66886309677284
1960.5197,127.06212794734438
1962.1247,129.7763095062337
1963.729,121.96159506778667
1965.3325,108.61817062859063
1966.9353,119.8962209656147
1968.5374,105.99592976964823
1970.1387,112.06747953252034
1971.7393,123.96105168609984
1973.3392,109.3768265415838
1974.9383,114.06498317056003
1976.5366,99.5756995508491
1978.1342,111.90915251962178
1979.7311,112.86551791829424
1981.3273,113.94497046919196
1982.9227,110.69768376598404
1984.5173,103.67383026289144
1986.1112,115.47358130715747
1987.7044,106.79710720929188
1989.2968,99.24457712506683
1990.8885,105.81615914228314
1992.4795,94.36202035629867
1994.0697,96.53232680430938
1995.6592,102.17724357989346
1997.2479,92.79693481130425
1998.8359,103.34156360502402
2000.4232,103.26129213956665
2002.0097,103.35628156003168
2003.5955,98.17669197890655
2005.1805,99.7226824751192
2006.7648,96.04441114583142
2008.3484,106.1920350909827
2009.9312,103.81571045006831
2011.5133,100.71559230066532
2013.0946,109.34183468219453
2014.6752,103.89459062691867
2016.2551,105.72401207368557
2017.8342,110.4302499223968
2019.4126,106.66345401571652
2020.9902,100.32377309200547
2022.5672,101.01135482299105
2024.1433,100.72634587716266
2025.7188,94.21889191289847
2027.2935,96.93913758131293
2028.8674,98.88722659133327
2030.4406,85.11330168249742
2032.0131,94.11750460547046
2033.5849,91.19997625978704
2035.1559,104.7608566038075
2036.7261,91.25028468389337
2038.2957,88.6183984987988
2039.8645,86.91533513477498
2041.4325,93.29123079189048
2042.9998,104.5462208010631
2044.5664,87.38043956029742
2046.1323,89.09402042213969
2047.6974,95.13709586533287
2049.2617,97.30979747768242
2050.8254,94.51225589562091
2052.3883,101.0446007824844
2053.9504,96.65696085648915
2055.5118,96.54946382540538
2057.0725,72.77223643043499
2058.6325,102.67540444728684
2060.1917,102.80909292394836
2061.7502,97.82342588165284
2063.3079,97.81852631354423
2064.8649,95.39451623453306
2066.4212,102.4015166813474
2067.9767,85.48964773677108
2069.5315,92.55902845957189
2071.0856,72.60977705362438
2072.6389,79.94201079721188
2074.1915,85.25584624252133
2075.7433,86.5513991423204
2077.2945,90.07878439682099
2078.8448,77.28811604071961
2080.3945,65.97950720792642
2081.9434,77.9530702594725
2083.4916,82.00891689659147
2085.039,80.5471580409926
2086.5857,84.56790379429367
2088.1317,84.32126345264214
2089.677,94.15734546650765
2091.2215,74.62625744314846
2092.7652,77.57810604824954
2094.3083,79.16299720123516
2095.8506,92.33103604574671
2097.3921,97.3823269337995
2098.933,81.36697329409662
2100.4731,90.13507758152127
2102.0124,92.83674143728558
2103.5511,94.42206560125169
2105.089,92.24114988491738
2106.6261,104.89409315555804
2108.1626,99.63099335803872
2109.6983,88.55194738828595
2111.2332,106.00705114591483
2112.7675,88.54639964502257
2114.301,92.52008683963595
2115.8337,102.62820579831896
2117.3657,92.72084866443674
2118.897,94.09810655507226
2120.4276,99.31006966009954
2121.9575,98.65682722841348
2123.4866,96.98846751580822
2125.0149,104.95507779151148
2126.5426,90.50674435486735
2128.0695,93.94355245566885
2129.5956,77.7155864386441
2131.1211,88.57292970908657
2132.6458,98.16566489513343
2134.1698,108.6938737391929
2135.693,92.30763700201942
2137.2155,105.00703435742776
2138.7373,96.99214455615856
2140.2584,101.9130452988818
2141.7787,92.51981331634806
2143.2983,86.41252432017836
2144.8171,98.69125309679566
2146.3353,102.4560735684995
2147.8527,69.50705867067745
2149.3693,90.44428031415805
2150.8853,100.56780971469834
2152.4005,87.0277171836151
2153.9149,92.32407202654667
2155.4287,73.40694267885442
2156.9417,99.37639665266033
2158.454,85.0325007260169
2159.9655,90.72532068321425
2161.4764,93.3549214582165
2162.9865,84.72136707773552
2164.4958,100.32472063493583
2166.0045,85.96504437576823
2167.5124,89.24239954293898
2169.0195,81.2068465195041
2170.526,100.50844479609782
2172.0317,89.89725305128377
2173.5367,101.1733289585436
2175.0409,93.93672929238801
2176.5445,103.2875098155946
2178.0473,90.82572535157556
2179.5494,95.50142969086824
2181.0507,85.51467571575427
2182.5513,80.71551535350136
2184.0512,80.95399967623052
2185.5504,86.03017894890809
2187.0488,85.09410262695997
2188.5465,90.29581930551194
2190.0435,84.03537672874904
2191.5397,89.76282173789878
2193.0353,85.27820033383614
2194.5301,76.28155761980861
2196.0241,83.82293784628268
2197.5175,74.2523845009091
2199.0101,74.96994023311049
2200.502,72.37564694978505
2201.9931,65.96954580813372
2203.4835,62.00167724160292
2204.9733,75.6720810239442
2206.4622,76.83079630889233
2207.9505,62.17786149346239
2209.438,69.31331420636434
2210.9248,54.137191454528875
2212.4109,72.49952955175513
2213.8962,52.550364270470254
2215.3809,66.18973065810769
2216.8648,72.16766323659795
2218.3479,59.58419586597461
2219.8304,76.389361684596
2221.3121,53.83319323497881
2222.7931,60.51572229574663
2224.2733,66.98698010719272
2225.7529,66.79699730445259
2227.2317,56.59580385279105
2228.7098,58.78342904950409
2230.1872,47.9599016259308
2231.6638,61.225249725577896
2233.1397,50.12950101235265
2234.6149,49.42268253791144
2236.0894,41.70482085261756
2237.5632,65.77594201260581
2239.0362,57.28607165696485
2240.5085,60.285234767025486
2241.9801,52.5234557512581
2243.4509,61.00075841528201
2244.921,40.467166039483345
2246.3904,49.522701294242324
2247.8591,56.71738644526795
2249.3271,49.95124326304153
2250.7943,51.12429295087168
2252.2608,47.5865562125548
2253.7266,51.73805324064483
2255.1917,39.22880375183013
2256.656,41.15882694542029
2258.1197,57.22814162843724
2259.5826,52.98676619631601
2261.0447,55.43471847221031
2262.5062,46.172015749406455
2263.9669,61.998674766843806
2265.4269,59.714711801742624
2266.8862,64.5701425113366
2268.3448,55.61498195571289
2269.8026,50.94924454925763
2271.2598,46.522944150209014
2272.7162,45.7360941073141
2274.1719,44.53870730408994
2275.6268,54.83079616669329
2277.0811,43.46237267589663
2278.5346,46.683448264162735
2279.9874,56.594033929333364
2281.4395,48.6941402024147
2282.8908,56.78377704847344
2284.3414,59.31295394563563
2285.7914,58.881679804189844
2287.2406,49.139962941295835
2288.689,58.93781108529652
2290.1368,47.22523147313677
2291.5838,58.5022307523825
2293.0302,51.61881509834984
2294.4758,62.32499010133233
2295.9206,37.07076083543643
2297.3648,50.9561317515188
2298.8082,59.88110692973055
2300.251,51.29568994065994
2301.693,37.899883756085046
2303.1343,61.2936908348272
2304.5748,52.5271132567093
2306.0147,58.65015248861937
2307.4538,54.11280947217506
2308.8922,61.86508456249476
2310.3299,39.9069775735702
2311.7669,55.33848770074246
2313.2031,49.45961374028093
2314.6387,43.42035393507217
2316.0735,38.47070603340762
2317.5076,57.06066734937531
2318.941,60.44023481235649
2320.3737,50.60940478112798
2321.8056,63.06817301006413
2323.2369,51.66653474744635
2324.6674,48.95448461087494
2326.0972,49.03201670128533
2327.5263,55.84912463006799
2328.9547,44.20580151829381
2330.3823,54.302039928543536
2331.8092,54.087831981341196
2333.2355,48.01316925418928
2334.661,52.77804278371491
2336.0858,56.83244312641227
2337.5098,48.07636031099446
2338.9332,47.35978379785229
2340.3558,53.3827025666144
2341.7778,54.295105123312396
2343.199,55.096979440152154
2344.6195,44.5383129463894
2346.0393,54.3690925203116
2347.4583,49.08930459482258
2348.8767,59.948935059137284
2350.2943,47.847969311578254
2351.7113,39.38639215097987
2353.1275,44.16418789769568
2354.543,44.181340478215134
2355.9578,50.437833377387506
2357.3718,44.68364963824865
2358.7852,46.61877179945532
2360.1978,31.643181952830673
2361.6098,44.60686172401006
2363.021,45.209792422197324
2364.4315,43.90195491052714
2365.8413,30.483329600035404
2367.2504,46.70389646273861
2368.6587,44.013635165823416
2370.0664,38.81252490943666
2371.4733,27.450544453591192
2372.8795,41.227672170175765
2374.285,34.24388615657472
2375.6899,31.299164097895527
2377.0939,33.59348333680987
2378.4973,17.976820902995996
2379.9,33.29915349019939
2381.3019,29.410457612396385
2382.7032,34.860709450570994
2384.1037,39.44988489160619
2385.5035,35.227959473775854
2386.9027,23.994908340855545
2388.3011,20.05070628434214
2389.6987,23.095327855782898
2391.0957,25.328747406220145
2392.492,21.45093905574231
2393.8876,23.561876671149548
2395.2824,12.361533904733278
2396.6765,20.699884173165174
2398.07,17.876900769505937
2399.4627,17.392556779819415
2400.8547,23.04682511140186
2402.246,15.039678497624209
2403.6366,22.471089441394724
2405.0265,5.141030295222208
2406.4156,11.449473186906289
2407.8041,13.846390192835997
2409.1918,3.1317532749069414
2410.5789,9.605534256550982
2411.9652,12.067704929883348
2413.3508,6.068236990965261
2414.7358,-2.3428979848183644
2416.12,9.484271517235584
2417.5035,11.049740417380463
2418.8863,13.00350354102784
2420.2684,14.745555603092726
2421.6497,-0.0241088115446928
2423.0304,-1.5554952654586032
2424.4104,4.601390919622872
2425.7896,9.49655996136903
2427.1682,4.830022031435192
2428.546,6.101787206511972
2429.9232,14.361865514990086
2431.2996,10.960266924242887
2432.6753,17.747001258024966
2434.0503,12.022078230488432
2435.4246,7.835507378316265
2436.7982,7.037298117969613
2438.1711,8.277459787555358
2439.5433,13.656001654807824
2440.9148,16.92293290468683
2442.2856,3.578262585592938
2443.6557,15.921999576697885
2445.025,-1.6458472786084712
2446.3937,17.274730703843943
2447.7617,17.483758650238997
2449.1289,12.331261514013704
2450.4955,6.417264073768251
2451.8613,5.441790984790487
2453.2265,8.254866838196222
2454.5909,19.306516170684745
2455.9546,8.046763436407105
2457.3177,10.725632896449724
2458.68,-0.8068512685674705
2460.0416,16.64933501472001
2461.4025,11.144223880120535
2462.7627,19.077847294949038
2464.1222,21.60023711507904
2465.4811,16.66142500560636
2466.8392,11.161442415625174
2468.1966,11.400320627615997
2469.5533,16.97809081244543
2470.9093,16.294784026977027
2472.2645,19.650431158293713
2473.6191,22.145062930530457
2474.973,21.62870987131862
2476.3262,23.051402286840016
2477.6787,10.81317026698946
2479.0305,17.964043671147806
2480.3816,17.904052250564405
2481.7319,16.983225576848668
2483.0816,13.151593042569743
2484.4306,21.659183870465085
2485.7789,16.35602715175662
2487.1264,8.892151761074501
2488.4733,13.467586409489627
2489.8195,13.782359719151941
2491.165,22.38650017753514
2492.5097,17.280036134289958
2493.8538,11.112995715202715
2495.1972,20.885406873260195
2496.5398,7.497297450319479
2497.8818,7.048695079383606
2499.2231,17.43962731848376
2500.5637,14.570121655163689
2501.9035,9.740205402572315
2503.2427,9.949905728156864
2504.5812,10.599249701963117
2505.919,19.03826429453784
2507.256,20.016976370435486
2508.5924,22.53541260382883
2509.9281,20.64359946872139
2511.2631,7.3415632137625835
2512.5974,12.179329881165813
2513.9309,14.85692543972948
2515.2638,7.274375736459092
2516.596,13.381706469791197
2517.9275,11.178943265418525
2519.2583,16.666111615216778
2520.5884,15.243236899272915
2521.9178,11.210344331013289
2523.2465,11.967458971432507
2524.5745,13.764605769421792
2525.9018,9.05180955419803
2527.2284,10.179095017331974
2528.5543,15.146486759878144
2529.8796,12.254009281100139
2531.2041,12.951686928797017
2532.5279,16.489543928227476
2533.851,11.517604375133033
2535.1735,15.535892200360081
2536.4952,10.894431219577768
2537.8163,17.343245093097153
2539.1366,16.38235737228547
2540.4562,12.36179143507809
2541.7752,18.581570495587243
2543.0935,24.041717644307255
2544.411,22.29225578591729
2545.7279,20.583207584679826
2547.0441,27.514595481934748
2548.3596,17.68644171319056
2549.6744,21.948768238809407
2550.9885,26.9515968422902
2552.3019,18.044949087644227
2553.6146,29.57884626936766
2554.9266,15.653309501507806
2556.2379,17.06835960232388
2557.5485,23.77401723354228
2558.8585,31.77030288620665
2560.1677,26.257236813620466
2561.4762,34.83483895138488
2562.7841,36.303128972529066
2564.0913,27.812126201734486
2565.3977,35.16184960065118
2566.7035,23.15231785280821
2568.0086,31.53354929011698
2569.313,34.605562012966175
2570.6167,31.968373806409204
2571.9197,37.522002109444315
2573.222,34.366464041386166
2574.5236,39.50177634632996
2575.8246,36.02795542470653
2577.1248,30.595017281929017
2578.4244,33.25297756313182
2579.7232,35.90185160749911
2581.0214,33.39165442168576
2582.3189,33.57240065332826
2583.6157,33.89410461614693
2584.9118,34.856780288138566
2586.2072,46.660441308359395
2587.5019,47.155100967298154
2588.7959,31.290772088839617
2590.0893,41.217467025317774
2591.3819,42.43519781615964
2592.6739,34.493976088617956
2593.9652,39.793813045593765
2595.2557,41.43471954504912
2596.5456,42.81670604700787
2597.8348,44.03978259714722
2599.1234,34.5539588129775
2600.4112,34.95924387161119
2601.6983,35.80564660462176
2602.9848,29.943175493990566
2604.2705,35.87183866364239
2605.5556,40.99164393807109
2606.84,40.002598783052576
2608.1237,37.4047102544464
2609.4067,39.147985008086266
2610.689,37.53242932575904
2611.9707,39.85804909777221
2613.2516,33.02484983910881
2614.5319,29.38283666617224
2615.8115,34.332014365116834
2617.0903,33.92238742826953
2618.3685,32.35396000463675
2619.6461,25.876735904001748
2620.9229,34.19071861260829
2622.199,32.39591135793364
2623.4745,36.79231702554773
2624.7493,24.3799381770624
2626.0234,25.35877700616595
2627.2968,36.278835462748475
2628.5695,30.840115243112336
2629.8415,25.092617680771582
2631.1128,25.68634380083904
2632.3835,20.821294377502227
2633.6535,36.09746992808505
2634.9228,26.51487076169917
2636.1914,34.97349682648155
2637.4593,23.023347805420485
2638.7265,23.714423031769684
2639.9931,31.396721608549797
2641.259,31.07024240163696
2642.5242,27.784983962940828
2643.7887,30.84094453366879
2645.0525,30.88812207717865
2646.3156,30.176514248418584
2647.5781,27.356118393455745
2648.8398,34.47693155659272
2650.1009,28.638950508571043
2651.3613,25.292171675362624
2652.6211,30.936591196550125
2653.8801,26.0722049587946
2655.1385,27.899008539391502
2656.3961,33.01699725491403
2657.6531,29.176166142945817
2658.9094,34.726509910900404
2660.1651,32.1680229744303
2661.42,35.550699401922884
2662.6743,32.174532940085555
2663.9279,39.88951698011908
2665.1808,30.69564459147955
2666.433,38.04290844472837
2667.6846,31.78130090347065
2668.9354,34.96081395088231
2670.1856,28.08143925232696
2671.4351,37.99316812355971
2672.6839,32.89599159952195
2673.9321,27.889900335222933
2675.1795,29.67488465671272
2676.4263,32.2009346111422
2677.6724,36.76803994891395
2678.9179,31.726190098421284
2680.1626,33.12537412037727
2681.4067,33.86558075823302
2682.6501,31.696798424186227
2683.8928,36.66901519177918
2685.1348,35.48221881758582
2686.3761,37.036396691490836
2687.6168,33.93153584855634
2688.8568,37.16762295348116
2690.0961,33.29464433164844
2691.3348,31.812585936765856
2692.5727,23.621433389594642
2693.81,33.3711719927706
2695.0466,31.861786812715252
2696.2826,31.543262582139164
2697.5178,34.065583715135176
2698.7524,32.22873431036351
2699.9863,38.63269812582922
2701.2195,35.32745859724986
2702.452,32.412998774016216
2703.6839,34.039301352244536
2704.9151,38.056348703921344
2706.1456,35.06412286064017
2707.3755,31.71260547343155
2708.6046,38.701777842684976
2709.8331,38.53162095166442
2711.0609,36.55211539661633
2712.2881,40.51324138847133
2713.5145,42.364978772638665
2714.7403,35.55730698939573
2715.9654,47.09020505537046
2717.1899,44.01365163161756
2718.4136,56.97762490829018
2719.6367,58.4321026354051
2720.8591,53.677061993202926
2722.0809,65.2624795776033
2723.3019,53.438331447755615
2724.5223,52.154593010184044
2725.7421,55.411239137029725
2726.9611,57.858244178888356
2728.1795,53.3955819322436
2729.3972,59.07322561499677
2730.6142,54.44114791109405
2731.8306,46.59932091374941
2733.0462,44.897716171765865
2734.2612,43.286304767953254
2735.4756,33.51505733614431
2736.6892,34.68394407730915
2737.9022,34.99293485726764
2739.1145,26.19199919500022
2740.3262,28.231106259558373
2741.5372,28.160224958074025
2742.7475,24.37932391536816
2743.9571,29.98837147465997
2745.1661,24.937335735375484
2746.3744,19.876184497057295
2747.582,19.654885309875112
2748.7889,14.473405525236899
2749.9952,15.23171229800215
2751.2008,4.779772638296436
2752.4057,18.667553403928594
2753.61,8.095021404909971
2754.8136,16.71214326457664
2756.0165,9.268885525314488
2757.2188,13.9152145623882
2758.4204,14.201096658374013
2759.6213,10.376497956695744
2760.8215,14.191384458766493
2762.0211,2.7457220622346767
2763.22,9.539476522834832
2764.4182,9.322613568844815
2765.6158,8.745098833147551
2766.8127,5.056897855400621
2768.009,8.507976087810277
2769.2045,9.798298932014347
2770.3994,7.927831704571247
2771.5936,-0.503460375943348
2772.7872,-3.295612170231948
2773.9801,1.801346490571916
2775.1723,-3.712581301499654
2776.3639,1.2126075275719472
2777.5548,-0.3730468595074399
2778.745,-0.21950431215799426
2779.9346,-3.8767209530620335
2781.1235,0.3553492879460691
2782.3117,0.7767912094738563
2783.4992,1.7876896065754408
2784.6861,-3.261870733462615
2785.8723,0.07819495876935889
2787.0579,-2.3419959612304524
2788.2428,-3.0223261387452567
2789.427,2.8373451774809837
2790.6106,-1.6128110682577699
2791.7935,-1.1226239600405847
2792.9757,1.5080935300358647
2794.1573,-3.7704603551118794
2795.3382,3.1919126123523256
2796.5184,4.095448327163126
2797.698,2.640382652136509
2798.8769,2.3769514091343353
2800.0551,3.1053903936148686
2801.2327,9.275935377267103
2802.4096,8.38882210072677
2803.5859,12.144286211870792
2804.7615,8.542563274687609
2805.9364,13.983888731723766
2807.1106,22.46849794010012
2808.2842,28.84662611709905
2809.4572,31.06850825531859
2810.6294,29.684379058890272
2811.801,40.09447292126015
2812.972,45.099023939030644
2814.1423,51.19826580785906
2815.3119,63.742431772412715
2816.4808,70.28175456537667
2817.6491,76.66646628201181
2818.8167,88.44679831476162
2819.9837,90.57298128940499
2821.15,99.29524494725314
2822.3157,116.1138181238876
2823.4807,118.1289286619376
2824.645,145.04080324289424
2825.8086,146.19966736695983
2826.9716,163.5557450839283
2828.134,167.25925898159738
2829.2957,180.36043001220747
2830.4567,187.6094774554063
2831.617,183.00661878723713
2832.7767,197.70206960764892
2833.9358,190.3460436865244
2835.0941,190.08875281672584
2836.2519,181.1304068876555
2837.4089,179.921213887828
2838.5653,175.71137999445403
2839.7211,182.75110958553245
2840.8761,173.74060528194826
2842.0306,169.73006787707573
2843.1843,191.1196964268832
2844.3374,188.9596882900385
2845.4899,196.85023891401318
2846.6417,203.34154185668143
2847.7928,216.63378870741582
2848.9433,217.6271690221734
2850.0931,236.87187019057347
2851.2422,245.76807742596367
2852.3907,254.86597357297342
2853.5385,262.4657390185512
2854.6857,273.2175516009858
2855.8323,283.8715865339091
2856.9781,286.2780162987772
2858.1233,298.18701053833087
2859.2679,304.54873603253054
2860.4118,311.5133565794668
2861.555,321.13103293174294
2862.6976,334.0519227268289
2863.8395,336.6761803908842
2864.9808,343.1539570095498
2866.1214,347.08540030170457
2867.2614,342.67065455468787
2868.4007,345.80986058498553
2869.5393,357.4531557823772
2870.6773,361.25067407854374
2871.8146,361.95254583063496
2872.9513,360.5588977832937
2874.0874,355.8198530616375
2875.2227,357.4355311851954
2876.3574,355.1560481152976
2877.4915,348.9315162389196
2878.6249,341.9120443914761
2879.7577,332.0477379190669
2880.8898,334.3886987486714
2882.0212,336.4350254867922
2883.152,328.88681339604494
2884.2821,331.0441543746953
2885.4116,325.30713703214104
2886.5405,333.8758466673385
2887.6686,331.0003653261728
2888.7962,333.3807717157709
2889.923,343.3671412332564
2891.0493,346.3095459419452
2892.1748,345.00805447148224
2893.2997,339.7127319884168
2894.424,348.623640209218
2895.5476,340.69083745322797
2896.6706,348.7143785535524
2897.7929,351.1943149363891
2898.9145,360.2306945407923
2900.0355,360.5235617938732
2901.1559,361.8229575204366
2902.2756,377.5789189400508
2903.3946,370.49147965405564
2904.513,382.56066948800145
2905.6308,386.1365145625237
2906.7479,382.76903717265157
2907.8643,394.00825575204954
2908.9801,393.40418490669117
2910.0953,390.95683530246816
2911.2098,390.11621367123024
2912.3236,385.5823228352589
2913.4368,386.10516171567383
2914.5494,383.08472537777186
2915.6613,371.77100502579816
2916.7725,371.3639880331508
2917.8831,362.11365805551793
2918.9931,358.269995034948
2920.1024,352.78297529235283
2921.211,351.0525715659445
2922.319,351.4787530661054
2923.4264,340.2614854926923
2924.5331,346.8007310307746
2925.6391,331.34644846280696
2926.7445,334.64859310323675
2927.8493,342.90711695304753
2928.9534,343.4219686667366
2930.0569,344.9930934697307
2931.1597,347.3204331532369
2932.2619,347.0539260585313
2933.3634,341.243507053686
2934.4643,350.2391075362335
2935.5645,336.5406554912717
2936.6641,338.1480754015073
2937.763,340.111288384241
2938.8613,336.58021217529284
2939.959,334.7547611093699
2941.056,321.9848461553777
2942.1523,303.2703749346739
2943.248,299.41125184876813
2944.3431,285.5073782664663
2945.4375,266.3086525624617
2946.5313,244.5649702563744
2947.6244,229.4262242047377
2948.7169,208.59230481843588
2949.8087,194.21310021409096
2950.8999,179.53849642240198
2951.9904,171.76837753193752
2953.0803,161.2526258358812
2954.1696,144.89112190973322
2955.2582,133.23374471646758
2956.3462,131.33037177014734
2957.4335,120.93087925249807
2958.5202,119.18514203194184
2959.6062,112.39303376759182
2960.6916,114.80442692670994
2961.7764,109.76919285262784
2962.8605,101.43720174063327
2963.9439,110.30832268832216
2965.0267,98.3824237789184
2966.1089,103.65937199256302
2967.1905,98.28903332557286
2968.2714,108.22127273767126
2969.3516,104.70595420569123
2970.4312,103.09294062425354
2971.5102,105.48209384091942
2972.5885,108.67327467232093
2973.6662,108.76634288026912
2974.7432,117.96115713984267
2975.8196,110.40757503845677
2976.8954,112.95545298391482
2977.9705,117.8046462799449
2979.045,105.65500910072063
2980.1188,105.10639444236924
2981.192,113.45865424446805
2982.2645,101.36163939553069
2983.3364,99.86519964948417
2984.4077,89.76918374663919
2985.4783,92.97343942865456
2986.5483,85.02781353949752
2987.6177,77.18215199340108
2988.6864,76.88629985432021
2989.7545,67.19010141438878
2990.8219,61.493400196877616
2991.8887,57.99603905315686
2992.9548,50.89786021966256
2994.0204,48.248705352870275
2995.0852,42.89841560027742
2996.1495,37.14683162689394
2997.2131,29.09379366874589
2998.276,23.439141590391017
2999.3383,25.93271496544932
3000.4,17.874353133149526
3001.4611,16.613895173393132
3002.5215,12.651179987338196
3003.5812,12.336046310003951
3004.6404,11.318332749897792
3005.6989,0.897877792166895
3006.7567,5.724519808775199
3007.8139,1.8480971627078304
3008.8705,1.6684481597049512
3009.9264,-1.2145889129742216
3010.9818,2.698824215245139
3012.0364,-1.2914620513189732
3013.0905,-0.18559733533666645
3014.1439,-0.43371835777222145
3015.1966,2.4140400145275294
3016.2487,-1.9924527524379982
3017.3002,0.34667278319045636
3018.3511,-0.31869403212502334
3019.4013,-0.888663855388927
3020.4509,1.236655840147506
3021.4998,-3.5928335410151533
3022.5481,-3.7772306067425916
3023.5958,3.633401927506384
3024.6428,-0.9609609191933259
3025.6892,0.33965583589926496
3026.735,1.5352367755247087
3027.7802,-3.0242335209730413
3028.8247,2.511229510397527
3029.8685,3.7916406457208325
3030.9118,-1.0829853640310887
3031.9544,5.537366194197574
3032.9963,2.952720852486351
3034.0376,5.6131040875413305
3035.0783,1.0685413465414797
3036.1184,8.119058020534737
3037.1578,8.864679489883969
3038.1966,14.205431053761146
3039.2348,9.291337922691412
3040.2723,9.82242516514566
3041.3092,15.098717756681538
3042.3455,9.270240574632538
3043.3811,7.937018345345109
3044.4161,10.89907570246342
3045.4505,9.156437200261422
3046.4842,16.159127284022446
3047.5173,13.907170307465492
3048.5498,12.800590462718247
3049.5816,12.639411802836747
3050.6128,8.97365825287119
3051.6434,15.65335361147774
3052.6734,14.728521587575983
3053.7027,16.349185733552076
3054.7314,14.21536945450697
3055.7594,14.127095992049902
3056.7868,14.184388445636387
3057.8136,12.48726977345109
3058.8398,12.235762791834986
3059.8653,18.02989019225626
3060.8902,19.619674543825568
3061.9145,16.455138235354866
3062.9381,15.736303459459378
3063.9612,13.863192244203077
3064.9835,14.135826460286864
3066.0053,15.354227839780009
3067.0264,17.568417973393366
3068.0469,15.928418298295753
3069.0668,12.2342500759718
3070.086,15.135934408622148
3071.1046,13.933492276104914
3072.1226,15.52694450691908
3073.1399,9.166311790228747
3074.1567,12.751614659928691
3075.1727,11.732873558250503
3076.1882,10.710108799909818
3077.203,12.183340582293596
3078.2173,10.75258899568783
3079.2308,9.117874008545243
3080.2438,11.92921548179254
3081.2561,3.936633185177868
3082.2678,7.640146769157269
3083.2789,10.089775844820565
3084.2893,7.635539946856085
3085.2991,11.127458509054435
3086.3083,5.515550888850953
3087.3169,5.64983633240638
3088.3248,4.38033403072609
3089.3321,3.4070631183171542
3090.3388,5.480042685883262
3091.3449,2.449291790057586
3092.3503,1.7648294326728688
3093.3551,4.526674591069209
3094.3593,5.33484622493836
3095.3629,6.689363248705462
3096.3658,8.240244523447146
3097.3681,4.43750884334635
3098.3698,1.0811749201836989
3099.3708,2.37126142136475
3100.3713,4.107787003483367
3101.3711,2.5907702994208535
3102.3702,-0.3797700990193249
3103.3688,5.696184374058674
3104.3667,1.218656078453904
3105.364,6.487667317003684
3106.3607,2.9532403803588636
3107.3568,2.565397494293663
3108.3522,2.2241608550499734
3109.347,3.879552633215795
3110.3412,1.4315949771374932
3111.3348,0.880309996365952
3112.3277,0.5257197861361789
3113.32,2.2678464328800914
3114.3117,1.1567120177724917
3115.3028,3.3423385993098265
3116.2932,0.574748224421441
3117.2831,-0.14603709338655335
3118.2723,4.230004653644443
3119.2608,0.4528969321835348
3120.2488,4.2226631665998156
3121.2361,5.039326776733461
3122.2229,0.7529111401979947
3123.209,2.1134395842137508
3124.1944,2.070935428471998
3125.1793,0.42542197152964434
3126.1635,1.5769224912343844
3127.1471,4.075460261179671
3128.1301,4.871058539189761
3129.1125,0.9637405423343921
3130.0942,5.5035294389727625
3131.0753,-0.25955161217329703
3132.0558,4.124520492582789
3133.0357,7.155771449848174
3134.015,-0.3657730850151495
3134.9936,2.059912471797176
3135.9716,0.23285735816256192
3136.949,4.753090791359313
3137.9258,6.4206419863371735
3138.902,9.085540110515026
3139.8775,6.74781426710544
3140.8524,7.457493468465586
3141.8267,1.014606659474552
3142.8004,5.6191827104365615
3143.7735,7.271250481509725
3144.7459,4.670838776660432
3145.7178,8.017976327142534
3146.689,5.812691817501587
3147.6596,7.705013852103406
3148.6295,10.19497097718694
3149.5989,6.082591661941024
3150.5676,7.617904273604793
3151.5357,8.250937118591608
3152.5032,7.081718427135812
3153.4701,9.61027634696238
3154.4364,5.2866389549791535
3155.402,12.61083423199132
3156.367,5.782890105937597
3157.3315,11.902834378648436
3158.2952,6.220694794125407
3159.2584,8.536498977341822
3160.221,8.100274491064056
3161.1829,8.062048812693547
3162.1442,9.771849338629053
3163.105,11.029703384648855
3164.065,10.185638168812773
3165.0245,9.489680798883612
3165.9834,12.741858280767744
3166.9416,13.89219752547477
3167.8993,13.940725316595774
3168.8563,7.6874682987998995
3169.8127,8.132452977349118
3170.7684,10.825705780630784
3171.7236,12.01725305570777
3172.6782,9.907121041385963
3173.6321,11.945335856298684
3174.5854,12.381923520008158
3175.5381,13.01690993262332
3176.4902,11.350320870433968
3177.4417,14.532181979560889
3178.3926,9.112518792621607
3179.3428,14.641356696911991
3180.2924,14.718720988602662
3181.2415,13.944636817450736
3182.1899,13.969129186026166
3183.1377,11.042222957452537
3184.0848,13.363942855162207
3185.0314,12.434313492165302
3185.9773,10.2533593478325
3186.9227,13.121104777191363
3187.8674,14.737574032735886
3188.8115,12.402791235749028
3189.755,13.716780360138031
3190.6979,14.87956525578226
3191.6402,15.841169635393278
3192.5818,17.301617062886976
3193.5229,15.06093094376763
3194.4633,15.869134510523303
3195.4031,16.176250845032854
3196.3423,17.182302870483774
3197.2809,18.83731334830111
3198.2189,16.591304868086922
3199.1563,18.544299831070113
3200.0931,15.546320472566578
3201.0292,18.847388842449185
3201.9648,18.447526835127675
3202.8997,17.396756156537904
3203.834,20.04509832814044
3204.7677,16.442574697428356
3205.7008,19.639206411443794
3206.6333,21.78501445280314
3207.5652,21.580019607730776
3208.4964,17.924242444600957
3209.4271,21.567703315987842
3210.3571,19.510422395223138
3211.2865,21.30241963996157
3212.2154,20.143714812753622
3213.1436,23.834327463125632
3214.0712,19.974276939166835
3214.9982,23.413582350623145
3215.9246,24.552262607497795
3216.8503,23.49033638565819
3217.7755,25.07782211544908
3218.7001,22.56473799231189
3219.624,24.301101960909847
3220.5473,27.836931740258777
3221.4701,23.372244806363533
3222.3922,24.707058356859633
3223.3137,25.541389355660208
3224.2346,25.875254519607786
3225.1549,30.20867031013104
3226.0746,24.241652929906103
3226.9937,28.574218279522427
3227.9121,27.05638201715296
3228.83,26.53815951522846
3229.7473,25.819565875615947
3230.6639,26.650615934800843
3231.5799,29.081324271072955
3232.4954,26.411705196215934
3233.4102,30.641772731200213
3234.3244,27.921540632879175
3235.238,27.401022351688493
3236.151,30.43023105884846
3237.0634,28.959179651569137
3237.9752,29.08788072275831
3238.8864,27.06634657573193
3239.797,30.144589222927177
3240.7069,30.12262040611776
3241.6163,30.100451565631516
3242.5251,29.928093840570085
3243.4332,31.0555580690306
3244.3408,30.332854789829273
3245.2477,27.959994231226766
3246.154,28.286986318155165
3247.0598,30.06384069594663
3247.9649,34.490566727063495
3248.8694,30.217173473329666
3249.7733,30.84366965166341
3250.6766,32.370063676811256
3251.5793,32.29636365508305
3252.4814,30.372577369088006
3253.3829,31.398712278471706
3254.2838,33.32477553915395
3255.1841,35.450773993067436
3256.0838,32.87671414889712
3256.9829,35.302602160820214
3257.8814,32.12844385424681
3258.7792,34.65424470156097
3259.6765,35.88000985386233
3260.5731,36.855744115708085
3261.4692,35.531451932855305
3262.3647,35.80713738250368
3263.2595,29.432804186538334
3264.1538,33.658455708773054
3265.0474,36.484095018693566
3265.9404,34.659724849201055
3266.8329,32.735347568355785
3267.7247,34.71096519762074
3268.616,32.986579431105426
3269.5066,33.56219161580974
3270.3966,33.13780276886776
3271.286,35.01341357179164
