RamanShift,CorrectedData
30.1047,6657.104904446113
32.3739,6219.648956685744
34.6426,5791.5429423543255
36.9109,5367.236732684319
39.1787,4939.380140992755
41.4461,4513.522926924295
43.7131,4085.764800729798
45.9796,3661.855427524893
48.2456,3240.6444315675553
50.5112,2806.431400497203
52.7764,2387.9658895468106
55.0411,1965.4974258850361
57.3054,1550.3255128008786
59.5692,1134.2496339283616
61.8326,714.2692573982528
64.0955,297.0838399988234
66.3579,-111.05716862434736
68.6199,-501.10432179651923
70.8815,-866.4570633818372
73.1426,-1137.2098312122723
75.4032,-1147.2484072137333
77.6634,-553.8972125859173
79.9231,1643.0307924830672
82.1824,7218.878181238262
84.4412,18919.987510494404
86.6995,39441.451264877454
88.9574,51388.46173981349
91.2148,55750.56083631407
93.4717,56234.389941506175
95.7282,56154.68988501113
97.9842,55890.700934106404
100.2398,55355.96279452254
102.4949,54869.71461308308
104.7495,54378.29498305196
107.0036,53742.34194899596
109.2573,53457.543011698916
111.5105,52796.28513452126
113.7632,52373.004746247985
116.0154,51985.03774770125
118.2672,51660.61951597316
120.5185,51205.53490830546
122.7693,50718.918265333705
125.0197,50000.25341563808
127.2696,50075.27368060961
129.519,49492.761881636776
131.7679,49240.300339355344
134.0163,48295.570879473446
136.2642,48038.35483529624
138.5117,47871.583057173164
140.7587,47306.285915070126
143.0052,46849.39330023721
145.2512,46112.23463086161
147.4967,46010.98885663665
149.7417,45459.23446613326
151.9863,45039.849487812506
154.2304,44424.761495543135
156.4739,44116.09761279536
158.717,43917.834518791824
160.9596,43332.498451594176
163.2017,42608.46521008572
165.4433,42468.7101598248
167.6844,41829.758240285075
169.925,41569.28396625317
172.1651,40932.16143421807
174.4047,40626.96432497597
176.6439,40138.41591000141
178.8825,39624.989054499354
181.1206,39479.756222290525
183.3582,39025.83948094584
185.5954,38457.31050323859
187.832,38070.240571683724
190.0681,37446.25058422309
192.3037,37427.86105809617
194.5388,37353.4421360799
196.7734,36095.71358667271
199.0075,36469.29480483852
201.2411,35792.5548245842
203.4742,35845.36231522366
205.7068,35327.28558814528
207.9389,34931.09259628383
210.1704,34516.55093930124
212.4015,34414.12786754854
214.632,33696.490286211236
216.862,33703.6047563336
219.0915,33168.987501995005
221.3205,32729.05441023878
223.549,32658.821036418394
225.777,32259.702608596766
228.0044,32015.814028248606
230.2314,31552.11987425164
232.4578,31193.634405325454
234.6837,30869.67156466845
236.909,31070.494983542718
239.1339,29937.267984513644
241.3582,29896.753579441684
243.582,29509.164480814652
245.8053,29141.363102152805
248.0281,28821.461561884767
250.2503,28569.07168702552
252.472,28000.255016375457
254.6932,27789.97280304427
256.9139,27393.186020139125
259.134,27526.005362867472
261.3536,26657.1412525049
263.5727,26652.20383506696
265.7912,26173.35298999783
268.0092,25917.84833021964
270.2267,25644.549206921023
272.4436,25086.914712112135
274.6601,25020.40368135766
276.8759,24786.174699353112
279.0913,24299.58610059003
281.3061,24018.1459716982
283.5204,23703.262156311554
285.7341,23378.14225788261
287.9473,23291.593642831263
290.16,22809.423443796004
292.3721,22642.338560499396
294.5837,22148.895664569813
296.7947,21709.951201212258
299.0052,21780.411394142822
301.2152,21347.582249978106
303.4246,21184.21955753064
305.6334,20858.478892137122
307.8418,20251.065617292115
310.0495,19973.684887905438
312.2568,19605.391656376298
314.4635,19321.190675367034
316.6696,19144.586501486134
318.8752,18959.433498130173
321.0802,18208.885837249858
323.2847,18124.04750120161
325.4887,17856.47229025302
327.692,17441.86382343124
329.8949,17305.07554119869
332.0972,16904.91070959917
334.2989,16714.87242162576
336.5001,16626.713601222422
338.7007,15968.38700518442
340.9008,15880.345224039884
343.1003,15641.540688633097
345.2992,15502.775671004965
347.4976,15072.402286780962
349.6955,14919.172496558873
351.8927,14520.838110212477
354.0895,14427.800788423825
356.2856,14156.262046666656
358.4812,14089.473256136705
360.6763,13562.885646467148
362.8707,13530.700306396393
365.0646,13150.318189034107
367.258,12972.74011218288
369.4508,12584.966762142205
371.643,12620.948695484185
373.8346,12289.686342931258
376.0257,12044.330008996403
378.2162,11779.779875295724
380.4062,11359.386003002088
382.5956,11316.19833549056
384.7844,11101.566702542397
386.9726,10948.290820776892
389.1603,10739.770295797694
391.3474,10288.154623725612
393.5339,10338.543193283782
395.7199,9857.185290313813
397.9052,9698.980097271895
400.09,9603.57669804238
402.2743,9581.174079519857
404.4579,9205.27113256316
406.641,9007.166652219428
408.8235,8990.659341483122
411.0054,8833.497813277078
413.1868,8671.83059061761
415.3675,8440.156108186071
417.5477,8287.522713945502
419.7273,8097.778671457461
421.9064,7879.072161408309
424.0848,7772.751283506608
426.2627,7702.564058670236
428.4399,7240.2084300895585
430.6166,6836.432263929288
432.7928,6942.783353952116
434.9683,6493.359425556395
437.1432,6318.208134712724
439.3176,6364.0270724581205
441.4914,5835.263766647564
443.6645,5735.365681495801
445.8371,5625.230222864942
448.0091,5323.604739263501
450.1806,5081.3365229477495
452.3514,4990.822812937957
454.5216,4694.260797441057
456.6913,4694.497614755754
458.8603,4663.780356238203
461.0288,4280.606066299559
463.1967,4380.021742713216
465.3639,4252.274340446536
467.5306,3742.2107706666575
469.6967,3840.127902018001
471.8622,3839.9225657229254
474.0271,3598.3415546024844
476.1914,3532.8816230785815
478.3551,3451.1394895897247
480.5182,3581.961837245639
482.6807,3144.3453146446773
484.8426,3126.1865345656333
487.0039,3385.2320783438627
489.1647,3299.1784960528457
491.3248,2890.072303913803
493.4843,3181.309985156142
495.6432,3091.9879941086474
497.8015,2567.2027532870125
499.9592,2708.700654287066
502.1163,2582.6280630326437
504.2728,2436.7313183605875
506.4287,2334.556733281468
508.5839,2037.9505964385608
510.7386,2063.8591731295746
512.8927,1999.8787082727067
515.0461,1831.655426147583
517.199,1933.9355310350948
519.3512,1735.5652088996576
521.5029,1621.8906263663594
523.6539,1675.207932704674
525.8043,1387.8632609651686
527.9541,1556.4527274463835
530.1033,1450.072434568261
532.2519,1237.0184691862523
534.3999,1380.436903655107
536.5472,1449.3737979594298
538.694,1106.1751982794885
540.8401,1316.5871363018232
542.9856,1290.2445930227404
545.1305,1366.132536272693
547.2748,1117.8859209797156
549.4185,1059.989688410511
551.5615,1146.6787686529278
553.704,1033.3880811949566
555.8458,887.5525340578533
557.987,922.2570249290584
560.1276,997.3864426204891
562.2675,940.2756667215144
564.4069,1032.009566847708
566.5456,1190.623003211891
568.6837,861.2008257068228
570.8212,882.2778723190786
572.958,494.1389724232213
575.0942,700.1189465710631
577.2299,447.9976788660497
579.3648,390.65504641045845
581.4992,273.2664508097296
583.6329,289.4033910253711
585.766,314.2346360869924
587.8985,404.8760638843014
590.0304,49.9404131029587
592.1616,284.19041837988334
594.2922,144.28831544725836
596.4222,-16.706499025036464
598.5515,-1.7860698074437096
600.6802,49.607725227528135
602.8083,-215.41697394988296
604.9358,-214.8525229505758
607.0626,-11.739125369924295
609.1888,-294.6148384266271
611.3144,-80.36760206558392
613.4393,-149.43241302948445
615.5636,-281.99346518868697
617.6873,-98.73345958378923
619.8103,-288.3822801406641
621.9327,-112.91882443790382
624.0544,-54.769109115157335
626.1756,-185.5080227529761
628.2961,-236.60990678854432
630.4159,-319.54724943390465
632.5351,-330.04017516813474
634.6537,-7.5556161933564
636.7716,-319.307207610349
638.8889,-174.85858444433688
641.0056,-167.67019184157107
643.1216,-112.50247319970367
645.237,3.4341297603896237
647.3518,-229.6208235571321
649.4659,-94.92777378236497
651.5793,-72.04715924922493
653.6922,-10.73941734230175
655.8043,-284.3149847256864
657.9159,175.21570204392629
660.0268,-527.6077907469589
662.137,-56.595898564009985
664.2466,39.44621392897534
666.3556,-76.18661736582726
668.4639,59.650443059334066
670.5716,-78.94776852591167
672.6786,118.31358355160046
674.785,-131.37066424547083
676.8907,-68.00567663760012
678.9958,86.00338296848349
681.1002,192.25135184614192
683.204,-54.31693359128985
685.3072,-144.45663885294925
687.4097,4.877071095143037
689.5115,-47.370967268427194
691.6127,295.5440824861507
693.7132,126.71705726241635
695.8131,168.14279100848944
697.9123,313.16611640533665
700.0109,379.9818644525294
702.1089,101.88486301804369
704.2061,266.46993617001135
706.3028,380.98190695777157
708.3987,432.5155957659663
710.4941,339.5158191694718
712.5887,625.1273894180558
714.6827,540.2451153663496
716.7761,809.5637996177902
718.8688,961.5282393733651
720.9608,837.2332237384835
723.0522,936.7735322032313
725.1429,790.9439358853924
727.233,1339.2391965350762
729.3224,536.7540679929443
731.4112,909.8332907073054
733.4993,956.3215997589068
735.5867,969.4137211302077
737.6735,704.65437124046
739.7596,467.53825681479066
741.845,532.2100775318177
743.9298,946.0645283947888
746.014,592.5462990848828
748.0974,381.9000698226373
750.1802,954.4705149031361
752.2624,339.25230480248865
754.3439,506.0401004521191
756.4247,734.1785593909517
758.5048,554.0623340975217
760.5843,811.9360697086231
762.6631,1056.1944058204535
764.7413,1160.5319739098923
766.8188,1495.2933948918362
768.8956,1882.3732780759674
770.9718,1997.0662178190032
773.0473,1921.7667896540152
775.1221,1613.2695491433915
777.1962,1548.3190326318945
779.2697,1225.4097603315822
781.3426,1525.886236971346
783.4147,1709.492955025984
785.4862,1766.8243917115033
787.557,1464.3250071489601
789.6271,1734.5392437912597
791.6966,1288.5615294480667
793.7654,858.9862745836654
795.8335,831.4578767767744
797.901,881.0707250163323
799.9678,741.0691999766859
802.0339,713.2976735214688
804.0993,777.1005101036571
806.1641,715.1220670432449
808.2282,709.5066938892342
810.2916,726.348733039471
812.3544,903.3925197967546
814.4164,638.7323822004837
816.4778,841.2626392560996
818.5385,848.4776035817849
820.5986,959.9715793830983
822.658,1153.7388623808583
824.7166,1322.1237386961584
826.7747,1317.0204829127615
828.832,1700.8233563931572
830.8886,2025.326607329691
832.9446,2120.5244669064705
834.9999,1611.3111460543732
837.0545,1895.7308344990379
839.1085,1955.7777058530774
841.1618,1842.3959147718415
843.2143,1488.2295963529104
845.2662,1466.9228672699464
847.3175,1659.2198293143229
849.368,1244.4145696081614
851.4179,1619.251158681429
853.467,1284.0736546199623
855.5155,1500.6260993171163
857.5633,1280.9525218255076
859.6105,1155.1469361914933
861.6569,1464.303343651918
863.7027,1053.9657338921752
865.7478,1371.6780819546766
867.7922,1319.0343523421543
869.8359,1508.128495840574
871.8789,1192.8544500455391
873.9212,1495.9561374713521
875.9629,1607.7274687037861
878.0039,1729.162339369046
880.0441,1685.404629016084
882.0837,1778.9981999022493
884.1226,1843.6368974308352
886.1609,1928.1645492151874
888.1984,1906.8749644322888
890.2352,2398.261932977548
892.2714,2020.8692256776412
894.3069,2245.4905893766336
896.3416,2039.5697507099467
898.3757,1997.100413858112
900.4091,1680.776262606014
902.4418,2262.1409607675596
904.4739,1964.5381553489206
906.5052,2150.6114707349043
908.5358,2034.4545116649315
910.5658,1903.3608613723845
912.595,1868.9240827461326
914.6236,1392.4877196415182
916.6515,2077.395297224655
918.6786,1410.0903267367903
920.7051,1672.1162986452691
922.7309,1687.8166893165253
924.756,1829.6349583958581
926.7804,1755.9645486504742
928.8041,1353.5488845512664
930.8272,1744.2813730095077
932.8495,1735.6054074009953
934.8711,1501.3143636587338
936.892,1397.2016003596727
938.9123,1601.9604610676615
940.9318,1457.8842753745557
942.9506,1460.6663568526856
944.9688,1536.1000044955435
946.9862,1075.2285026900063
949.003,1205.495120461972
951.019,865.3431160851178
953.0344,986.5157357781718
955.0491,969.3562171064841
957.063,1255.8077877702235
959.0763,1461.1636657760682
961.0888,1217.7170565725974
963.1007,1517.3611509967814
965.1119,1477.1391277084476
967.1223,1459.9441501937763
969.1321,1666.7693671675952
971.1412,1443.9579127452962
973.1495,1386.352904374624
975.1572,1536.8474450637877
977.1641,1599.3346239574676
979.1704,1464.557514831904
981.1759,1534.1091754699955
983.1808,1467.2326490091
985.1849,1546.5209632454935
987.1884,1640.6671313031547
989.1911,1834.5641508408735
991.1932,1614.2550031107821
993.1945,1691.082651019402
995.1951,1700.5400413307143
997.1951,1654.2201038979256
999.1943,1533.065751568829
1001.1928,1464.7198806490705
1003.1906,1509.8753721137036
1005.1877,1502.4250922905849
1007.1841,1431.011892408882
1009.1798,1473.5786086735243
1011.1748,1362.4680629793147
1013.1691,1348.023062485292
1015.1627,936.3864007258526
1017.1556,765.5508577551518
1019.1477,757.2092042635268
1021.1392,529.404203285827
1023.1299,383.2786102848404
1025.12,381.82517542930145
1027.1093,331.63664505520865
1029.0979,461.90576168033294
1031.0859,467.3252645061002
1033.0731,403.7378881149052
1035.0596,371.4863624159261
1037.0454,208.2634132809544
1039.0304,151.31176286694244
1041.0148,-53.475868751753296
1042.9985,-53.35676301390049
1044.9814,42.811799176517525
1046.9636,-187.97746255091624
1048.9452,-233.23182899470703
1050.926,-133.25670305854146
1052.9061,-82.70515766017343
1054.8855,-21.878934482905606
1056.8642,-88.97894898553204
1058.8421,30.743883591945632
1060.8194,28.98953690923372
1062.7959,36.45798431858566
1064.7717,132.24919888242584
1066.7469,46.31315329854988
1068.7213,226.7498189423277
1070.695,286.9591667259738
1072.6679,182.1411652942188
1074.6402,268.3957804222591
1076.6117,243.5229760638831
1078.5826,272.97271348893264
1080.5527,147.4449515320448
1082.5221,115.98964629811962
1084.4908,170.8067524177095
1086.4587,177.79622336143075
1088.426,280.9080108918861
1090.3925,224.94206499371649
1092.3584,316.89833284251654
1094.3235,161.82675936444866
1096.2879,202.72728631674545
1098.2515,298.4998538383734
1100.2145,463.69440004105127
1102.1767,537.1608600515465
1104.1382,655.599164359679
1106.099,877.5592380836897
1108.0591,1025.540999785815
1110.0185,1055.5443592527517
1111.9771,1212.0692160157705
1113.9351,1127.6154590507358
1115.8923,954.282965212813
1117.8488,800.1216000810527
1119.8045,562.1812196917017
1121.7596,564.4616720798003
1123.7139,352.1127996586001
1125.6675,378.78443919673737
1127.6204,484.426423941768
1129.5726,455.48858335339173
1131.524,466.5207420470906
1133.4748,399.6727200834648
1135.4248,270.4943328579393
1137.3741,231.7353917692235
1139.3226,166.74570551109355
1141.2705,234.7750804600073
1143.2176,27.423321324917197
1145.164,95.5902304671472
1147.1097,45.775609973708924
1149.0546,39.829260975799116
1150.9989,9.75098414682725
1152.9424,13.940579761961999
1154.8852,-67.05224931602424
1156.8272,-88.27793949077022
1158.7686,-12.08625731398206
1160.7092,-33.92608744078461
1162.6491,-48.34619378464413
1164.5883,101.35499866261671
1166.5267,152.42954788760835
1168.4644,274.02951086341636
1170.4014,436.2069430388583
1172.3377,670.9138971224675
1174.2732,894.4524214607227
1176.2081,1198.0245576909874
1178.1421,1530.1323385061332
1180.0755,1937.1777846188124
1182.0082,2062.01290144035
1183.9401,2275.0396750103464
1185.8713,2126.1100707482838
1187.8017,1905.1260313232706
1189.7315,1693.5394781433206
1191.6605,1271.9023135652023
1193.5888,1096.9164230103124
1195.5163,970.2336791810158
1197.4432,886.6559438105542
1199.3693,887.5350689298648
1201.2947,791.9728977033301
1203.2193,757.5712644199957
1205.1432,797.2819954492006
1207.0664,782.3069095846004
1208.9889,735.8478176470089
1210.9106,723.3565226341816
1212.8316,677.8848201854162
1214.7519,693.5344987064236
1216.6715,698.7573398240893
1218.5903,800.7551182299612
1220.5084,822.279601628019
1222.4257,959.7825497147314
1224.3424,853.16571396375
1226.2583,926.3808362509699
1228.1735,1066.129649920622
1230.0879,1150.3138790531666
1232.0016,1273.6352370677632
1233.9146,1307.5954258804486
1235.8269,1315.7461346709424
1237.7384,1337.8390395430179
1239.6492,1154.4758034430233
1241.5592,1206.2080759389319
1243.4686,1172.687495053975
1245.3772,1320.5156867493279
1247.285,1371.0942652592748
1249.1922,1439.2748316129619
1251.0986,1584.4589731286032
1253.0042,1608.5482627316887
1254.9092,1683.24425750312
1256.8134,1793.298498438311
1258.7169,1887.362509700255
1260.6196,2031.8377975189942
1262.5216,2256.6758492509325
1264.4229,2384.9281319341244
1266.3234,2549.7460900398764
1268.2232,2669.581144190226
1270.1223,2686.984689509787
1272.0207,2741.558094427357
1273.9183,2672.6527005019125
1275.8151,2637.8698218768513
1277.7113,2714.3607459690793
1279.6067,2743.1767338168283
1281.5014,2797.4690193147253
1283.3953,3056.9388089256463
1285.2885,3390.837281137792
1287.181,3777.66558387001
1289.0727,4158.324831132795
1290.9637,4302.066099159994
1292.854,4518.590422602239
1294.7435,4489.898793089495
1296.6323,4451.242157065852
1298.5204,4437.5714160764255
1300.4077,4416.037427153886
1302.2943,4268.941002955242
1304.1802,4177.882911977111
1306.0653,3842.4138800267065
1307.9497,3600.6345911324424
1309.8333,3357.9456908985885
1311.7162,3212.6477889230955
1313.5984,3136.0414612244567
1315.4798,2983.627251694703
1317.3605,3010.755672865471
1319.2405,3037.9772074321263
1321.1197,2985.0423079825014
1322.9982,2762.5513967246443
1324.876,2633.354866016205
1326.753,2409.7030805893373
1328.6293,2401.5463788426787
1330.5048,2330.385075077844
1332.3796,2200.0194595810026
1334.2537,2206.7497993345023
1336.127,2115.37633932053
1337.9996,2109.1993024537733
1339.8714,2120.518890495201
1341.7426,2077.8852841137996
1343.6129,2150.89864277338
1345.4826,2090.7091051588905
1347.3515,2177.1667884463095
1349.2196,2166.52178890452
1351.087,2295.9741810307496
1352.9537,2362.574017656996
1354.8197,2467.2713286555663
1356.6849,2626.3161202730334
1358.5493,2702.1583740832684
1360.4131,2837.5980453970187
1362.276,2945.485062503434
1364.1383,2965.2693253157013
1365.9998,2860.250704292157
1367.8606,2628.129040238451
1369.7206,2379.204145357744
1371.5799,2125.6758055719183
1373.4384,1950.6937830108363
1375.2962,1813.8078185476115
1377.1533,1524.8176335484313
1379.0096,1263.0729312413969
1380.8652,1103.7233996064533
1382.7201,858.3187139928195
1384.5742,714.3085387124738
1386.4275,552.1425294942419
1388.2802,381.12033492386763
1390.132,292.7415980657097
1391.9832,265.3059581729394
1393.8336,142.31305157133102
1395.6832,117.26251193360804
1397.5322,105.35397150938297
1399.3803,83.3870613756626
1401.2278,0.5114115559335914
1403.0745,-12.173348760199588
1404.9204,-65.36759549213821
1406.7656,12.228417052443547
1408.6101,-32.134912411867845
1410.4538,-16.45718529273654
1412.2968,49.012318029941525
1414.139,42.974481583536544
1415.9805,150.18018890530948
1417.8213,146.53032310279013
1419.6613,220.42576578168882
1421.5006,333.8673970824275
1423.3391,494.50609494116725
1425.1769,715.6427339553993
1427.0139,1042.578183777543
1428.8502,1476.7633069035983
1430.6858,1852.048955403785
1432.5206,2064.135966580696
1434.3547,2301.1251592164444
1436.188,2371.117331451802
1438.0206,2337.1132584163024
1439.8524,2164.9636915283336
1441.6835,2145.3193588351496
1443.5139,2067.4309667344023
1445.3435,2030.1992001705294
1447.1724,2046.2247234136994
1449.0005,2023.758180432087
1450.8279,1988.6001947316363
1452.6545,2022.0013695807102
1454.4804,2074.8122883617034
1456.3056,2122.183514237011
1458.13,2110.5655896209064
1459.9536,2072.109035705842
1461.7766,1891.1643525785912
1463.5987,1625.3820196048837
1465.4202,1413.9124972388126
1467.2409,1132.2562296806645
1469.0608,1064.7636469916288
1470.88,853.2851679103478
1472.6984,726.8712005278394
1474.5161,543.5221444023009
1476.3331,453.5383918232001
1478.1493,425.6703296448104
1479.9648,350.41834018602094
1481.7795,307.7328015090279
1483.5935,339.2140881718515
1485.4067,318.1625716551862
1487.2192,302.12862004762064
1489.031,307.21259825610105
1490.842,300.2148681663057
1492.6522,320.9357885917889
1494.4618,301.7757153439852
1496.2705,297.18500102497273
1498.0785,304.56399521910134
1499.8858,297.81304453887424
1501.6924,298.2824925511595
1503.4981,327.1226798446987
1505.3032,318.3339440254422
1507.1075,297.1666194281097
1508.911,302.1210372041023
1510.7138,301.0475255331621
1512.5159,301.7464095738287
1514.3172,258.3680114741692
1516.1178,219.91265036481127
1517.9176,235.43064279268947
1519.7166,201.72230310561645
1521.515,184.33794329711964
1523.3126,165.52787334350796
1525.1094,167.3424013777294
1526.9055,145.73183387747122
1528.7008,134.79647564700645
1530.4954,58.036630033315305
1532.2893,92.35259903541373
1534.0824,15.344684071977099
1535.8747,103.46318563815294
1537.6663,100.95840407567084
1539.4572,89.93063869163598
1541.2473,119.08018778356563
1543.0367,133.55734874969494
1544.8253,94.21241779745469
1546.6132,166.4456897987002
1548.4003,159.05745868318263
1550.1867,186.29801671618407
1551.9723,228.1676545724331
1553.7572,317.9166610636712
1555.5414,384.24532271998396
1557.3247,493.5539228922862
1559.1074,568.0427410890588
1560.8893,694.0120518832518
1562.6705,802.2621241674096
1564.4509,903.6432198939765
1566.2305,956.6055929927643
1568.0094,1080.3994883571868
1569.7876,1099.8751413145837
1571.565,1112.5827763883208
1573.3417,1139.5726071030185
1575.1176,1154.6448358574853
1576.8928,1198.2496536547987
1578.6672,1164.837239951612
1580.4409,1173.5077622220924
1582.2138,1167.6113762920359
1583.986,1188.8982262521495
1585.7575,1288.168444517043
1587.5282,1286.672151612347
1589.2981,1388.3094551820177
1591.0673,1414.9304500033031
1592.8358,1537.9352169703598
1594.6035,1619.7238228280512
1596.3704,1608.946318941882
1598.1366,1692.2027404801302
1599.9021,1753.243106521626
1601.6668,1780.717419223176
1603.4308,1851.5256632091878
1605.194,1978.3678052968935
1606.9564,2120.0937937882663
1608.7182,2361.753557201624
1610.4791,2520.3470028543416
1612.2394,2709.824014446276
1613.9988,2959.2844504738205
1615.7576,3241.228142335138
1617.5156,3392.0048918355606
1619.2728,3529.5644683681385
1621.0293,3521.806607405895
1622.785,3424.281009126229
1624.54,3218.237338488463
1626.2942,2949.8752262091293
1628.0477,2656.2442708224044
1629.8005,2462.4940413637305
1631.5525,2268.1740803061184
1633.3037,2073.2339054976255
1635.0542,1932.573012104589
1636.804,1823.4908745610082
1638.553,1727.33694797516
1640.3013,1681.4606692204288
1642.0488,1659.561457896838
1643.7955,1673.3387167898181
1645.5416,1733.7918320891877
1647.2868,1830.2201732513859
1649.0313,1890.1730923949544
1650.7751,2021.5499233362425
1652.5181,2146.7499809899
1654.2604,2234.2225600550773
1656.0019,2455.766933763436
1657.7427,2622.4323530044094
1659.4828,2831.1180441097713
1661.222,2983.8732071869636
1662.9606,2992.9970140322675
1664.6984,2864.1386066032137
1666.4354,2644.497096927382
1668.1717,2241.971568390978
1669.9072,1825.1110779352384
1671.642,1528.914660081693
1673.3761,1275.5813311007696
1675.1094,1069.8100919737499
1676.8419,884.0999309261279
1678.5737,759.6498254852759
1680.3048,659.4587443375858
1682.0351,578.7756485729551
1683.7646,449.4994926866966
1685.4934,433.5292253863754
1687.2215,364.6137908845649
1688.9488,305.20212905855806
1690.6754,270.59317613952226
1692.4012,263.1858653066174
1694.1263,219.9291270330741
1695.8506,238.6218891602657
1697.5742,236.86307733029025
1699.297,198.95161479902526
1701.0191,175.98642245373048
1702.7404,166.46641919214926
1704.461,102.19052215216652
1706.1808,59.207646807000856
1707.8999,87.26670760797242
1709.6182,84.0166184143327
1711.3358,82.756292212669
1713.0527,59.98464114941635
1714.7688,38.90057654346492
1716.4841,21.40300911385748
1718.1987,24.890849190645895
1719.9126,32.56300688985539
1721.6257,36.76839207861667
1723.338,36.005914298424614
1725.0496,-8.27551727689388
1726.7605,25.573006166428968
1728.4706,23.600476114568664
1730.18,-53.89411620202554
1731.8886,-21.361779788891
1733.5964,6.997014750653761
1735.3036,11.182010217462448
1737.0099,-19.657050657573564
1738.7156,-8.52042525537945
1740.4204,1.9918254170461296
1742.1246,-12.070274528259688
1743.8279,16.993299000836487
1745.5306,23.63269067850524
1747.2325,-25.70195499100555
1748.9336,-2.9604937397598405
1750.634,-24.44252453730769
1752.3336,-7.447616777873918
1754.0325,-11.0750956748725
1755.7307,-1.7742120400234853
1757.4281,45.255893955134525
1759.1247,36.166099863450654
1760.8206,60.70728278522256
1762.5158,81.58031945909352
1764.2102,52.93608601665255
1765.9039,85.0754577736916
1767.5968,85.9493095166381
1769.289,80.45851518116979
1770.9804,83.303947843473
1772.6711,112.23647977515247
1774.361,117.10698241479076
1776.0502,108.66632607860447
1777.7386,80.01537991173973
1779.4263,109.80501197271406
1781.1132,141.98608951989263
1782.7994,141.6094787136044
1784.4849,174.42604429432868
1786.1696,144.48664958644986
1787.8535,138.74215617010123
1789.5367,171.04342418055603
1791.2192,191.19131236565772
1792.9009,157.48667776283037
1794.5818,186.68037549758992
1796.2621,175.07325912059605
1797.9415,195.21618031570506
1799.6202,180.75998901604908
1801.2982,160.30553320259423
1802.9755,232.70365904871323
1804.6519,239.15521112472015
1806.3277,193.16103167391157
1808.0027,200.42196054803026
1809.6769,239.73883566721452
1811.3504,207.16249294738918
1813.0231,239.0437659070958
1814.6951,238.88348599325582
1816.3664,288.6824822623512
1818.0369,249.44158138203966
1819.7067,296.2616071331595
1821.3757,319.0933808021291
1823.044,322.78772071276944
1824.7115,311.995441997964
1826.3783,293.6173565627305
1828.0443,310.6042731921316
1829.7096,318.80699773506785
1831.3741,320.4763329344005
1833.0379,317.51307834492945
1834.701,305.66803031669406
1836.3633,338.74198202461594
1838.0248,330.93572358693746
1839.6856,318.7000417344898
1841.3457,367.43571988874464
1843.005,352.4435382841857
1844.6636,380.374273480953
1846.3214,391.7286985147548
1847.9785,426.6575826175558
1849.6349,444.4116911040419
1851.2904,418.591785022325
1852.9453,410.24862097639743
1854.5994,407.9829513843397
1856.2528,457.74552456175115
1857.9054,462.73708474440537
1859.5572,497.35837159061157
1861.2083,475.5101201313191
1862.8587,520.143060423894
1864.5084,521.5079177706011
1866.1572,545.255412272294
1867.8054,492.73625881474436
1869.4528,526.4511668311679
1871.0994,520.7008408274196
1872.7453,527.8359800448579
1874.3905,512.1572785178269
1876.0349,519.7654250023133
1877.6786,550.1111031327309
1879.3215,556.4949913458513
1880.9637,549.0177625773304
1882.6051,583.8300841978798
1884.2458,583.8326180880231
1885.8858,541.2260202899961
1887.525,566.560941007705
1889.1634,551.4880250327933
1890.8011,543.0079114913078
1892.4381,537.7712339944119
1894.0743,588.3786207232006
1895.7098,588.4306944810669
1897.3446,559.0280721876188
1898.9786,562.071364878173
1900.6118,603.561177997768
1902.2443,548.848111370733
1903.8761,574.8827587857922
1905.5071,529.2657085431929
1907.1374,530.497543194364
1908.7669,528.2288399980771
1910.3957,547.9101709081351
1912.0237,517.4921025960539
1913.651,538.1251962542483
1915.2776,517.1600079002274
1916.9034,505.0970881702451
1918.5285,503.28698252896174
1920.1528,482.03023139006837
1921.7764,482.827370134386
1923.3992,483.4289293224465
1925.0213,460.08543468650896
1926.6427,439.5474071245426
1928.2633,427.5653629336739
1929.8832,473.68981401555357
1931.5023,458.67126799618745
1933.1207,473.11022776468235
1934.7383,477.60719162343594
1936.3552,456.76265314375087
1937.9714,461.17710112085297
1939.5868,449.55101978235325
1941.2015,411.8848887440963
1942.8154,406.12918312641705
1944.4286,388.0343739308082
1946.041,373.8509280974831
1947.6528,351.22930868631556
1949.2637,369.56997501867227
1950.8739,348.87338290364096
1952.4834,385.78998445460456
1954.0921,366.37022829621856
1955.7001,340.1645591952529
1957.3074,347.7734182547774
1958.9139,307.2472431762144
1960.5197,331.28646818326706
1962.1247,333.89152442717386
1963.729,325.76283974630314
1965.3325,321.5508386401234
1966.9353,291.105942350463
1968.5374,291.52856890366274
1970.1387,301.1191334149935
1971.7393,264.37804808445253
1973.3392,271.60572210084683
1974.9383,276.8025620092103
1976.5366,258.6189716385179
1978.1342,277.30535204972875
1979.7311,267.61210171761013
1981.3273,270.5396163438854
1982.9227,238.88828895416373
1984.5173,269.15850986865735
1986.1112,245.40066701870455
1987.7044,257.01514564406716
1989.2968,262.60232853050366
1990.8885,250.06259589363071
1992.4795,247.34632532304022
1994.0697,260.30389190770074
1995.6592,234.4356682631369
1997.2479,237.79202440183508
1998.8359,237.72332799193646
2000.4232,236.57994432365376
2002.0097,218.76223630998356
2003.5955,221.92056449811935
2005.1805,243.30528724763826
2006.7648,261.366760698922
2008.3484,230.3053385592957
2009.9312,285.2213719224219
2011.5133,231.16520957891407
2013.0946,219.08719746717543
2014.6752,234.0376792139632
2016.2551,239.41699625516958
2017.8342,223.0254876862964
2019.4126,222.96349020869457
2020.9902,221.9313382934506
2022.5672,215.9293641820277
2024.1433,225.95789789657283
2025.7188,194.6172672999528
2027.2935,209.25779799544944
2028.8674,210.6798136401685
2030.4406,215.0336357986489
2032.0131,159.26958392863162
2033.5849,176.0379753375273
2035.1559,197.5391257400588
2036.7261,186.62334909056972
2038.2957,192.59095736801737
2039.8645,198.69226068513035
2041.4325,216.9775672287342
2042.9998,211.99718319874046
2044.5664,213.15141262528687
2046.1323,201.390557418541
2047.6974,189.31491735716372
2049.2617,207.32479020590927
2050.8254,192.22047183638279
2052.3883,236.10225604695097
2053.9504,203.6704347137802
2055.5118,208.5752973520148
2057.0725,194.66713144009918
2058.6325,203.89622237072854
2060.1917,184.26285358993573
2061.7502,190.16730650479712
2063.3079,180.50986067976373
2064.8649,202.140793777623
2066.4212,205.91038165606096
2067.9767,195.7688981513602
2069.5315,169.41661504069907
2071.0856,168.20380214357192
2072.6389,169.78072758531198
2074.1915,148.84765780922226
2075.7433,138.0048575607998
2077.2945,129.8025900970706
2078.8448,106.04111729501074
2080.3945,132.3206997335701
2081.9434,157.99159693129332
2083.4916,163.90406708351475
2085.039,121.65836680565644
2086.5857,135.8547510741064
2088.1317,145.59347364867335
2089.677,157.67478693061912
2091.2215,132.09894186528072
2092.7652,151.36618782124515
2094.3083,154.62677284612073
2095.8506,153.08094347385122
2097.3921,186.37894469211824
2098.933,161.5710199577925
2100.4731,171.257410863961
2102.0124,195.13835738800208
2103.5511,187.5640977947278
2105.089,187.38486839757115
2106.6261,195.5009036343272
2108.1626,183.36243606894277
2109.6983,187.41969631035954
2111.2332,200.6229131338987
2112.7675,177.32231344068623
2114.301,178.96812212561235
2115.8337,178.56056231034927
2117.3657,190.1498553268857
2118.897,214.48622072161288
2120.4276,200.56987613942147
2121.9575,161.20103708034003
2123.4866,195.72991703869775
2125.0149,196.35672789681848
2126.5426,185.48167957972873
2128.0695,200.75498004889687
2129.5956,183.6268354109725
2131.1211,205.64744976506609
2132.6458,207.06702537402361
2134.1698,200.08576244421965
2135.693,216.45385911135872
2137.2155,190.2215115102881
2138.7373,214.2889136113199
2140.2584,212.75625748255152
2141.7787,203.92373304919874
2143.2983,182.7915281089181
2144.8171,162.059828420126
2146.3353,173.57881791333148
2147.8527,166.0486788984408
2149.3693,188.81959194957835
2150.8853,173.5917359803807
2152.4005,176.7652880162932
2153.9149,165.64042334684746
2155.4287,165.41731549392625
2156.9417,192.6461363230119
2158.454,167.37705604541497
2159.9655,190.01024294598392
2161.4764,177.24586363579783
2162.9865,170.13408282583987
2164.4958,179.0250634546337
2166.0045,153.06896675936787
2167.5124,174.91595218698512
2169.0195,200.26617765374067
2170.526,186.86979932673785
2172.0317,183.42697137042342
2173.5367,183.93784608054466
2175.0409,204.15257391858358
2176.5445,195.3713035066421
2178.0473,183.54418142530267
2179.5494,183.57135230143558
2181.0507,181.50295892647318
2182.5513,164.0391422561388
2184.0512,187.63004143112812
2185.5504,176.92579395174562
2187.0488,172.17653544199584
2188.5465,157.33239975662855
2190.0435,147.54351902862527
2191.5397,161.3600238176532
2193.0353,157.4820432079432
2194.5301,140.1597046701272
2196.0241,146.44313410001723
2197.5175,142.83245599183192
2199.0101,129.92779337536285
2200.502,142.4792678520762
2201.9931,130.68699972416016
2203.4835,119.40110786901641
2204.9733,130.22170985717366
2206.4622,137.5489220651516
2207.9505,129.38285956725304
2209.438,85.07363606229683
2210.9248,109.57136395527414
2212.4109,101.62615480044133
2213.8962,99.43811905634175
2215.3809,94.70736616526028
2216.8648,114.43400457510143
2218.3479,94.61814178669647
2219.8304,102.10988415653992
2221.3121,91.00933709494893
2222.7931,93.36660499113714
2224.2733,72.28179132422974
2225.7529,94.10499863968198
2227.2317,98.6863287601409
2228.7098,86.875882567203
2230.1872,73.92375995560724
2231.6638,106.28005995133572
2233.1397,83.59488084113309
2234.6149,81.71831984895107
2236.0894,77.30047336279677
2237.5632,79.54143695350103
2239.0362,65.09130541888771
2240.5085,53.60017276137751
2241.9801,54.418132332481036
2243.4509,74.84527694770804
2244.921,64.78169887839067
2246.3904,64.52748964741295
2247.8591,59.78274012984366
2249.3271,54.44754055548037
2250.7943,52.22198055629269
2252.2608,42.75614921977831
2253.7266,68.05013511121433
2255.1917,76.80402636831786
2256.656,54.16791044830916
2258.1197,54.29187404037384
2259.5826,42.576003292025234
2261.0447,59.770383807862345
2262.5062,34.125100766726064
2263.9669,46.74023874975501
2265.4269,46.165881996835196
2266.8862,61.152114280448586
2268.3448,65.84901891141999
2269.8026,65.15667858905636
2271.2598,62.27517535417337
2272.7162,54.55459059602708
2274.1719,71.39500508112178
2275.6268,73.29649903042446
2277.0811,78.00915195094967
2278.5346,69.88304261675057
2279.9874,83.31824902179324
2281.4395,84.16484846121693
2282.8908,60.72291739698176
2284.3414,83.24253144939667
2285.7914,85.52376563154667
2287.2406,64.71669412409392
2288.689,84.57139025246215
2290.1368,79.38792669491704
2291.5838,74.86637528401297
2293.0302,83.65680705842806
2294.4758,71.00929230817928
2295.9206,80.92390048672041
2297.3648,66.75070033741031
2298.8082,92.13975979437237
2300.251,91.09114612423127
2301.693,77.15492567221008
2303.1343,81.23116387262326
2304.5748,75.01992538822833
2306.0147,63.021274069470564
2307.4538,78.93527301659742
2308.8922,73.51198469965038
2310.3299,95.20147079931576
2311.7669,78.25379226115638
2313.2031,75.61900907872405
2314.6387,85.29718046303606
2316.0735,78.08836486892233
2317.5076,57.34261989823972
2318.941,83.81000237195622
2320.3737,63.09056853762195
2321.8056,83.13437380468167
2323.2369,67.54147295167513
2324.6674,81.76191992580516
2326.0972,87.49576799886017
2327.5263,64.29306962501323
2328.9547,72.9538763834853
2330.3823,65.0282392105637
2331.8092,66.9162083129977
2333.2355,74.76783324725602
2334.661,84.48316290064486
2336.0858,70.8122454127988
2337.5098,87.95512807851264
2338.9332,82.41185748446242
2340.3558,76.38247933777347
2341.7778,65.81703852145165
2343.199,69.96557915468657
2344.6195,64.428144698496
2346.0393,97.55477791424528
2347.4583,87.74552091901933
2348.8767,77.80041485435595
2350.2943,103.71949998433865
2351.7113,96.60281579504954
2353.1275,99.85040073537584
2354.543,105.21229228817901
2355.9578,100.488526937821
2357.3718,97.82914011654611
2358.7852,68.83416625172231
2360.1978,66.10363879242414
2361.6098,91.58759049937908
2363.021,73.23605347228204
2364.4315,84.34905889495349
2365.8413,93.42663721886038
2367.2504,78.16881805197318
2368.6587,97.22563006799692
2370.0664,81.84710115896223
2371.4733,61.68325824464682
2372.8795,81.13412742635819
2374.285,60.54973418856389
2375.6899,59.63010320439844
2377.0939,49.47525854150081
2378.4973,60.935223671210224
2379.9,49.060021570111985
2381.3019,58.499674605439395
2382.7032,52.30420465382531
2384.1037,79.77363300690786
2385.5035,73.70798043328477
2386.9027,59.65726690382098
2388.3011,67.92151165230325
2389.6987,60.6007333159464
2391.0957,55.19494985275469
2392.492,57.05417861472688
2393.8876,43.67843640191131
2395.2824,40.517739443819664
2396.6765,49.62210353318187
2398.07,42.19154405754898
2399.4627,35.026075908256644
2400.8547,51.17571355472546
2402.246,50.34047111611608
2403.6366,12.320362199834562
2405.0265,25.01539990988158
2406.4156,36.82559722705673
2407.8041,20.650966882009016
2409.1918,25.591521237129655
2410.5789,13.597272448302192
2411.9652,30.718232415497823
2413.3508,9.954412902715376
2414.7358,36.00582536677348
2416.12,22.922481164947385
2417.5035,36.75439129445749
2418.8863,24.951566523300244
2420.2684,12.164017251929636
2421.6497,1.7417536312850643
2423.0304,16.13478569066683
2424.4104,20.243106059255297
2425.7896,14.116707204883369
2427.1682,12.505581392953445
2428.546,16.20972074770225
2429.9232,9.529117268314621
2431.2996,28.1137627918788
2432.6753,13.11364906019162
2434.0503,25.32876753391247
2435.4246,26.909109542564238
2436.7982,17.704666162385365
2438.1711,10.91542820052291
2439.5433,27.591386287079786
2440.9148,18.63253094300353
2442.2856,6.688852413331006
2443.6557,-7.389659243224287
2445.025,8.796985965162548
2446.3937,2.898851853011365
2447.7617,0.4160021468724153
2449.1289,15.148500544310082
2450.4955,14.246406587024467
2451.8613,15.709779665231963
2453.2265,7.4386790266889875
2454.5909,30.13316376205512
2455.9546,28.89329288760564
2457.3177,7.319125118284319
2458.68,16.910718880104014
2460.0416,33.968132525887995
2461.4025,30.741424239352
2462.7627,25.13065186453332
2464.1222,27.98587293805349
2465.4811,16.557144745230744
2466.8392,19.244524291525977
2468.1966,29.648068416827755
2469.5533,28.41783376858166
2470.9093,52.65387669775464
2472.2645,42.806253271136484
2473.6191,47.47501902898057
2474.973,41.26022908347977
2476.3262,32.46193807207783
2477.6787,43.9802002196152
2479.0305,43.365069426315586
2480.3816,26.36659915259952
2481.7319,40.93484242523982
2483.0816,28.41985200734507
2484.4306,27.571680252676288
2485.7789,23.290379230798408
2487.1264,21.476000735558046
2488.4733,22.478596327902324
2489.8195,20.89821735401847
2491.165,26.83491493531028
2492.5097,28.93873998420213
2493.8538,22.459743144769618
2495.1972,10.44797477170323
2496.5398,10.853484995097006
2497.8818,15.426323840566965
2499.2231,11.26654122519767
2500.5637,9.124186911808465
2501.9035,28.549310550552946
2503.2427,1.5919617003446547
2504.5812,5.95218963460411
2505.919,14.030043610832308
2507.256,20.37557282701073
2508.5924,14.688826340819105
2509.9281,16.669853006183075
2511.2631,24.0687015301437
2512.5974,18.73542045304339
2513.9309,14.670058074537792
2515.2638,-0.9773374930682621
2516.596,21.943281715829926
2517.9275,25.681963676612213
2519.2583,12.738756145226944
2520.5884,19.563706620803714
2521.9178,11.106862475087837
2523.2465,14.218270884188314
2524.5745,-3.3520210868518916
2525.9018,-2.1539665151776717
2527.2284,13.512481555590966
2528.5543,14.797370103372941
2529.8796,7.400745970960543
2531.2041,11.57265585317964
2532.5279,21.863146370846607
2533.851,15.622264029056623
2535.1735,16.000055114272982
2536.4952,16.8965657567378
2537.8163,37.51184192669507
2539.1366,20.745929425424947
2540.4562,46.44887367909223
2541.7752,40.170719906404884
2543.0935,41.86151286158292
2544.411,47.17129689714284
2545.7279,41.850115946984715
2547.0441,45.14801347329876
2548.3596,45.21503251977265
2549.6744,61.15121567861479
2550.9885,47.456605089883396
2552.3019,45.88124228212564
2553.6146,53.52516830932336
2554.9266,61.738423766647884
2556.2379,45.52104871401889
2557.5485,66.97308259397414
2558.8585,63.844564393840756
2560.1677,76.68553243121778
2561.4762,68.8960243852589
2562.7841,75.8760771682646
2564.0913,62.57572700357696
2565.3977,71.84500935577762
2566.7035,58.9839590636916
2568.0086,73.84261024769512
2569.313,73.32099643832817
2570.6167,81.01915042770315
2571.9197,83.63710427472733
2573.222,86.32488922811535
2574.5236,95.7325357002128
2575.8246,91.86007324011734
2577.1248,93.05753043960294
2578.4244,104.8249349718426
2579.7232,106.56231357943534
2581.0214,94.71969195673046
2582.3189,119.64709473245512
2583.6157,106.59454558814014
2584.9118,117.46206700884704
2586.2072,108.94968041369384
2587.5019,116.70740604717594
2588.7959,106.78526306429603
2590.0893,117.33326945298086
2591.3819,127.95144213330695
2592.6739,118.98979685201903
2593.9652,127.7483480763508
2595.2557,121.62710908363715
2596.5456,118.52609187373264
2597.8348,124.44530723022308
2599.1234,120.23476475143389
2600.4112,130.34447279124015
2601.6983,114.27443850116833
2602.9848,123.37466772930247
2604.2705,119.64516518098162
2605.5556,114.78593432780008
2606.84,135.19697744490122
2608.1237,120.42829565957118
2609.4067,121.82988874712692
2610.689,121.3517552786011
2611.9707,112.5938926067297
2613.2516,116.25629687073342
2614.5319,115.5889630838933
2615.8115,105.2918850969304
2617.0903,110.31505560467576
2618.3685,103.85846624904252
2619.6461,113.0221075687964
2620.9229,111.80596906411711
2622.199,96.0600391049652
2623.4745,106.48430494324134
2624.7493,97.72875287024908
2626.0234,100.44336811245103
2627.2968,106.42813491902302
2628.5695,103.23303653470794
2629.8415,90.6580551399677
2631.1128,97.65317188293534
2632.3835,95.01836700516583
2633.6535,94.70361977168182
2634.9228,93.65890849732409
2636.1914,95.93421054989994
2637.4593,94.77950236062702
2638.7265,94.94475940138182
2639.9931,93.6299561962469
2641.259,98.18506631985883
2642.5242,113.36006241055452
2643.7887,91.30491612482069
2645.0525,105.16959798554603
2646.3156,96.80407760256935
2647.5781,83.35832353403612
2648.8398,115.48230337005066
2650.1009,84.0759838671363
2651.3613,100.83933062699339
2652.6211,101.37230841056385
2653.8801,94.62488097039773
2655.1385,93.44701104532419
2656.3961,100.58866042792442
2657.6531,97.89978997631124
2658.9094,86.03035954270968
2660.1651,95.98032800034889
2661.42,102.44965336215364
2662.6743,101.18829268124682
2663.9279,101.54620198625412
2665.1808,101.27333629392024
2666.433,109.26964960552868
2667.6846,110.3850949096311
2668.9354,112.01962410208375
2670.1856,111.07318797489233
2671.4351,137.19573619986704
2672.6839,129.63721733808734
2673.9321,133.2475785786769
2675.1795,123.22676581438645
2676.4263,118.02472360549154
2677.6724,119.24139528000137
2678.9179,129.92672298567868
2680.1626,132.78064767787373
2681.4067,140.50310901267153
2682.6501,122.09404531835207
2683.8928,138.70339351816574
2685.1348,125.03108931442284
2686.3761,113.62706702240234
2687.6168,115.2412597070736
2688.8568,125.7235992971348
2690.0961,113.37401656887232
2691.3348,118.89244104133786
2692.5727,112.42880109984344
2693.81,106.83302394077896
2695.0466,100.80503563624598
2696.2826,111.49476119001702
2697.5178,125.5521245978166
2698.7524,110.82704874042042
2699.9863,125.26945524308348
2701.2195,107.97926462279088
2702.452,118.75639614383363
2703.6839,115.40076799071062
2704.9151,127.7122971603585
2706.1456,119.09089949570671
2707.3755,124.98648956256193
2708.6046,145.0489807358233
2709.8331,136.77828514052658
2711.0609,137.22431345121709
2712.2881,135.28697497466032
2713.5145,141.36617764537846
2714.7403,158.4618280450261
2715.9654,168.87383134159472
2717.1899,156.10209111846007
2718.4136,174.79650927025864
2719.6367,180.90698613060772
2720.8591,181.28342028515954
2722.0809,188.82570851049695
2723.3019,190.48374577036907
2724.5223,205.55742514026883
2725.7421,202.8966377908539
2726.9611,211.151272837207
2728.1795,201.62121736544623
2729.3972,185.2563563501776
2730.6142,189.55657274979512
2731.8306,166.8217476701302
2733.0462,162.5517603214496
2734.2612,142.99648824580322
2735.4756,138.0058073597247
2736.6892,123.67959214978396
2737.9022,122.41771572249445
2739.1145,114.77004994757317
2740.3262,100.43646547056164
2741.5372,102.91683178930043
2742.7475,88.96101739726623
2743.9571,76.51888975876841
2745.1661,73.44031544850668
2746.3744,73.07516027599331
2747.582,65.07328931633788
2748.7889,50.88456691389956
2749.9952,41.80885676230446
2751.2008,39.596022046333246
2752.4057,37.99592553267871
2753.61,38.608429592073435
2754.8136,35.38339621529076
2756.0165,25.02068700702125
2757.2188,25.62016321812257
2758.4204,36.88168584924506
2759.6213,28.555115644838907
2760.8215,23.39031298053692
2762.0211,23.237137946421626
2763.22,30.595450398673847
2764.4182,22.565109961103417
2765.6158,31.145975951566015
2766.8127,13.237907462267458
2768.009,12.990763273953235
2769.2045,22.904402034990426
2770.3994,7.5786822638388
2771.5936,-8.386537750085381
2772.7872,8.108600206848905
2773.9801,-3.7359618702171247
2775.1723,-6.4202820672276175
2776.3639,0.7556188521325566
2777.5548,-8.90821573720541
2778.745,-14.961742467864497
2779.9346,-4.154828979393869
2781.1235,-9.637193443535352
2782.3117,2.5414874747095837
2783.4992,-11.868366614098704
2784.6861,-14.816336124813688
2785.8723,4.5481170926921095
2787.0579,1.9256792037440391
2788.2428,-5.8829636718141955
2789.427,-7.977125433393894
2790.6106,11.643938790399261
2791.7935,-8.218946437557634
2792.9757,10.635043329173186
2794.1573,0.05681464430381311
2795.3382,19.097273955197124
2796.5184,17.407327141637552
2797.698,28.787879892436877
2798.8769,22.789837722336415
2800.0551,51.16410585819881
2801.2327,47.0115892989902
2802.4096,51.133192532036446
2803.5859,49.42981957454731
2804.7615,55.402373932399996
2805.9364,71.80175861717521
2807.1106,100.77887608643118
2808.2842,109.13462807971177
2809.4572,131.2699153287747
2810.6294,153.035637474032
2811.801,181.88269284319563
2812.972,195.21197823362195
2814.1423,232.6243886238401
2815.3119,256.5708170402604
2816.4808,293.2021541830509
2817.6491,325.7192881866722
2818.8167,356.67310425356345
2819.9837,382.7644843289713
2821.15,427.8943067914124
2822.3157,455.91344619175993
2823.4807,507.8227728019433
2824.645,537.7231523347582
2825.8086,566.2654454247727
2826.9716,623.1005073293243
2828.134,651.8791876430955
2829.2957,689.2023297297653
2830.4567,710.9207704342211
2831.617,734.1353397093274
2832.7767,742.8468603987419
2833.9358,726.0561480047697
2835.0941,730.1640106012471
2836.2519,715.6212490014502
2837.4089,711.5286567170149
2838.5653,691.0870201033663
2839.7211,678.1971184006418
2840.8761,676.3097239381107
2842.0306,683.275602263072
2843.1843,692.2955121597272
2844.3374,715.4202055795229
2845.4899,760.7504275509505
2846.6417,779.0369159483016
2847.7928,830.480401038363
2848.9433,871.9816052975534
2850.0931,926.391242897487
2851.2422,966.0100192899629
2852.3907,1012.7886306628695
2853.5385,1050.9777635439941
2854.6857,1081.67809433324
2855.8323,1109.2402889207337
2856.9781,1137.71500237982
2858.1233,1181.0028786914434
2859.2679,1213.9045504593973
2860.4118,1253.9706384774474
2861.555,1270.0517514003159
2862.6976,1305.7984853430178
2863.8395,1345.0114237200514
2864.9808,1349.2411368879307
2866.1214,1371.6381817530562
2867.2614,1385.6531017294164
2868.4007,1380.3864265146196
2869.5393,1380.688671949743
2870.6773,1407.4103400719994
2871.8146,1408.0519191117162
2872.9513,1405.0638832251182
2874.0874,1410.1966924879112
2875.2227,1397.7507929251626
2876.3574,1378.1266164599722
2877.4915,1367.374581037933
2878.6249,1349.4450908233712
2879.7577,1327.9885363068681
2880.8898,1308.9552944845536
2882.0212,1304.5957290726733
2883.152,1300.3101906979202
2884.2821,1297.94901694103
2885.4116,1281.4125323796368
2886.5405,1284.751048611885
2887.6686,1297.114864421795
2888.7962,1290.5542657458755
2889.923,1302.5695255494884
2891.0493,1297.8609038924535
2892.1748,1302.528647808895
2893.2997,1309.1729913543284
2894.424,1319.1941555589847
2895.5476,1338.1923483613646
2896.6706,1351.1177645080281
2897.7929,1371.0705853636118
2898.9145,1389.5009787815757
2900.0355,1398.659098904675
2901.1559,1421.8450859806549
2902.2756,1436.5090662706727
2903.3946,1459.1011518174348
2904.513,1477.3214402985566
2905.6308,1501.1200148006453
2906.7479,1509.3969436370921
2907.8643,1525.4522801100902
2908.9801,1537.9360624278638
2910.0953,1529.4983135441132
2911.2098,1534.3390410331785
2912.3236,1525.7582371744181
2913.4368,1541.5058789038
2914.5494,1520.0819278997105
2915.6613,1486.5863304254772
2916.7725,1463.819017543611
2917.8831,1458.6799054507576
2918.9931,1434.0188957053756
2920.1024,1419.9858752791238
2921.211,1393.6807168034736
2922.319,1383.9532787100384
2923.4264,1371.5534054936245
2924.5331,1375.6309278095073
2925.6391,1360.3856625974283
2926.7445,1364.5674130408206
2927.8493,1359.6259687192628
2928.9534,1373.0611055666584
2930.0569,1371.6725859206526
2931.1597,1389.4101583882791
2932.2619,1380.573557859847
2933.3634,1384.212505331563
2934.4643,1377.8767079938998
2935.5645,1382.4658591952045
2936.6641,1369.7296385050581
2937.763,1357.517711668384
2938.8613,1332.4797307328085
2939.959,1305.9653341707824
2941.056,1246.5241471299573
2942.1523,1204.7557816983326
2943.248,1163.0598374986666
2944.3431,1095.0359021061593
2945.4375,1029.133551465414
2946.5313,954.3523505706758
2947.6244,885.6918541248535
2948.7169,824.3516072873335
2949.8087,773.131146360584
2950.8999,696.9799994035578
2951.9904,645.9976867438968
2953.0803,590.233721739442
2954.1696,558.9376112880593
2955.2582,512.5088563852773
2956.3462,486.3469524372499
2957.4335,465.85138972504126
2958.5202,442.4716536662477
2959.6062,433.85722501995156
2960.6916,408.05758012051865
2961.7764,400.7721909637445
2962.8605,389.0005254648481
2963.9439,374.2420475313286
2965.0267,375.34621718067933
2966.1089,364.41249068797424
2967.1905,375.89032057482564
2968.2714,374.0291557187211
2969.3516,364.9284412382457
2970.4312,368.5876185116932
2971.5102,380.15612526807377
2972.5885,377.3833955505213
2973.6662,384.66885960060836
2974.7432,390.96194388607455
2975.8196,386.56207102797055
2976.8954,398.96865973773015
2977.9705,372.33112486116545
2979.045,383.4988772544027
2980.1188,373.9713240502567
2981.192,352.09786854655476
2982.2645,351.17791030141143
2983.3364,334.56084535196146
2984.4077,329.49606622356225
2985.4783,303.7829620959624
2986.5483,284.9209188539502
2987.6177,266.5593193444845
2988.6864,246.04754356531612
2989.7545,228.23496884860288
2990.8219,206.62097006602755
2991.8887,191.50491980692357
2992.9548,167.23618859441547
2994.0204,150.96414503657888
2995.0852,127.58815606912799
2996.1495,111.40758711813544
2997.2131,100.57180233379268
2998.276,81.73016475221664
2999.3383,71.58203640380589
3000.4,55.52677850165787
3001.4611,49.61375154304949
3002.5215,40.442315469990035
3003.5812,28.011829728351245
3004.6404,16.571653359582342
3005.6989,12.671145125014391
3006.7567,18.759663620261676
3007.8139,0.2365673142281821
3008.8705,9.051214488221376
3009.9264,-6.397036578816028
3010.9818,2.191172301546885
3012.0364,-8.384736775863985
3013.0905,-9.075341738133943
3014.1439,-4.531136748827862
3015.1966,-0.20252530884704356
3016.2487,-8.189865653036804
3017.3002,-4.99351399301554
3018.3511,-2.013744723644095
3019.4013,-8.600782354578769
3020.4509,-12.954831278166125
3021.4998,3.2739900350634343
3022.5481,-3.9143074666573057
3023.5958,-0.8697128678352328
3024.6428,-0.2421761490454628
3025.6892,1.818361397567969
3026.735,6.6119608991995165
3027.7802,11.638683464861174
3028.8247,11.698590137445308
3029.8685,10.391741843458135
3030.9118,13.868199392420365
3031.9544,21.528023489935663
3032.9963,24.971274702926166
3034.0376,28.84801338303396
3035.0783,38.358299632188164
3036.1184,34.75219326383717
3037.1578,39.87975370784545
3038.1966,48.74104004655658
3039.2348,48.18611096351617
3040.2723,47.565024654859826
3041.3092,56.877838834861905
3042.3455,52.17461074214634
3043.3811,62.75539704655898
3044.4161,49.62025389619987
3045.4505,54.06923681161447
3046.4842,58.40240081714671
3047.5173,55.91980039644852
3048.5498,52.0714894491482
3049.5816,61.10752131567551
3050.6128,57.57794881574671
3051.6434,56.53282415800322
3052.6734,61.32219897530695
3053.7027,59.99612433519212
3054.7314,54.304650691971005
3055.7594,47.09782789999508
3056.7868,53.32570527056987
3057.8136,55.53833164402272
3058.8398,52.485755327424044
3059.8653,51.71802407246105
3060.8902,54.885185105963956
3061.9145,66.53728513758267
3062.9381,60.374370328116015
3063.9612,56.39648617298985
3064.9835,60.203677563886686
3066.0053,57.19598882852438
3067.0264,62.273463692583846
3068.0469,51.186145309786525
3069.0668,54.08407621111951
3070.086,53.01729841570909
3071.1046,53.58585340184072
3072.1226,50.2897821176274
3073.1399,42.329124975323964
3074.1567,38.10392188428784
3075.1727,39.11421233058553
3076.1882,34.710035419244434
3077.203,33.391429864150155
3078.2173,31.958434032088064
3079.2308,33.211085955929434
3080.2438,27.049423348961398
3081.2561,24.923483592360867
3082.2678,27.08330379681064
3083.2789,14.128920823758733
3084.2893,17.810371263820343
3085.2991,16.327691566321732
3086.3083,14.280918002485521
3087.3169,14.720086680257396
3088.3248,7.045233564774435
3089.3321,12.706394473972694
3090.3388,10.253605155336345
3091.3449,-0.46309877071399796
3092.3503,3.2563182137065496
3093.3551,0.26189625283927853
3094.3593,4.353675458362488
3095.3629,5.381695939335771
3096.3658,8.045997761281853
3097.3681,6.546620935907129
3098.3698,3.8336053944580044
3099.3708,3.056991002715222
3100.3713,8.716817588123433
3101.3711,8.463124947557446
3102.3702,4.545952790724357
3103.3688,7.465340742699993
3104.3667,3.9213283831012404
3105.364,5.713955216891975
3106.3607,-2.5567392901769495
3107.3568,1.5092842705061003
3108.3522,-1.287909150622454
3109.347,-2.348254618218391
3110.3412,2.078325669274477
3111.3348,7.04193297247582
3112.3277,2.9426685312224095
3113.32,3.830633514931776
3114.3117,10.25592906359509
3115.3028,6.568656278897436
3116.2932,2.168916159964624
3117.2831,2.5068096402363835
3118.2723,0.5324376314634947
3119.2608,2.8459010203288244
3120.2488,0.3473006881912397
3121.2361,7.236737487950904
3122.2229,-1.0356877309649235
3123.209,9.68012580850393
3124.1944,9.03428922993794
3125.1793,6.02691356011627
3126.1635,15.458109735475432
3127.1471,11.327988632182837
3128.1301,9.136660971825052
3129.1125,4.834237362708791
3130.0942,8.570828321774343
3131.0753,17.446544317619498
3132.0558,14.111495733134177
3133.0357,17.81579277674308
3134.015,14.559545515756213
3134.9936,13.59286383932556
3135.9716,14.71585749100791
3136.949,15.278636078431646
3137.9258,10.73130906206677
3138.902,19.97398574959726
3139.8775,19.056775341393916
3140.8524,15.229786838087875
3141.8267,17.94312904974305
3142.8004,20.946910634125175
3143.7735,25.191240069569233
3144.7459,24.126225624941128
3145.7178,23.401975317194683
3146.689,25.01859692202146
3147.6596,26.076197981093685
3148.6295,30.874885785897675
3149.5989,29.7647673671579
3150.5676,26.34594944685
3151.5357,27.968538449302002
3152.5032,28.68264053538263
3153.4701,31.18836158627505
3154.4364,29.23580719633668
3155.402,31.925082648041098
3156.367,33.306292931504004
3157.3315,35.32954271759027
3158.2952,31.644936344101836
3159.2584,28.602577795545415
3160.221,34.152570739977904
3161.1829,28.745018559431514
3162.1442,30.380024294412067
3163.105,31.90769069797534
3164.065,29.778120219377058
3165.0245,35.49141498879629
3165.9834,36.84767683863117
3166.9416,38.4970072463658
3167.8993,41.53950732100748
3168.8563,40.67527778659377
3169.8127,42.00441895176721
3170.7684,39.17703071841768
3171.7236,42.94321256839112
3172.6782,46.003063591763095
3173.6321,46.156682449177254
3174.5854,43.104167341246466
3175.5381,45.0456160070172
3176.4902,40.88112575449432
3177.4417,43.860793441226605
3178.3926,46.63471551595168
3179.3428,50.70298798879929
3180.2924,48.965706403552275
3181.2415,46.67296579696347
3182.1899,41.07486071612885
3183.1377,54.17148524141493
3184.0848,53.112933042439664
3185.0314,51.39929724710632
3185.9773,53.48067045218892
3186.9227,53.307144740468516
3187.8674,57.07881165991944
3188.8115,63.49576222544488
3189.755,60.00808688115987
3190.6979,58.76587543622199
3191.6402,64.219217099708
3192.5818,59.61820049303603
3193.5229,64.26291359543211
3194.4633,68.40344378994044
3195.4031,59.089877816976156
3196.3423,68.82230173292012
3197.2809,65.40080100325434
3198.2189,63.47546040523798
3199.1563,68.74636406212221
3200.0931,71.81359546240373
3201.0292,62.827237407115575
3201.9648,67.93737197915505
3202.8997,69.99408063314709
3203.834,75.54744414434299
3204.7677,70.1475425880534
3205.7008,71.19445528411453
3206.6333,76.33826085088722
3207.5652,72.47903719478794
3208.4964,80.66686145885052
3209.4271,77.00181006131854
3210.3571,79.88395861376696
3211.2865,80.16338195775268
3212.2154,85.69015413599311
3213.1436,79.36434838957193
3214.0712,88.88603710267128
3214.9982,85.85529186582998
3215.9246,81.32218338072647
3216.8503,81.08678149048635
3217.7755,88.04915522501345
3218.7001,90.45937280334383
3219.624,89.91750156402217
3220.5473,95.0236079409995
3221.4701,93.02775746905196
3222.3922,91.48001473271962
3223.3137,91.18044338626507
3224.2346,91.12910616915089
3225.1549,94.57606490903525
3226.0746,92.57138052228538
3226.9937,96.56511297950799
3227.9121,98.05732132559594
3228.83,99.34806363979106
3229.7473,98.78739702076199
3230.6639,101.32537757369674
3231.5799,100.41206041590955
3232.4954,99.0474996514608
3233.4102,102.03174838029035
3234.3244,102.0648587118632
3235.238,107.29688173532686
3236.151,104.6778675191803
3237.0634,108.50786505895373
3237.9752,107.6369223033988
3238.8864,110.66508611618846
3239.797,108.89240228462651
3240.7069,112.86891548936593
3241.6163,114.14466932213574
3242.5251,115.7197062459758
3243.4332,110.5440675824793
3244.3408,115.91779349604244
3245.2477,119.04092304562076
3246.154,117.0634941309919
3247.0598,119.58554346152428
3247.9649,117.3071065759514
3248.8694,118.57821781715134
3249.7733,122.79891035493121
3250.6766,122.96921617331583
3251.5793,120.03916602834101
3252.4814,123.6087894463505
3253.3829,127.07811475329623
3254.2838,127.24716903904243
3255.1841,126.56597812267208
3256.0838,128.38456655079648
3256.9829,128.10295760436728
3257.8814,134.4211732804903
3258.7792,124.93923429524202
3259.6765,129.40716002048703
3260.5731,127.72496857869757
3261.4692,132.89267679827446
3262.3647,128.46030023036872
3263.2595,133.1278530972046
3264.1538,127.49534833640347
3265.0474,132.61279755430803
3265.9404,130.73021108230762
3266.8329,128.79759792566355
3267.7247,133.86496578233502
3268.616,130.5823210623053
3269.5066,127.24966883690799
3270.3966,124.61701287165342
3271.286,124.6843556595553
