RamanShift,CorrectedData
30.1047,6721.7987677064
32.3739,6279.489606368259
34.6426,5833.280377812129
36.9109,5380.770952025127
39.1787,4939.061140661566
41.4461,4512.550701568043
43.7131,4064.6393432005475
45.9796,3629.3767288895574
48.2456,3195.162481319154
50.5112,2756.7961868796483
52.7764,2316.5274000097265
55.0411,1887.4556475801114
57.3054,1449.5304332962505
59.5692,1022.9512419890349
61.8326,595.01754399405
64.0955,180.97879941736932
66.3579,-230.56553758510904
68.6199,-630.9660146672749
70.8815,-984.3708761332979
73.1426,-1237.1220629368618
75.4032,-1138.7016821665986
77.6634,-191.8294820617357
79.9231,2908.6361647683066
82.1824,10625.088802090631
84.4412,31648.621944585982
86.6995,57715.779000684204
88.9574,59334.40306232895
91.2148,58842.036644306056
93.4717,58357.471668057355
95.7282,57882.299466604294
97.9842,57421.36078939362
100.2398,56956.695807049065
102.4949,56498.39411598079
104.7495,56036.24474303198
107.0036,55578.2861500619
109.2573,55120.156238567346
111.5105,54660.392354262294
113.7632,54206.33129165914
116.0154,53737.759298666366
118.2672,53292.11208112914
120.5185,52837.524807515074
122.7693,52384.432113370625
125.0197,51925.668105867015
127.2696,51476.166368331156
129.519,51023.50996483327
131.7679,50564.08144468193
134.0163,50116.11284695061
136.2642,49665.33570507198
138.5117,49211.73105131759
140.7587,48774.129421305646
143.0052,48326.71085853703
145.2512,47883.45491877137
147.4967,47446.84067450113
149.7417,46999.79671938428
151.9863,46561.40117261035
154.2304,46120.08168337097
156.4739,45678.265435243695
158.717,45242.87915060531
160.9596,44801.19909504992
163.2017,44377.35108174286
165.4433,43940.21047583749
167.6844,43510.10219871364
169.925,43077.60073234905
172.1651,42653.230123620466
174.4047,42224.713988628595
176.6439,41797.82551694186
178.8825,41371.23747588156
181.1206,40948.72221479072
183.3582,40526.10166930001
185.5954,40109.99736555286
187.832,39694.230424431735
190.0681,39272.62156571909
192.3037,38856.941112255154
194.5388,38442.758994153904
196.7734,38033.99475295997
199.0075,37627.31754579035
201.2411,37218.19614942216
203.4742,36810.89896435934
205.7068,36408.49401892387
207.9389,36009.19897332877
210.1704,35606.53112370214
212.4015,35212.10740608009
214.632,34820.344400433445
216.862,34441.55833461198
219.0915,34060.61508826203
221.3205,33667.38019661434
223.549,33282.968854293526
225.777,32898.34591925041
228.0044,32516.47591660613
230.2314,32136.223042498394
232.4578,31756.501167900147
234.6837,31377.77384242214
236.909,30996.554298110117
239.1339,30599.005453232116
241.3582,30242.339916090656
243.582,29844.06998899822
245.8053,29491.80767184391
248.0281,29132.664666076096
250.2503,28764.052378225097
252.472,28397.88192349457
254.6932,28042.864129447706
256.9139,27686.659539668886
259.134,27324.07841731386
261.3536,26972.330748671782
263.5727,26620.376246791035
265.7912,26276.52435499675
268.0092,25937.134250410287
270.2267,25584.064847387774
272.4436,25249.774800914034
274.6601,24900.072510133214
276.8759,24571.616121691754
279.0913,24235.0635332354
281.3061,23898.4223966937
283.5204,23563.300121645632
285.7341,23233.153878685967
287.9473,22899.44060277647
290.16,22581.516996547398
292.3721,22263.839533634622
294.5837,21945.814461858856
296.7947,21630.597806402475
299.0052,21315.29537298972
301.2152,21002.21275103891
303.4246,20694.70531681543
305.6334,20391.27823656253
307.8418,20081.586469576483
310.0495,19772.08477124082
312.2568,19476.22769612327
314.4635,19174.369601070684
316.6696,18877.16464816768
318.8752,18579.216807755212
321.0802,18293.879861402565
323.2847,17998.557404886902
325.4887,17714.05285104664
327.692,17429.11943273463
329.8949,17144.3602056632
332.0972,16866.628051253538
334.2989,16585.525679483188
336.5001,16312.20563166347
338.7007,16035.770283250444
340.9008,15767.42184657813
343.1003,15498.112373622876
345.2992,15228.593758686853
347.4976,14968.467741091139
349.6955,14699.785907870886
351.8927,14435.649696376611
354.0895,14169.910396961008
356.2856,13927.51915562027
358.4812,13673.07697665158
360.6763,13425.034725076897
362.8707,13182.093129187466
365.0646,12930.602783024224
367.258,12691.714148807172
369.4508,12446.577559450321
371.643,12210.243220950579
373.8346,11972.711214839066
376.0257,11736.18150054451
378.2162,11513.653917768512
380.4062,11280.678188850907
382.5956,11051.853920995025
384.7844,10829.830608597447
386.9726,10613.257635536225
389.1603,10390.284277391162
391.3474,10152.309703609513
393.5339,9960.582979735751
395.7199,9758.253069791266
397.9052,9545.66883819164
400.09,9342.429051769934
402.2743,9142.682381902545
404.4579,8939.177406541632
406.641,8733.01261221253
408.8235,8538.386396048874
411.0054,8345.147067854195
413.1868,8148.942852048254
415.3675,7954.771889599324
417.5477,7765.932239986301
419.7273,7581.021883140384
421.9064,7387.78872133352
424.0848,7212.730581027412
426.2627,7034.9952148059165
428.4399,6858.3303031255855
430.6166,6675.533456093013
432.7928,6503.202215231548
434.9683,6342.484055309193
437.1432,6170.876386062002
439.3176,6012.826553801198
441.4914,5851.53184312932
443.6645,5684.6394785206285
445.8371,5525.746625934145
448.0091,5370.950394482483
450.1806,5218.4978380208995
452.3514,5066.985956695171
454.5216,4912.361698466142
456.6913,4768.721960624782
458.8603,4627.713591338521
461.0288,4493.533391087549
463.1967,4355.878114074949
465.3639,4209.99446956849
467.5306,4069.5791232771808
469.6967,3944.9786988101114
471.8622,3816.439779080596
474.0271,3677.4089075521842
476.1914,3548.4825895240647
478.3551,3424.20729352138
480.5182,3311.2794525844874
482.6807,3200.0954655116802
484.8426,3089.15169798852
487.0039,2968.944483699619
489.1647,2844.6701254381187
491.3248,2733.02489630771
493.4843,2627.755040965407
495.6432,2525.6567767380548
497.8015,2412.5762946749383
499.9592,2298.7097605688396
502.1163,2203.4533160867795
504.2728,2110.3030799087064
506.4287,2032.255148680044
508.5839,1935.3055979432029
510.7386,1834.7504829180252
512.8927,1736.9358394713563
515.0461,1656.007685122473
517.199,1575.512020021415
519.3512,1489.544827758189
521.5029,1406.0020761677224
523.6539,1333.779718189544
525.8043,1255.0736927031685
527.9541,1176.9299252503479
530.1033,1113.0443288221504
532.2519,1043.362804640361
534.3999,975.0812427963756
536.5472,914.5455229479921
538.694,854.9515150022053
540.8401,789.8450797206242
542.9856,718.9220693153693
545.1305,655.6783281001481
547.2748,601.4096931994354
549.4185,550.161995180948
551.5615,499.8750565295122
553.704,453.78320361157967
555.8458,413.7157690417516
557.987,370.99755214038305
560.1276,327.349219207259
562.2675,287.8377302765439
564.4069,249.37677516371332
566.5456,216.4771681852435
568.6837,186.14723238360602
570.8212,155.29312819433108
572.958,122.6191564421024
575.0942,99.17806657320762
577.2299,79.07138306847628
579.3648,64.19963961988105
581.4992,49.61257999621739
583.6329,33.109306611797365
585.766,4.688426251268538
587.8985,-23.45178506274533
590.0304,-61.76309814502747
592.1616,-75.99704952704633
594.2922,-90.75455872692692
596.4222,-107.78578605233633
598.5515,-124.0399851728871
600.6802,-134.16533297827846
602.8083,-139.85876719880616
604.9358,-153.46588525313564
607.0626,-166.0308873709364
609.1888,-175.39644065767789
611.3144,-188.90355357027147
613.4393,-187.79148235524917
615.5636,-191.14759611264162
617.6873,-194.10738790559844
619.8103,-194.70444123285415
621.9327,-199.62040046034235
624.0544,-192.8849648566611
626.1756,-197.47583948267857
628.2961,-206.4688024785646
630.4159,-201.58765920088626
632.5351,-201.55415238290152
634.6537,-203.6880108971891
636.7716,-206.10695009039773
638.8889,-208.67665046596812
641.0056,-205.4607335189139
643.1216,-199.2707360645436
645.237,-185.66614236545138
647.3518,-177.80444596960297
649.4659,-171.64128562020778
651.5793,-162.2805237941211
653.6922,-160.57430827175995
655.8043,-153.77316565114597
657.9159,-150.1760183929655
660.0268,-142.7817874201428
662.137,-136.23939215377322
664.2466,-138.89775058710802
666.3556,-120.70577935098845
668.4639,-110.31239368727256
670.5716,-96.06650763071957
672.6786,-91.8170341128789
674.785,-87.46288510464365
676.8907,-71.70297165867669
678.9958,-54.13620395299222
681.1002,-45.361491448529705
683.204,-35.47774306489009
685.3072,-24.733867268027097
687.4097,-8.178772169019794
689.5115,6.738634368404746
691.6127,25.369444562318677
693.7132,42.56475056342606
695.8131,37.37564426874451
697.9123,63.453217149712145
700.0109,80.5485603039997
702.1089,101.71276419480273
704.2061,120.89691847984068
706.3028,134.90211179973994
708.3987,155.82943158621492
710.4941,178.87996392197965
712.5887,201.5047933314636
714.6827,220.75500255036604
716.7761,246.3316722993477
718.8688,261.8858810915699
720.9608,279.6687049769098
723.0522,297.58121738641785
725.1429,326.5744889544658
727.233,351.8495873396605
729.3224,381.15757693492924
731.4112,401.9995186146989
733.4993,426.07646944186126
735.5867,454.5894824593197
737.6735,478.9896064491768
739.7596,505.0278856477162
741.845,537.3553595013218
743.9298,564.573062406118
746.014,593.9320233846956
748.0974,614.7832658139159
750.1802,643.8778071313573
752.2624,675.6166586267427
754.3439,704.1008251510357
756.4247,732.3813047990843
758.5048,775.8590886247621
760.5843,804.7851603581512
762.6631,838.2104959707285
764.7413,870.9860633861608
766.8188,904.9128221460123
768.8956,936.1417230820662
770.9718,976.1737079770028
773.0473,1012.6597092520533
775.1221,1049.6506495667782
777.1962,1084.0474414541459
779.2697,1118.4009869507136
781.3426,1138.512177252538
783.4147,1200.8318923717234
785.4862,1236.361000935256
787.557,1274.950359561859
789.6271,1318.0008125066379
791.6966,1355.8131912752433
793.7654,1399.8383141932936
795.8335,1442.82698602834
797.901,1482.2299975495916
799.9678,1524.7481250980345
802.0339,1570.8821301924472
804.0993,1601.4827591041176
806.1641,1657.7007423956093
808.2282,1706.2367946146333
810.2916,1747.9916137319888
812.3544,1798.2658806561012
814.4164,1845.7102588155249
816.4778,1888.9753936561756
818.5385,1936.4619121669457
820.5986,1984.8704224469984
822.658,2033.4515132309534
824.7166,2088.055753404755
826.7747,2129.333691519889
828.832,2183.785855247268
830.8886,2237.4127509645696
832.9446,2286.2148632116296
834.9999,2328.5926541542067
837.0545,2389.3965630959283
839.1085,2450.427006054546
841.1618,2500.234375153872
843.2143,2547.7190380134925
845.2662,2600.981337250756
847.3175,2662.0215900058174
849.368,2664.3900874089813
851.4179,2774.38709397037
853.467,2792.9128475562466
855.5155,2880.1175582889773
857.5633,2895.55140836192
859.6105,2929.564551167219
861.6569,3025.2571111415455
863.7027,3011.5791834259144
865.7478,3092.2308329088264
867.7922,3156.7620943630536
869.8359,3246.722971639065
871.8789,3249.7134370197455
873.9212,3316.8334303207957
875.9629,3419.1328588607794
878.0039,3473.711596789981
880.0441,3526.969484067391
882.0837,3610.8563259149014
884.1226,3661.1718922848013
886.1609,3708.9159170207786
888.1984,3760.638097354844
890.2352,3865.6380934299013
892.2714,3876.1155277824946
894.3069,3975.4199842928138
896.3416,4021.8010080799068
898.3757,4076.208104508616
900.4091,4062.740738725821
902.4418,4240.648335116326
904.4739,4256.680277437561
906.5052,4339.735907040515
908.5358,4372.614522709446
910.5658,4424.465379831228
912.595,4490.787690066631
914.6236,4397.180620831823
916.6515,4688.043294635114
918.6786,4548.6747900130285
920.7051,4703.324138621661
922.7309,4741.9903266303445
924.756,4850.672293175201
926.7804,4858.2189299724705
928.8041,4713.729080231715
930.8272,4967.551538580323
932.8495,5051.335052508446
934.8711,4968.12831983075
936.892,4853.329987848556
938.9123,5058.338654181927
940.9318,4981.402867917612
942.9506,5028.321127559015
944.9688,5158.1418817955055
946.9862,4845.063529033272
949.003,5091.784416097129
951.019,4839.95284136125
953.0344,5029.317052281993
955.0491,5067.525247916223
957.063,5301.975577027646
959.0763,5372.016137704726
961.0888,5174.444975016209
963.1007,5508.660080310707
965.1119,5615.809393192423
967.1223,5485.840798178957
969.1321,5819.6021236298475
971.1412,5565.591143046229
973.1495,5521.555571733203
975.1572,5710.593069340051
977.1641,5715.201240300528
979.1704,5775.427631942446
981.1759,5908.069734441669
983.1808,5766.224980219791
985.1849,5887.490742617774
987.1884,6113.364337314357
989.1911,6360.74302111342
991.1932,5886.573989685225
993.1945,6156.704375092617
995.1951,6422.13125053273
997.1951,6160.851627635653
999.1943,6164.062453810206
1001.1928,6114.560614856695
1003.1906,6303.392934934818
1005.1877,5837.556177058694
1007.1841,5809.197041208521
1009.1798,5871.81216898893
1011.1748,5931.548143912623
1013.1691,5889.3514907742065
1015.1627,4640.118675052792
1017.1556,5301.696103333998
1019.1477,5558.530135802277
1021.1392,5030.517079625162
1023.1299,4207.753186384907
1025.12,4997.334657358639
1027.1093,4628.257651745967
1029.0979,4733.518278773176
1031.0859,4691.96260138401
1033.0731,4002.9866351870296
1035.0596,4411.18634887119
1037.0454,4303.857671095575
1039.0304,3920.396486407437
1041.0148,3067.9486363154283
1042.9985,3268.0599231242595
1044.9814,3931.9261184591596
1046.9636,3097.74296126479
1048.9452,3274.7561511665554
1050.926,3185.5113568124507
1052.9061,3180.9542141029233
1054.8855,3317.330327083342
1056.8642,2968.1852679895383
1058.8421,2804.414575884097
1060.8194,2958.1637601477923
1062.7959,2713.5283021172654
1064.7717,3142.103653547565
1066.7469,2991.035239058496
1068.7213,3030.4684518488502
1070.695,2810.298655207087
1072.6679,2453.521182116987
1074.6402,2758.9813374593796
1076.6117,2483.1744015799195
1078.5826,2563.0456272344745
1080.5527,2732.1902423471693
1082.5221,2647.253449211712
1084.4908,2935.480422799941
1086.4587,2951.4163116112104
1088.426,3190.9062347900763
1090.3925,3154.395281966972
1092.3584,3027.378510863273
1094.3235,2530.150947656497
1096.2879,2542.007588250395
1098.2515,2673.9934032472083
1100.2145,2535.0033378291555
1102.1767,2464.8823104384865
1104.1382,2789.6752141674297
1106.099,2823.526917459407
1108.0591,2896.6822608610746
1110.0185,2544.03605668385
1111.9771,3047.1830882723443
1113.9351,2666.968113530849
1115.8923,2235.7358598918363
1117.8488,1816.5810281181111
1119.8045,1342.1482966152034
1121.7596,1449.4823256228265
1123.7139,1242.3277619591972
1125.6675,1317.1292379477454
1127.6204,1372.3313734886542
1129.5726,1198.4287753108802
1131.524,1412.7160364200681
1133.4748,1511.737737837626
1135.4248,1401.788446457831
1137.3741,1452.4127140576238
1139.3226,1411.5050783960687
1141.2705,1466.8600627081614
1143.2176,1232.3221761139066
1145.164,1196.9859130647383
1147.1097,1308.8957556889
1149.0546,1324.7461741447187
1150.9989,1296.6816255016238
1152.9424,1156.896553581617
1154.8852,1045.9853892399187
1156.8272,879.1925517628551
1158.7686,1023.5124499768426
1160.7092,654.1894839164524
1162.6491,641.3680433811969
1164.5883,843.1925116286875
1166.5267,761.6072655029202
1168.4644,1009.1566734159496
1170.4014,1125.3350961638207
1172.3377,1486.7368844509983
1174.2732,1734.2563777286196
1176.2081,1821.7379005804614
1178.1421,1984.0757602477606
1180.0755,2215.214245754396
1182.0082,2133.847626283561
1183.9401,2129.5201488663006
1185.8713,1840.2260391952223
1187.8017,1636.5595016676962
1189.7315,1487.7147222789208
1191.6605,1082.1858706584826
1193.5888,803.0671015588596
1195.5163,730.3025589106983
1197.4432,616.7363786139831
1199.3693,552.7626892657136
1201.2947,434.9756132955372
1203.2193,379.5192676054794
1205.1432,418.53776474785263
1207.0664,421.12521347979055
1208.9889,424.7257183730835
1210.9106,477.63337978829077
1212.8316,452.14229383870406
1214.7519,553.446551861307
1216.6715,538.7402406716792
1218.5903,605.8174415509566
1220.5084,531.9222303928909
1222.4257,532.7486770330797
1224.3424,355.04084598788904
1226.2583,436.4427964462375
1228.1735,483.29858404661354
1230.0879,530.8022600630939
1232.0016,627.5478709367817
1233.9146,713.1294578007946
1235.8269,557.4410555127542
1237.7384,525.326691799055
1239.6492,223.98038881170214
1241.5592,238.04616344941314
1243.4686,70.46803037112113
1245.3772,42.940001855342416
1247.285,-36.743910524128296
1249.1922,-90.789695622836
1251.0986,-95.95297522469627
1253.0042,-178.3884641245677
1254.9092,-49.2499185471097
1256.8134,-12.989312616242387
1258.7169,214.19187155077816
1260.6196,334.1422815998958
1262.5216,557.1105630351522
1264.4229,704.5953580191999
1266.3234,851.3453031435565
1268.2232,971.0590279538301
1270.1223,933.8851534821733
1272.0207,936.7722910501689
1273.9183,963.8690426405738
1275.8151,876.3240008684588
1277.7113,814.3357487101894
1279.6067,588.7528603789469
1281.5014,465.8739019445493
1283.3953,394.49743358932756
1285.2885,338.9720108368638
1287.181,268.14618526581035
1289.0727,369.7685050650689
1290.9637,362.93751574218913
1292.854,547.7517591070427
1294.7435,654.8597733401548
1296.6323,901.9100911445421
1298.5204,1219.4012386745817
1300.4077,1518.5317330655598
1302.2943,1704.7000792587714
1304.1802,1894.9047670102227
1306.0653,1779.7942690289128
1307.9497,1696.3670390748666
1309.8333,1650.9715131101693
1311.7162,1712.1561101332336
1313.5984,1895.3192326327917
1315.4798,1939.6592659759772
1317.3605,2143.624576576789
1319.2405,2399.813511452623
1321.1197,2466.474396184669
1322.9982,2396.9055323560096
1324.876,2483.205196885021
1326.753,2443.5716427210136
1328.6293,2552.2030979813135
1330.5048,2666.4977663475
1332.3796,2630.753825979169
1334.2537,2647.619428370912
1336.127,2552.392698709853
1337.9996,2632.621735706867
1339.8714,2565.354612548974
1341.7426,2494.639376096973
1343.6129,2540.6240475581435
1345.4826,2469.7566231933815
1347.3515,2572.135073857382
1349.2196,2490.807345707268
1351.087,2614.7713591788633
1352.9537,2687.775009799916
1354.8197,2851.066166950477
1356.6849,3056.9926731328596
1358.5493,3145.6523423387043
1360.4131,3101.142957989752
1362.276,3051.9122720512387
1364.1383,2914.908005477031
1365.9998,2702.62784870185
1367.8606,2392.9694630113663
1369.7206,2176.930482664997
1371.5799,2090.7585179924936
1373.4384,1921.9011575543045
1375.2962,1916.0559690033188
1377.1533,1625.4205007734345
1379.0096,1312.1922821379922
1380.8652,1088.4688261161646
1382.7201,866.7976326052085
1384.5742,632.1261906177024
1386.4275,472.7519804982476
1388.2802,317.9724762702317
1390.132,228.4351472295275
1391.9832,273.63745949232907
1393.8336,122.97687689047598
1395.6832,115.1508605194831
1397.5322,77.70687024511062
1399.3803,63.89236478163002
1401.2278,-77.24519793374566
1403.0745,33.59163939728387
1404.9204,-94.79889424748762
1406.7656,-36.71857022617405
1408.6101,-58.51821285598999
1410.4538,-105.54827963562275
1412.2968,-25.008643466859212
1414.139,-28.498122824152233
1415.9805,154.9847136543649
1417.8213,120.041582026799
1419.6613,198.87419680141466
1421.5006,434.83427128606854
1423.3391,739.4735167998988
1425.1769,1024.8436403137275
1427.0139,1593.8463414036378
1428.8502,2222.433309397311
1430.6858,2774.2062176839536
1432.5206,3165.4167174284885
1434.3547,3489.7164320537813
1436.188,3534.1569533285474
1438.0206,3525.689838124341
1439.8524,3340.4666079711897
1441.6835,3336.538749142219
1443.5139,3232.8577145058844
1445.3435,3172.524923565281
1447.1724,3218.8417634949183
1449.0005,3155.4095897440675
1450.8279,3066.929725573602
1452.6545,3082.153462690316
1454.4804,3150.232062131705
1456.3056,3161.816754113752
1458.13,3154.408737350139
1459.9536,2969.2591789364124
1461.7766,2673.0692144240384
1463.5987,2301.089949671892
1465.4202,1932.872463808184
1467.2409,1547.1678129502325
1469.0608,1408.1270338866561
1470.88,1165.5011479343884
1472.6984,980.7911623291438
1474.5161,755.4980726516114
1476.3331,686.4228646746051
1478.1493,583.1665166159801
1479.9648,592.5299998293667
1481.7795,499.7642798367415
1483.5935,528.2203162347978
1485.4067,439.2490636226066
1487.2192,443.50147131706035
1489.031,461.3284842425601
1490.842,450.13104288845716
1492.6522,469.8100831308511
1494.4618,453.31653634454415
1496.2705,486.35132920623437
1498.0785,486.46538385948224
1499.8858,496.0596175843457
1501.6924,478.13494279623774
1503.4981,535.9922669499902
1505.3032,526.1324927190835
1507.1075,552.0065174170959
1508.911,537.3652330962868
1510.7138,547.9595262888542
1512.5159,527.9902781533783
1514.3172,462.5083643688413
1516.1178,427.3146553343322
1517.9176,484.0100168238605
1519.7166,431.89531033831736
1521.515,418.52139253849964
1523.3126,440.8391157662554
1525.1094,432.5993281782212
1526.9055,419.2028735226668
1528.7008,369.4505912218701
1530.4954,272.69331650609456
1532.2893,327.9318809111064
1534.0824,244.86711324574935
1535.8747,339.54983903956963
1537.6663,311.88088137341765
1539.4572,273.3610599326639
1541.2473,311.3411912838783
1543.0367,296.87208926004314
1544.8253,273.10456458075714
1546.6132,314.18942499691184
1548.4003,274.22747552835426
1550.1867,307.7195180530616
1551.9723,309.01635170673035
1553.7572,385.06877254790015
1555.5414,386.97757354498026
1557.3247,461.2435438156717
1559.1074,503.56746860792555
1560.8893,557.0501285572573
1562.6705,568.2422992635329
1564.4509,646.9947507561083
1566.2305,721.5082473819493
1568.0094,908.1335470180893
1569.7876,1015.8714003264795
1571.565,1086.0225488877368
1573.3417,1194.1377241237751
1575.1176,1207.317646596297
1576.8928,1188.5130249256435
1578.6672,1095.5745556590118
1580.4409,1038.152923458456
1582.2138,894.598802030323
1583.986,767.4628546994463
1585.7575,761.4957358446736
1587.5282,657.1980921702743
1589.2981,664.8705627655436
1591.0673,546.2637801478231
1592.8358,572.2783701857625
1594.6035,580.3149532853822
1596.3704,528.4741441299084
1598.1366,588.256551599432
1599.9021,573.3627792893203
1601.6668,615.3934249123813
1603.4308,653.9490804477973
1605.194,767.2803317208345
1606.9564,824.9877580172906
1608.7182,999.4719309501561
1610.4791,1099.0834138825558
1612.2394,1224.5727601828876
1613.9988,1437.5405122287266
1615.7576,1622.387200151934
1617.5156,1898.0633397089914
1619.2728,2200.2694304325305
1621.0293,2383.65595287456
1622.785,2458.273365584413
1624.54,2391.072103274855
1626.2942,2271.202576075935
1628.0477,2012.7151702069677
1629.8005,1808.6102491752572
1631.5525,1559.8381563609764
1633.3037,1376.699217058187
1635.0542,1231.2437409625963
1636.804,1122.8720240029143
1638.553,1076.7343497954316
1640.3013,1007.0809907277326
1642.0488,958.912208420079
1643.7955,986.5782544219255
1645.5416,1023.3793706936158
1647.2868,1062.115789329724
1649.0313,1149.337732191052
1650.7751,1315.1954105172408
1652.5181,1466.4390240545617
1654.2604,1656.7187593973467
1656.0019,1994.434788475537
1657.7427,2362.6372666518946
1659.4828,2730.126329344832
1661.222,2984.702088346421
1662.9606,3024.4646281474743
1664.6984,2935.3640033917836
1666.4354,2669.050238478514
1668.1717,2238.8233284532
1669.9072,1808.8332416708763
1671.642,1465.129924098379
1673.3761,1241.9133036142048
1675.1094,1005.8832934455786
1676.8419,826.8897944005766
1678.5737,689.9326972284616
1680.3048,597.961884409604
1682.0351,512.1772315250528
1683.7646,426.02860817625333
1685.4934,388.2158788428933
1687.2215,375.9889037443718
1688.9488,307.19753921795564
1690.6754,253.94163784102057
1692.4012,321.7210491190017
1694.1263,265.03562001791215
1695.8506,249.83519428658474
1697.5742,254.31961302349373
1699.297,224.33871482879476
1701.0191,168.8923357594358
1702.7404,144.6803096290023
1704.461,89.00246856216108
1706.1808,102.25864323677888
1707.8999,96.54866344072434
1709.6182,91.02235793927684
1711.3358,78.17955453225659
1713.0527,106.57008010927166
1714.7688,88.64376077815905
1716.4841,69.7004215810739
1718.1987,106.8398866737407
1719.9126,78.16197951490176
1721.6257,12.816522494904348
1723.338,58.10333722247742
1725.0496,-29.827754821781127
1726.7605,31.42306726168681
1728.4706,11.705922351724439
1730.18,-49.82907098704163
1731.8886,-3.2317943070520414
1733.5964,-7.051631368314702
1735.3036,-3.8879336452446296
1737.0099,-19.78998216646505
1738.7156,40.79298087983989
1740.4204,19.811911007407616
1742.1246,36.16776332204245
1743.8279,16.611492731433827
1745.5306,26.194053781604453
1747.2325,-2.3835991475352785
1748.9336,-1.1205119380138058
1750.634,9.33429334030734
1752.3336,16.781805811468075
1754.0325,69.42301450618106
1755.7307,29.40890828735428
1757.4281,74.09047532366458
1759.1247,122.11870348971206
1760.8206,108.84457991919408
1762.5158,141.71909052464252
1764.2102,104.84322013013661
1765.9039,111.36795214257654
1767.5968,128.74426892043084
1769.289,117.07315170848779
1770.9804,126.35558046410915
1772.6711,180.89253397393077
1774.361,142.0849897610351
1776.0502,168.38392353959352
1777.7386,157.79030960293676
1779.4263,162.80512056055522
1781.1132,200.07932744404388
1782.7994,182.91389965696908
1784.4849,199.25980460211213
1786.1696,171.61800785316882
1787.8535,193.48947299122665
1789.5367,188.7751618811999
1791.2192,229.6260344531147
1792.9009,191.64304874925438
1794.5818,203.5771605156533
1796.2621,206.0293235819281
1797.9415,225.95048974193014
1799.6202,215.84160872921348
1801.2982,217.05362801784577
1802.9755,238.7374929234884
1804.6519,280.0941465912729
1806.3277,221.224529778965
1808.0027,251.92958044338957
1809.6769,249.81023432913025
1811.3504,267.8674246614846
1813.0231,278.10208216765204
1814.6951,303.2151348961688
1816.3664,329.2575081145551
1818.0369,313.0801240581932
1819.7067,316.9339016698923
1821.3757,303.7697567616651
1823.044,310.7886019761863
1824.7115,357.19134691845466
1826.3783,293.1288980855752
1828.0443,327.80215840275196
1829.7096,370.71202786390677
1831.3741,380.30940318493595
1833.0379,382.845177374631
1834.701,359.72023963869833
1836.3633,372.5854753543863
1838.0248,369.69176630174843
1839.6856,402.9399905349819
1841.3457,438.5810224113775
1843.005,430.41573225883803
1844.6636,467.3949860194589
1846.3214,461.61964533119317
1847.9785,486.09056715804945
1849.6349,497.95860384784646
1851.2904,491.8246028875001
1852.9453,496.3894067843412
1854.5994,484.4038531274691
1856.2528,536.0187745420862
1857.9054,538.1349988093716
1859.5572,545.1533483503154
1861.2083,546.124640204569
1862.8587,578.7996859602572
1864.5084,561.6292917442679
1866.1572,560.2142578954936
1867.8054,534.8053791365455
1869.4528,530.0534445879002
1871.0994,547.4592380219838
1872.7453,560.0235379106907
1874.3905,603.9471172513313
1876.0349,576.4307434409839
1877.6786,615.2751778372585
1879.3215,654.5311760334662
1880.9637,622.7494874701697
1882.6051,640.5808550426227
1884.2458,647.8760154185875
1885.8858,627.3856988600255
1887.525,641.6606291501412
1889.1634,623.1015237982956
1890.8011,602.9590938972524
1892.4381,627.4840443087542
1894.0743,650.8770738649637
1895.7098,647.1388751232134
1897.3446,679.1201341320739
1898.9786,657.9715304687306
1900.6118,680.0437369191841
1902.2443,621.4874196897272
1903.8761,626.9032381862289
1905.5071,602.6418455996936
1907.1374,581.15388885209
1908.7669,605.9900088389859
1910.3957,630.0008406444013
1912.0237,581.4870132924698
1913.651,635.8491495073158
1915.2776,640.3378661982078
1916.9034,595.8037739159226
1918.5285,559.6974768078762
1920.1528,536.7195730634448
1921.7764,554.6706552750347
1923.3992,558.3513106678674
1925.0213,508.8121209204601
1926.6427,489.5536621278152
1928.2633,498.42650529683124
1929.8832,530.5312165388732
1931.5023,506.36835698105097
1933.1207,504.8384824451696
1934.7383,504.4421436893517
1936.3552,473.82988642334203
1937.9714,505.65225131246916
1939.5868,464.6097742837628
1941.2015,400.5029862077354
1942.8154,455.9824133088041
1944.4286,396.39857780635793
1946.041,409.05199735995666
1947.6528,358.5931856651805
1949.2637,402.0226523270903
1950.8739,360.8409033648222
1952.4834,379.99844077729176
1954.0921,357.4957629550081
1955.7001,368.48336448850387
1957.3074,373.11173639336084
1958.9139,354.3313660003296
1960.5197,378.8427369090423
1962.1247,369.79632917582785
1963.729,295.84261906858956
1965.3325,300.6320791572816
1966.9353,328.31517905342116
1968.5374,295.3923853622182
1970.1387,282.86416140573965
1971.7393,268.2809675521312
1973.3392,302.29326134090115
1974.9383,254.70149762875735
1976.5366,266.1061282494684
1978.1342,277.9576024897997
1979.7311,276.55636697546834
1981.3273,265.50286555261664
1982.9227,253.79753930183506
1984.5173,240.64082664869238
1986.1112,218.1331634807866
1987.7044,249.77498327931426
1989.2968,240.4667173441576
1990.8885,255.558794477447
1992.4795,246.3016410766486
1994.0697,248.74568098365853
1995.6592,232.99133557735513
1997.2479,238.38902374917416
1998.8359,226.13916206064278
2000.4232,195.59216468940394
2002.0097,221.99844355171263
2003.5955,213.6584086079074
2005.1805,221.67246759834234
2006.7648,221.34102612678726
2008.3484,225.71448758029692
2009.9312,243.7432531325121
2011.5133,230.1277216999406
2013.0946,240.51828976165416
2014.6752,242.46535149545707
2016.2551,240.0192986739803
2017.8342,237.3805206452107
2019.4126,201.44940435694116
2020.9902,200.57633438316952
2022.5672,209.8116932834073
2024.1433,197.10586161141146
2025.7188,212.70921782283222
2027.2935,205.67213840226214
2028.8674,197.39499770720977
2030.4406,155.37816803845635
2032.0131,168.82201972284565
2033.5849,166.62692153344324
2035.1559,193.74324055509715
2036.7261,182.5713422063891
2038.2957,195.31158996847444
2039.8645,199.01434549680016
2041.4325,221.0799684936992
2042.9998,207.65881667136637
2044.5664,218.90124553120768
2046.1323,230.007608498041
2047.6974,180.62825680767855
2049.2617,195.61353939586115
2050.8254,216.0138033920466
2052.3883,211.82939396957045
2053.9504,210.51065414162986
2055.5118,240.90792480313394
2057.0725,179.0715447438888
2058.6325,193.15185034462047
2060.1917,198.24917619534608
2061.7502,213.91385495456052
2063.3079,210.04621729827886
2064.8649,213.446591763377
2066.4212,202.01530478627137
2067.9767,203.3526806689115
2069.5315,180.65904169310124
2071.0856,146.78470810712315
2072.6389,168.02999835266746
2074.1915,147.3452294035851
2075.7433,98.9807165534312
2077.2945,127.83677362230628
2078.8448,124.3637134405144
2080.3945,105.91184755999348
2081.9434,135.0314862890409
2083.4916,141.672938876849
2085.039,119.53651322229234
2086.5857,153.7225158075198
2088.1317,152.33125191931867
2089.677,141.41302530726352
2091.2215,113.81813819759918
2092.7652,149.3468914024561
2094.3083,159.9995845957783
2095.8506,170.37651595805073
2097.3921,171.52798206975604
2098.933,171.7042778076211
2100.4731,176.55569633309096
2102.0124,159.682529090569
2103.5511,193.68506575891297
2105.089,153.56359442015673
2106.6261,205.2684012194768
2108.1626,179.3497707664319
2109.6983,180.8579856178858
2111.2332,178.2933265372194
2112.7675,183.4560724792318
2114.301,188.99650061579996
2115.8337,207.21488628423322
2117.3657,225.6115029318862
2118.897,211.03662193396485
2120.4276,214.24051240956942
2121.9575,166.17344136742759
2123.4866,192.93567367386822
2125.0149,195.1774725334799
2126.5426,175.89909922149855
2128.0695,164.25081306138873
2129.5956,194.33287161762382
2131.1211,208.49553081217255
2132.6458,202.3390446236881
2134.1698,172.26366494587182
2135.693,184.2696416490371
2137.2155,204.4572228808638
2138.7373,228.87665494634348
2140.2584,215.52818210589976
2141.7787,203.81204633118705
2143.2983,197.6784874385885
2144.8171,176.62774320636436
2146.3353,212.21004943599291
2147.8527,187.72564016267734
2149.3693,227.574747299519
2150.8853,173.00760088237075
2152.4005,180.37442867133723
2153.9149,190.3254566964597
2155.4287,132.36090918403897
2156.9417,186.83100845712397
2158.454,197.1359755151616
2159.9655,194.92602948929198
2161.4764,208.00138753929696
2162.9865,184.4122648757011
2164.4958,202.1088746290252
2166.0045,173.1914280856672
2167.5124,194.61013451094368
2169.0195,197.81520143826037
2170.526,228.00683445492723
2172.0317,215.28523717010557
2173.5367,211.45061091288517
2175.0409,198.15315485951032
2176.5445,205.7930660717211
2178.0473,202.22053962973223
2179.5494,214.0357685558356
2181.0507,211.1889438501139
2182.5513,211.18025437230244
2184.0512,220.75988687024983
2185.5504,209.57802598000035
2187.0488,177.6348541300058
2188.5465,176.63055165293463
2190.0435,158.86529710510513
2191.5397,170.28926727652743
2193.0353,183.05263736856796
2194.5301,155.25558087970148
2196.0241,166.4982694778846
2197.5175,160.08087327852536
2199.0101,141.70356073205403
2200.502,127.66649868809418
2201.9931,143.96985257923734
2203.4835,117.8637865614146
2204.9733,135.99846335086386
2206.4622,132.97404448518682
2207.9505,125.74069014200268
2209.438,120.14855916919896
2210.9248,116.69780915725823
2212.4109,129.93859649518345
2213.8962,116.17107640499125
2215.3809,123.99540280931433
2216.8648,143.1617284690792
2218.3479,120.1702049052601
2219.8304,126.72098220721546
2221.3121,109.81420926260489
2222.7931,103.85003369188689
2224.2733,115.02860201737076
2225.7529,104.900059722876
2227.2317,83.3145511419334
2228.7098,96.47221955907935
2230.1872,82.37320742570955
2231.6638,94.96765622849853
2233.1397,73.15570663039034
2234.6149,81.43749834465689
2236.0894,94.81317035301618
2237.5632,110.68286082280338
2239.0362,91.44670697323
2240.5085,103.85484491668194
2241.9801,87.80740985108241
2243.4509,68.15453593580423
2244.921,80.19635645214294
2246.3904,73.83300399985274
2247.8591,67.51461037672652
2249.3271,68.04130664222885
2250.7943,50.36322318068869
2252.2608,59.780489696018776
2253.7266,64.19323538850858
2255.1917,72.301588860636
2256.656,53.70567807295356
2258.1197,70.3056302629966
2259.5826,67.80157213124403
2261.0447,83.39362967511806
2262.5062,46.73192821403245
2263.9669,57.01659223346178
2265.4269,76.09774575156644
2266.8862,70.27551221634076
2268.3448,93.45001431480523
2269.8026,71.12137403122415
2271.2598,86.08971241535983
2272.7162,78.80514980576936
2274.1719,71.61780568011272
2275.6268,71.52779872800329
2277.0811,97.23524692288174
2278.5346,90.04026752291247
2279.9874,91.99297681391545
2281.4395,110.39349018130906
2282.8908,95.59192209058165
2284.3414,127.7383859032916
2285.7914,101.78299402507764
2287.2406,85.92585758419682
2288.689,91.16708669107811
2290.1368,99.90679059689592
2291.5838,92.54507764115715
2293.0302,94.48205516430517
2294.4758,89.9178295813308
2295.9206,85.3025063624109
2297.3648,81.48619007854813
2298.8082,107.06898444772469
2300.251,98.55099237305785
2301.693,75.78231568697538
2303.1343,110.06305523639458
2304.5748,111.49331111041283
2306.0147,101.07318229749853
2307.4538,93.3527666711907
2308.8922,95.28216109430377
2310.3299,97.0114614961276
2311.7669,109.09076285312767
2313.2031,99.82015917165882
2314.6387,95.89974336717023
2316.0735,102.82960735691267
2317.5076,97.40984209914586
2318.941,86.59053752383079
2320.3737,99.67178258683998
2321.8056,94.15366537813952
2323.2369,84.4862729909737
2324.6674,108.86969157705971
2326.0972,96.704006443254
2327.5263,92.63930180771331
2328.9547,103.22566092156649
2330.3823,94.363166109546
2331.8092,120.10189866413748
2333.2355,74.7419389341876
2334.661,92.43336606752837
2336.0858,108.67625846457031
2337.5098,99.42069360138976
2338.9332,129.96674786730546
2340.3558,107.46449665742693
2341.7778,104.66401406720615
2343.199,106.76537311744687
2344.6195,111.16864578231616
2346.0393,119.12390296833473
2347.4583,105.881214470337
2348.8767,129.49064889192414
2350.2943,115.15227377788506
2351.7113,131.3661553781012
2353.1275,114.28235879093518
2354.543,129.00094780108975
2355.9578,117.57198505045562
2357.3718,111.89553189091293
2358.7852,114.87164849862802
2360.1978,110.00039393081352
2361.6098,95.23182609597097
2363.021,107.56600180259284
2364.4315,97.45297690686039
2365.8413,114.59280618929006
2367.2504,115.43554345587108
2368.6587,88.13124136666829
2370.0664,79.47995142739
2371.4733,84.83172426242982
2372.8795,89.6366097013788
2374.285,83.89465672551705
2375.6899,79.05591341975287
2377.0939,74.67042703006518
2378.4973,64.38824401187958
2379.9,77.10941007391739
2381.3019,67.93397028101572
2382.7032,68.46196892692114
2384.1037,88.343449626047
2385.5035,76.47845530818267
2386.9027,83.26702801968622
2388.3011,74.5592090421269
2389.6987,74.20503882440062
2391.0957,67.70455706980647
2392.492,45.05780273959954
2393.8876,47.26481411798068
2395.2824,41.92562903857652
2396.6765,40.64028486236384
2398.07,45.30881853105984
2399.4627,41.23126657998455
2400.8547,47.30766509136447
2402.246,46.438049735110326
2403.6366,17.72245570805717
2405.0265,23.060917742669517
2406.4156,34.00347039419012
2407.8041,34.45014798727516
2409.1918,38.450984506545865
2410.5789,31.806013592125964
2411.9652,24.415268499635204
2413.3508,26.22878216663048
2414.7358,21.49658728651866
2416.12,20.918716290423617
2417.5035,29.895201394500873
2418.8863,27.026074605721988
2420.2684,23.011367632106158
2421.6497,-2.2988880885859544
2423.0304,9.69533865129415
2424.4104,19.59410202528443
2425.7896,7.247456109969789
2427.1682,13.005454785995425
2428.546,0.6181518615330788
2429.9232,26.735601014704116
2431.2996,0.8578559174493421
2432.6753,29.084969974353953
2434.0503,14.016996581426156
2435.4246,9.1039888438263
2436.7982,23.845999726547234
2438.1711,20.59308210354402
2439.5433,20.245288610312855
2440.9148,18.252671676422324
2442.2856,22.36528352898904
2443.6557,15.933176212604394
2445.025,-0.04359845179033073
2446.3937,17.13501119741568
2447.7617,-2.230942742618936
2449.1289,14.308591653917574
2450.4955,19.2536885999516
2451.8613,14.754422165325195
2453.2265,15.460866227343104
2454.5909,39.82309451576839
2455.9546,44.19118060575693
2457.3177,27.96519767423706
2458.68,18.845218456230214
2460.0416,48.68131540710556
2461.4025,59.723560793782326
2462.7627,58.32202639636898
2464.1222,48.47678339774029
2465.4811,50.587902397555354
2466.8392,42.80545351070441
2468.1966,57.32950634619965
2469.5533,75.6101300850014
2470.9093,66.94739333477582
2472.2645,46.791363947090304
2473.6191,61.8421091040409
2474.973,25.199695519811485
2476.3262,47.81418929016672
2477.6787,65.63565625887622
2479.0305,47.16416179156931
2480.3816,46.44977059751818
2481.7319,31.1425469143569
2483.0816,60.042554515225675
2484.4306,38.54985686184091
2485.7789,57.914516815497336
2487.1264,38.03659685199
2488.4733,50.066158867970444
2489.8195,30.803264379726897
2491.165,54.797974402888485
2492.5097,26.900349645054575
2493.8538,32.71045026584579
2495.1972,23.67833615587915
2496.5398,16.55406687866798
2497.8818,16.287701760946675
2499.2231,36.02929996391049
2500.5637,20.478920485878007
2501.9035,36.08662196487512
2503.2427,34.90246283413808
2504.5812,45.026501166039
2505.919,32.408794683927226
2507.256,55.59940066088757
2508.5924,26.648376045917757
2509.9281,21.705777232025866
2511.2631,34.171660345736655
2512.5974,28.24608129652006
2513.9309,40.77909565213031
2515.2638,38.62075869786395
2516.596,39.97112531122684
2517.9275,42.230249983520025
2519.2583,53.54818680633389
2520.5884,29.27498944895933
2521.9178,38.06071104520788
2523.2465,24.955404436144818
2524.5745,9.109122082228623
2525.9018,25.871916194365895
2527.2284,36.24383889237561
2528.5543,33.17494203735987
2529.8796,34.76527712798452
2531.2041,33.5148953311691
2532.5279,29.223847466180814
2533.851,45.192184017139425
2535.1735,35.319955175928044
2536.4952,48.70721068250532
2537.8163,36.50399992363464
2539.1366,60.01037179900595
2540.4562,43.32637484327324
2541.7752,55.30205699098542
2543.0935,64.53746574342904
2544.411,59.932648048871215
2545.7279,44.437650210207266
2547.0441,61.55251793100615
2548.3596,60.92729647045962
2549.6744,71.26203047223544
2550.9885,85.5067639707313
2552.3019,70.8615402877258
2553.6146,86.72640188993319
2554.9266,66.55139053545054
2556.2379,73.6865471151159
2557.5485,92.73191185425549
2558.8585,95.287524241332
2560.1677,79.20342283749005
2561.4762,84.02964525099969
2562.7841,109.61622829809221
2564.0913,96.26320795470247
2565.3977,94.97061910059983
2566.7035,78.38849565292367
2568.0086,102.21687057910594
2569.313,111.60577606269226
2570.6167,95.6052432650622
2571.9197,110.91530223153904
2573.222,110.58598205139242
2574.5236,117.56731070474098
2575.8246,112.45931506584384
2577.1248,132.4620208332899
2578.4244,137.72545258107448
2579.7232,129.4496335585727
2581.0214,133.83458563790828
2582.3189,140.8303293967101
2583.6157,142.88688407426207
2584.9118,155.85426750154375
2586.2072,148.63249608066826
2587.5019,139.22158465520715
2588.7959,142.3715465824048
2590.0893,156.7323938272939
2591.3819,166.45413693119235
2592.6739,167.08678486809322
2593.9652,163.8303449474547
2595.2557,165.1848228078661
2596.5456,166.30022244961492
2597.8348,163.12654622114314
2599.1234,168.81379480789246
2600.4112,166.9619672640374
2601.6983,162.8710609556183
2602.9848,171.14107157905482
2604.2705,168.4719932020571
2605.5556,172.76381818092568
2606.84,173.71653718724247
2608.1237,151.63013916494992
2609.4067,161.45461132082755
2610.689,153.8399393453542
2611.9707,158.98610731446252
2613.2516,148.4930977656909
2614.5319,145.41089164671348
2615.8115,167.18946842027708
2617.0903,160.1788060950189
2618.3685,155.67888100768323
2619.6461,153.28966789322703
2620.9229,152.31113992982
2622.199,159.49326876273471
2623.4745,152.78602451413417
2624.7493,156.0893757112476
2626.0234,153.5032893534467
2627.2968,155.6277308792096
2628.5695,146.51266419198328
2629.8415,146.0080516389371
2631.1128,148.9138541021166
2632.3835,144.28003100348633
2633.6535,142.0065402758737
2634.9228,140.0433384093085
2636.1914,133.7903804737557
2637.4593,147.24762013874806
2638.7265,145.16500973591565
2639.9931,147.7425001244128
2641.259,148.28004071174473
2642.5242,126.52757942799235
2643.7887,153.6350627204356
2645.0525,148.65243577108095
2646.3156,143.62964222558276
2647.5781,143.21662424307488
2648.8398,123.31332254639392
2650.1009,129.61967642621266
2651.3613,132.58562394007095
2652.6211,159.91110184931267
2653.8801,154.9960455894261
2655.1385,137.14038899678872
2656.3961,148.69406435781684
2657.6531,146.60700258752604
2658.9094,152.0791331139908
2660.1651,144.01038389921678
2661.42,146.2506813844193
2662.6743,165.09995057071092
2663.9279,168.8081149966988
2665.1808,152.67509654999003
2666.433,157.50081543011402
2667.6846,148.78519030984762
2668.9354,170.92813828696126
2670.1856,158.22957497137327
2671.4351,171.63941426372298
2672.6839,168.8575684823561
2673.9321,166.93394822922346
2675.1795,160.818462417702
2676.4263,172.41101829183208
2677.6724,173.9115214874687
2678.9179,175.81987591635993
2680.1626,184.0859837511382
2681.4067,185.15974540623915
2682.6501,179.6910594552387
2683.8928,171.17982262011606
2685.1348,177.17592982594192
2686.3761,169.57927428598987
2687.6168,175.43974744177422
2688.8568,177.45723903901762
2690.0961,166.33163706904566
2691.3348,161.26282774861397
2692.5727,153.2006956311618
2693.81,153.74512365750206
2695.0466,158.54599323644265
2696.2826,153.50318423934118
2697.5178,142.31657495209538
2698.7524,149.48604212557302
2699.9863,157.91146108747603
2701.2195,149.84270567064755
2702.452,161.87964812881728
2703.6839,161.62215921728944
2704.9151,173.1201080725741
2706.1456,169.6733622149618
2707.3755,174.43178743354315
2708.6046,179.49524782067533
2709.8331,189.31360572439985
2711.0609,188.03672169780498
2712.2881,195.9644544008438
2713.5145,212.9466606131034
2714.7403,219.08319515452717
2715.9654,226.5239107155926
2717.1899,227.06865779594614
2718.4136,235.9672846299959
2719.6367,251.6196371814642
2720.8591,258.4255590544003
2722.0809,257.43489133665776
2723.3019,276.74747253183546
2724.5223,281.8131385691836
2725.7421,283.23172261047876
2726.9611,287.40305499936744
2728.1795,281.3269632471786
2729.3972,274.15327199121043
2730.6142,250.831803055494
2731.8306,242.21237552252865
2733.0462,229.54480596649682
2734.2612,221.2789085394577
2735.4756,200.114495098024
2736.6892,189.70137528601936
2737.9022,176.18935674612612
2739.1145,149.9282452240118
2740.3262,147.01784470345
2741.5372,126.65795766893348
2742.7475,100.59838513477712
2743.9571,99.33892684871648
2745.1661,86.87938155250527
2746.3744,79.81954699450876
2747.582,80.80922005429966
2748.7889,73.34819681325553
2749.9952,63.4362725446631
2751.2008,57.37324178832682
2752.4057,48.708898449690196
2753.61,47.743035860465625
2754.8136,49.07544686527626
2756.0165,43.50592383131652
2757.2188,32.384258635026754
2758.4204,29.710242717788333
2759.6213,34.83366719714218
2760.8215,28.054322893526205
2762.0211,32.87200027904282
2763.22,40.03648954525352
2764.4182,21.29758055499974
2765.6158,28.90506277075974
2766.8127,25.858725442036302
2768.009,13.208357529282921
2769.2045,8.453747734366516
2770.3994,6.944684627071865
2771.5936,2.7809566926466687
2772.7872,-6.387647653108161
2773.9801,-16.861340022200466
2775.1723,-11.690268214038724
2776.3639,-6.67441158324641
2777.5548,-11.91363269866747
2778.745,-24.75772745177619
2779.9346,-14.006372716855822
2781.1235,-10.708998038493974
2782.3117,-17.21489303761473
2783.4992,-8.473240352253697
2784.6861,-9.333050643664137
2785.8723,-10.293249925429336
2787.0579,-5.652670973957356
2788.2428,-0.26004373609043796
2789.427,-1.214041688488578
2790.6106,2.5866642900239185
2791.7935,24.093415448898668
2792.9757,19.75755301172171
2794.1573,24.28041796114462
2795.3382,41.06335108224562
2796.5184,60.757692917298755
2797.698,69.71478359794355
2798.8769,81.18596264824532
2800.0551,92.02256889512296
2801.2327,107.375940353636
2802.4096,128.34741411862024
2803.5859,134.6883262111544
2804.7615,157.70001136884184
2805.9364,176.23380298240363
2807.1106,203.79103286556278
2808.2842,240.3730310697033
2809.4572,251.63112560830132
2810.6294,286.31664209110545
2811.801,333.03090361155273
2812.972,375.9252303999119
2814.1423,401.5509393561458
2815.3119,463.40934362096414
2816.4808,490.50175231956905
2817.6491,552.6294699430714
2818.8167,583.0937960775641
2819.9837,627.3960247828468
2821.15,671.8374442877819
2822.3157,704.2693365472719
2823.4807,750.5429767978462
2824.645,795.4596332333415
2825.8086,846.720566542165
2826.9716,860.9770294581285
2828.134,901.0802662478377
2829.2957,946.8315125681302
2830.4567,971.681995065042
2831.617,991.1329309162938
2832.7767,987.9855275827881
2833.9358,999.7909826140974
2835.0941,972.9504836799415
2836.2519,981.9152084521293
2837.4089,951.9363248729655
2838.5653,950.3649910656047
2839.7211,964.4023556338379
2840.8761,945.649557677807
2842.0306,978.5577266536311
2843.1843,1015.177982560936
2844.3374,1059.6614356137693
2845.4899,1119.5091858743995
2846.6417,1180.7223228084815
2847.7928,1249.2519246865786
2848.9433,1346.8990579720307
2850.0931,1411.1647766356607
2851.2422,1499.1501211793018
2852.3907,1563.6061179931398
2853.5385,1617.9837784758606
2854.6857,1679.6840983900904
2855.8323,1714.558057318618
2856.9781,1772.906618047394
2858.1233,1808.3307262167882
2859.2679,1840.631309738104
2860.4118,1898.809278439339
2861.555,1921.265523742178
2862.6976,1953.7509180802122
2863.8395,1965.166314674378
2864.9808,2002.9125472081053
2866.1214,2007.84042971316
2867.2614,2021.9007561921842
2868.4007,2051.8943005694155
2869.5393,2050.7718165500846
2870.6773,2059.1840373204805
2871.8146,2072.9316755591726
2872.9513,2073.715423352891
2874.0874,2054.4359520590497
2875.2227,2054.843912297908
2876.3574,2045.539934145366
2877.4915,2003.6746271288866
2878.6249,1986.7485803205343
2879.7577,1969.8623627556271
2880.8898,1934.266523601999
2882.0212,1940.1115923288614
2883.152,1917.2980790627603
2884.2821,1899.9264745291275
2885.4116,1894.897250280413
2886.5405,1898.9108588698045
2887.6686,1898.0177339015183
2888.7962,1915.1682899906612
2889.923,1920.012922772165
2891.0493,1930.8020087292794
2892.1748,1920.5359051451248
2893.2997,1935.914949994804
2894.424,1961.489462048061
2895.5476,1988.1597407154904
2896.6706,1997.2760657927943
2897.7929,2023.9386971940762
2898.9145,2043.8978748606792
2900.0355,2068.2038184945604
2901.1559,2096.1067273586978
2902.2756,2140.506780034032
2903.3946,2168.4041341404377
2904.513,2181.298925892721
2905.6308,2215.991269821646
2906.7479,2239.28125864499
2907.8643,2275.1689629206176
2908.9801,2280.454430813581
2910.0953,2298.5376877372437
2911.2098,2294.018736300427
2912.3236,2303.4475561265745
2913.4368,2276.7741038989434
2914.5494,2264.3983132663143
2915.6613,2218.82009510973
2916.7725,2205.139337666249
2917.8831,2194.955906984731
2918.9931,2156.069647062642
2920.1024,2133.030379947889
2921.211,2113.5879061276833
2922.319,2087.9920047589335
2923.4264,2071.342433862669
2924.5331,2072.138930580001
2925.6391,2074.4312113386154
2926.7445,2043.0189718448107
2927.8493,2038.9518870605727
2928.9534,2052.479611517699
2930.0569,2021.7017793584678
2931.1597,2018.2180042003629
2932.2619,2014.3778794438495
2933.3634,2004.0309783072132
2934.4643,1988.376853864962
2935.5645,1981.7150391512937
2936.6641,1952.9450473166387
2937.763,1915.2663716942757
2938.8613,1854.8784860880346
2939.959,1816.4808451490826
2941.056,1746.7728849798011
2942.1523,1666.2040235177653
2943.248,1591.8736612328207
2944.3431,1501.031181932774
2945.4375,1409.3759535066956
2946.5313,1309.757328833344
2947.6244,1216.6746466977197
2948.7169,1107.0772327872505
2949.8087,1019.6644006226181
2950.8999,944.6854526537329
2951.9904,866.6396811338616
2953.0803,801.2263688694163
2954.1696,736.7447900004133
2955.2582,681.7942106546061
2956.3462,661.023889592301
2957.4335,608.2830787558632
2958.5202,581.0710234774197
2959.6062,548.5869630062666
2960.6916,535.8301307809911
2961.7764,526.9497547543106
2962.8605,524.1450575206422
2963.9439,501.51525640490536
2965.0267,503.8595634905698
2966.1089,487.9271858459531
2967.1905,492.6173255007775
2968.2714,497.32917960549366
2969.3516,484.4619403843799
2970.4312,488.9147950884228
2971.5102,495.38692612398927
2972.5885,496.0775110082991
2973.6662,491.73572230470313
2974.7432,499.96072761577716
2975.8196,495.9016896267399
2976.8954,500.9077660232033
2977.9705,492.77810953176345
2979.045,481.16186786993944
2980.1188,459.9081838274692
2981.192,448.71619538247364
2982.2645,430.6850359139912
2983.3364,406.86383431390004
2984.4077,381.40171516722717
2985.4783,370.5977989903622
2986.5483,336.85120248567694
2987.6177,304.4110386495671
2988.6864,277.62641710991625
2989.7545,258.1964444504973
2990.8219,221.17022447882096
2991.8887,204.6468584204324
2992.9548,170.6254452891767
2994.0204,151.3050820524304
2995.0852,130.8848639713167
2996.1495,100.36388479390735
2997.2131,80.49123695942649
2998.276,68.46601190345905
2999.3383,48.28730025667778
3000.4,41.60419196509474
3001.4611,34.165776491849556
3002.5215,11.171142884040478
3003.5812,8.569379847108735
3004.6404,5.709575974784457
3005.6989,6.440819775104387
3006.7567,-1.7378003009893064
3007.8139,-12.427195866963189
3008.8705,-10.278261175659054
3009.9264,-13.34176633223285
3010.9818,-9.418378762011457
3012.0364,0.7413673939239516
3013.0905,-15.112967915904392
3014.1439,-6.181824750387818
3015.1966,-6.865492189868178
3016.2487,-7.564197558257888
3017.3002,5.921900406796567
3018.3511,9.542718533981429
3019.4013,11.148173592764351
3020.4509,15.738182257187077
3021.4998,23.9626610898099
3022.5481,24.171526495811918
3023.5958,28.714694640746757
3024.6428,26.64208144845304
3025.6892,41.353602555622956
3026.735,40.79917333252865
3027.7802,41.17870873590641
3028.8247,62.34212331450112
3029.8685,59.68933120527106
3030.9118,72.97024592175353
3031.9544,78.7347803805934
3032.9963,83.03284676873284
3034.0376,91.36435648576605
3035.0783,95.42922010096026
3036.1184,108.42734726993865
3037.1578,125.40864669403209
3038.1966,120.92302599029858
3039.2348,119.02039152171062
3040.2723,127.10064844201031
3041.3092,134.96370071473598
3042.3455,137.00945103242054
3043.3811,127.8878007379601
3044.4161,131.24864980415623
3045.4505,133.4418969249325
3046.4842,128.1674394817261
3047.5173,125.67517352155562
3048.5498,118.5649938097655
3049.5816,117.08679385494918
3050.6128,123.09046598005
3051.6434,117.0259013371442
3052.6734,111.64298984740333
3053.7027,107.74162026174042
3054.7314,106.92168021463874
3055.7594,108.98305626316574
3056.7868,102.4256338951725
3057.8136,106.8992975086802
3058.8398,101.55393047745315
3059.8653,91.28941510626362
3060.8902,94.60563268434464
3061.9145,98.7524635880352
3062.9381,103.12978724761808
3063.9612,91.68748210585215
3064.9835,95.07542557419788
3066.0053,88.643494147242
3067.0264,82.94156336881713
3068.0469,81.46950789632115
3069.0668,76.72720155773709
3070.086,76.26451736635272
3071.1046,72.63132756818425
3072.1226,68.67750364660276
3073.1399,66.10291635866668
3074.1567,46.35743577465928
3075.1727,52.09093130383485
3076.1882,42.05327189187369
3077.203,27.09432596354668
3078.2173,38.363961523092485
3079.2308,26.512046303806983
3080.2438,30.83844765534593
3081.2561,18.89303266224499
3082.2678,13.125668100655389
3083.2789,12.536220557798515
3084.2893,9.77455648963928
3085.2991,5.240542226780462
3086.3083,7.534044002079668
3087.3169,10.204927995989067
3088.3248,6.003060313621063
3089.3321,3.9283069580384904
3090.3388,-2.0694661277259456
3091.3449,5.859606960077599
3092.3503,-1.88458720083446
3093.3551,7.397837908658346
3094.3593,-1.6932123652976543
3095.3629,3.1421672494661266
3096.3658,-5.846101059690795
3097.3681,-2.6580951368304113
3098.3698,-2.293834423465455
3099.3708,-4.203311806738441
3100.3713,-0.7364972583864073
3101.3711,3.806681240938019
3102.3702,-13.073696931809877
3103.3688,0.07244756225861693
3104.3667,6.895324668264664
3105.364,1.245143607577802
3106.3607,5.7721135326146396
3107.3568,0.32643115680696155
3108.3522,7.358293135865665
3109.347,5.367892864454063
3110.3412,3.1054236636530845
3111.3348,7.021078800864643
3112.3277,10.465051512436958
3113.32,10.187534964507961
3114.3117,13.038722218564999
3115.3028,8.418806234220824
3116.2932,11.077979840700664
3117.2831,10.816435783042095
3118.2723,18.984366695502843
3119.2608,17.331965104176334
3120.2488,22.30942334531261
3121.2361,19.966933581842056
3122.2229,15.75468775360116
3123.209,25.67287760075726
3124.1944,21.871694705931077
3125.1793,24.601330395014656
3126.1635,22.711975775183532
3127.1471,31.753821707599684
3128.1301,24.02705882630579
3129.1125,27.181877447806016
3130.0942,29.468467648334695
3131.0753,36.83701923230717
3132.0558,33.33772170945463
3133.0357,24.070764221138745
3134.015,31.186335575343662
3134.9936,38.48462433934628
3135.9716,40.81581876856001
3136.949,46.83010673355244
3137.9258,42.62767569673309
3138.902,42.25871265221048
3139.8775,48.273404167816636
3140.8524,42.07193638879636
3141.8267,47.254494977660556
3142.8004,47.67126517620068
3143.7735,52.472431753663614
3144.7459,52.95817900258356
3145.7178,50.278690690770816
3146.689,51.884150056453734
3147.6596,53.07473983507418
3148.6295,63.90064224323237
3149.5989,52.36203896678154
3150.5676,58.70911105256846
3151.5357,60.392039023819734
3152.5032,50.06100281667085
3153.4701,55.866181763337124
3154.4364,59.70775469542383
3155.402,64.93589988587442
3156.367,65.10079501055489
3157.3315,60.65261709597229
3158.2952,61.99154251762582
3159.2584,60.76774704448869
3160.221,65.83140582561884
3161.1829,70.0326934023968
3162.1442,67.2717836578893
3163.105,73.39884977483615
3164.065,73.66406426325966
3165.0245,72.11759889919347
3165.9834,70.90962472203091
3166.9416,75.09031204998936
3167.8993,79.75983049219016
3168.8563,77.31834890685167
3169.8127,74.16603535459399
3170.7684,81.70305712285389
3171.7236,81.97958075740772
3172.6782,86.6457719870017
3173.6321,85.801795720586
3174.5854,87.0978160006533
3175.5381,89.23399601167836
3176.4902,88.36049806715764
3177.4417,87.67748358824772
3178.3926,92.58511311250024
3179.3428,91.03354630069225
3180.2924,93.62294188774956
3181.2415,95.60345769826284
3182.1899,97.82525062059304
3183.1377,99.2384765870668
3184.0848,100.64329055175844
3185.0314,102.53984647635733
3185.9773,98.22829731612029
3186.9227,99.65879500090563
3187.8674,102.88149047828881
3188.8115,107.79653369925757
3189.755,102.65407358598458
3190.6979,107.1542579826774
3191.6402,110.39723370700284
3192.5818,110.9831465050853
3193.5229,107.86214101907694
3194.4633,109.53436078129857
3195.4031,110.44994824544958
3196.3423,111.30904476988587
3197.2809,115.11179060846382
3198.2189,116.55832490194939
3199.1563,126.19878563999076
3200.0931,119.38330964665288
3201.0292,116.66203248401291
3201.9648,122.73508852031502
3202.8997,124.10261095718309
3203.834,123.26473176889013
3204.7677,126.77158168868311
3205.7008,129.82329021716188
3206.6333,128.96998558721035
3207.5652,139.2117947334797
3208.4964,134.8488433009213
3209.4271,131.38125554236845
3210.3571,133.05915436216623
3211.2865,132.58266135084722
3212.2154,138.35189676835233
3213.1436,137.71697954879602
3214.0712,142.6780272427738
3214.9982,141.08515602371145
3215.9246,140.68848063825445
3216.8503,143.8381144221969
3217.7755,141.53416930444783
3218.7001,149.82675577553545
3219.624,146.6659829106461
3220.5473,154.05195828669866
3221.4701,151.53478801395232
3222.3922,153.76457666214654
3223.3137,155.74142728567307
3224.2346,158.86544140127802
3225.1549,158.08671896829298
3226.0746,161.45535835739534
3226.9937,157.6214563583953
3227.9121,154.98510814654946
3228.83,162.8464073208999
3229.7473,162.35544593063767
3230.6639,168.96231439648977
3231.5799,163.11710151562872
3232.4954,165.36989439560398
3233.4102,169.570778512794
3234.3244,167.51983768987822
3235.238,171.01715405382842
3236.151,175.81280805641796
3237.0634,173.20687843924864
3237.9752,176.59944218579417
3238.8864,177.04057454745964
3239.797,180.9303490096556
3240.7069,183.86883728738684
3241.6163,179.5561092863547
3242.5251,185.34223307357226
3243.4332,188.77727492049127
3244.3408,187.16129924514135
3245.2477,187.19436857777927
3246.154,192.5265435770488
3247.0598,186.7578830296501
3247.9649,190.28844379701775
3248.8694,198.41828087300763
3249.7733,189.4474473485912
3250.6766,202.02599433055693
3251.5793,200.453971031219
3252.4814,196.83142464263148
3253.3829,202.3584003523089
3254.2838,200.88494137945145
3255.1841,197.7610889196753
3256.0838,202.6868821597473
3256.9829,202.76235830882322
3257.8814,201.6375525491901
3258.7792,202.91249803551133
3259.6765,208.33722590607476
3260.5731,209.26176527004318
3261.4692,208.2361431532071
3262.3647,209.3603844887394
3263.2595,208.53451212745148
3264.1538,205.7585468265508
3265.0474,213.13250725789976
3265.9404,209.70641003577518
3266.8329,207.78026964312892
3267.7247,207.15409846584856
3268.616,208.927906812019
3269.5066,205.95170291818414
3270.3966,208.27549293160877
3271.286,200.49928094004053
