RamanShift,CorrectedData
30.1047,6726.265957704064
32.3739,6273.928958497605
34.6426,5829.191892028485
36.9109,5384.504628294757
39.1787,4951.016979002549
41.4461,4502.278702012945
43.7131,4068.189505676858
45.9796,3626.7990533224097
48.2456,3193.1069675958242
50.5112,2757.512834875332
52.7764,2318.8162096080932
55.0411,1884.9166186661394
57.3054,1456.263565733338
59.5692,1028.7065356443895
61.8326,608.2449986713592
64.0955,175.52841479924626
66.3579,-227.19376206939978
68.6199,-627.4220797873135
70.8815,-988.9548165415466
73.1426,-1230.3839825725747
75.4032,-1128.1917084622567
77.6634,-206.09783325646868
79.9231,2836.5390746340804
82.1824,10440.862505716035
84.4412,31028.71592213065
86.6995,57044.942681610555
88.9574,59340.33583160122
91.2148,58871.537849098706
93.4717,58391.7906176957
95.7282,57923.0854322695
97.9842,57456.163003779526
100.2398,56996.76346395434
102.4949,56532.32636996088
104.7495,56072.840708998425
107.0036,55615.19490294304
109.2573,55160.176812942365
111.5105,54699.273743992104
113.7632,54243.272449486176
116.0154,53780.2091358258
118.2672,53334.11946697946
120.5185,52879.53856911355
122.7693,52425.5510350533
125.0197,51969.24092882853
127.2696,51514.79179021354
129.519,51066.436639290245
131.7679,50609.20798099264
134.0163,50163.98780959038
136.2642,49713.057613261015
138.5117,49263.54837854224
140.7587,48819.5405948412
143.0052,48371.26425892953
145.2512,47933.64887938348
147.4967,47495.373481066636
149.7417,47048.41660950615
151.9863,46606.70633527539
154.2304,46163.8202584636
156.4739,45728.485513092965
158.717,45300.47877154743
160.9596,44853.676248926145
163.2017,44424.003707323456
165.4433,43993.836460296916
167.6844,43565.999377164095
169.925,43133.116887304175
172.1651,42710.06298443637
174.4047,42282.71123094874
176.6439,41856.53476212865
178.8825,41428.95629043645
181.1206,41008.14810976706
183.3582,40584.23209972591
185.5954,40170.0297298369
187.832,39751.21206378164
190.0681,39335.34976354146
192.3037,38918.11309358561
194.5388,38508.121925029845
196.7734,38097.895739808795
199.0075,37688.60363477588
201.2411,37276.46432580558
203.4742,36876.19615188638
205.7068,36473.31707924213
207.9389,36077.14470533469
210.1704,35672.046262892836
212.4015,35275.78862387385
214.632,34888.738303514605
216.862,34507.461464294094
219.0915,34119.52391980392
221.3205,33735.19113856111
223.549,33353.428247887445
225.777,32968.6500377528
228.0044,32584.77096459276
230.2314,32205.505155156472
232.4578,31831.56641034536
234.6837,31446.418209005788
236.909,31069.12371166853
239.1339,30669.89576440017
241.3582,30314.596902576093
243.582,29912.73935487274
245.8053,29562.685046820574
248.0281,29204.395604822676
250.2503,28834.782359655284
252.472,28471.85635005067
254.6932,28113.678326393332
256.9139,27761.95875434921
259.134,27402.857818447475
261.3536,27052.935425597723
263.5727,26700.95120868097
265.7912,26354.01453004894
268.0092,26011.98448504383
270.2267,25670.519905467714
272.4436,25325.079363002842
274.6601,24975.721172626254
276.8759,24652.50339606424
279.0913,24309.333845285866
281.3061,23976.170085735204
283.5204,23644.51943976299
285.7341,23315.638989958294
287.9473,22978.935582464983
290.16,22661.715830270587
292.3721,22346.53611657326
294.5837,22031.302597954076
296.7947,21709.371207528726
299.0052,21398.147658099944
301.2152,21082.387445376764
303.4246,20781.295851086783
305.6334,20472.27794613375
307.8418,20164.28859360848
310.0495,19864.68245187908
312.2568,19563.9639776708
314.4635,19262.037429062075
316.6696,18961.556868491723
318.8752,18662.32616577822
321.0802,18379.199001124456
323.2847,18088.27886811011
325.4887,17804.969076522902
327.692,17513.622755267803
329.8949,17234.99285520008
332.0972,16952.732152038814
334.2989,16673.193249153148
336.5001,16397.178580384927
338.7007,16126.840412844096
340.9008,15857.280849668787
343.1003,15586.851832728797
345.2992,15315.85514532114
347.4976,15052.842414874336
349.6955,14788.515115658367
351.8927,14532.52457141487
354.0895,14264.221958000293
356.2856,14017.808305945924
358.4812,13769.134503140827
360.6763,13518.301297296035
362.8707,13271.009298431243
365.0646,13025.30898138319
367.258,12786.000688278524
369.4508,12536.634630990811
371.643,12298.310893533686
373.8346,12063.879434554401
376.0257,11826.64008971714
378.2162,11602.942574047294
380.4062,11367.836484303902
382.5956,11141.37130121659
384.7844,10918.246391836663
386.9726,10701.111011801731
389.1603,10481.814307566987
391.3474,10232.005318576536
393.5339,10048.132979456415
395.7199,9845.346122512623
397.9052,9639.193479569854
400.09,9434.273683999316
402.2743,9228.985272780352
404.4579,9026.126688549586
406.641,8824.246281653825
408.8235,8632.942312178624
411.0054,8436.062951967171
413.1868,8235.756286533266
415.3675,8042.270317030103
417.5477,7856.902962253313
419.7273,7666.302060575923
421.9064,7477.715371801918
424.0848,7301.5905790723045
426.2627,7120.77529075092
428.4399,6937.167042185749
430.6166,6761.8132975169865
432.7928,6591.611451513199
434.9683,6425.108831324869
437.1432,6256.302698186366
439.3176,6092.440249081039
441.4914,5934.068618429243
443.6645,5768.334879726957
445.8371,5606.286047129521
448.0091,5450.169077108942
450.1806,5300.530870074457
452.3514,5150.518271933637
454.5216,4992.778075588787
456.6913,4850.5570224370385
458.8603,4710.451803947792
461.0288,4567.409063084866
463.1967,4429.825395707579
465.3639,4285.997352001214
467.5306,4147.42143785279
469.6967,4021.0441162893912
471.8622,3889.111808863883
474.0271,3756.4708969187413
476.1914,3625.06772290534
478.3551,3505.098591710397
480.5182,3382.9097719699857
482.6807,3268.8974972692085
484.8426,3158.207967364113
487.0039,3035.68734932183
489.1647,2916.2817786274027
491.3248,2802.98736040901
493.4843,2697.200170632059
495.6432,2590.616257232112
497.8015,2477.531641172798
499.9592,2368.6423175115706
502.1163,2268.544256530615
504.2728,2184.0334048257064
506.4287,2093.455686307185
508.5839,2003.9070030450675
510.7386,1903.9332361748166
512.8927,1800.1802467928283
515.0461,1716.9938769561923
517.199,1634.6199507202473
519.3512,1548.6542749704677
521.5029,1466.3926402461657
523.6539,1393.6308216001344
525.8043,1312.0645794212833
527.9541,1235.38966016224
530.1033,1167.151797155013
532.2519,1097.4967113777602
534.3999,1029.3201121371822
536.5472,961.1176977649957
538.694,904.5351562997821
540.8401,841.018166168964
542.9856,771.4123967546839
545.1305,707.0635090289143
547.2748,645.7671562495016
549.4185,593.018984603681
551.5615,547.6646338209903
553.704,501.1938193713213
555.8458,455.8407855548503
557.987,417.0347697455145
560.1276,369.0504554677682
562.2675,327.6583600686936
564.4069,291.92531408129435
566.5456,254.11487473154557
568.6837,222.1376829114597
570.8212,188.65184090545517
572.958,152.46323184247012
575.0942,129.02585421958065
577.2299,105.79218342609238
579.3648,91.26340588302992
581.4992,71.68965114749881
583.6329,50.82013705510326
585.766,23.20336526180472
587.8985,-3.412670269681257
590.0304,-44.58020737829065
592.1616,-52.40144981042249
594.2922,-72.67815595622233
596.4222,-90.31156071534497
598.5515,-107.7521729326836
600.6802,-115.99959924069117
602.8083,-124.55236982764472
604.9358,-136.6078560458336
607.0626,-147.46218496937217
609.1888,-163.91011895990232
611.3144,-170.04494723187963
613.4393,-171.40832153769588
615.5636,-180.04019488074846
617.6873,-181.8788078953221
619.8103,-188.71060261420644
621.9327,-188.57020410094992
624.0544,-186.14035220022924
626.1756,-190.30190294042404
628.2961,-198.4838528077962
630.4159,-196.7132971726969
632.5351,-199.11534855178616
634.6537,-204.1631542959076
636.7716,-202.22787259363395
638.8889,-205.22862204359262
641.0056,-200.63250098800927
643.1216,-196.85455753525457
645.237,-194.7578354749785
647.3518,-183.05341201986448
649.4659,-179.0004187518207
651.5793,-172.6561585492018
653.6922,-169.47614607623836
655.8043,-168.01417116209632
657.9159,-163.67233056927216
660.0268,-157.55104259874497
662.137,-152.24909046492394
664.2466,-151.4652558066955
666.3556,-141.79831874040974
668.4639,-134.29705786774866
670.5716,-119.16025037240615
672.6786,-118.98667209507403
674.785,-115.42509768485615
676.8907,-101.67430060092738
678.9958,-82.53305314825411
681.1002,-78.35012661499786
683.204,-76.974291464001
685.3072,-61.40431737455947
687.4097,-47.03897325615981
689.5115,-42.82702740424429
691.6127,-17.36724764387327
693.7132,-8.558401371796208
695.8131,-21.499255811053445
697.9123,10.211421900923597
700.0109,24.57486484173569
702.1089,40.29230598686263
704.2061,58.56497806607513
706.3028,67.99411340623192
708.3987,85.68094374853536
710.4941,102.7767001543034
712.5887,122.93261282811
714.6827,139.04991094678553
716.7761,162.42982245785242
718.8688,176.62357391839032
720.9608,189.73239026123338
723.0522,203.45749465304834
725.1429,232.45010836318397
727.233,252.76145062644355
729.3224,273.2927383531933
731.4112,297.2451859261928
733.4993,313.6700049952924
735.5867,336.31840423795074
737.6735,357.79158919496695
739.7596,376.74076204400626
741.845,406.6171213848065
743.9298,425.3218620497428
746.014,456.7061748050255
748.0974,474.92124616369256
750.1802,498.51825807176647
752.2624,524.498387726082
754.3439,549.8128073382686
756.4247,572.0626838750177
758.5048,604.8491788048923
760.5843,634.573447875795
762.6631,663.3866407871828
764.7413,689.2899008928143
766.8188,718.9343649125876
768.8956,747.4211626735487
770.9718,781.801416813425
773.0473,810.5262424957546
775.1221,841.8467470660253
777.1962,874.0640297645223
779.2697,905.2291814130804
781.3426,919.6932840929221
783.4147,974.3074108330329
785.4862,1006.8726254655194
787.557,1037.9899820794162
789.6271,1071.5605246950581
791.6966,1109.3852869529146
793.7654,1135.0652917778716
795.8335,1176.751551000947
797.901,1214.2950651025676
799.9678,1242.4468227956168
802.0339,1277.6078006500757
804.0993,1308.5289628114624
806.1641,1349.361260649297
808.2282,1384.5056324478574
810.2916,1406.8130029978274
812.3544,1478.2842832448805
814.4164,1469.8203700665326
816.4778,1503.2221455575345
818.5385,1560.8404771144633
820.5986,1598.0262171016875
822.658,1644.6302022751843
824.7166,1712.6532534106664
826.7747,1695.046174837611
828.832,1744.1597537589769
830.8886,1830.044760427263
832.9446,1884.4519476533897
834.9999,1834.3820499478315
837.0545,1928.3357829766173
839.1085,2023.563844061944
841.1618,2028.9669112427146
843.2143,2012.5456423222422
845.2662,2060.900674814213
847.3175,2126.8326261068796
849.368,2043.942092979487
851.4179,2226.279650943019
853.467,2184.195855069098
855.5155,2293.7412381666218
857.5633,2259.516311202504
859.6105,2270.5715622063
861.6569,2370.3574566124007
863.7027,2315.5244371495282
865.7478,2417.172922842852
867.7922,2470.5533095623614
869.8359,2553.565969006362
871.8789,2512.7112481676813
873.9212,2606.3394685035164
875.9629,2707.3509263440064
878.0039,2732.5958919559052
880.0441,2757.5246085324397
882.0837,2816.7872919409274
884.1226,2870.584130473464
886.1609,2918.565284254313
888.1984,2909.180884701891
890.2352,3052.931034049012
892.2714,3006.265805436735
894.3069,3130.9352414768
896.3416,3126.0893547183223
898.3757,3181.578126401073
900.4091,3107.451506504003
902.4418,3344.4594131902777
904.4739,3306.251733548568
906.5052,3377.5783212230017
908.5358,3418.18899679523
910.5658,3417.283547071158
912.595,3486.3117246748225
914.6236,3401.9732480574385
916.6515,3693.2678008071307
918.6786,3507.9950324923193
920.7051,3640.604555748796
922.7309,3691.195948132372
924.756,3792.118750792899
926.7804,3799.922467968274
928.8041,3715.7565659752872
930.8272,3901.1704731315476
932.8495,3969.1635805971455
934.8711,3934.635240520496
936.892,3932.234765358422
938.9123,4036.0614282213646
940.9318,4049.364462897458
942.9506,4088.6930628142
944.9688,4182.696380905538
946.9862,4097.623529218479
949.003,4245.873577973121
951.019,4148.195556413375
953.0344,4258.088451324424
955.0491,4306.701208009537
957.063,4445.182729191125
959.0763,4531.831874524629
961.0888,4497.997459213664
963.1007,4679.428253143553
965.1119,4739.272981219692
967.1223,4712.880321553195
969.1321,4930.998904862492
971.1412,4839.5273147371845
973.1495,4815.514085456976
975.1572,4963.907702906319
977.1641,4983.206604814506
979.1704,5053.009179271772
981.1759,5154.313764536353
983.1808,5056.968648336449
985.1849,5176.872066857126
987.1884,5334.322205713783
989.1911,5527.417198753159
991.1932,5222.005126478754
993.1945,5400.534014119956
995.1951,5590.401834686127
997.1951,5394.156507181302
999.1943,5470.895894705551
1001.1928,5444.9178064173975
1003.1906,5628.319996766426
1005.1877,5277.550165753091
1007.1841,5254.1059570946745
1009.1798,5340.934961732921
1011.1748,5387.584718068538
1013.1691,5353.352711092899
1015.1627,4122.036371921575
1017.1556,4931.48307813664
1019.1477,5103.7901660998905
1021.1392,4596.804922858297
1023.1299,3839.2245844209756
1025.12,4597.196340828981
1027.1093,4245.7173437312085
1029.0979,4388.484698804576
1031.0859,4347.195469268845
1033.0731,3714.296674458965
1035.0596,4140.535290237931
1037.0454,4021.4582553258224
1039.0304,3705.7624670373843
1041.0148,2849.444782472812
1042.9985,3136.5520216746954
1044.9814,3785.7809761912067
1046.9636,2968.4784062050167
1048.9452,3232.0410340409944
1050.926,3121.015552339253
1052.9061,3153.748621419494
1054.8855,3316.536870391341
1056.8642,2947.5768968269113
1058.8421,2703.5652651330165
1060.8194,2919.4485102406907
1062.7959,2599.7731400453267
1064.7717,3162.085633247865
1066.7469,2900.4824425515835
1068.7213,3054.659989038926
1070.695,2711.514664787537
1072.6679,2383.692831328488
1074.6402,2808.140823077716
1076.6117,2397.304950614278
1078.5826,2546.431496435849
1080.5527,2620.1667190670632
1082.5221,2520.0068515682797
1084.4908,2811.9481007982104
1086.4587,2805.636648415515
1088.426,2991.2686479593685
1090.3925,2974.5402249126346
1092.3584,2874.647474845471
1094.3235,2411.086463582702
1096.2879,2417.7532282027096
1098.2515,2608.393781673025
1100.2145,2475.054112783684
1102.1767,2483.5801842407527
1104.1382,2790.967933999782
1106.099,2739.5132751805213
1108.0591,2892.062092993052
1110.0185,2428.7102452523977
1111.9771,3061.553560852961
1113.9351,2681.737844402094
1115.8923,2244.558869891611
1117.8488,1851.162384495925
1119.8045,1396.1941129439292
1121.7596,1576.8997614529217
1123.7139,1312.8750222782037
1125.6675,1409.9155719061891
1127.6204,1447.767073694551
1129.5726,1156.9251769018156
1131.524,1448.2855163089043
1133.4748,1572.0437151274527
1135.4248,1390.7453820863084
1137.3741,1418.1361101938965
1139.3226,1369.511478551227
1141.2705,1351.6670520779662
1143.2176,1246.9483819986563
1145.164,1123.401006021173
1147.1097,1234.9704493839454
1149.0546,1211.852226091367
1150.9989,1286.6418377981609
1152.9424,967.3347740405297
1154.8852,981.3265114882961
1156.8272,771.3125171379579
1158.7686,1058.1382481728142
1160.7092,597.9991540630072
1162.6491,542.3406736973411
1164.5883,811.0582399846462
1166.5267,683.3472804103294
1168.4644,950.6532143493023
1170.4014,1037.621454342996
1172.3377,1452.9474034263549
1174.2732,1708.4264542580931
1176.2081,1748.6039849675144
1178.1421,1874.2753565996973
1180.0755,2289.3859127136748
1182.0082,2123.780978125804
1183.9401,2177.9058547585882
1185.8713,1852.40582329678
1187.8017,1770.1261426460987
1189.7315,1624.912053188229
1191.6605,1208.708777603606
1193.5888,979.3115223235436
1195.5163,798.9654816922848
1197.4432,690.8658402609653
1199.3693,660.707774591101
1201.2947,558.086454335571
1203.2193,572.8470425401902
1205.1432,514.5846966699391
1207.0664,550.9945684613485
1208.9889,559.2718045051297
1210.9106,535.9615458820554
1212.8316,549.0589280801942
1214.7519,631.6090812280527
1216.6715,564.557129963534
1218.5903,629.9981926084874
1220.5084,512.2773818392016
1222.4257,588.4898040320113
1224.3424,389.38056044049154
1226.2583,426.1447464333032
1228.1735,588.7774534853816
1230.0879,540.6237688101537
1232.0016,662.0287737333274
1233.9146,676.1375441744094
1235.8269,591.2951494326044
1237.7384,561.9466520457499
1239.6492,268.1371086388026
1241.5592,207.76157021721883
1243.4686,105.8650851051425
1245.3772,54.34269954903721
1247.285,7.989458736774395
1249.1922,-44.3995926872085
1251.0986,19.120589841681067
1253.0042,-122.75450556003489
1254.9092,-16.279390967036306
1256.8134,-16.307352136493137
1258.7169,224.6084878055335
1260.6196,333.2651686433892
1262.5216,628.3097279153735
1264.4229,731.4891998271632
1266.3234,952.00061230133
1268.2232,1042.640985945618
1270.1223,1013.6073318477647
1272.0207,1011.5466506691373
1273.9183,964.1559329350057
1275.8151,956.332159055215
1277.7113,831.4222997980396
1279.6067,747.0733163684345
1281.5014,649.2821616571746
1283.3953,531.7957810843363
1285.2885,529.0111135771731
1287.181,557.4250927450412
1289.0727,704.684646907197
1290.9637,686.5866988087146
1292.854,889.0781641478316
1294.7435,934.4059517569331
1296.6323,1230.9669615776074
1298.5204,1493.6580842074545
1300.4077,1723.8261979343588
1302.2943,1902.968166109691
1304.1802,2010.3308348466453
1306.0653,1901.211031228726
1307.9497,1854.2555622361906
1309.8333,1850.5612158372169
1311.7162,1798.174761457427
1313.5984,1908.5929500168786
1315.4798,1928.812514453908
1317.3605,2111.680168620929
1319.2405,2308.4426070822374
1321.1197,2356.896503285381
1322.9982,2305.0385075934755
1324.876,2352.315246800703
1326.753,2309.723324650884
1328.6293,2419.459321364673
1330.5048,2556.1197940654965
1332.3796,2516.0012756822034
1334.2537,2506.2502735825037
1336.127,2439.9132699740803
1337.9996,2499.0367220021362
1339.8714,2467.867062412777
1341.7426,2393.200698961715
1343.6129,2464.834014726017
1345.4826,2395.96336885076
1347.3515,2567.635095832695
1349.2196,2500.3455062089415
1351.087,2559.140884840286
1352.9537,2613.1174915840675
1354.8197,2802.9715607062462
1356.6849,3051.6993003416355
1358.5493,3097.4468905953327
1360.4131,3142.8604810554607
1362.276,3121.386190335659
1364.1383,2990.270105621006
1365.9998,2780.358282882691
1367.8606,2467.9967481892163
1369.7206,2243.531499805489
1371.5799,2081.8085113164852
1373.4384,1964.4737338718624
1375.2962,1856.2730978032268
1377.1533,1546.8525137974866
1379.0096,1256.6578739788165
1380.8652,1066.4850550029223
1382.7201,844.5799209589386
1384.5742,564.6883252711777
1386.4275,445.3561129181762
1388.2802,313.8791232316289
1390.132,176.75319108965778
1391.9832,210.7741482316269
1393.8336,43.03782462938398
1395.6832,38.490048147061316
1397.5322,30.226646218419774
1399.3803,-3.1565541076633963
1401.2278,-69.0637260845615
1403.0745,-73.74901143171883
1404.9204,-125.46586192196264
1406.7656,-31.06699257549917
1408.6101,-101.20386500861059
1410.4538,-92.92763047831977
1412.2968,-21.638429215068754
1414.139,-74.88547310228023
1415.9805,103.93224214452493
1417.8213,107.71646891567434
1419.6613,167.8689585621869
1421.5006,441.09146135798073
1423.3391,657.4857258982593
1425.1769,945.8034963673344
1427.0139,1496.8465103746857
1428.8502,2087.116496071758
1430.6858,2636.815166641525
1432.5206,2959.84421439582
1434.3547,3275.205305278345
1436.188,3350.500075634358
1438.0206,3318.580129057107
1439.8524,3198.2470356348276
1441.6835,3180.902332269987
1443.5139,3070.347523882596
1445.3435,2966.3340835836425
1447.1724,3012.06345378068
1449.0005,2967.0870472179304
1450.8279,2888.456246519003
1452.6545,2945.8724046366406
1454.4804,3033.386845639041
1456.3056,3018.2008641356733
1458.13,2977.8157244021313
1459.9536,2880.932660532024
1461.7766,2552.2028768408018
1463.5987,2204.6775488346175
1465.4202,1857.557826497563
1467.2409,1481.5948377669993
1469.0608,1371.539692004695
1470.88,1106.843483756522
1472.6984,989.8072938529222
1474.5161,774.5321920559472
1476.3331,628.9692382295761
1478.1493,539.1194844924321
1479.9648,551.733976673484
1481.7795,530.7137552104941
1483.5935,485.9598550238734
1485.4067,455.42330572693754
1487.2192,512.9551320734172
1489.031,472.5063542628304
1490.842,405.6779873651685
1492.6522,443.62104172536783
1494.4618,437.08652363159854
1496.2705,487.7754349358147
1498.0785,503.78877311912584
1499.8858,499.92753078489477
1501.6924,477.7426954986404
1503.4981,524.1852498266053
1505.3032,516.2061715576165
1507.1075,541.6064332386704
1508.911,517.4370022547264
1510.7138,563.7988405746801
1512.5159,498.29290499309354
1514.3172,509.6201466665407
1516.1178,482.3815117686936
1517.9176,432.8779413770244
1519.7166,410.51037174521116
1521.515,418.2797347981723
1523.3126,441.78695835572944
1525.1094,429.03296605492505
1526.9055,393.26867711494197
1528.7008,405.99500646466913
1530.4954,281.11286510030186
1532.2893,373.1231599581224
1534.0824,269.6267951632726
1535.8747,313.27467110968064
1537.6663,289.567685495007
1539.4572,306.60673288418184
1541.2473,354.4427049464757
1543.0367,295.02649028509404
1544.8253,247.00897395882203
1546.6132,352.8410380762107
1548.4003,288.62356227571945
1550.1867,303.00742266742964
1551.9723,339.39349247519567
1553.7572,388.0326418928307
1555.5414,443.0257377202106
1557.3247,534.1236428768971
1559.1074,560.9272158522326
1560.8893,582.6873097943171
1562.6705,671.1047722419862
1564.4509,722.0804449072202
1566.2305,790.0151627909472
1568.0094,975.6597536733098
1569.7876,1059.4650374343037
1571.565,1115.6318241973313
1573.3417,1167.610913491164
1575.1176,1200.8530936882562
1576.8928,1230.8591414849689
1578.6672,1146.7298215691408
1580.4409,1055.9158863200246
1582.2138,911.1180766496072
1583.986,829.1371229107172
1585.7575,793.9237463450409
1587.5282,732.7786599028805
1589.2981,759.6525685953129
1591.0673,652.0461701056411
1592.8358,718.7101545206315
1594.6035,698.3952054065994
1596.3704,653.2019991427514
1598.1366,705.4312051243905
1599.9021,786.183486214788
1601.6668,797.2594982229239
1603.4308,873.7098890959642
1605.194,959.5852988084662
1606.9564,1074.636358597927
1608.7182,1152.2136901059675
1610.4791,1301.8679042278745
1612.2394,1435.2496003368105
1613.9988,1625.4593647872753
1615.7576,1867.2977695812588
1617.5156,2130.3153704661745
1619.2728,2385.562704516484
1621.0293,2509.840287503488
1622.785,2600.8986113428946
1624.54,2507.1881428520173
1626.2942,2388.509322839207
1628.0477,2128.6625670409485
1629.8005,1981.9482673086459
1631.5525,1774.8667942070933
1633.3037,1605.4184984816056
1635.0542,1455.0537131288438
1636.804,1351.3227550912961
1638.553,1346.3259267609174
1640.3013,1295.2135170164293
1642.0488,1275.6858012733173
1643.7955,1322.543041994937
1645.5416,1342.4354888877933
1647.2868,1438.0633784329912
1649.0313,1555.7769336872807
1650.7751,1711.9263633267801
1652.5181,1894.0618604698684
1654.2604,2076.63360111566
1656.0019,2366.141742322674
1657.7427,2685.1364203830817
1659.4828,3022.6677479276696
1661.222,3251.6858107358676
1662.9606,3287.1406643604423
1664.6984,3157.532331837294
1666.4354,2881.0108033309334
1668.1717,2396.8260374305537
1669.9072,1991.3279639152352
1671.642,1663.6164885958133
1673.3761,1336.5914973698636
1675.1094,1131.5528594988027
1676.8419,939.5004308781317
1678.5737,750.2840560878503
1680.3048,691.9035703129412
1682.0351,580.8588012355722
1683.7646,490.44956961887146
1685.4934,481.4756904173919
1687.2215,429.4369736811932
1688.9488,321.9832246456099
1690.6754,336.61424425159566
1692.4012,314.32983022029657
1694.1263,287.17977690673433
1695.8506,308.56387552263186
1697.5742,277.58191440791416
1699.297,212.03367881688246
1701.0191,180.56895122804417
1702.7404,165.98751199956314
1704.461,124.03913968393681
1706.1808,103.92361117378823
1707.8999,127.24070212135484
1709.6182,98.39018713967016
1711.3358,94.02183956935187
1713.0527,102.38543176712847
1714.7688,90.1807351495263
1716.4841,48.1575201092237
1718.1987,74.96555613710007
1719.9126,78.70461224244355
1721.6257,33.82445668490982
1723.338,86.37485693710187
1725.0496,-8.244419866601675
1726.7605,40.36639254445254
1728.4706,14.757142802638555
1730.18,-37.472320863311325
1731.8886,-16.322150372227043
1733.5964,12.957876705531817
1735.3036,20.618145857868512
1737.0099,-6.640957556883222
1738.7156,27.730951613433717
1740.4204,-29.865675135886704
1742.1246,11.619613413156912
1743.8279,-12.212433163360402
1745.5306,5.4889345944684464
1747.2325,0.9745881487506267
1748.9336,12.89539890668675
1750.634,-14.397761734249798
1752.3336,6.245977494454564
1754.0325,60.027631694938464
1755.7307,45.148215906905534
1757.4281,72.70874456977981
1759.1247,123.41023167150706
1760.8206,94.95369047295753
1762.5158,93.390133000903
1764.2102,99.72057033257806
1765.9039,96.89601261132702
1767.5968,129.06746898330675
1769.289,94.43594762572684
1770.9804,103.8524554251162
1772.6711,168.11799832365796
1774.361,157.48358122502032
1776.0502,150.700207351696
1777.7386,187.5688783513433
1779.4263,162.59059436463212
1781.1132,186.66635365653565
1782.7994,179.4971528660899
1784.4849,204.38398676569705
1786.1696,185.92784833276528
1787.8535,202.27972850086007
1789.5367,214.390616344288
1791.2192,217.01149891459136
1792.9009,184.04336111939847
1794.5818,233.63718569623597
1796.2621,235.0439535422047
1797.9415,255.36464321803578
1799.6202,240.65023093402124
1801.2982,258.9516903468357
1802.9755,268.86999270665365
1804.6519,293.00610667414367
1806.3277,226.96099822128235
1808.0027,227.6856303899931
1809.6769,250.18096395259636
1811.3504,254.39795740455338
1813.0231,275.0375667395365
1814.6951,285.70074540724636
1816.3664,338.83844410700476
1818.0369,355.8016106811392
1819.7067,338.5411895836005
1821.3757,365.1081217103292
1823.044,364.2533445718709
1824.7115,341.027792027684
1826.3783,337.9323942947067
1828.0443,325.0680781796
1829.7096,342.68576710970956
1831.3741,366.436381261703
1833.0379,367.12083738540423
1834.701,390.54004856628126
1836.3633,409.09492421860705
1838.0248,397.18636985124976
1839.6856,439.165286882122
1841.3457,445.88257275728756
1843.005,466.7891205311553
1844.6636,458.3858187993246
1846.3214,466.12355148949973
1847.9785,488.0031979455416
1849.6349,504.975632850088
1851.2904,490.49172600575366
1852.9453,505.3023421654125
1854.5994,486.408341177028
1856.2528,565.2605778355501
1857.9054,546.809902071851
1859.5572,580.3571581642154
1861.2083,579.8531849228311
1862.8587,618.0988153543167
1864.5084,615.9448766667756
1866.1572,599.5421898873283
1867.8054,547.2415698836485
1869.4528,594.2938255279969
1871.0994,573.3997602202162
1872.7453,627.7601714172197
1874.3905,627.1258508419305
1876.0349,606.297583939675
1877.6786,664.9261498845262
1879.3215,674.7623217875753
1880.9637,695.106866110671
1882.6051,697.9605425680475
1884.2458,690.074103922876
1885.8858,652.2482959587323
1887.525,680.683857558457
1889.1634,609.731521082409
1890.8011,615.6920120841205
1892.4381,627.9160500198068
1894.0743,660.6043481887682
1895.7098,675.4076136111507
1897.3446,697.3765467010799
1898.9786,721.6118411186035
1900.6118,689.4641835500206
1902.2443,686.734253465509
1903.8761,674.3227234406259
1905.5071,612.8802591835811
1907.1374,590.5575196593691
1908.7669,645.8051577041806
1910.3957,634.1238202486384
1912.0237,604.2641477653196
1913.651,607.5267743855748
1915.2776,647.6123281981199
1916.9034,602.9714312164051
1918.5285,584.0546989777686
1920.1528,568.5627409898298
1921.7764,599.5961609196747
1923.3992,569.6555567487558
1925.0213,544.2415204625704
1926.6427,508.30463835005503
1928.2633,508.19549125773665
1929.8832,531.7146549491044
1931.5023,491.86270010570115
1933.1207,499.190192091919
1934.7383,487.89769135353527
1936.3552,479.78575334443303
1937.9714,507.1049286395155
1939.5868,486.0557630158346
1941.2015,454.8387971794036
1942.8154,471.95456697568625
1944.4286,457.1536037017613
1946.041,411.43643393517414
1947.6528,394.4035796819444
1949.2637,422.4055588337269
1950.8739,364.592885338152
1952.4834,399.2660689187978
1954.0921,393.7256156533149
1955.7001,391.77202762670095
1957.3074,435.2558029867123
1958.9139,391.1774359633873
1960.5197,384.137416434216
1962.1247,350.38623036491845
1963.729,341.92435987983845
1965.3325,326.8522835994754
1966.9353,314.4704767250787
1968.5374,303.12941118939125
1970.1387,318.12955578044966
1971.7393,290.87137625499963
1973.3392,298.9553351885006
1974.9383,281.1818922477123
1976.5366,227.30150410983697
1978.1342,263.3646246402677
1979.7311,293.4717054313878
1981.3273,268.6731954419374
1982.9227,272.7195406959472
1984.5173,248.81118453072304
1986.1112,256.948567556381
1987.7044,260.1821278949392
1989.2968,258.1623010989424
1990.8885,246.33952011911606
1992.4795,247.0142153245779
1994.0697,216.93681462104541
1995.6592,233.55774344410383
1997.2479,221.42742505997558
1998.8359,232.44628039931195
2000.4232,216.314728178495
2002.0097,234.33318478944784
2003.5955,205.95206446094926
2005.1805,240.27177907845544
2006.7648,248.59273846790893
2008.3484,217.91535005253718
2009.9312,233.24001876965667
2011.5133,234.3671473774375
2013.0946,230.39713630164806
2014.6752,231.98038362439002
2016.2551,209.56728512380323
2017.8342,235.65823425823328
2019.4126,208.70362239035603
2020.9902,191.3038385262771
2022.5672,215.60926958507298
2024.1433,221.92030057279044
2025.7188,202.38731433938847
2027.2935,209.1106915156215
2028.8674,206.79081070838038
2030.4406,196.87804843345293
2032.0131,179.72277913872313
2033.5849,178.17537530329173
2035.1559,198.13620760903723
2036.7261,206.9056449560885
2038.2957,189.3840542632188
2039.8645,192.7218003801445
2041.4325,226.9692462627554
2042.9998,197.82675293971806
2044.5664,183.69467917002476
2046.1323,198.17338173439748
2047.6974,198.3132155766125
2049.2617,195.5645336587295
2050.8254,227.07768695967206
2052.3883,238.0030245027301
2053.9504,222.24089304042536
2055.5118,209.19163694524832
2057.0725,188.25559836729008
2058.6325,181.33311736473297
2060.1917,190.37453211320462
2061.7502,199.0801789750094
2063.3079,180.6003924087181
2064.8649,198.13550488210421
2066.4212,203.93584705694593
2067.9767,204.20174761366434
2069.5315,191.33353319333582
2071.0856,167.731528395012
2072.6389,145.39605590441352
2074.1915,144.6274367299502
2075.7433,120.02599042607471
2077.2945,130.09203510096995
2078.8448,115.72588766257104
2080.3945,125.27786371789261
2081.9434,134.6982777166886
2083.4916,136.7374428559542
2085.039,120.59567098569642
2086.5857,121.27327258855803
2088.1317,129.9705569412272
2089.677,132.93783210766378
2091.2215,147.17540485212885
2092.7652,146.13358060951577
2094.3083,126.81266334295833
2095.8506,190.71295555425786
2097.3921,206.3347584770927
2098.933,191.12837143802244
2100.4731,174.8940917002601
2102.0124,196.03221461574685
2103.5511,180.79303378747863
2105.089,199.82684085814253
2106.6261,203.9339256624953
2108.1626,196.66457603703202
2109.6983,194.81907777891138
2111.2332,204.84771471865133
2112.7675,211.05076873857797
2114.301,212.27851967255265
2115.8337,221.68124524392442
2117.3657,210.309221053265
2118.897,229.26272048433566
2120.4276,210.94201481780692
2121.9575,190.59737304172813
2123.4866,228.1790620347292
2125.0149,219.83734676947097
2126.5426,194.87248993682442
2128.0695,190.0347520292944
2129.5956,232.72439159066198
2131.1211,215.19166526436857
2132.6458,180.8868273666194
2134.1698,190.01013006169705
2135.693,198.91182370502793
2137.2155,214.54215675193882
2138.7373,212.35137566864432
2140.2584,232.43972477593707
2141.7787,219.4574462710989
2143.2983,197.90478002702548
2144.8171,213.53196372203456
2146.3353,187.5392330554114
2147.8527,201.52682159111828
2149.3693,205.54496101772384
2150.8853,183.6938810085412
2152.4005,173.6738091814277
2153.9149,198.28497131730546
2155.4287,178.02759146036806
2156.9417,224.35189167195495
2158.454,213.70809223314063
2159.9655,202.99641118148065
2161.4764,222.06706441745519
2162.9865,186.52026581158316
2164.4958,193.8062270137143
2166.0045,179.47515780850517
2167.5124,203.07726604255367
2169.0195,220.16275776770817
2170.526,213.93183700505506
2172.0317,220.38470557405162
2173.5367,219.17156315483953
2175.0409,212.1926072237129
2176.5445,223.44803306525137
2178.0473,208.38803384211678
2179.5494,192.46280048249537
2181.0507,204.82252183069977
2182.5513,228.4173848064156
2184.0512,214.59757428111152
2185.5504,205.1132728420789
2187.0488,201.76466093064846
2188.5465,173.35191693702018
2190.0435,197.4252172337474
2191.5397,185.6347364598778
2193.0353,159.13064728020618
2194.5301,150.91312050318447
2196.0241,154.13232534596136
2197.5175,187.28842951656588
2199.0101,171.63159918169822
2200.502,154.21199863518086
2201.9931,151.12979045452357
2203.4835,111.135135675112
2204.9733,140.57819382103935
2206.4622,167.15912330504761
2207.9505,153.17808113410138
2209.438,104.43522264357489
2210.9248,118.5307016370607
2212.4109,133.31467087380042
2213.8962,116.88728192773578
2215.3809,131.94868503966245
2216.8648,125.54902928151205
2218.3479,134.63846240572548
2219.8304,104.86713090925241
2221.3121,108.53517994266349
2222.7931,109.84275360786523
2224.2733,107.23999492141411
2225.7529,106.82704580144309
2227.2317,88.10404709368959
2228.7098,120.82113857561944
2230.1872,86.77845914366753
2231.6638,121.12614648605995
2233.1397,98.9643374232428
2234.6149,93.09316756440148
2236.0894,103.6127715290877
2237.5632,101.92328300593181
2239.0362,87.87483464744037
2240.5085,88.56755808689286
2241.9801,67.00158407882373
2243.4509,71.17704249210055
2244.921,65.49406252557219
2246.3904,70.05277266632493
2247.8591,59.55330074650374
2249.3271,73.19577389773167
2250.7943,61.03031865610319
2252.2608,54.857060825762346
2253.7266,37.52612560054604
2255.1917,54.287637625731804
2256.656,46.241721171332756
2258.1197,54.53849996448844
2259.5826,65.0280972699311
2261.0447,88.26063580700065
2262.5062,55.98623764476906
2263.9669,47.90502396969987
2265.4269,86.86711540839951
2266.8862,62.422632108427024
2268.3448,88.82169334868104
2269.8026,96.71441778383723
2271.2598,93.15092318035204
2272.7162,79.23132633753994
2274.1719,74.25574312321078
2275.6268,84.77428861286262
2277.0811,95.28707713944459
2278.5346,108.29422218816762
2279.9874,103.64583629137542
2281.4395,113.99203089847288
2282.8908,97.13291642241256
2284.3414,104.26860213622422
2285.7914,127.39919634161379
2287.2406,100.92480629760576
2288.689,97.09553798923571
2290.1368,121.11149639229097
2291.5838,103.07278551160834
2293.0302,95.92950814090545
2294.4758,87.78176604317468
2295.9206,67.32966002211379
2297.3648,73.12329000360478
2298.8082,106.91275524023513
2300.251,85.49815425336055
2301.693,95.82958449521084
2303.1343,128.25714256303672
2304.5748,100.88092409579167
2306.0147,89.1010234498599
2307.4538,109.117533972817
2308.8922,109.08054812123191
2310.3299,90.84015726050075
2311.7669,91.84645166521568
2313.2031,90.04952070157196
2314.6387,95.94945281729724
2316.0735,93.89633555962519
2317.5076,69.24025551630348
2318.941,106.43129833611965
2320.3737,86.11954897546366
2321.8056,85.70509132641746
2323.2369,104.93800841987286
2324.6674,104.91838242967151
2326.0972,100.84629448027499
2327.5263,96.77182464696216
2328.9547,98.74505199654959
2330.3823,97.96605462814114
2331.8092,121.83490965339752
2333.2355,94.85169320432306
2334.661,119.36648019458062
2336.0858,113.27934458931941
2337.5098,109.79035916002795
2338.9332,115.19959554539673
2340.3558,112.10712428621446
2341.7778,104.56301477127272
2343.199,108.21733526829303
2344.6195,102.42015299936793
2346.0393,128.42153410442006
2347.4583,133.92154369917716
2348.8767,131.42024561515245
2350.2943,139.96770234464475
2351.7113,135.71397506575886
2353.1275,129.6591235569167
2354.543,138.70320623941006
2355.9578,117.69628023794576
2357.3718,96.93840129020282
2358.7852,105.9796239569041
2360.1978,105.47000182939064
2361.6098,117.60958743920492
2363.021,110.34843226320572
2364.4315,113.68658660214533
2365.8413,118.3740996533079
2367.2504,130.9110194771065
2368.6587,118.99739295021755
2370.0664,93.88326564021281
2371.4733,90.51868192469283
2372.8795,76.75368524242913
2374.285,91.93831812700591
2375.6899,62.97262234447044
2377.0939,67.1066387414894
2378.4973,79.24040753500776
2379.9,83.42396827090397
2381.3019,59.20735970266196
2382.7032,60.94061974952365
2384.1037,72.17378573865881
2385.5035,57.35689438782538
2386.9027,73.73998169305196
2388.3011,83.32308307680341
2389.6987,75.90623322415377
2391.0957,59.8394659869391
2392.492,72.27281445795325
2393.8876,61.30631113158597
2395.2824,50.53998777950892
2396.6765,35.12387556032536
2398.07,51.70800512724418
2399.4627,45.74240678224305
2400.8547,57.52711031022409
2402.246,38.612145038663584
2403.6366,48.997539719777706
2405.0265,24.633322719671924
2406.4156,36.269521914487996
2407.8041,33.65616493404286
2409.1918,34.793279045455165
2410.5789,33.130891179283026
2411.9652,30.719027918157735
2413.3508,45.457715513401126
2414.7358,28.846979909147194
2416.12,42.886846594957206
2417.5035,30.97734077192308
2418.8863,22.46848721227343
2420.2684,26.810310378463328
2421.6497,2.6528345082706437
2423.0304,-5.403916428633238
2424.4104,6.140081510900018
2425.7896,-0.9650937448586774
2427.1682,8.630635670966512
2428.546,20.927357266535182
2429.9232,16.52515846369988
2431.2996,15.924126475044432
2432.6753,29.424348347898558
2434.0503,29.4759109703582
2435.4246,33.42890093627102
2436.7982,15.433404544729456
2438.1711,23.689507760541346
2439.5433,25.74729639418001
2440.9148,15.406856019229053
2442.2856,16.868271951804672
2443.6557,7.631629353956669
2445.025,10.997013219058317
2446.3937,13.314508464168284
2447.7617,14.13419989637623
2449.1289,23.80617218963016
2450.4955,43.130509876534234
2451.8613,25.507297251637283
2453.2265,20.136618178185017
2454.5909,26.068556264352537
2455.9546,36.85319491695054
2457.3177,53.94061728210363
2458.68,37.18090613740969
2460.0416,44.97414372105868
2461.4025,54.92041189943711
2462.7627,34.269792089191014
2464.1222,38.42236515776676
2465.4811,46.72821162991386
2466.8392,73.43741164616176
2468.1966,25.3500448797613
2469.5533,57.36619026958897
2470.9093,59.33592650102355
2472.2645,53.709331685784946
2473.6191,64.03648334223772
2474.973,50.467458451652874
2476.3262,66.00233335494113
2477.6787,67.59118388834167
2479.0305,53.034085228073764
2480.3816,30.631111874445196
2481.7319,58.63233779742632
2483.0816,43.48783666067675
2484.4306,43.7476815415348
2485.7789,31.611945082462626
2487.1264,33.4806994884475
2488.4733,46.65401664835781
2489.8195,25.331968116258395
2491.165,34.71462497967377
2492.5097,38.35205807281045
2493.8538,38.79433788272854
2495.1972,19.641534512969884
2496.5398,16.943717679134352
2497.8818,41.30095690040616
2499.2231,30.713321526535765
2500.5637,25.080880494260782
2501.9035,11.95370243319121
2503.2427,29.031855722128967
2504.5812,26.66540862033935
2505.919,12.104429096772037
2507.256,35.39898485372305
2508.5924,23.549143472445394
2509.9281,26.154972180203913
2511.2631,33.516537968771445
2512.5974,17.2339075683758
2513.9309,31.807147374079705
2515.2638,19.186323608606926
2516.596,45.17150217661083
2517.9275,32.5127487908876
2519.2583,20.41012871251405
2520.5884,23.513706877445657
2521.9178,20.773548017536086
2523.2465,36.08971662950535
2524.5745,15.712277002337942
2525.9018,7.291293064120509
2527.2284,19.926828585821568
2528.5543,10.3689472654969
2529.8796,26.917712601937637
2531.2041,27.023187990246242
2532.5279,55.08543655635003
2533.851,43.75452115594635
2535.1735,44.180504093881154
2536.4952,53.76344723745569
2537.8163,58.45341201216797
2539.1366,44.850459305884215
2540.4562,57.95464942193939
2541.7752,64.41604221516582
2543.0935,63.93469696085094
2544.411,66.36067229012178
2545.7279,68.79402619475968
2547.0441,74.08481600294044
2548.3596,78.28309835490063
2549.6744,84.98892915002898
2550.9885,76.30236350488576
2552.3019,71.37345568614273
2553.6146,82.90225919744898
2554.9266,64.58882682872309
2556.2379,62.483210540858636
2557.5485,67.88546164886338
2558.8585,94.79563084291249
2560.1677,87.96376813433108
2561.4762,91.78992258648896
2562.7841,92.6741423831204
2564.0913,81.86647479006115
2565.3977,95.66696614640614
2566.7035,94.22566197258766
2568.0086,103.74260683237026
2569.313,105.01784434726187
2570.6167,102.35141710134394
2571.9197,108.44336662852083
2573.222,113.04373343918633
2574.5236,116.45255695930064
2575.8246,110.06987548438974
2577.1248,129.0457261454544
2578.4244,141.73014497279928
2579.7232,135.72316670627197
2581.0214,133.97482466842075
2582.3189,152.8351508245628
2583.6157,146.25417580026988
2584.9118,145.08192869276218
2586.2072,126.01843713672042
2587.5019,146.01372731600895
2588.7959,157.26782415430716
2590.0893,161.13075111515764
2591.3819,172.95253008942473
2592.6739,161.9831813566684
2593.9652,164.0227234669228
2595.2557,176.97117335039457
2596.5456,157.6785462970638
2597.8348,162.09485582720345
2599.1234,161.82011388430192
2600.4112,170.10433079089898
2601.6983,160.5475152513368
2602.9848,172.64967426891326
2604.2705,164.71081324145325
2605.5556,161.78093584028784
2606.84,171.21004408964336
2608.1237,173.1481383959367
2609.4067,153.64521745348793
2610.689,154.3012782251326
2611.9707,157.56631613725722
2613.2516,168.49032507323727
2614.5319,150.87329734078867
2615.8115,161.965223562725
2617.0903,152.3160928531288
2618.3685,151.17589270643066
2619.6461,144.49460909390336
2620.9229,149.1722264750597
2622.199,159.0087278644678
2623.4745,167.9540947849755
2624.7493,161.90830716934397
2626.0234,137.97134327079266
2627.2968,148.19317972346062
2628.5695,143.07379178177507
2629.8415,144.56315321822967
2631.1128,141.4612363745823
2632.3835,138.21801214695915
2633.6535,135.68345001687567
2634.9228,139.8575180836665
2636.1914,141.99018308983113
2637.4593,134.43141037929763
2638.7265,126.5811638760897
2639.9931,137.23940615991933
2641.259,130.0560985446882
2642.5242,136.93120097190422
2643.7887,148.51467208251825
2645.0525,133.95646914816962
2646.3156,135.30654795535247
2647.5781,134.11486295099667
2648.8398,139.68136722896725
2650.1009,136.90601254197873
2651.3613,142.2387492459311
2652.6211,137.97952632766646
2653.8801,132.57829135163956
2655.1385,141.2349905025112
2656.3961,148.89956863915995
2657.6531,151.87196920811402
2658.9094,152.3521341669075
2660.1651,134.74000395435405
2661.42,151.48551748574891
2662.6743,150.8386123289879
2663.9279,151.84922453711215
2665.1808,157.7172886547778
2666.433,163.59273770815025
2667.6846,157.17550314622304
2668.9354,156.46551478206447
2670.1856,154.31270085698952
2671.4351,157.96698804765856
2672.6839,174.42830148760686
2673.9321,177.84656473070072
2675.1795,156.77169958652485
2676.4263,171.4536260861987
2677.6724,165.09226269312512
2678.9179,165.3875261561734
2680.1626,170.03933157328947
2681.4067,177.2475923885454
2682.6501,169.81222034562052
2683.8928,181.3831254157176
2685.1348,176.91021587191972
2686.3761,177.69339817347964
2687.6168,167.03257701054963
2688.8568,154.2776552963469
2690.0961,160.22853427376594
2691.3348,148.2851136429249
2692.5727,156.54729150165804
2693.81,144.76496446494912
2695.0466,151.03802758230904
2696.2826,159.16637445560036
2697.5178,157.9998971763075
2698.7524,155.63848624425236
2699.9863,157.03203057925793
2701.2195,154.08041754476517
2702.452,167.08353293389382
2703.6839,167.9412609989622
2704.9151,176.70348432145147
2706.1456,169.07008380343404
2707.3755,167.1909385799479
2708.6046,180.4159260953311
2709.8331,195.24492212201358
2711.0609,190.12780062826596
2712.2881,200.56443362991104
2713.5145,209.6546912414949
2714.7403,204.49844157192206
2715.9654,207.7955506335511
2717.1899,228.0958823937567
2718.4136,236.54929874196068
2719.6367,253.75565928662672
2720.8591,256.6148212707276
2722.0809,257.72663939967924
2723.3019,248.89096581275044
2724.5223,268.65765007194454
2725.7421,272.226539250355
2726.9611,267.197477734499
2728.1795,274.37030718862934
2729.3972,277.3948666050246
2730.6142,251.27099223226082
2731.8306,237.69851754496608
2733.0462,225.82727350505888
2734.2612,205.8570886974751
2735.4756,193.43778944887777
2736.6892,183.5692000273616
2737.9022,161.55114276664267
2739.1145,143.83343816474735
2740.3262,145.1159051041932
2741.5372,124.7483610291622
2742.7475,117.38062193268001
2743.9571,97.36250256028893
2745.1661,86.74381648372605
2746.3744,94.67437630110521
2747.582,72.95399374310159
2748.7889,54.98247959364767
2749.9952,56.409643907137934
2751.2008,58.83529618814282
2752.4057,51.65924537713613
2753.61,41.081299826238364
2754.8136,54.25126737097753
2756.0165,41.81895543607038
2757.2188,38.58417090372018
2758.4204,41.5967202379411
2759.6213,46.25640951690889
2760.8215,43.81304440283202
2762.0211,26.56643009535719
2763.22,19.066371356000673
2764.4182,21.26267268061588
2765.6158,18.355138374392254
2766.8127,9.843572529895027
2768.009,11.47777905613816
2769.2045,6.607561763702506
2770.3994,13.18272434839173
2771.5936,7.353070439934754
2772.7872,0.26840353623470037
2773.9801,-8.971472938336092
2775.1723,-9.816755562088474
2776.3639,-16.167551288319146
2777.5548,-13.773869000937339
2778.745,-13.785556070017265
2779.9346,-22.602322264681106
2781.1235,-26.473739636347318
2782.3117,-19.599154439235463
2783.4992,-7.877648454908012
2784.6861,-6.3581076693740215
2785.8723,5.86066062906275
2787.0579,-1.8700873304060224
2788.2428,-1.4490953771944532
2789.427,3.474911341454117
2790.6106,7.903222154757714
2791.7935,13.487126357186753
2792.9757,2.177913164180154
2794.1573,21.32687165630682
2795.3382,37.83529089235731
2796.5184,52.304459717855025
2797.698,66.73566659996982
2798.8769,74.58019948282845
2800.0551,83.28934564320184
2801.2327,100.96439161205876
2802.4096,114.7566230874761
2803.5859,138.01732475788617
2804.7615,142.59778016415567
2805.9364,157.8492714669785
2807.1106,190.3230794010708
2808.2842,224.67048312265547
2809.4572,238.4427598847251
2810.6294,261.6411846935671
2811.801,300.8670301710431
2812.972,336.87156632260417
2814.1423,369.50606014503387
2815.3119,426.671775266401
2816.4808,473.0199716197153
2817.6491,517.4519048712705
2818.8167,556.5188259571594
2819.9837,604.0719806389588
2821.15,641.8626091130554
2822.3157,692.741945535116
2823.4807,722.7612176421821
2824.645,771.1216462438783
2825.8086,804.1744449222167
2826.9716,830.5708195479922
2828.134,883.8119679502593
2829.2957,919.6990796523635
2830.4567,936.3833353395323
2831.617,957.7159065000037
2832.7767,974.397955258183
2833.9358,963.6306341613165
2835.0941,958.8150860126718
2836.2519,951.2524439792107
2837.4089,934.1938316397448
2838.5653,930.8903630605607
2839.7211,924.3431429660088
2840.8761,933.9032667715355
2842.0306,948.3718206491576
2843.1843,977.7998814318589
2844.3374,1029.9385164689088
2845.4899,1082.4387833315773
2846.6417,1150.9517292917506
2847.7928,1227.2783907969256
2848.9433,1280.5697927850865
2850.0931,1351.72694792143
2851.2422,1439.050856065459
2852.3907,1488.1425035594048
2853.5385,1557.2028623549927
2854.6857,1607.132889522521
2855.8323,1648.6835265602613
2856.9781,1706.9556988951574
2858.1233,1743.4503154673193
2859.2679,1773.118268147301
2860.4118,1813.860431371154
2861.555,1845.0776618437478
2862.6976,1886.9207981313484
2863.8395,1913.640660349445
2864.9808,1942.8380497443202
2866.1214,1950.5137484258496
2867.2614,1969.668519075531
2868.4007,1988.5031048697238
2869.5393,1974.5182292881034
2870.6773,1989.9645959253166
2871.8146,2015.242888630827
2872.9513,1999.953771354454
2874.0874,1997.197887893588
2875.2227,1993.1758620460828
2876.3574,1975.5382976378132
2877.4915,1947.4857785628974
2878.6249,1919.9188689600705
2879.7577,1893.1881134932105
2880.8898,1876.9940376270079
2882.0212,1856.7871478942723
2883.152,1860.8179320578733
2884.2821,1857.78685931281
2885.4116,1840.144380245903
2886.5405,1826.640926866104
2887.6686,1841.8769127809228
2888.7962,1853.1527333314593
2889.923,1834.3187654400472
2891.0493,1855.5253674974917
2892.1748,1854.6728795514111
2893.2997,1878.0116230941715
2894.424,1906.4419010714091
2895.5476,1900.5639976486466
2896.6706,1928.3281779269878
2897.7929,1957.3846880018984
2898.9145,1976.6837546855618
2900.0355,2016.1755852163155
2901.1559,2044.5603670656606
2902.2756,2069.3882675433415
2903.3946,2113.4094335135014
2904.513,2123.773991146401
2905.6308,2153.382045478209
2906.7479,2149.433680307353
2907.8643,2192.978957898442
2908.9801,2211.7679190217505
2910.0953,2221.4505825177603
2911.2098,2221.3269451092783
2912.3236,2193.6969813046044
2913.4368,2191.410643398769
2914.5494,2199.967861749834
2915.6613,2156.9685448017553
2916.7725,2127.9625789988104
2917.8831,2106.899829215592
2918.9931,2087.330139047067
2920.1024,2058.4033310192053
2921.211,2031.1692067846739
2922.319,2021.3275474121083
2923.4264,1991.4281136584511
2924.5331,1994.5206460673714
2925.6391,1976.954865268257
2926.7445,1975.68047194529
2927.8493,1954.297147013106
2928.9534,1957.5045516295354
2930.0569,1961.7023274094379
2931.1597,1957.8900963926294
2932.2619,1949.0674610019012
2933.3634,1944.534004081146
2934.4643,1947.589288983581
2935.5645,1928.6328596170847
2936.6641,1889.2642404136427
2937.763,1868.0329365189132
2938.8613,1825.4884341859126
2939.959,1765.4802009873288
2941.056,1706.4576862409656
2942.1523,1619.9703216098262
2943.248,1550.4175216923368
2944.3431,1471.0486848872215
2945.4375,1378.8631940890295
2946.5313,1284.7604174818239
2947.6244,1175.6397094610363
2948.7169,1081.450411574495
2949.8087,999.6918536136313
2950.8999,923.5133545553745
2951.9904,852.9142233797329
2953.0803,789.7437598315846
2954.1696,734.7512551266643
2955.2582,684.4359925832707
2956.3462,646.1972481721916
2957.4335,611.434291019855
2958.5202,564.6963837907174
2959.6062,558.8327830348924
2960.6916,534.4927396555313
2961.7764,511.8754989674576
2962.8605,501.33030094056767
2963.9439,493.05638042600367
2965.0267,481.55296726160486
2966.1089,485.21928635464747
2967.1905,479.754557796879
2968.2714,487.6079968278559
2969.3516,481.02881388958986
2970.4312,478.81621454801257
2971.5102,498.9693995587686
2972.5885,503.68756488934036
2973.6662,498.9699015175174
2974.7432,502.9655953842139
2975.8196,492.07382744064535
2976.8954,481.6437736083724
2977.9705,478.07460488821766
2979.045,468.46548746456597
2980.1188,455.81558274105805
2981.192,443.67404743667953
2982.2645,432.09003371226163
2983.3364,413.6626892918948
2984.4077,389.34115757877066
2985.4783,362.22457783945356
2986.5483,343.7620854470979
2987.6177,314.952812152613
2988.6864,281.1458862692866
2989.7545,250.99043296087916
2990.8219,237.68557457969314
2991.8887,213.13043096812635
2992.9548,165.7741195917215
2994.0204,158.16575578471748
2995.0852,130.40445322361188
2996.1495,116.73932400324452
2997.2131,87.01947891441114
2998.276,74.99402758051451
2999.3383,60.96207875476307
3000.4,43.72274044042581
3001.4611,43.425120031151664
3002.5215,17.018324483363017
3003.5812,7.601460319231478
3004.6404,8.023633890744918
3005.6989,-3.066048526122586
3006.7567,-5.218480735632738
3007.8139,-12.084525912223285
3008.8705,-4.464995097709107
3009.9264,-19.160578609492177
3010.9818,-4.971922159674023
3012.0364,-5.149480046175995
3013.0905,-9.293656897418032
3014.1439,-13.154805898514724
3015.1966,-2.6831873909486603
3016.2487,-6.128930299692229
3017.3002,2.907863255323946
3018.3511,6.377152382182317
3019.4013,12.978896159887427
3020.4509,8.663053603672779
3021.4998,20.029583598982185
3022.5481,27.37844494462945
3023.5958,28.909596239133407
3024.6428,22.57299580722895
3025.6892,42.76860168455562
3026.735,41.29637168102329
3027.7802,45.40626317885574
3028.8247,43.44823314731309
3029.8685,49.82223810159337
3030.9118,59.32823412241419
3031.9544,62.01617679227104
3032.9963,76.4860211003786
3034.0376,78.18772141578881
3035.0783,85.321231342695
3036.1184,94.83650370341275
3037.1578,109.68349046704577
3038.1966,108.61214265433307
3039.2348,111.6224101891795
3040.2723,115.31424190936923
3041.3092,118.7875855364631
3042.3455,117.64238763887897
3043.3811,118.17859359715987
3044.4161,121.84614761542525
3045.4505,121.64499271600857
3046.4842,117.82507070278302
3047.5173,110.48632216317219
3048.5498,124.72868650634962
3049.5816,110.55210203662591
3050.6128,108.25650581102525
3051.6434,97.29183378105176
3052.6734,106.60802081564452
3053.7027,106.85500081082478
3054.7314,103.33270659653351
3055.7594,100.74106993416274
3056.7868,99.78002155177694
3057.8136,95.99949117003098
3058.8398,101.7494075117794
3059.8653,97.67969833988263
3060.8902,92.24029039970708
3061.9145,91.6311094598226
3062.9381,92.55208036639635
3063.9612,82.65312704928454
3064.9835,86.5341725128228
3066.0053,83.84513893481665
3067.0264,74.48594762772962
3068.0469,80.15651906557434
3069.0668,76.90677297750449
3070.086,67.13662829110876
3071.1046,71.9960031649083
3072.1226,61.88481508605764
3073.1399,58.75298082175186
3074.1567,49.00041652033849
3075.1727,46.027037742635116
3076.1882,44.23275955945576
3077.203,46.5174965813444
3078.2173,33.43116297651795
3079.2308,33.27367244801803
3080.2438,27.444938364575705
3081.2561,17.944873762184784
3082.2678,16.523391402390985
3083.2789,10.980403867291216
3084.2893,15.865823573748798
3085.2991,8.079562828823668
3086.3083,5.121533780917957
3087.3169,7.241648497637925
3088.3248,-0.010181004625223977
3089.3321,0.46595721810388113
3090.3388,-0.8800247884919372
3091.3449,-0.39821498338881156
3092.3503,4.5113074658841015
3093.3551,1.7984673699650102
3094.3593,-4.136810505620474
3095.3629,6.355398586668571
3096.3658,-6.574939278890099
3097.3681,-4.827858091572637
3098.3698,-0.653326157012259
3099.3708,3.1987364494602275
3100.3713,-4.471583820758099
3101.3711,0.18579945174309387
3102.3702,-0.728982642504036
3103.3688,4.834199130896081
3104.3667,-0.5245187111250402
3105.364,-2.2049996999775203
3106.3607,7.842897872870083
3107.3568,-1.080662256103949
3108.3522,-0.6255164288497781
3109.347,-0.441490191501714
3110.3412,7.921597158714803
3111.3348,6.363930735061103
3112.3277,4.385695571582801
3113.32,6.037076638686358
3114.3117,0.41825886292167525
3115.3028,4.12942711046793
3116.2932,5.170762069098032
3117.2831,9.542444385290935
3118.2723,12.344654653818282
3119.2608,13.177573374027702
3120.2488,12.941380921820837
3121.2361,8.636257541323914
3122.2229,18.112383347249647
3123.209,17.369938367948578
3124.1944,22.209102450647435
3125.1793,19.180055268873843
3126.1635,23.132976274064276
3127.1471,20.36804472585493
3128.1301,22.235439652552543
3129.1125,17.135339878782986
3130.0942,26.91792400681834
3131.0753,27.633370467576697
3132.0558,26.281857422797657
3133.0357,31.213562757886848
3134.015,23.52866409543168
3134.9936,35.07733874588399
3135.9716,30.259763784409245
3136.949,34.8261159353998
3137.9258,37.97657162065053
3138.902,32.01130691369519
3139.8775,41.23049750830222
3140.8524,39.18431877812691
3141.8267,38.322945684519766
3142.8004,38.646552796988374
3143.7735,44.05531430181128
3144.7459,50.149403998801176
3145.7178,49.22899524721788
3146.689,45.14426090482732
3147.6596,50.995373337105946
3148.6295,48.682504458087465
3149.5989,50.75582567185205
3150.5676,47.715507895655264
3151.5357,52.411721539194275
3152.5032,54.594636535011375
3153.4701,55.5644222915318
3154.4364,49.77124767123462
3155.402,57.2152809809545
3156.367,57.14669002981395
3157.3315,57.61564205478271
3158.2952,53.27230372136381
3159.2584,58.31684111890377
3160.221,58.7994198040264
3161.1829,58.420204750187
3162.1442,62.2293603428468
3163.105,63.67705038326511
3164.065,62.86343805040747
3165.0245,67.73868588646917
3165.9834,65.00295580501137
3166.9416,70.5564090422086
3167.8993,68.499206184206
3168.8563,72.13150711158468
3169.8127,71.85347101993398
3170.7684,68.36525638352819
3171.7236,70.66702095810692
3172.6782,77.20892181575715
3173.6321,72.69111532189586
3174.5854,75.0137570698509
3175.5381,78.67700192603891
3176.4902,80.08100400673925
3177.4417,83.62591664146137
3178.3926,80.26189235890476
3179.3428,86.58908285150983
3180.2924,87.90763900909826
3181.2415,93.16771085560089
3182.1899,85.56944753587265
3183.1377,90.76299726309134
3184.0848,88.2485073947405
3185.0314,88.57612438067369
3185.9773,93.09599378825959
3186.9227,92.55826029910571
3187.8674,94.61306766385943
3188.8115,99.51055870758591
3189.755,101.9008753092196
3190.6979,100.98415835258942
3191.6402,96.06054770251552
3192.5818,97.88018221397658
3193.5229,100.79319978134578
3194.4633,99.0497373201946
3195.4031,101.39993073816251
3196.3423,100.74391495239183
3197.2809,111.7318238660256
3198.2189,114.11379037476797
3199.1563,116.43994625700483
3200.0931,112.7604221499841
3201.0292,113.87534752655449
3201.9648,118.03485073196032
3202.8997,117.73905897269279
3203.834,122.78809827489434
3204.7677,120.63209348731718
3205.7008,117.7211682308324
3206.6333,128.65544491999026
3207.5652,122.23504479212943
3208.4964,129.36008779803444
3209.4271,120.73069266613913
3210.3571,124.5969768312768
3211.2865,132.20905652097366
3212.2154,133.66704671678636
3213.1436,127.82106107818097
3214.0712,133.27121192795323
3214.9982,134.8676103106883
3215.9246,135.4603659382593
3216.8503,136.59958717386317
3217.7755,136.2353810260934
3218.7001,141.01785313754743
3219.624,141.74710778846918
3220.5473,139.4732478489238
3221.4701,143.4463747715056
3222.3922,142.8665886140763
3223.3137,151.08398800003394
3224.2346,149.4986701241107
3225.1549,153.1607306701989
3226.0746,147.32026382720414
3226.9937,150.3773622524248
3227.9121,152.68211712995668
3228.83,157.73461814012182
3229.7473,161.08495343642133
3230.6639,157.58320959500998
3231.5799,154.67947158119307
3232.4954,158.5738227844438
3233.4102,164.51634504744067
3234.3244,160.80711862712397
3235.238,163.09622213527058
3236.151,167.93373257558613
3237.0634,168.51972532081413
3237.9752,170.8542740643607
3238.8864,168.33745081443493
3239.797,173.56932587070304
3240.7069,180.34996784945685
3241.6163,169.3294436312949
3242.5251,176.20781829331614
3243.4332,176.38515521932496
3244.3408,177.71151603104772
3245.2477,174.4369605863591
3246.154,181.2615469660188
3247.0598,181.18533150641684
3247.9649,187.30836873132782
3248.8694,184.73071135267296
3249.7733,181.85241020928999
3250.6766,186.97351429270935
3251.5793,190.24407077593756
3252.4814,186.71412496224582
3253.3829,191.83372025246473
3254.2838,186.95289818028363
3255.1841,192.37169836105465
3256.0838,195.69015854060095
3256.9829,201.65831454102877
3257.8814,197.52620022754263
3258.7792,197.24384744876397
3259.6765,198.36128607805225
3260.5731,197.52854401632837
3261.4692,200.9456471809005
3262.3647,199.56261951379116
3263.2595,200.92948294756647
3264.1538,204.9462574191664
3265.0474,201.51296085623594
3265.9404,200.22960913695758
3266.8329,199.79621612438422
3267.7247,200.01279367927256
3268.616,198.02935166441722
3269.5066,197.49589794248482
3270.3966,199.01243839584853
3271.286,191.72897693192243
